Media,Varianza,Desviacion,Rms,IEMG,LongitudFO,Estado
-6.33498627744511e-06,0.000155738194307643,0.0124795109803086,0.0124670517669751,4.276611328125,1.011474609375,1
-1.70557322854291e-05,0.000241168803559568,0.0155296105411426,0.0155141135615338,5.602294921875,1.266357421875,1
-0.000366454590818363,0.00507354393595469,0.0712288139446017,0.0711586353910635,28.4619140625,5.9482421875,1
-0.0011510182759481,0.00973696830077561,0.0986760776519599,0.0985842689143586,38.1640625,9.675048828125,1
0.000455144398702595,0.0133106225455355,0.115371671330251,0.115257371100879,46.16064453125,10.968017578125,1
0.00157253851671657,0.0104476606265276,0.102213798611183,0.102123845843608,42.005126953125,9.97509765625,1
0.000231957959081836,0.00842392918497264,0.0917819654669295,0.091690614348238,37.09423828125,9.28173828125,1
-0.00232347804391218,0.0114250172502742,0.106887872325509,0.106806420101254,43.92626953125,10.723876953125,1
0.00013693316492016,0.0150239166490094,0.122572087560788,0.122449775590314,49.817138671875,12.906494140625,1
0.0011417594498503,0.0233896729489286,0.15293682666032,0.152788384995784,62.507080078125,15.294677734375,1
-0.000257297904191617,0.0353073732310426,0.187902563130583,0.187715118289364,74.89892578125,17.24609375,1
0.00151308710703593,0.024454947881356,0.156380778490695,0.156231959095216,58.520751953125,14.01416015625,1
0.000624727108283433,0.00176388162529159,0.0419985907536383,0.0419613058357869,15.35205078125,3.971435546875,1
-0.00273427753867265,0.00525091147898676,0.0724631732605381,0.0724424384695169,28.646240234375,6.619873046875,1
0.000743142621007984,0.00926240027355339,0.0962413646700492,0.0961481393975527,37.465576171875,9.447021484375,1
0.00491789857784431,0.0264837121549481,0.162738170553033,0.162650042054904,65.64501953125,16.526123046875,1
-0.00487599020708583,0.0544742993842104,0.233397299436412,0.233215230052016,92.05517578125,22.408935546875,1
0.00421910086077844,0.0738545641085345,0.271761962217921,0.271523388718155,112.498046875,26.659912109375,1
4.97052769461078e-05,0.0406877142469326,0.201711958611612,0.201510554847775,81.72802734375,19.198974609375,1
-0.00128015453468064,0.0255749054302474,0.159921560242037,0.159767006952157,64.726318359375,15.466796875,1
0.000214414920159681,0.000980154940230166,0.0313074262792419,0.0312769006920741,10.34228515625,2.6787109375,1
0.000142780844560878,0.00309171910818941,0.0556032292964124,0.0555478928361343,19.910400390625,4.87060546875,1
-0.000386434162924152,0.00629377720503512,0.0793333297236106,0.0792550572950801,31.182373046875,7.474365234375,1
-0.000772381019211577,0.0208937783931306,0.144546803469086,0.144404538768974,56.934326171875,15.217529296875,1
0.00592759792914172,0.0603581534478955,0.245678964194934,0.245505222976868,95.45654296875,21.810546875,1
-0.00720629054391218,0.0914370082742916,0.302385529207817,0.302169538337575,118.4794921875,26.985595703125,1
-0.00141465116641717,0.0447752990513267,0.211601746333358,0.211395194919032,83.333251953125,20.596923828125,1
0.00845330822729541,0.0307140764538162,0.175254319358514,0.175283283093334,72.032958984375,16.999267578125,1
-0.00283466270583832,0.0101822699429746,0.100907234344098,0.100846325483523,30.855712890625,7.373291015625,1
0.000329906593063872,0.00857220461030682,0.0925862009713479,0.0924943417719378,29.948486328125,7.070556640625,1
-0.00151796017340319,0.00878321901386132,0.0937188295587462,0.0936375557224354,34.752685546875,7.211669921875,1
-0.00186199865893214,0.0114730268957134,0.107112216370092,0.107021463648347,41.098388671875,11.448974609375,1
0.00206081976671657,0.042092138947603,0.205163688179958,0.204969192027264,77.415283203125,19.821533203125,1
-0.00179913610279441,0.0491273201330455,0.221646836505838,0.221432830674546,93.2919921875,22.715087890625,1
0.00164368528567864,0.0653502996158219,0.255637046641957,0.255387081892073,101.486572265625,24.481201171875,1
0.0033794715256986,0.047323117320885,0.217538771994523,0.217347833733571,86.228759765625,20.21875,1
-0.000112080526447106,0.0461438837541553,0.214811274737048,0.214596814412079,79.021484375,17.652587890625,1
-0.000912725330588822,0.000538478701890348,0.023205143867047,0.0231999345178223,7.552978515625,1.73583984375,1
0.000117928206087824,0.00454968370268207,0.0674513432237051,0.0673840960817053,24.02490234375,5.8125,1
0.000399591442115768,0.00718859337380308,0.084785572910744,0.0847018568707654,32.29638671875,8.369384765625,1
-0.000741193394461078,0.0417034944717042,0.204214334638155,0.204011772531451,74.860595703125,18.23828125,1
0.00182155220808383,0.0530825691808484,0.230396547675629,0.230173703974623,87.6748046875,20.05615234375,1
-0.000136445858283433,0.0513548588172166,0.226616104496606,0.226389868868885,94.3447265625,21.686767578125,1
0.00035134808507984,0.0795131994954602,0.281980849519006,0.281699510045559,114.394775390625,24.8544921875,1
-0.00608109951971058,0.0689195461006697,0.262525324684438,0.262333684279708,101.261474609375,21.023193359375,1
0.00255543600299401,0.0476738425143465,0.218343405016837,0.218140357103457,83.94091796875,15.76171875,1
0.00115150558258483,0.00121843001276195,0.0349060168561518,0.0348901702752397,12.881103515625,2.539794921875,1
-0.000174455775948104,0.0055385813931981,0.0744216459989841,0.074347540479392,27.646484375,6.045654296875,1
-0.00025681059755489,0.0103996678174375,0.101978761599842,0.101877259234461,41.059326171875,8.964111328125,1
-0.00232104151072854,0.0303939956695496,0.174338738292869,0.174180125861767,68.754150390625,16.480224609375,1
-0.00123337309755489,0.0703470719636319,0.265230224453458,0.264968261977802,111.134521484375,26.132080078125,1
0.00265289733033932,0.0979193618345165,0.312920695759351,0.312619500144743,131.974609375,24.962890625,1
0.00116856131487026,0.0518306200680381,0.227663392024361,0.227439071560081,94.7333984375,18.4814453125,1
-0.00127089570858283,0.0500608870773734,0.223742903970994,0.223523109147536,90.08447265625,17.203857421875,1
0.00608840911926148,0.0577813431122108,0.240377501260436,0.240214653623867,88.7734375,15.110107421875,1
-0.00101457241766467,0.00764451931193917,0.0874329418007834,0.0873515320274873,31.1005859375,6.104248046875,1
0.000326495446606786,0.000424242733957287,0.0205971535401688,0.0205791773730097,8.21484375,1.96826171875,1
0.0004332156000499,0.0194619047061174,0.139505930720229,0.139367307015296,48.531005859375,9.763916015625,1
0.000872278879740519,0.0137815612066768,0.117394894295607,0.117280919040225,44.97412109375,10.559326171875,1
0.000727548808632735,0.0202726495028018,0.142382054707754,0.142241746543712,58.675048828125,13.270751953125,1
-0.000760198353293413,0.066597830356952,0.258065554379022,0.257808996075344,103.2109375,22.6123046875,1
-0.000670533932135729,0.150297620631026,0.387682370802472,0.387295849443316,160.3427734375,30.953125,1
-0.00558258483033932,0.212774077897062,0.461274406288775,0.460847636852108,186.8369140625,38.235595703125,1
-0.00484285335578842,0.0473718178962281,0.217650678602728,0.217487279163897,89.580078125,17.136962890625,1
0.00604065306886228,0.0352548610907115,0.187762778768081,0.187672538204173,74.55859375,15.255859375,1
-0.00102042009730539,0.0224185852804584,0.149728371661681,0.149582348097705,54.1328125,8.9287109375,1
-0.000970227513722555,0.000659459908327419,0.0256799514860799,0.0256726500874692,8.302490234375,1.89501953125,1
-0.000660300492764471,0.00762759021275534,0.0873360762386045,0.0872513694937363,30.249755859375,6.270751953125,1
-0.000315774700598802,0.0264318566165285,0.162578770497653,0.162416742158407,61.6103515625,12.275390625,1
0.00299108813622755,0.0281667726411077,0.167829594056316,0.167688694151604,65.77734375,13.8154296875,1
-0.00404561969810379,0.0600337918680347,0.245017941930861,0.24480672167834,95.7255859375,20.9404296875,1
0.00445398265968064,0.078862521444728,0.280824716584435,0.280579666376265,112.10107421875,22.112548828125,1
0.00135081399700599,0.0994293449767336,0.315324190281579,0.315012234538228,129.990234375,23.5712890625,1
-0.00378734718063872,0.0698098565537534,0.26421554941705,0.263978899765445,108.22900390625,20.068115234375,1
0.00232445265718563,0.0372862738406587,0.193096540208929,0.1929177369257,73.42822265625,12.94140625,1
7.35833021457086e-05,0.0053933398114469,0.0734393614586,0.0733660689735044,21.846923828125,3.165771484375,1
4.87306636726547e-06,0.000549437975931072,0.0234400933430537,0.023416688858401,7.60302734375,1.66064453125,1
0.000753376060379241,0.0175076817642905,0.132316596707633,0.132186625144889,40.3125,7.164306640625,1
0.0014243972991517,0.0128373967706562,0.113302236388591,0.113198065936983,43.631591796875,9.135498046875,1
-0.00260221744011976,0.0276917665761388,0.166408433007882,0.166262638991947,64.4765625,14.190673828125,1
0.000710005769710579,0.0476229555340346,0.21822684421041,0.218010100322803,88.247802734375,18.592529296875,1
-0.000670046625499002,0.0739544810411221,0.271945731794272,0.271675019589563,108.531005859375,21.0419921875,1
-0.00710151961701597,0.137379860178915,0.370647892451738,0.370345893000076,151.984619140625,25.793212890625,1
0.00823450754740519,0.0676439191200538,0.260084446132509,0.259955204664125,107.23779296875,19.421630859375,1
0.00714050414795409,0.0434956080090262,0.208556006887901,0.208470087129201,82.997314453125,14.33544921875,1
-0.00440525199600798,0.0284939671795287,0.168801561543514,0.168690542825287,65.259765625,9.847412109375,1
-0.00284148499875249,0.0057925481329897,0.0761087914303577,0.0760858738378321,18.653564453125,2.7734375,1
0.000570636071606786,0.000426192997934338,0.0206444423013638,0.0206317216643193,6.453369140625,1.419189453125,1
-0.00114322136976048,0.0589630764173176,0.242823138142389,0.242583372474549,82.2841796875,14.03271484375,1
0.00168120789670659,0.0170680010932648,0.13064456013652,0.130524938945794,48.119140625,8.193603515625,1
-0.00020174494760479,0.0199689941277761,0.141311691405121,0.14117073548398,57.1865234375,11.3740234375,1
-0.00118269320733533,0.0166889419384345,0.129185687823514,0.129062114659194,52.375244140625,10.71875,1
0.000213440306886228,0.0246707924697214,0.15706938743664,0.156912698427323,57.1181640625,10.6025390625,1
0.00127625608158683,0.0858162167143679,0.292944050484675,0.292654327988213,117.688720703125,22.063720703125,1
0.00463184958208583,0.0797316565047243,0.282367945250031,0.282124025053365,114.298583984375,20.90673828125,1
-0.000646168600299401,0.080008704479583,0.282858099547429,0.282576403828256,113.19384765625,18.52099609375,1
-0.000306028567864271,0.0572731815345749,0.239318159642295,0.239079395725448,95.9345703125,15.362548828125,1
-0.00744458348927146,0.0481969927818238,0.219538135142448,0.219445239234652,89.295654296875,14.9658203125,1
0.00512451659181637,0.0290026084125161,0.17030152204991,0.170208635635407,62.6982421875,8.345703125,1
-0.00323522876122755,0.00151018003360954,0.038861034901422,0.0389568018110137,13.752685546875,2.41845703125,1
0.000944887568612774,0.0327400768478949,0.180942192005886,0.180763990345495,70.948974609375,11.35693359375,1
0.000675894305139721,0.0230132225920816,0.151701096212525,0.15155112948824,59.297607421875,9.41064453125,1
0.00235369105538922,0.00848559729210631,0.092117301806481,0.092055417188486,34.271484375,6.661865234375,1
0.000267531343562874,0.000695306229734135,0.0263686599912498,0.0263436893006281,9.515869140625,1.841796875,1
0.00156474161052894,0.00196395148250633,0.0443164922179806,0.0442998852817332,16.412841796875,2.907470703125,1
-0.00128990066741517,0.00529844376474559,0.0727904098404838,0.0727291679618296,26.349365234375,4.937744140625,1
0.000869842346556886,0.00975329175823463,0.0987587553497645,0.0986639789169404,31.961669921875,5.51025390625,1
0.000381561096556886,0.00588082733982338,0.0766865525357828,0.0766109310109907,28.504638671875,5.55224609375,1
-0.000685640437874251,0.000823412609671404,0.0286951670089478,0.0286747131518067,8.296142578125,1.619140625,1
0.000169582709580838,2.79448360740068e-05,0.00528628755120328,0.00528373128134649,1.80908203125,0.517822265625,1
6.72483158682635e-05,7.88687232011807e-07,0.000888080644993351,0.000889738917878118,0.33740234375,0.25439453125,0
0.000101359780439122,1.01371344454036e-06,0.00100683337476484,0.00101092228657905,0.388671875,0.278076171875,0
6.38371694111777e-05,1.10730487191511e-06,0.00105228554675768,0.00105317133779288,0.407470703125,0.3291015625,0
-3.16749313872255e-05,3.10795982916674e-05,0.00557490791777473,0.00556943143117995,1.947998046875,0.51025390625,0
0.000169582709580838,0.000196148666793001,0.0140053085218784,0.0139923518674815,5.56787109375,1.18359375,0
-9.11263410678643e-05,9.79300977703102e-05,0.00989596371104453,0.00988650254252332,3.558837890625,0.8837890625,0
0.000115978979540918,2.24336311964694e-05,0.00473641543748744,0.00473310728942264,1.39208984375,0.48876953125,0
0.00016081119011976,1.82133477605032e-05,0.00426770989647881,0.00426648028377315,1.13671875,0.435791015625,0
0.00012133935254491,1.70960968839908e-06,0.00130752043517456,0.00131183860756096,0.508544921875,0.34228515625,0
0.000142780844560878,1.07141074068294e-06,0.00103508972590928,0.00104386712078879,0.405029296875,0.31396484375,0
0.000195897267964072,1.03562320777756e-06,0.00101765574128856,0.00103534140996203,0.40673828125,0.337158203125,0
0.000212465693612774,9.87358911784585e-07,0.000993659353996421,0.00101515013986893,0.40283203125,0.33447265625,0
0.00021587684006986,2.72742336143753e-06,0.00165149125381805,0.00166390571028253,0.510986328125,0.37646484375,0
0.000211003773702595,1.35144835222743e-06,0.00116251810834388,0.0011803700449618,0.458251953125,0.322509765625,0
0.000117440899451098,5.52714703801626e-06,0.00235098852358242,0.00235157546620629,0.832763671875,0.36572265625,0
0.000191511508233533,1.81635839496544e-06,0.00134772341189335,0.00135992999337948,0.542724609375,0.327392578125,0
0.000158374656936128,1.26769204815467e-06,0.00112591831326907,0.00113588919207152,0.457275390625,0.328857421875,0
0.00017494308258483,1.03780656993508e-06,0.00101872791752022,0.00103263748812441,0.406982421875,0.261474609375,0
0.000120852045908184,1.32599324285389e-06,0.0011515177996253,0.00115669864993203,0.4677734375,0.330322265625,0
0.000214414920159681,1.2289968555321e-06,0.0011086013059401,0.00112805918549657,0.458984375,0.343017578125,0
0.000213927613522954,1.30347339455001e-06,0.00114169759330131,0.00116044675667397,0.464599609375,0.309814453125,0
0.000216364146706587,1.23030125737904e-06,0.00110918945964116,0.00112900797615722,0.46240234375,0.3388671875,0
0.000146191991017964,1.33447161691631e-06,0.00115519332447704,0.00116326269567638,0.4541015625,0.31103515625,0
0.000176892309131737,1.29294252681161e-06,0.00113707630650349,0.00114963154629436,0.445556640625,0.3076171875,0
0.000215389533433134,1.31822251036258e-06,0.00114813871564484,0.00116704069287223,0.47265625,0.321533203125,0
0.000167633483033932,1.38828759183903e-06,0.00117825616562742,0.0011889564934663,0.4794921875,0.354248046875,0
0.000240729478542914,1.47663381047354e-06,0.00121516822311709,0.00123759327706556,0.50634765625,0.33837890625,0
0.000191024201596806,1.41588275779983e-06,0.00118990871826365,0.00120397129953604,0.470703125,0.314208984375,0
0.000168120789670659,1.68865026828058e-06,0.00129948076872287,0.00130902418189365,0.515380859375,0.3203125,0
0.000157887350299401,1.95031965564111e-06,0.00139653845476632,0.0014040495779785,0.57470703125,0.361083984375,0
0.000183227295409182,1.62289290133113e-06,0.00127392813821311,0.00128577829967915,0.5283203125,0.33935546875,0
0.000158861963572854,1.80767443841565e-06,0.00134449783875455,0.00135251744139374,0.54736328125,0.342529296875,0
0.000216364146706587,1.47944867254017e-06,0.0012163258907629,0.00123422409843508,0.5087890625,0.333984375,0
0.000106720153443114,1.84098118079637e-06,0.00135682761646289,0.00135966751774541,0.526611328125,0.345458984375,0
0.00017494308258483,1.79883867442727e-06,0.00134120791618126,0.0013512413774805,0.550048828125,0.3671875,0
0.000181278068862275,1.79860406293127e-06,0.00134112045056783,0.00135198956102182,0.54833984375,0.34912109375,0
0.000200283027694611,1.52585891906373e-06,0.0012352566207326,0.00125017062181979,0.482666015625,0.266357421875,0
0.000151552364021956,1.51061345479208e-06,0.00122907015861263,0.00123716061096212,0.497314453125,0.293212890625,0
0.000226110279441118,1.57454818070768e-06,0.00125481001777467,0.00127378617846037,0.51953125,0.35546875,0
0.000102334393712575,1.49774265860369e-06,0.00122382296865343,0.00122687631016155,0.49072265625,0.32470703125,0
0.00023147065244511,1.96822293980155e-06,0.00140293369045068,0.00142051857222731,0.562744140625,0.3515625,0
0.000175917695858283,1.75629594844734e-06,0.00132525316390769,0.00133556632311091,0.544677734375,0.3525390625,0
0.000232932572355289,1.42072965047079e-06,0.00119194364399949,0.00121332248228134,0.48974609375,0.32568359375,0
9.79486339820359e-05,1.51042452829327e-06,0.0012289932987178,0.00123166701822143,0.475830078125,0.298583984375,0
0.000210029160429142,1.72713036070803e-06,0.00131420331787286,0.00132958461293336,0.524658203125,0.326416015625,0
0.000172019242764471,2.00203412069294e-06,0.001414932549874,0.00142394826608448,0.574462890625,0.328125,0
0.000202232254241517,1.75013989507557e-06,0.00132292852984414,0.00133699083262655,0.536376953125,0.312744140625,0
0.000180303455588822,1.59367877328229e-06,0.00126240990699625,0.00127397296432228,0.50244140625,0.349609375,0
0.000188587668413174,1.89758060935015e-06,0.00137752699042529,0.0013890134383731,0.551513671875,0.372314453125,0
0.000162760416666667,1.74776713053385e-06,0.00132203144082652,0.0013307026439519,0.53271484375,0.37451171875,0
0.000182252682135729,2.1880634292633e-06,0.00147921040736715,0.00148892984298609,0.603515625,0.3349609375,0
3.75226110279441e-05,2.5588471494511e-06,0.00159963969363451,0.00159848291090309,0.581298828125,0.364990234375,0
0.000245115238273453,2.12454700660325e-06,0.00145758258997672,0.00147661365084082,0.578857421875,0.37255859375,0
0.000189562281686627,1.6070559115229e-06,0.00126769708981401,0.00128053975874666,0.518310546875,0.348876953125,0
0.000176892309131737,1.43456316279794e-06,0.00119773250886746,0.00120954150499326,0.468505859375,0.33544921875,0
0.000190049588323353,1.66373338528022e-06,0.00128985789344417,0.0013025096568478,0.52392578125,0.34423828125,0
0.000195897267964072,1.44069637367111e-06,0.00120029012062547,0.0012149882599443,0.48583984375,0.354736328125,0
0.000205156094061876,1.82094878541257e-06,0.00134942535377566,0.00136359934732644,0.545166015625,0.34375,0
0.000169582709580838,1.77935069192669e-06,0.00133392304572891,0.00134333815144512,0.54248046875,0.37548828125,0
0.000175430389221557,1.75324885431164e-06,0.00132410303764913,0.00133436321032276,0.5498046875,0.369384765625,0
0.000149115830838323,1.92369244055834e-06,0.00138697240079186,0.00139358826993297,0.55615234375,0.35791015625,0
0.000217826066616766,1.78410764225943e-06,0.00133570492334925,0.00135203355892479,0.543701171875,0.36865234375,0
0.000211491080339321,1.62721156122204e-06,0.00127562202913796,0.00129177866177501,0.52880859375,0.36474609375,0
0.000202719560878244,2.02805743721907e-06,0.0014240988158197,0.00143704719433461,0.5888671875,0.359375,0
0.000229521425898204,1.57549424085788e-06,0.00125518693462682,0.00127476649890114,0.510986328125,0.31494140625,0
0.000119390125998004,2.04076643237573e-06,0.00142855396551048,0.0014321127918111,0.560791015625,0.365478515625,0
0.000171531936127745,1.85068686327297e-06,0.00136039952340221,0.00136982337643569,0.564453125,0.345947265625,0
0.000173481162674651,2.31397556449601e-06,0.00152117571782355,0.0015295269087523,0.619140625,0.37255859375,0
0.000186638441866267,1.67968363581065e-06,0.00129602609380006,0.00130811501093948,0.527587890625,0.373779296875,0
0.000145704684381238,2.27243362548584e-06,0.00150745932797069,0.00151298634655995,0.605712890625,0.364990234375,0
0.000223186439620758,1.73322074189633e-06,0.00131651841684662,0.00133400652408,0.5458984375,0.35205078125,0
0.000224161052894212,1.37825545198665e-06,0.00117399124868401,0.00119404883515503,0.49072265625,0.30126953125,0
0.000215389533433134,1.1844696874866e-06,0.00108833344499129,0.00110837634747683,0.4375,0.332763671875,0
0.000195897267964072,2.67117466041428e-06,0.00163437286456129,0.00164445088526874,0.6318359375,0.346435546875,0
0.000206130707335329,1.25382617562117e-06,0.00111974379909923,0.00113745918479329,0.458740234375,0.3359375,0
0.000168608096307385,1.04892801143928e-06,0.00102417186616274,0.00103694890563334,0.40966796875,0.32470703125,0
0.000213927613522954,1.78841678444259e-06,0.0013373170097036,0.00135300115080871,0.524169921875,0.330810546875,0
0.000194922654690619,1.30994781524597e-06,0.00114452951698328,0.00115988274849647,0.45263671875,0.345703125,0
5.26291167664671e-05,8.25652105365685e-06,0.0028734162687743,0.00287102957066712,0.7900390625,0.35205078125,0
-0.000144242764471058,0.000136306419106063,0.0116750340087754,0.0116642683602682,4.6865234375,0.918701171875,0
0.0004332156000499,0.000693995417711026,0.02634379277384,0.0263210537986707,10.338134765625,2.09814453125,0
0.000225135666167665,0.000575837369450552,0.0239966116243638,0.0239737080889003,9.7099609375,2.072265625,0
3.31368512974052e-05,8.74300921510555e-05,0.00935040598856839,0.00934112836010679,2.8515625,0.716064453125,0
0.000356708458083832,5.61407197735267e-05,0.007492711109707,0.00749372426585726,2.9658203125,0.712158203125,0
4.87306636726547e-05,3.99677801037025e-05,0.00632200760073116,0.00631588305568536,2.453125,0.623291015625,0
0.000211978386976048,6.39363891350295e-05,0.0079960233325716,0.00799085142074302,2.780517578125,0.664306640625,0
0.000254861371007984,2.35728065886659e-05,0.00485518347631332,0.0048570268062819,1.828369140625,0.5419921875,0
1.70557322854291e-05,3.21317380535864e-05,0.00566848639881816,0.00566285208582163,1.921630859375,0.5283203125,0
0.000244627931636727,4.54596278672209e-05,0.00674237553590876,0.00674008404339172,1.83642578125,0.5068359375,0
0.000161785803393214,1.10125446509934e-06,0.00104940672053277,0.0010607690599627,0.42041015625,0.3369140625,0
0.000188587668413174,1.13774059775347e-06,0.00106664923838789,0.00108214369060403,0.423583984375,0.328125,0
0.000184689215319361,1.08817713465281e-06,0.00104315729142484,0.00105835496439488,0.417236328125,0.349853515625,0
0.000210029160429142,9.90655369863301e-07,0.000995316718368229,0.00101626289023372,0.403564453125,0.337158203125,0
0.000170557322854291,9.23811080688964e-07,0.000961150914627335,0.000975221486009919,0.3828125,0.314208984375,0
0.000233419878992016,1.03772091056534e-06,0.00101868587433288,0.00104409503937683,0.418212890625,0.326171875,0
0.000248039078093812,1.05474856561291e-06,0.00102700952557068,0.00105554093398429,0.417236328125,0.34033203125,0
0.000219287986526946,1.09956364431781e-06,0.00104860080312663,0.00107025984113198,0.41748046875,0.330322265625,0
0.000223186439620758,4.99526374116391e-06,0.00223500866691024,0.00224390404021313,0.708984375,0.31982421875,0
0.000158374656936128,1.0510703522764e-05,0.00324202151793662,0.00324265425332002,1.201904296875,0.37744140625,0
0.000148628524201597,6.19098331162078e-05,0.00786828018795771,0.00786182873339429,2.796142578125,0.642333984375,0
0.000234394492265469,5.87631704326637e-05,0.0076657139545292,0.00766164600156634,2.686279296875,0.673828125,0
0.000280201316117764,0.000221557506306205,0.014884807902899,0.0148725851327955,5.519287109375,1.155029296875,0
3.94718375748503e-05,2.07719688643952e-05,0.0045576275477923,0.00455324783804477,0.995849609375,0.43310546875,0
0.000454169785429142,1.32735037280176e-05,0.00364328199951878,0.00366787130398507,1.0302734375,0.394287109375,0
-8.2842128243513e-05,9.65559858523917e-05,0.009826290543862,0.00981682851800602,3.3681640625,0.73095703125,0
0.00015106505738523,2.81503419438284e-05,0.00530568958230958,0.00530254413353798,1.8642578125,0.509033203125,0
6.57863959580838e-05,6.43168238108743e-05,0.0080197770424666,0.00801203936379081,2.716064453125,0.6591796875,0
0.00015106505738523,4.24342374363821e-05,0.00651415669418399,0.00650940542685932,2.3837890625,0.5830078125,0
0.000179328842315369,8.10547979054098e-06,0.00284701243245283,0.00284981754185261,0.92626953125,0.38623046875,0
0.000238780251996008,1.09109383619236e-06,0.00104455437206129,0.00107048214040556,0.42578125,0.3310546875,0
0.000305053954590818,8.24632420987188e-05,0.00908092738098476,0.00907698753575833,2.59033203125,0.622802734375,0
0.000624239801646707,0.000399361089318098,0.0199840208496213,0.0199738237882802,7.157470703125,1.57080078125,0
0.000889821918662675,0.00195388183098829,0.0442027355600113,0.0441675633276358,17.58837890625,3.649169921875,0
-0.0012372715506487,0.00304439803273854,0.0551760639474994,0.0551348549544539,19.747802734375,4.3173828125,0
-0.000121826659181637,0.00109122076624644,0.0330336308365647,0.0330008715433328,12.69091796875,2.919677734375,0
0.00188831321731537,0.00129557391317067,0.0359940816408846,0.0360076889580929,13.909423828125,3.191650390625,0
-0.00121972851172655,0.000611878155710216,0.0247361709993729,0.0247415557244989,8.987548828125,2.2861328125,0
0.000252912144461078,0.000698406619226148,0.0264273838891811,0.0264022074567807,10.008544921875,2.2890625,0
0.000212465693612774,0.000853289433344158,0.0292111183172462,0.0291827243843592,10.48583984375,2.394287109375,0
-2.29034119261477e-05,0.000350113700725837,0.0187113254668352,0.0186926561930119,7.222900390625,1.488525390625,0
0.00058428065743513,0.000113125269046563,0.010636036340976,0.0106414686013258,3.531494140625,0.783935546875,0
8.72278879740519e-05,3.73304437496467e-06,0.00193210878962978,0.00193214955244875,0.683349609375,0.34716796875,0
0.000301155501497006,1.66503997619994e-05,0.00408049013747116,0.00408752493169388,1.3115234375,0.447265625,0
8.57659680638723e-05,4.42363877972205e-06,0.00210324482163205,0.00210289442499551,0.7939453125,0.33349609375,0
0.000356221151447106,5.55544032784041e-06,0.00235699816033878,0.00238143761902963,0.959716796875,0.39404296875,0
0.000188100361776447,4.43227324419155e-06,0.00210529647417924,0.0021115890077165,0.822265625,0.343505859375,0
0.000190049588323353,7.45039071865425e-06,0.00272954038597238,0.00273342980983919,1.1181640625,0.40625,0
0.000216364146706587,4.67735707402943e-06,0.00216271983253251,0.00217136696022242,0.87744140625,0.3994140625,0
0.00021587684006986,2.48662059654495e-06,0.00157690221527682,0.00159005034261797,0.626220703125,0.367919921875,0
0.000237318332085828,1.94926366596641e-06,0.00139616032960631,0.00141481197014662,0.557373046875,0.336669921875,0
0.000242191398453094,1.72185517118838e-06,0.00131219479163285,0.00133306976861829,0.518310546875,0.32421875,0
0.000228059505988024,1.1900456365711e-06,0.0010908921287511,0.00111340982313371,0.439453125,0.347900390625,0
0.00020466878742515,1.01493646998605e-06,0.00100744055407059,0.00102703454724501,0.41357421875,0.33056640625,0
0.000233907185628743,1.02044579511631e-06,0.0010101711711964,0.00103591580191189,0.41015625,0.30810546875,0
0.000217826066616766,1.01878400334341e-06,0.00100934830625677,0.00103160006671019,0.414794921875,0.333984375,0
0.000186638441866267,1.25291437921886e-06,0.0011193365799521,0.00113368754959067,0.454833984375,0.3369140625,0
0.000261683663922156,1.18391670866641e-06,0.00108807936689674,0.00111804827329915,0.454345703125,0.329833984375,0
0.000234881798902196,1.37809269918415e-06,0.00117392193061726,0.00119603991346835,0.47802734375,0.32861328125,0
0.000195409961327345,1.08075617792126e-06,0.00103959423715277,0.00105678003053961,0.423095703125,0.3291015625,0
0.000244140625,1.15323066711426e-06,0.00107388577936122,0.00110024245249429,0.446533203125,0.347412109375,0
0.000229521425898204,1.16446061048679e-06,0.00107910176095065,0.0011021871087785,0.442138671875,0.322509765625,0
0.000236831025449102,1.15138899066491e-06,0.00107302795427934,0.00109780678794681,0.44482421875,0.347900390625,0
0.000205643400698603,1.65159021784921e-06,0.00128514210025554,0.00130022414945998,0.5146484375,0.324951171875,0
0.000229521425898204,1.46200699720554e-06,0.00120913481349498,0.00122954011911477,0.495361328125,0.330322265625,0
-1.55938123752495e-05,8.67914630029492e-06,0.00294603908668825,0.0029431387704234,0.9853515625,0.3984375,0
0.000428829840319361,6.50749553939302e-05,0.00806690494514037,0.00807025156332513,2.77001953125,0.726318359375,0
0.000295307821856287,1.41619436755152e-05,0.00376323579855358,0.00377105860900079,1.45458984375,0.51220703125,0
9.74613273453094e-05,6.56272884376511e-06,0.00256178235682993,0.00256107951749332,0.8798828125,0.37109375,0
0.000218313373253493,1.18510642213498e-06,0.00108862593306194,0.00110923472231795,0.435546875,0.318359375,0
0.000227572199351297,9.74141671034153e-07,0.000986986155441986,0.00101192212269462,0.400146484375,0.326416015625,0
0.000192486121506986,9.91293532167842e-07,0.000995637249287029,0.00101309713716697,0.411376953125,0.33349609375,0
0.000221724519710579,1.02374272908041e-06,0.00101180172419324,0.00103482418461324,0.412353515625,0.340087890625,0
0.000230496039171657,9.49196234910549e-07,0.000974267024439681,0.00100021500474702,0.393310546875,0.3251953125,0
0.00023147065244511,1.01001867039237e-06,0.00100499685093654,0.00103033068866535,0.413330078125,0.331787109375,0
0.000257785210828343,9.06757727830472e-07,0.000952238272613778,0.000985596797421721,0.393310546875,0.3134765625,0
0.000195409961327345,1.11890315057751e-06,0.00105778218484597,0.0010746417374835,0.427978515625,0.346435546875,0
0.00024560254491018,9.95991472712535e-07,0.00099799372378414,0.00102680284176045,0.4150390625,0.32763671875,0
0.000241216785179641,9.8013021274955e-07,0.000990015258846827,0.001018017388099,0.403564453125,0.3349609375,0
0.000206130707335329,1.02422908394636e-06,0.00101204203664984,0.00103183069494171,0.408935546875,0.34814453125,0
0.000252424837824351,1.04027070447118e-06,0.00101993661786955,0.00104972025539672,0.421875,0.328125,0
0.000210029160429142,9.47024769887714e-07,0.000973151976768128,0.000994608842267408,0.396240234375,0.326416015625,0
0.00027094249001996,1.05034852932075e-06,0.00102486512738055,0.00105908538757195,0.42724609375,0.33642578125,0
0.000241216785179641,9.00259988750526e-07,0.000948820314258989,0.000978084147748892,0.392822265625,0.316162109375,0
0.000235856412175649,1.04718484326513e-06,0.00102332049880041,0.00104915342115516,0.419921875,0.342529296875,0
0.000244627931636727,1.04725337076092e-06,0.00102335398116239,0.00105119259396575,0.421875,0.336669921875,0
0.000241704091816367,1.02745891807084e-06,0.00101363648221186,0.00104107106859613,0.41748046875,0.32958984375,0
0.000246089851546906,9.69882972702057e-07,0.000984826366778457,0.00101415348620381,0.408935546875,0.3349609375,0
0.000260221744011976,9.86674588597463e-07,0.000993314949347619,0.00102587549648952,0.41796875,0.335693359375,0
0.000293845901946108,9.50960342041746e-07,0.000975171955114454,0.00101754981779619,0.416748046875,0.314208984375,0
0.00021733875998004,1.01339364956001e-06,0.00100667454997135,0.00102888631263818,0.4072265625,0.322265625,0
0.000287023609031936,9.56123222609955e-07,0.000977815536085388,0.00101813424712345,0.408935546875,0.32080078125,0
0.000223673746257485,9.32273750533601e-07,0.000965543241151633,0.000990173151246331,0.397216796875,0.325439453125,0
0.000248039078093812,9.86084014831665e-07,0.000993017630675138,0.00102256499427995,0.413818359375,0.3251953125,0
0.000255835984281437,1.00122097723498e-06,0.00100061030238299,0.00103183069494171,0.418212890625,0.3359375,0
0.000237318332085828,9.64833352856055e-07,0.000982259310394183,0.00100956799103601,0.405029296875,0.337646484375,0
0.000243166011726547,9.82760431285866e-07,0.000991342741581269,0.00101976886738007,0.406005859375,0.314208984375,0
0.000233419878992016,9.64526406781164e-07,0.000982103053035253,0.00100850683898577,0.405517578125,0.329833984375,0
0.000240242171906188,1.01517108148205e-06,0.00100755698671691,0.00103482418461324,0.410888671875,0.336181640625,0
0.000244627931636727,1.01888155984783e-06,0.00100939663158138,0.0010376370700088,0.4140625,0.33203125,0
0.000167633483033932,2.33266358366032e-06,0.00152730598887725,0.00153496206896371,0.60009765625,0.37158203125,0
0.000265094810379242,1.67194716706723e-06,0.00129303796041231,0.00131866796642024,0.515625,0.3701171875,0
0.000239267558632735,1.4910459994318e-06,0.00122108394446565,0.00124310853280252,0.494873046875,0.345947265625,0
0.000216851453343313,1.77952534186388e-06,0.00133398850889499,0.0013501844125492,0.531982421875,0.346923828125,0
0.00019053689496008,1.79209528331033e-05,0.00423331463903917,0.00423337770302958,1.280029296875,0.430419921875,0
0.000267531343562874,2.36217989893017e-06,0.00153693848248073,0.00155853713102407,0.608642578125,0.350830078125,0
0.000237805638722555,2.3322895377458e-06,0.00152718353112709,0.00154408088875409,0.6279296875,0.3681640625,0
0.000205643400698603,2.49439989497324e-06,0.00157936692854233,0.00159113489720966,0.64111328125,0.352783203125,0
0.000240729478542914,3.38946607060537e-06,0.00184105026292206,0.00185489928327831,0.74560546875,0.362060546875,0
0.000266069423652695,3.48460174606232e-06,0.00186670880055308,0.00188373018008389,0.73681640625,0.400146484375,0
0.000259734437375249,1.91378069970898e-06,0.00138339462905889,0.0014062086460093,0.529052734375,0.3408203125,0
0.000234394492265469,1.08780879936294e-06,0.00104298072818386,0.00106797860574016,0.421630859375,0.338623046875,0
0.000188100361776447,1.01910356038107e-05,0.00319234014538092,0.00319469497158655,0.841796875,0.377685546875,0
0.000259247130738523,1.48855545325669e-05,0.00385818020996518,0.00386303661925037,1.31396484375,0.416259765625,0
0.000199308414421158,1.37964613185433e-05,0.00371435880315073,0.00371599883149325,1.220458984375,0.367431640625,0
0.000137420471556886,2.70572536719773e-06,0.00164490892367867,0.00164900245717377,0.60595703125,0.34423828125,0
0.000296769741766467,1.55648214374474e-06,0.00124759053528982,0.00128118994399229,0.497802734375,0.329833984375,0
0.000235856412175649,1.29490174695165e-06,0.00113793749694421,0.00116101049086155,0.45703125,0.34326171875,0
0.00024267870508982,1.22701907586195e-06,0.00110770893102022,0.00113290021179892,0.44921875,0.322509765625,0
0.000273379023203593,1.12996272698134e-06,0.00106299704937565,0.00109655980351478,0.437744140625,0.3310546875,0
0.000248039078093812,1.04783442681897e-06,0.00102363783967718,0.00105226723088706,0.421142578125,0.326171875,0
0.000240242171906188,1.73233416741956e-06,0.0013161816620131,0.00133663484757527,0.531494140625,0.3515625,0
0.000253399451097804,3.98591511739704e-06,0.00199647567413105,0.00201051497900804,0.80615234375,0.42578125,0
0.000166658869760479,1.46105931904502e-05,0.00382238056588432,0.00382219904095279,1.43603515625,0.647216796875,0
0.000185663828592814,1.26709052902496e-05,0.00355962150940933,0.00356091071488363,1.410888671875,0.588134765625,0
0.000304079341317365,5.04956273975486e-06,0.00224712321419073,0.00226538032524926,0.86279296875,0.41357421875,0
0.000274840943113772,1.42777894071476e-06,0.00119489704188887,0.00122493535607449,0.5,0.35693359375,0
0.000255835984281437,1.50857571356311e-06,0.00122824090208847,0.0012534020245905,0.503173828125,0.343994140625,0
-0.000364018057634731,1.02129096756438e-06,0.00101058941591745,0.00107320156956802,0.362548828125,0.21337890625,0
-0.000294820515219561,1.02381839485701e-06,0.00101183911510527,0.00105294538384524,0.365478515625,0.212158203125,0
-0.000284099769211577,9.93082385339185e-07,0.000996535190216174,0.00103528395323955,0.348876953125,0.212158203125,0
-0.000251450224550898,1.00356947162194e-06,0.00100178314600613,0.00103188834394558,0.33935546875,0.224365234375,0
-0.000333805046157685,1.02954186841161e-06,0.00101466342617225,0.00106719853048189,0.357177734375,0.196533203125,0
-0.000265582117015968,8.90986410205712e-07,0.000943920764792105,0.000979664154236522,0.323974609375,0.202880859375,0
-0.00031333816741517,1.16774469554543e-06,0.00108062236491081,0.00112409727113311,0.396728515625,0.232177734375,0
-0.000279226702844311,9.9726351435313e-07,0.000998630819849423,0.00103597322359104,0.361572265625,0.21044921875,0
-0.000347449631986028,1.03047983851024e-06,0.00101512552844968,0.00107198145473343,0.377197265625,0.193359375,0
-0.000296282435129741,9.89216292451718e-07,0.000994593531273815,0.00103683416716486,0.3603515625,0.21826171875,0
-0.000325033526696607,1.03247141885662e-06,0.00101610600768651,0.00106585993035583,0.357177734375,0.21630859375,0
-0.000306515874500998,9.60027862213805e-07,0.00097981011538655,0.00102570152591143,0.340087890625,0.225830078125,0
-0.000292383982035928,9.61951866835177e-07,0.000980791449205781,0.00102250681962513,0.341796875,0.21826171875,0
-0.00033867811252495,9.25168781699297e-07,0.000961856944508536,0.00101883511979511,0.330810546875,0.189453125,0
-0.000305053954590818,1.03614477816218e-06,0.00101791196975091,0.001061665926798,0.35791015625,0.21044921875,0
-0.000285561689121756,9.68525271691725e-07,0.00098413681553518,0.00102378589842347,0.341796875,0.203369140625,0
-0.000313825474051896,1.09221740159208e-06,0.0010450920541235,0.00109019436574498,0.37841796875,0.19091796875,0
-0.000213440306886228,9.99102335490153e-07,0.000999551066974646,0.00102110963361205,0.3447265625,0.212890625,0
-0.00032454622005988,1.03171571286139e-06,0.00101573407585912,0.00106535752168764,0.375,0.198974609375,0
-0.000280688622754491,9.3123584450362e-07,0.000965005618897434,0.00100407330074392,0.33349609375,0.213134765625,0
-0.000262170970558882,1.13991111100553e-06,0.00106766619830616,0.00109834851351047,0.373046875,0.227783203125,0
-0.000333805046157685,1.03168763562353e-06,0.00101572025460927,0.00106820137975296,0.364501953125,0.213623046875,0
-0.000329906593063872,1.15897317608435e-06,0.00107655616485363,0.00112494365037482,0.399169921875,0.2119140625,0
-0.000308465101047904,9.79807562456874e-07,0.000989852293252318,0.00103585837704963,0.364013671875,0.20947265625,0
-0.000155450817115768,1.51684146203443e-05,0.00389466489191872,0.00389388023701281,1.080322265625,0.417236328125,0
-0.000159836576846307,0.000134549291309958,0.0115995384093488,0.0115890585286966,4.306640625,1.63232421875,0
0.000197359187874252,0.000170548630331805,0.0130594268760847,0.0130478796956837,4.601806640625,1.6201171875,0
-0.000397154908932136,0.000261168623160935,0.0161607123345766,0.0161494600691669,5.829833984375,1.7744140625,0
-0.000287998222305389,0.000120687703172604,0.010985795518423,0.010978604306994,3.943115234375,1.26953125,0
-4.82433570359281e-05,0.000122135095253676,0.0110514747999385,0.0110405452786498,3.889404296875,1.266357421875,0
-0.000492179703093812,6.77833404845582e-05,0.00823306385767524,0.00823955613221393,3.10791015625,0.92919921875,0
-0.000670533932135729,6.53487213119537e-05,0.00808385559692612,0.00810357331654463,2.8037109375,0.661865234375,0
0.000183227295409182,0.00014772269873324,0.0121541227052075,0.0121433691901765,3.6474609375,0.66015625,0
0.00244920315618762,0.000728434501769776,0.0269895257788976,0.0270735874384737,7.71728515625,0.9013671875,0
-0.00286877417040918,0.000230985857531458,0.015198218893392,0.0154516883594135,4.794677734375,0.6494140625,0
-0.000168120789670659,8.91403466641546e-05,0.00944141656024956,0.00943348750041219,3.099853515625,0.582275390625,0
-0.000290434755489022,1.95885880026751e-05,0.00442589968285264,0.00443100906925519,1.73095703125,0.344970703125,0
-0.000167633483033932,2.70461798190119e-05,0.00520059417941949,0.00519810507904464,1.892578125,0.512939453125,0
-0.000613031749001996,0.000470618628218264,0.0216937462928436,0.0216807536216846,4.95849609375,0.607177734375,0
-2.5827251746507e-05,1.75477735058752e-05,0.00418900626710861,0.00418490323147242,1.484619140625,0.4072265625,0
-0.000422494854041916,2.8320101206888e-06,0.00168285772443448,0.00173345300125759,0.658447265625,0.228515625,0
-0.000336241579341317,1.77642114148169e-06,0.00133282449762963,0.00137329304606782,0.5634765625,0.215576171875,0
-0.000387408776197605,1.86556256459859e-06,0.0013658559823783,0.00141842322552187,0.560302734375,0.220703125,0
-0.000219775293163673,2.74741768599032e-06,0.00165753361534248,0.00167039965213083,0.660400390625,0.220703125,0
-0.000237318332085828,1.84602842121543e-06,0.00135868628506195,0.00137792007188078,0.519287109375,0.231201171875,0
-0.000349886165169661,1.76465630293368e-06,0.00132840366716359,0.00137242645101335,0.5244140625,0.21484375,0
-0.000340627339071856,1.35371071135926e-06,0.00116349074399381,0.00121121248263651,0.446533203125,0.212890625,0
-0.000337703499251497,1.4822982742401e-06,0.00121749672452951,0.00126229285368202,0.451416015625,0.225830078125,0
-0.000329906593063872,1.85467858990271e-06,0.00136186584871738,0.00139993392586096,0.525634765625,0.231689453125,0
-0.000318211233782435,1.75474694151126e-06,0.00132466861573424,0.00136106680288346,0.523681640625,0.227783203125,0
-0.000275328249750499,1.807668727791e-06,0.00134449571505119,0.00137108214622192,0.531982421875,0.216796875,0
-0.000351835391716567,1.5360728471341e-06,0.00123938405957722,0.00128716548133156,0.4892578125,0.214111328125,0
-0.000295307821856287,1.91676545285893e-06,0.00138447298740674,0.0014142652804057,0.55615234375,0.22607421875,0
-0.00028653630239521,1.70515682882891e-06,0.0013058165372015,0.00133561086203088,0.52294921875,0.215576171875,0
-0.000315774700598802,1.47651055615819e-06,0.00121511750714003,0.00125430342853628,0.46044921875,0.214111328125,0
-0.000330393899700599,1.8573364097915e-06,0.00136284130029564,0.00140099581742698,0.5458984375,0.23583984375,0
-0.000328931979790419,1.46073923853343e-06,0.00120861045772963,0.00125140714345075,0.465576171875,0.216064453125,0
-0.000303592034680639,1.35496752466746e-06,0.00116403072324894,0.0012018448827497,0.447998046875,0.21484375,0
-0.000273379023203593,1.47304706230849e-06,0.00121369150211596,0.00124291710863557,0.465576171875,0.230224609375,0
-0.000463428611526946,1.52824024954242e-06,0.0012362201460672,0.00131907389777245,0.471435546875,0.212646484375,0
-0.00020174494760479,1.78812649435626e-06,0.00133720847079139,0.00135102124464463,0.51220703125,0.22900390625,0
-0.000426880613772455,2.06807987418717e-06,0.00143808201233002,0.00149872580169337,0.564453125,0.213134765625,0
-0.000202719560878244,1.40888438729231e-06,0.00118696435805474,0.00120298273602299,0.4404296875,0.22705078125,0
-0.000339165419161677,1.47713444190111e-06,0.00121537419830319,0.00126064239628719,0.4833984375,0.21484375,0
-0.000253886757734531,1.45401973686294e-06,0.00120582740757662,0.00123108731924757,0.459228515625,0.221923828125,0
-0.000403002588572854,1.48342517083752e-06,0.00121795942906056,0.00128174698312469,0.482177734375,0.216796875,0
-0.000316749313872256,1.56720717272121e-06,0.00125188145314211,0.00129011981712179,0.46728515625,0.235595703125,0
-0.000330881206337325,1.5247772315781e-06,0.00123481870393111,0.00127719072058845,0.463134765625,0.22900390625,0
-0.000409824881487026,1.47143143141817e-06,0.00121302573402965,0.00127923839686704,0.462158203125,0.219482421875,0
-0.000242191398453094,1.53803444670108e-06,0.00124017516774893,0.00126238710035805,0.475341796875,0.229248046875,0
-0.000355246538173653,1.46058076869942e-06,0.00120854489726258,0.0012585171992103,0.472412109375,0.229248046875,0
-0.000333805046157685,1.24864854260595e-06,0.00111742943517967,0.00116515322553988,0.411865234375,0.22265625,0
-0.000181765375499002,1.77303521695013e-06,0.00133155368534285,0.00134258514673425,0.510009765625,0.227294921875,0
-0.00042054562749501,1.43485488054043e-06,0.00119785428184752,0.00126840432179495,0.477294921875,0.232177734375,0
-0.000199795721057884,1.53952491973451e-06,0.00124077593454036,0.0012555358799557,0.48095703125,0.221923828125,0
-0.000263632890469062,1.47471504059142e-06,0.00121437845855047,0.00124148048656969,0.458740234375,0.237060546875,0
-0.000437601359780439,1.56383647652205e-06,0.00125053447634284,0.00132371069214949,0.5009765625,0.2177734375,0
-0.000292383982035928,1.47884334632736e-06,0.00121607703141181,0.00124955190214418,0.466796875,0.232177734375,0
-0.000276302863023952,1.42375295033712e-06,0.00119321119268012,0.00122362347157783,0.445556640625,0.2255859375,0
-0.000314800087325349,1.41966747428605e-06,0.00119149799592196,0.00123123226957904,0.4609375,0.22705078125,0
-0.000300668194860279,1.49859687287413e-06,0.00122417191312092,0.00125936770839638,0.457763671875,0.2197265625,0
-0.000302617421407186,1.32003515780329e-06,0.00114892782967569,0.001187003648195,0.437744140625,0.21826171875,0
-0.000280201316117764,1.25683186772817e-06,0.00112108512956339,0.00115448516614105,0.413330078125,0.22998046875,0
-0.000299693581586826,1.30534885886187e-06,0.00114251864705215,0.00118006763152032,0.436279296875,0.225830078125,0
-0.000268505956836327,1.35791420698642e-06,0.00116529575944754,0.0011946962995859,0.455322265625,0.222900390625,0
-0.000322109686876248,1.20269086308584e-06,0.00109667263259636,0.00114194786785576,0.430908203125,0.223876953125,0
-0.000316262007235529,1.38143055929157e-06,0.00117534274120002,0.00121601598266079,0.440673828125,0.22265625,0
-0.000267531343562874,1.18486895532665e-06,0.00108851686037776,0.00111985577965216,0.409912109375,0.21826171875,0
-0.00025681059755489,1.30828031284843e-06,0.00114380081869547,0.00117116209719882,0.429931640625,0.2255859375,0
-0.000334779659431138,1.29877878520303e-06,0.00113963976115395,0.00118670292522902,0.445068359375,0.227294921875,0
-0.000254861371007984,1.35481762077042e-06,0.00116396633145913,0.00119040653241425,0.431884765625,0.226318359375,0
-0.000350860778443114,1.22180813086961e-06,0.00110535430105899,0.00115865123222441,0.4111328125,0.225341796875,0
-0.000284587075848303,1.31240481150127e-06,0.00114560237931896,0.00117931125864172,0.41943359375,0.2197265625,0
-0.000344525792165669,1.27211778225775e-06,0.00112788198950854,0.0011782515208881,0.444580078125,0.22705078125,0
-0.000329419286427146,1.45958331292737e-06,0.00120813215871748,0.00125107435400602,0.4619140625,0.229736328125,0
-0.000346475018712575,1.44314480398943e-06,0.0012013096203683,0.00124912337822588,0.466552734375,0.22216796875,0
-0.000206130707335329,1.34609416573347e-06,0.00116021298291886,0.00117724135993346,0.432861328125,0.211181640625,0
-0.000264607503742515,1.23196590446426e-06,0.00110993959496194,0.0011399666757058,0.423583984375,0.231689453125,0
-0.000275815556387226,1.31685338810294e-06,0.00114754232519021,0.00117910947726311,0.42626953125,0.2314453125,0
-0.000342089258982036,1.3025235273167e-06,0.00114128152850938,0.00119035656047575,0.4326171875,0.235595703125,0
-0.000294333208582834,1.27885631934373e-06,0.00113086529672801,0.00116744839269004,0.43359375,0.207275390625,0
-0.000301155501497006,1.32580717166741e-06,0.00115143700290872,0.00118905655292311,0.44677734375,0.21728515625,0
-0.000274353636477046,1.31897060219161e-06,0.00114846445403922,0.00117966429300336,0.423583984375,0.23779296875,0
-0.000296769741766467,1.4294050410836e-06,0.00119557728360972,0.00123070070156693,0.468505859375,0.23486328125,0
-0.000306515874500998,1.30835740628119e-06,0.00114383451874875,0.00118308828739591,0.427001953125,0.2197265625,0
-0.000291896675399202,1.28565196267621e-06,0.00113386593681802,0.00116973905645795,0.440185546875,0.23193359375,0
-0.000267044036926148,1.28657708386937e-06,0.00113427381344602,0.00116418279638367,0.44287109375,0.221435546875,0
-0.000347449631986028,1.22455256189891e-06,0.00110659503066791,0.00115880524333285,0.423583984375,0.22705078125,0
-0.000293845901946108,1.32837695275952e-06,0.00115255236443275,0.00118830590162909,0.440673828125,0.212646484375,0
-0.000293358595309381,1.30660995513855e-06,0.00114307040690351,0.00117900857362361,0.439453125,0.23046875,0
-0.00025681059755489,1.45586141331229e-06,0.00120659082265377,0.00123243952603127,0.455810546875,0.242431640625,0
-0.000315774700598802,1.29674294751561e-06,0.00113874621734415,0.00118062199699031,0.4326171875,0.233154296875,0
-0.000253399451097804,1.3852452565572e-06,0.00117696442450789,0.00120278492582088,0.451171875,0.21533203125,0
-0.000305053954590818,1.30937246981257e-06,0.00114427814355277,0.00118313856632275,0.416015625,0.225830078125,0
-0.000250475611277445,1.34213717873701e-06,0.00115850644311415,0.00118414369654083,0.44873046875,0.22412109375,0
-0.00031041432759481,1.2976028724107e-06,0.00113912373007092,0.00117956343682457,0.434814453125,0.213623046875,0
-0.000243653318363273,1.30593752908611e-06,0.00114277623754002,0.00116734648108471,0.4248046875,0.24169921875,0
-0.000307490487774451,1.29822104752897e-06,0.00113939503576633,0.00117905902652277,0.436767578125,0.19873046875,0
-0.000290434755489022,1.29520726537038e-06,0.00113807173120607,0.00117344551152735,0.4287109375,0.22021484375,0
-0.000373276883732535,1.33667353860394e-06,0.00115614598498803,0.00121381265419253,0.435546875,0.226806640625,0
-0.000304566647954092,1.26186721101255e-06,0.00112332863001552,0.00116280237230175,0.415283203125,0.2265625,0
-0.000253399451097804,1.42935269369099e-06,0.00119555539131024,0.00122094675400652,0.4560546875,0.218994140625,0
-0.000317236620508982,1.25874159578792e-06,0.0011219365382177,0.00116484686156801,0.420654296875,0.221435546875,0
-0.000300668194860279,1.28855010468565e-06,0.00113514320888849,0.00117319201829428,0.419189453125,0.224365234375,0
-0.000280688622754491,1.25429301918624e-06,0.00111995223968982,0.00115350576212234,0.431640625,0.2197265625,0
-0.000348424245259481,1.24819169263402e-06,0.00111722499642374,0.00116923040788998,0.427490234375,0.225341796875,0
-0.00021880067989022,1.36525664262905e-06,0.0011684419722986,0.00118760486568157,0.441650390625,0.230712890625,0
-0.000284587075848303,1.3779699207542e-06,0.00117386963533188,0.00120673496905099,0.45068359375,0.2265625,0
-0.000303104728043912,1.38399320210287e-06,0.00117643240439172,0.0012137146356472,0.447265625,0.2255859375,0
-0.000326495446606786,1.24859714698411e-06,0.00111740643768689,0.00116305813000247,0.43310546875,0.21240234375,0
-0.000273379023203593,1.37148074761122e-06,0.00117110236427531,0.00120144885509821,0.446533203125,0.238525390625,0
-0.000359632297904192,1.27802923054038e-06,0.00113049954911109,0.0011852483552776,0.4423828125,0.22412109375,0
-0.000302617421407186,1.32480352938532e-06,0.00115100109877677,0.00118900652424725,0.429443359375,0.219482421875,0
-0.000314312780688623,1.30207667093791e-06,0.00114108574214995,0.00118248477352189,0.434326171875,0.22412109375,0
-0.000269967876746507,1.35962882203732e-06,0.00116603122687058,0.0011957414630798,0.4404296875,0.2294921875,0
-0.000315287393962076,1.24614871666579e-06,0.00111631031378635,0.00115890790603457,0.432373046875,0.218994140625,0
-0.000214414920159681,1.3517824237694e-06,0.00116266178391199,0.0011811257398118,0.4462890625,0.216552734375,0
-0.000323084300149701,1.36013230877722e-06,0.00116624710450968,0.00120904960147745,0.442626953125,0.230712890625,0
-0.00028653630239521,1.25073101706134e-06,0.00111836086173531,0.00115340261858369,0.4189453125,0.20458984375,0
-0.000354759231536926,1.20307775790582e-06,0.00109684901326747,0.00115175106575002,0.41650390625,0.213623046875,0
-0.000298718968313373,1.15930581997017e-06,0.00107671064821064,0.00111634441743029,0.409423828125,0.212158203125,0
-0.000315287393962076,1.22993625328688e-06,0.0011090249110308,0.00115190599941873,0.428466796875,0.218994140625,0
-0.000230983345808383,1.43117247941251e-06,0.00119631621213311,0.00121723833071339,0.4423828125,0.240966796875,0
-0.000325033526696607,1.20556330728436e-06,0.0010979814694631,0.00114402962670317,0.399658203125,0.209228515625,0
-0.000278739396207585,1.40296675249964e-06,0.00118446897489957,0.00121567350495867,0.45361328125,0.22021484375,0
-0.000336241579341317,1.1984945057395e-06,0.00109475773837845,0.00114418560592902,0.40380859375,0.209716796875,0
-0.000310901634231537,1.0132237584767e-06,0.00100659016410687,0.00105254984771887,0.37353515625,0.1826171875,0
-0.000358170377994012,1.11135322890596e-06,0.00105420739368777,0.00111239425504645,0.410888671875,0.203857421875,0
-0.000258759824101796,1.13751931104831e-06,0.00106654550350574,0.00109645130306396,0.414306640625,0.186767578125,0
-0.000292383982035928,1.25115360328537e-06,0.0011185497768474,0.0011550518099441,0.4228515625,0.19775390625,0
-0.000327957366516966,1.12497211692338e-06,0.00106064702749,0.00110918109335173,0.368896484375,0.19482421875,0
-0.00031333816741517,1.11004739940285e-06,0.00105358786980624,0.00109818602390036,0.392333984375,0.197021484375,0
-0.000395692989021956,1.5599661006661e-06,0.00124898602901157,0.00130897873834355,0.4619140625,0.207275390625,0
-0.000210029160429142,1.59733557177637e-05,0.00399666807700661,0.00399819772153027,1.412353515625,0.49755859375,0
-0.000218313373253493,0.000116713928367325,0.0108034220674435,0.0107948426187415,3.97509765625,1.284423828125,0
-0.000881537705838323,0.000230400216793586,0.0151789399100723,0.0151893859272901,5.542236328125,2.073486328125,0
-0.000287998222305389,1.13529959124719e-05,0.00336942070873792,0.00337835436537362,1.411865234375,0.306884765625,0
-0.000389845309381238,1.52745908367896e-05,0.00390827210372942,0.00392378414247943,1.49853515625,0.391357421875,0
-0.000207105320608782,1.31481255361896e-05,0.00362603440912929,0.00362832942088625,1.279052734375,0.3310546875,0
-0.000414697947854291,5.07892953183599e-05,0.00712666088139178,0.00713161229087474,2.500732421875,0.38623046875,0
-1.31572791916168e-05,2.44159155976986e-05,0.00494124636075744,0.00493633004865192,1.660400390625,0.4365234375,0
-0.000591102950349301,7.98036285979067e-06,0.00282495360312177,0.0028833724507456,1.098388671875,0.2646484375,0
5.36037300399202e-05,8.29551795761505e-06,0.00288019408332408,0.00287781747117745,1.134765625,0.251220703125,0
-0.000333805046157685,1.55883339826694e-05,0.00394820642604581,0.00395836397422251,1.562744140625,0.29345703125,0
-1.90049588323353e-05,4.44721747301296e-06,0.00210884268569587,0.00210682272151463,0.866943359375,0.224365234375,0
-0.000612544442365269,1.11912738777206e-05,0.00334533613822597,0.00339766783243768,1.297119140625,0.2744140625,0
-2.53399451097804e-05,3.02608046465053e-06,0.00173956329710952,0.00173801107496498,0.67919921875,0.252197265625,0
-0.000290434755489022,2.50089001988698e-06,0.0015814202540397,0.00160631583775921,0.6474609375,0.2373046875,0
-0.000200283027694611,1.90136818114869e-06,0.00137890107736149,0.00139200801946722,0.541259765625,0.235107421875,0
-0.000275815556387226,1.88214383915275e-06,0.00137191247503357,0.00139802048846499,0.5400390625,0.233642578125,0
-0.000307003181137725,3.26607041730138e-06,0.00180722727328396,0.00183133892764303,0.61572265625,0.257568359375,0
-0.000344038485528942,5.71574184471024e-06,0.00239076177079822,0.00241302624475545,0.77734375,0.26513671875,0
-0.000211978386976048,1.60566632619161e-06,0.00126714889661461,0.00128350934547817,0.484619140625,0.238037109375,0
-0.000266556730289421,1.45623403157065e-06,0.00120674522231109,0.00123465779359286,0.452880859375,0.237548828125,0
-0.000279226702844311,1.50032671625743e-06,0.00122487824548296,0.00125510939911006,0.482666015625,0.21044921875,0
-0.000351835391716567,1.84434806991242e-06,0.00135806777073621,0.00140159012528766,0.51953125,0.233642578125,0
-0.000294820515219561,1.95078983040389e-06,0.0013967067803959,0.00142611892018918,0.552001953125,0.232421875,0
-0.000137907778193613,1.51457091767393e-06,0.0012306790473856,0.00123716061096212,0.459716796875,0.216552734375,0
-0.000251937531187625,1.44594776892139e-06,0.00120247568329733,0.00122740953444685,0.440673828125,0.22021484375,0
-0.000273866329840319,1.57637272528307e-06,0.00125553682752959,0.00128383372730187,0.4912109375,0.214599609375,0
-0.000186151135229541,1.45849401127554e-06,0.00120768125400519,0.00122075185469104,0.4716796875,0.224853515625,0
-0.000258759824101796,2.39684624586277e-06,0.00154817513410556,0.00156812587766057,0.575927734375,0.240234375,0
-0.000142293537924152,3.53953985872859e-06,0.00188136648708554,0.00188486666898371,0.69091796875,0.233154296875,0
-0.000454169785429142,1.82464355956057e-06,0.0013507936776431,0.00142382293507459,0.5478515625,0.220458984375,0
-0.000262658277195609,1.54890033775223e-06,0.0012445482464542,0.00127074706015437,0.479248046875,0.22412109375,0
-0.00024560254491018,2.0130851311598e-06,0.00141883231255839,0.00143853662005241,0.5556640625,0.247314453125,0
-0.000307490487774451,1.34280532182096e-06,0.0011587947712261,0.00119777939193717,0.446044921875,0.223388671875,0
-0.000216851453343313,1.7223048828795e-06,0.00131236613903267,0.00132886857943118,0.506591796875,0.23779296875,0
-0.000268505956836327,1.49881958723544e-06,0.00122426287505398,0.00125216747291618,0.504150390625,0.2216796875,0
-0.000281175929391218,1.72549141143372e-06,0.00131357961747042,0.00134205335962067,0.502197265625,0.2197265625,0
-0.000275328249750499,2.2196560324785e-06,0.00148985101016125,0.00151361528349397,0.565185546875,0.224609375,0
-0.000302617421407186,2.98777311861872e-06,0.00172851760726315,0.00175310775577505,0.687255859375,0.23486328125,0
-0.000312363554141717,1.87645891231453e-06,0.00136983900963381,0.00140366822123317,0.543212890625,0.22412109375,0
-0.000222699132984032,1.70542427641665e-06,0.00130591893945093,0.00132348598019647,0.509521484375,0.23583984375,0
-0.000279226702844311,1.59617098505626e-06,0.00126339660639732,0.00129265330487626,0.481201171875,0.218017578125,0
-0.000266069423652695,1.69002510116486e-06,0.00130000965425833,0.0013256865148943,0.50341796875,0.232177734375,0
-0.000279714009481038,1.82561436575092e-06,0.00135115297644305,0.00137848117578771,0.55078125,0.20751953125,0
-0.000178354229041916,1.63824829512727e-06,0.00127994073891226,0.00129104166062428,0.48388671875,0.225341796875,0
-0.000244627931636727,1.7763373856535e-06,0.00133279307683282,0.00135374836176679,0.52978515625,0.210205078125,0
-0.000278739396207585,1.58321119830042e-06,0.00125825720673494,0.00128753514402768,0.4892578125,0.227294921875,0
-0.000225135666167665,1.41953993700222e-06,0.00119144447499756,0.00121135981117712,0.4736328125,0.202392578125,0
-0.000292383982035928,1.68841327735764e-06,0.00129938957874751,0.00133061323604076,0.513671875,0.234619140625,0
-0.000258759824101796,1.70638604078464e-06,0.00130628712034707,0.0013303896899753,0.523681640625,0.206787109375,0
-0.000201257640968064,1.61058222224374e-06,0.00126908716101131,0.00128369471655734,0.468994140625,0.222900390625,0
-0.000239754865269461,1.50356749574581e-06,0.00122620043049487,0.00124821823349932,0.4599609375,0.221923828125,0
-0.000312363554141717,1.63994768184578e-06,0.00128060442051626,0.00131690748465314,0.487548828125,0.222412109375,0
-0.000184201908682635,1.19671850147362e-06,0.00109394629734444,0.00110826900387603,0.40380859375,0.201904296875,0
-0.000327957366516966,1.96563602683549e-06,0.00140201142179209,0.00143849526793972,0.574462890625,0.2197265625,0
-0.000345013098802395,2.29090130971577e-06,0.00151357236685788,0.00155092317371177,0.57568359375,0.236572265625,0
-0.000161298496756487,1.75670568576592e-06,0.00132540774321185,0.00133387274214875,0.513916015625,0.225830078125,0
-0.000213927613522954,1.36713115517013e-06,0.00116924383905588,0.00118750468390521,0.457763671875,0.223876953125,0
-0.000254861371007984,1.29902767326066e-06,0.00113974895185767,0.00116678580814365,0.426025390625,0.22802734375,0
-0.000185663828592814,1.44258230746149e-06,0.00120107547950222,0.0012141556567862,0.463623046875,0.210205078125,0
-0.000280688622754491,1.66198878944991e-06,0.0012891814416326,0.00131812653015581,0.5087890625,0.21044921875,0
-0.0002992062749501,1.44809639144562e-06,0.00120336876785366,0.00123884235254376,0.47216796875,0.212158203125,0
-0.00021880067989022,1.34642157488002e-06,0.00116035407306564,0.00117966429300336,0.434814453125,0.207275390625,0
-0.00017640500249501,1.31183089372403e-06,0.00114535186459185,0.00115772673532735,0.431640625,0.206298828125,0
-0.00033867811252495,1.38531663936531e-06,0.00117699474908145,0.00122362347157783,0.435791015625,0.2109375,0
-0.000269967876746507,1.76494040650998e-06,0.00132851059706349,0.00135436340243018,0.54052734375,0.220458984375,0
-0.000265582117015968,1.53471657377993e-06,0.00123883678254237,0.00126577530712371,0.472412109375,0.2158203125,0
-0.000281663236027944,1.41324587686809e-06,0.00118880018374329,0.00122055692425392,0.43994140625,0.205810546875,0
-0.000262658277195609,1.64092990928543e-06,0.00128098786461287,0.0013063858429517,0.509521484375,0.22314453125,0
-0.000316749313872256,1.31090720018703e-06,0.00114494855787805,0.0011868532962366,0.431640625,0.20947265625,0
-0.000150090444111776,6.54824384434256e-06,0.0025589536620155,0.00256080078076401,0.90185546875,0.240478515625,0
-0.000344038485528942,1.40258214192952e-05,0.00374510632950457,0.00375715161356109,1.10107421875,0.211669921875,0
-0.000238292945359281,1.35418326554898e-06,0.00116369380231613,0.00118670292522902,0.440185546875,0.219970703125,0
-0.000266069423652695,1.15453697250275e-06,0.00107449382152842,0.00110590480860273,0.41259765625,0.2216796875,0
-0.000225622972804391,1.46235439353836e-06,0.00120927845988356,0.00122895941688506,0.446533203125,0.23388671875,0
-0.000214414920159681,1.40423451117175e-06,0.00118500401314584,0.0012030816289276,0.46484375,0.21533203125,0
-0.000230496039171657,1.56932295915371e-06,0.00125272621077142,0.00127252465676369,0.471923828125,0.220947265625,0
-0.000324058913423154,1.3721365176751e-06,0.00117138231063778,0.00121425363973086,0.475341796875,0.213134765625,0
-0.000228059505988024,1.54505090085332e-06,0.00124300076462298,0.00126252845718066,0.482421875,0.225341796875,0
-0.000186638441866267,1.365924785713e-06,0.00116872784929298,0.00118238415792728,0.444091796875,0.224609375,0
-0.000282637849301397,1.43462931086679e-06,0.00119776012242301,0.00122949173773795,0.4658203125,0.2158203125,0
-0.000316749313872256,1.52286131700832e-06,0.00123404267228014,0.00127285183799983,0.4814453125,0.221435546875,0
-0.000347936938622754,1.17760218546062e-06,0.00108517380426392,0.00113855689157574,0.40576171875,0.212890625,0
-0.000280688622754491,1.26120715798018e-06,0.00112303479820537,0.00115649292318075,0.42333984375,0.20703125,0
-0.00027240440993014,1.25614230980178e-06,0.00112077754697432,0.00115231905402615,0.434326171875,0.2109375,0
-0.000275815556387226,1.20431981876701e-06,0.00109741506221074,0.00113048228997124,0.43017578125,0.205810546875,0
-0.000322109686876248,1.25180509038076e-06,0.00111884095848372,0.00116321155763061,0.422607421875,0.2138671875,0
-0.000207592627245509,1.41164928139327e-06,0.0011881284784876,0.00120495905201946,0.45458984375,0.22216796875,0
-0.000282150542664671,1.70586780159773e-06,0.00130608874185399,0.00133494262220217,0.493408203125,0.216064453125,0
-0.000270455183383234,1.55498738774282e-06,0.00124699133426934,0.00127476649890114,0.497314453125,0.230712890625,0
-0.000355733844810379,4.94484035316817e-06,0.00222369969941271,0.00224978154065835,0.849609375,0.23681640625,0
-0.000271429796656687,1.77737957465197e-06,0.00133318399879835,0.00135922994572052,0.521728515625,0.22900390625,0
-0.000220262599800399,1.8091449242628e-06,0.00134504458077151,0.00136163485172073,0.53564453125,0.240234375,0
-0.000278252089570858,1.9369387103174e-06,0.00139173945489715,0.0014179198815651,0.561767578125,0.226318359375,0
-0.000271917103293413,2.71779477239369e-06,0.00164857355686475,0.00166922405428166,0.65478515625,0.239990234375,0
-0.000227084892714571,1.7321771252417e-06,0.00131612200241532,0.00133427404770128,0.51416015625,0.2119140625,0
-0.000280201316117764,1.92201970342153e-06,0.00138636925219132,0.00141304497957502,0.538330078125,0.2392578125,0
-0.000370840350548902,1.41752599004262e-06,0.00119059900472099,0.00124588087811161,0.479248046875,0.2099609375,0
-0.000255835984281437,2.23265293829455e-06,0.0014942064577208,0.0015144796453097,0.607666015625,0.233642578125,0
-0.000222699132984032,5.12839981657778e-06,0.00226459705390998,0.00227327041801683,0.853271484375,0.23095703125,0
-0.000280201316117764,1.39606831792348e-06,0.00118155334958836,0.00121317539208837,0.443603515625,0.232177734375,0
-0.000200770334331337,1.99594373950463e-06,0.00141277872984577,0.00142557656652051,0.55419921875,0.2265625,0
-0.000305053954590818,1.49343161287898e-06,0.00122206039657579,0.00125837539179196,0.47607421875,0.225341796875,0
-0.000261683663922156,1.97951950712832e-06,0.00140695398188012,0.00142970161584551,0.561767578125,0.226806640625,0
-0.000233907185628743,1.28890511518467e-06,0.00113529957067933,0.00115803498296591,0.43115234375,0.2177734375,0
-0.000311388940868263,1.66892862605478e-06,0.00129187020480185,0.0013276145915466,0.504638671875,0.22900390625,0
-0.00024267870508982,1.46925235222914e-06,0.00121212720134033,0.00123499500675412,0.4541015625,0.239013671875,0
-0.000337703499251497,1.30539168854674e-06,0.00114253739043706,0.00119030658643931,0.461181640625,0.208984375,0
-0.000326982753243513,1.48014013400811e-06,0.00121661009941892,0.00125861172861286,0.471923828125,0.2255859375,0
-0.000191998814870259,1.90522047335992e-06,0.00138029724094483,0.00139222167164404,0.5166015625,0.235595703125,0
-0.000397154908932136,1.32432002983169e-06,0.00115079104525178,0.00121630945822502,0.433837890625,0.218505859375,0
-0.000171531936127745,1.51070196947414e-06,0.00122910616688476,0.00123980232351505,0.48681640625,0.212158203125,0
-0.000314312780688623,1.54788622599162e-06,0.00124414075811044,0.00128202541192848,0.483642578125,0.240966796875,0
-0.000237805638722555,1.25296863015303e-06,0.00111936081321128,0.00114324941135858,0.4150390625,0.21826171875,0
-0.000347936938622754,1.31278551981121e-06,0.0011457685280244,0.00119633828940251,0.4384765625,0.22265625,0
-0.000215389533433134,1.3978543157825e-06,0.00118230889186477,0.00120060686259917,0.44189453125,0.222412109375,0
-0.000329419286427146,1.29245188897717e-06,0.00113686054068965,0.00118253507810888,0.42578125,0.23583984375,0
-0.000273866329840319,1.43308315924304e-06,0.0011971145138386,0.00122687631016155,0.45556640625,0.21484375,0
-0.000336241579341317,1.3365388630393e-06,0.00115608774019938,0.00120288383498809,0.42236328125,0.226806640625,0
-0.00021587684006986,1.17055003990432e-06,0.00108191960879925,0.0011021871087785,0.401611328125,0.225341796875,0
-0.000289460142215569,1.25476557337595e-06,0.00112016319051108,0.00115587552323114,0.44091796875,0.224365234375,0
-0.000252424837824351,1.44129075452001e-06,0.00120053769391886,0.00122561503965043,0.4638671875,0.224609375,0
-0.000207105320608782,1.27607238982728e-06,0.00112963374145219,0.00114735258441921,0.419189453125,0.223388671875,0
-0.000352322698353293,1.27835616380155e-06,0.00113064413667676,0.00118318884311301,0.428466796875,0.221923828125,0
-0.000328444673153693,1.17626923049043e-06,0.00108455946378723,0.00113216486919443,0.41845703125,0.228271484375,0
-0.000246089851546906,1.32131195829776e-06,0.00114948334407148,0.00117440828680403,0.421142578125,0.2177734375,0
-0.000317236620508982,1.18125555757991e-06,0.00108685581269086,0.00113116613963103,0.404541015625,0.220947265625,0
-0.000233419878992016,1.21820377494523e-06,0.00110372268933153,0.00112705681773055,0.409912109375,0.201904296875,0
-0.00031187624750499,1.24769629594571e-06,0.0011170032658617,0.00115865123222441,0.4013671875,0.224365234375,0
-0.000222699132984032,1.194493261402e-06,0.00109292875403752,0.00111431770476252,0.404541015625,0.22802734375,0
-0.000272891716566866,1.15943573668093e-06,0.00107677097689385,0.00110977086944304,0.3857421875,0.221435546875,0
-0.000280688622754491,1.19683414162276e-06,0.00109399915064993,0.00112837553769316,0.41845703125,0.19970703125,0
-0.000181765375499002,1.24660699429388e-06,0.00111651555936041,0.00113011389183153,0.409423828125,0.204345703125,0
-0.000369865737275449,1.05132314259421e-06,0.00102534050080654,0.00108904791300388,0.380615234375,0.193359375,0
-0.000304079341317365,1.10969572010154e-06,0.00105342096053835,0.00109542001278066,0.39990234375,0.197998046875,0
-0.000229521425898204,1.07338471326999e-06,0.00103604281440006,0.00106015202389031,0.362548828125,0.174072265625,0
-0.000471712824351297,9.88208367201145e-07,0.000994086700042378,0.00109943116386057,0.390625,0.168212890625,0
-0.000376688030189621,9.47276037372277e-07,0.000973281068023147,0.00104272678057425,0.401611328125,0.180419921875,0
0.000499976609281437,0.000144353967940736,0.0120147396118574,0.0120131516629912,4.14013671875,1.4140625,0
-0.00296136243138723,0.000313703366144451,0.0177116731605021,0.0179400913924941,6.919677734375,2.000732421875,0
0.000306515874500998,0.000740743076491974,0.0272165956080472,0.027191147445051,9.925048828125,2.98388671875,0
-0.000175430389221557,1.71901365954005e-05,0.00414609896112002,0.00414567253494194,1.57421875,0.3955078125,0
-0.000467327064620758,0.000272785581276564,0.016516221761546,0.016506347072073,5.720947265625,1.04443359375,0
-0.000115004366267465,4.53577403298871e-06,0.00212973567209377,0.00213071504337527,0.85888671875,0.256591796875,0
-0.000950735248253493,6.16149178997961e-05,0.00784951704882511,0.00789910321137813,2.429443359375,0.533447265625,0
0.000614493668912176,0.000253127468322328,0.0159099801483951,0.0159059682617473,5.930419921875,0.622802734375,0
-3.21622380239521e-05,0.000203173077748921,0.0142538793929555,0.0142396831802238,3.5791015625,0.561279296875,0
-0.000290922062125748,7.30893140781425e-05,0.00854922885868325,0.00854564584276266,3.239990234375,0.4287109375,0
-0.000374738803642715,1.12874969512879e-06,0.00106242632456504,0.00112557801714537,0.371337890625,0.3017578125,0
-0.000932704902694611,2.38297371093385e-06,0.00154368834643974,0.00180226405165604,0.61474609375,0.322509765625,0
-0.000555042259231537,1.80310451104018e-06,0.00134279727101308,0.00145174977512412,0.469970703125,0.339599609375,0
-0.00119292664670659,2.69109189153431e-06,0.00164045478192308,0.00202701614079801,0.7255859375,0.35302734375,0
-0.000933679515968064,2.60335718562265e-06,0.00161349223289815,0.00186277167211476,0.63623046875,0.356201171875,0
-0.000562351858782435,1.7444949426099e-06,0.00132079330048645,0.00143431256351341,0.4462890625,0.346923828125,0
-0.00051508311501996,1.72698045681099e-06,0.0013141462844033,0.00141026380702675,0.438232421875,0.353515625,0
-0.00113347523702595,2.87044595577522e-06,0.00169423904918262,0.00203702789271055,0.72119140625,0.33642578125,0
-0.000975587886726547,2.59137058448411e-06,0.00160977345750391,0.00188094920527787,0.64990234375,0.3125,0
-0.000456606318612774,1.72383390262931e-06,0.00131294855292555,0.00138884212443086,0.427001953125,0.32080078125,0
-0.00103503929640719,2.60916441500544e-06,0.00161529081437537,0.00191709750589492,0.66015625,0.3046875,0
-0.000738756861277445,1.97466166909345e-06,0.00140522655436533,0.00158634231133154,0.52197265625,0.2998046875,0
-0.000688076971057884,2.66438377593568e-06,0.00163229402251423,0.0017698913985741,0.6572265625,0.312744140625,0
-0.000534575380489022,3.05759740208913e-06,0.00174859869669662,0.00182681834091066,0.667236328125,0.33740234375,0
-0.000663711639221557,4.18321101251477e-06,0.00204528995805357,0.00214834225159146,0.8525390625,0.3349609375,0
-0.000558453405688623,9.14151797037639e-06,0.00302349433113019,0.0030716675656468,1.134765625,0.41943359375,0
3.1187624750499e-05,0.000102828243297493,0.0101404261891448,0.0101303489560244,3.6650390625,1.013427734375,0
0.00184104447355289,0.00030239873065682,0.0173896155983052,0.0174695330541394,6.830078125,2.0361328125,0
-0.000599874469810379,0.000746982375066913,0.0273309783042414,0.0273102772168625,10.182373046875,3.111328125,0
-0.0015657162238024,0.000541992601520287,0.0232807345571459,0.0233101318583539,9.506591796875,2.683349609375,0
-0.00168608096307385,0.00024275476823072,0.0155805894699373,0.0156560881700765,2.96484375,0.65673828125,0
-0.000832807042165669,2.74244515957709e-06,0.00165603295848153,0.00185217137074935,0.658935546875,0.37255859375,0
-0.00111690681137725,2.57092036173015e-06,0.00160340898142993,0.0019527594858207,0.7353515625,0.361083984375,0
-0.000803568643962076,2.86787189171462e-06,0.00169347922683292,0.00187293090157662,0.672607421875,0.364501953125,0
-0.000601336389720559,1.96845136478751e-06,0.00140301509784732,0.00152516483494387,0.5068359375,0.3349609375,0
-0.000446860185878244,2.94930682686751e-06,0.00171735460137606,0.00177288014615113,0.673095703125,0.340087890625,0
-0.00044588557260479,1.95192005819903e-06,0.00139711132634412,0.00146520918439511,0.494873046875,0.353271484375,0
-0.000928806449600798,3.18704013101117e-06,0.00178522831341293,0.00201081083005943,0.7509765625,0.376953125,0
-0.000258759824101796,1.32539315138034e-06,0.0011512572047029,0.00117885720197037,0.400634765625,0.3251953125,0
-0.000646655906936128,2.5997366495951e-06,0.00161236988609782,0.00173571639862666,0.623291015625,0.30224609375,0
-0.000787974831586826,2.11072681906694e-06,0.00145283406453282,0.00165148966896504,0.608154296875,0.345947265625,0
-0.0005433468999501,2.53838455367707e-06,0.00159323085385548,0.00168182750944524,0.563720703125,0.389404296875,0
-0.000294333208582834,1.58546261206834e-06,0.00125915154452049,0.00129187075735576,0.4482421875,0.3515625,0
-0.000681254678143713,2.39360261106206e-06,0.0015471272123074,0.00168906272756001,0.60400390625,0.360595703125,0
-0.000248526384730539,1.23653868715206e-06,0.00111199761112696,0.00113834788617855,0.39892578125,0.3701171875,0
-0.000301155501497006,1.49770696719963e-06,0.0012238083866356,0.0012591315134716,0.41455078125,0.3935546875,0
-0.00071975190244511,2.87469037754569e-06,0.00169549119064231,0.00184037911139902,0.627197265625,0.34765625,0
-0.000554067645958084,1.84376511031282e-06,0.00135785312545681,0.00146529037966182,0.483642578125,0.362060546875,0
-0.000290434755489022,1.40130353307058e-06,0.00118376667171811,0.00121772692637819,0.42529296875,0.356201171875,0
-0.00047561127744511,2.22309240086112e-06,0.0014910038232215,0.00156360518607247,0.5263671875,0.364501953125,0
-0.000723163048902196,2.14651577962849e-06,0.00146509923883281,0.00163254283628088,0.55322265625,0.35498046875,0
-0.000399591442115768,1.98315194029056e-06,0.00140824427578832,0.00146248653798808,0.49169921875,0.36181640625,0
-0.000810390936876248,2.45581891484365e-06,0.00156710526603788,0.00176285295792175,0.626708984375,0.34423828125,0
-0.000297257048403194,1.37344425071975e-06,0.00117194037848337,0.00120791746317994,0.41552734375,0.36376953125,0
-0.000810878243512974,2.31042641127657e-06,0.00152000868789509,0.00172143495593526,0.572265625,0.360595703125,0
-0.000498027382734531,2.12731380424576e-06,0.00145853138610239,0.00153983731051736,0.54443359375,0.356689453125,0
-0.000719264595808383,2.17336951615568e-06,0.00147423523094372,0.0016390158669252,0.5556640625,0.333251953125,0
-0.00102188201721557,2.696244302624e-06,0.00164202445250489,0.00193264208651722,0.680908203125,0.366455078125,0
-0.00170508592190619,2.58754161065686e-06,0.00160858372820841,0.00234300978615661,0.932861328125,0.326416015625,0
-0.00035281000499002,1.47482639777208e-06,0.00121442430713984,0.00126347043183769,0.42578125,0.35107421875,0
-0.000947811408433134,2.59209297850223e-06,0.00160999781940915,0.00186688660774504,0.647705078125,0.3564453125,0
-0.000169095402944112,1.39816554482587e-06,0.00118244050371504,0.00119330132428161,0.414794921875,0.369140625,0
-0.000730472648453094,2.23350144194034e-06,0.00149449036194294,0.00166211721769794,0.538330078125,0.34619140625,0
-0.000733396488273453,2.12478542518235e-06,0.00145766437329803,0.00163046457965856,0.521240234375,0.361572265625,0
-0.000591102950349301,2.42330261809145e-06,0.0015566960583529,0.00166369119268861,0.574462890625,0.324951171875,0
-0.00136494588947106,2.99157115989578e-06,0.00172961589952677,0.00220197121715062,0.829833984375,0.364013671875,0
-0.000459530158433134,1.62172936155886e-06,0.00127347138230856,0.00135264937929784,0.439208984375,0.34521484375,0
-0.000565763005239521,1.78128944899508e-06,0.00133464956036972,0.00144838591512437,0.467041015625,0.380859375,0
-0.000683203904690619,2.05739006072937e-06,0.0014343605058455,0.00158746687182013,0.51318359375,0.365966796875,0
-0.000326982753243513,1.16208974948662e-06,0.00107800266673447,0.00112547231418067,0.357177734375,0.35595703125,0
-0.000763609499750499,2.26376346961229e-06,0.00150458082854072,0.00168592539804174,0.533447265625,0.35400390625,0
-0.00103796313622754,2.06807987418717e-06,0.00143808201233002,0.00177237677778005,0.6298828125,0.361328125,0
-0.000525316554391218,1.73574341033509e-06,0.00131747615171399,0.00141712255466748,0.45751953125,0.348876953125,0
-0.000463428611526946,1.78287129202289e-06,0.00133524203499698,0.00141211853067344,0.441162109375,0.378662109375,0
-0.000899080744760479,2.43098007704684e-06,0.00155916005498051,0.00179846434688127,0.624755859375,0.355712890625,0
-0.000766533339570858,2.13363403807619e-06,0.001460696422285,0.00164831691375622,0.553955078125,0.372314453125,0
-0.000885923465568862,2.43317438456827e-06,0.00155986357883254,0.00179253399853829,0.61376953125,0.327880859375,0
-0.000497052769461078,1.87556186835923e-06,0.00136951154371156,0.0014556372101332,0.4697265625,0.35986328125,0
-0.000705132703343313,2.28521114813829e-06,0.00151169148576629,0.00166669192647161,0.543701171875,0.3466796875,0
-0.000674919691866267,2.14722246942882e-06,0.00146534039370681,0.00161197183185849,0.530517578125,0.36328125,0
-0.000509722742015968,1.53733917815005e-06,0.00123989482543885,0.001339435668707,0.42919921875,0.3525390625,0
-0.000829395895708583,2.06827593896679e-06,0.00143815017955942,0.00165892893021301,0.54345703125,0.3525390625,0
-0.000958532154441118,2.41354316056607e-06,0.00155355822567616,0.00182414626613255,0.623291015625,0.33984375,0
-0.00047414935753493,1.67624012914722e-06,0.0012946969255958,0.00137757466357257,0.418212890625,0.36962890625,0
-0.000930755676147705,2.47602024953998e-06,0.00157353749543504,0.00182685090306638,0.6181640625,0.334716796875,0
-0.000479997037175649,1.67374886914404e-06,0.0012937344662426,0.00137869692417709,0.430908203125,0.35009765625,0
-0.000658838572854291,2.16430294775439e-06,0.00147115700989201,0.00161060586329229,0.52490234375,0.34814453125,0
-0.000415672561127744,1.60106261095363e-06,0.00126533102821105,0.00133065794074726,0.419677734375,0.36328125,0
-0.000231957959081836,1.14247232616067e-06,0.00106886497096718,0.00109270144003636,0.34375,0.369873046875,0
-0.000597437936626746,1.59381011764922e-06,0.0012624619272078,0.00139555041042959,0.451171875,0.36279296875,0
-0.000513133888473054,1.63123707571429e-06,0.0012771989178332,0.00137524088834895,0.434326171875,0.375732421875,0
-0.000470738211077844,1.67792000456484e-06,0.00129534551551501,0.00137701319028103,0.443359375,0.366455078125,0
-0.000530189620758483,1.65954083501698e-06,0.00128823166977721,0.00139187981241933,0.44140625,0.3505859375,0
-0.000295795128493014,2.62112293890612e-06,0.00161898824545026,0.00164419765071999,0.557373046875,0.373046875,0
-0.000458555545159681,1.56802807501452e-06,0.00125220927764273,0.00133235560810705,0.412841796875,0.362548828125,0
-0.00107304921407186,2.69600731170106e-06,0.00164195228667007,0.00196011751571229,0.68115234375,0.359619140625,0
-0.000548707272954092,1.90321318879575e-06,0.00137956992892559,0.00148340622604475,0.478515625,0.376708984375,0
-0.000601823696357285,1.96440681487976e-06,0.00140157297879196,0.00152403333450765,0.489013671875,0.3837890625,0
-0.000865943893463074,2.28049131686578e-06,0.00151012956956209,0.00173948218289691,0.576416015625,0.3466796875,0
-0.000224161052894212,1.06378134615169e-06,0.00103139776330555,0.00105446963338265,0.31640625,0.336181640625,0
-0.00103455198977046,2.47558766972281e-06,0.00157340003486806,0.00188173967288435,0.636962890625,0.347900390625,0
-0.000525803861027944,1.69767924173625e-06,0.00130295020692897,0.0014038377259097,0.447509765625,0.369873046875,0
-0.00133765671781437,2.92647241832253e-06,0.00171069354892176,0.00217024345425218,0.806884765625,0.35595703125,0
-0.000326982753243513,1.25245039096611e-06,0.0011191293003787,0.00116484686156801,0.343994140625,0.37255859375,0
-0.000492667009730539,1.79515341798702e-06,0.00133983335455833,0.00142628575675038,0.454833984375,0.36279296875,0
-0.000818187843063872,2.12051530560095e-06,0.00145619892377414,0.00166904586116087,0.536376953125,0.372802734375,0
-0.000562351858782435,1.43574288267337e-06,0.0011982248881881,0.00132254177306148,0.42138671875,0.347412109375,0
-0.000569661458333333,1.67743364969889e-06,0.00129515777019593,0.001413718379258,0.446533203125,0.370849609375,0
-0.000802594030688623,2.04641947489299e-06,0.00143053118627068,0.00163905216005453,0.523193359375,0.35498046875,0
-0.00133327095808383,2.7995694897132e-06,0.00167319140857022,0.00213812838116182,0.771484375,0.3447265625,0
-0.00060962060254491,1.99642723905826e-06,0.00141294983600206,0.00153755638381062,0.479248046875,0.3408203125,0
-0.000286048995758483,1.12381428777577e-06,0.00106010107432064,0.00109699369800343,0.336181640625,0.36083984375,0
-0.000561377245508982,1.50931952242366e-06,0.0012285436591443,0.00134961154425327,0.41845703125,0.3564453125,0
-0.000822086296157685,2.37303056164892e-06,0.00154046439804655,0.00174474062600484,0.567138671875,0.345458984375,0
-0.00109887646581836,2.60940188181376e-06,0.00161536431860239,0.00195236343490488,0.673583984375,0.330322265625,0
-0.000595976016716567,1.80620109725617e-06,0.00134394981203026,0.00146893952154152,0.467041015625,0.35107421875,0
-0.000819162456337325,2.24766236341404e-06,0.00149922058530893,0.00170710372891159,0.559814453125,0.35986328125,0
-0.000886898078842315,2.34895028515966e-06,0.00153262855420342,0.00176942079898779,0.59228515625,0.345947265625,0
-0.000754350673652695,2.15088821456818e-06,0.00146659067724031,0.00164791988984884,0.53564453125,0.34716796875,0
-0.000538473833582834,1.62575535193651e-06,0.00127505111738177,0.00138291879758985,0.439208984375,0.370849609375,0
-0.000514108501746507,1.64477744264279e-06,0.00128248876901234,0.00138050787947891,0.417236328125,0.348876953125,0
-0.00116027710204591,2.78679244294614e-06,0.00166936887563718,0.00203161830482801,0.724365234375,0.350830078125,0
-0.000666635479041916,2.14822563582552e-06,0.00146568265181298,0.0016088320677505,0.51611328125,0.3603515625,0
-0.000478535117265469,2.18787212333755e-06,0.00147914574107407,0.00155322276945955,0.52197265625,0.36328125,0
-0.000932704902694611,2.38249687377564e-06,0.00154353389135958,0.00180213202249564,0.603515625,0.333251953125,0
-0.000572097991516966,2.28559375998979e-06,0.00151181803137474,0.00161503182894157,0.5283203125,0.3603515625,0
-0.000899080744760479,2.42072807814547e-06,0.00155586891419087,0.00179561757375377,0.615478515625,0.35546875,0
-0.000578920284431138,1.50524927470498e-06,0.00122688600721705,0.00135550488042668,0.43359375,0.368896484375,0
-0.000477560503992016,1.58155368949601e-06,0.001257598381637,0.00134404647638306,0.412109375,0.343017578125,0
-0.00101164857784431,2.47617396052012e-06,0.00157358633716747,0.00186940213506337,0.63623046875,0.35888671875,0
-0.000531164234031936,1.65540491511484e-06,0.00128662539813064,0.00139076818959962,0.4248046875,0.338134765625,0
-0.000547732659680639,1.59696238245555e-06,0.0012637097698663,0.00137614893789546,0.43603515625,0.370361328125,0
-0.000896644211576846,2.46194784274834e-06,0.00156905954085508,0.00180582519014223,0.60888671875,0.364013671875,0
-0.000619854041916168,1.68114793514777e-06,0.00129659088965941,0.00143597053720704,0.45166015625,0.377685546875,0
-0.000922471463323353,2.56352510280952e-06,0.00160110121566674,0.00184644574436482,0.618896484375,0.3447265625,0
-0.000501925835828343,1.67017401811367e-06,0.00129235212620774,0.00138519669437621,0.43994140625,0.3583984375,0
-0.000515570421656687,1.62121540534044e-06,0.0012732695729265,0.00137251313514108,0.4189453125,0.356201171875,0
-0.000487306636726547,1.68681049537278e-06,0.00129877268810704,0.00138596946804546,0.43798828125,0.358642578125,0
-0.000917111090319361,2.43071215357371e-06,0.00155907413344386,0.00180747148931735,0.60595703125,0.334228515625,0
-0.000261196357285429,1.20193420531983e-06,0.00109632759945184,0.00112594789937586,0.34423828125,0.33544921875,0
-0.000426393307135729,1.43656806793517e-06,0.00119856917528158,0.00127102789858135,0.407958984375,0.330810546875,0
-0.000293358595309381,1.13685592681824e-06,0.00106623446146626,0.00110482850196468,0.34716796875,0.359375,0
-0.000723650355538922,1.91776195686021e-06,0.00138483282632244,0.00156128278212323,0.503173828125,0.3310546875,0
-0.000484870103542914,1.71910550541982e-06,0.00131114663764959,0.00139670081779003,0.437255859375,0.379150390625,0
-0.000748015687375249,1.98864413354687e-06,0.00141019294195754,0.00159505556409123,0.512451171875,0.338623046875,0
-0.000923446076596806,2.30375354637405e-06,0.00151781209191851,0.00177536134132865,0.583740234375,0.33984375,0
-0.000724624968812375,2.06416714453174e-06,0.00143672096961509,0.00160783344779775,0.516357421875,0.32861328125,0
-0.00052775308757485,1.67154123683176e-06,0.00129288098324314,0.00139525200183415,0.425048828125,0.35693359375,0
-0.000466352451347305,1.67715049789337e-06,0.00129504845387861,0.00137524088834895,0.420654296875,0.34716796875,0
-0.000819649762974052,2.24769662716194e-06,0.00149923201245235,0.00170734763322876,0.548828125,0.356689453125,0
-0.000643244760479042,1.94861360652718e-06,0.00139592750761892,0.00153573695016253,0.4873046875,0.3505859375,0
-0.000510697355289421,2.2730560835726e-06,0.0015076657731648,0.00159038700767494,0.529296875,0.36328125,0
-0.00047561127744511,1.3953030942205e-06,0.00118122948414798,0.00127229090436789,0.40478515625,0.34130859375,0
-0.00047561127744511,1.66900762302909e-06,0.00129190077909609,0.00137545714499619,0.42919921875,0.3359375,0
-0.00115540403567864,2.69128795631393e-06,0.00164051454011049,0.00200521186155685,0.699951171875,0.354736328125,0
-0.000925882609780439,2.49557628365096e-06,0.00157973930876299,0.00182971410350302,0.61376953125,0.368408203125,0
-0.000587691803892216,1.99543644568164e-06,0.00141259918083002,0.00152867105518699,0.49169921875,0.326416015625,0
-0.00135958551646707,3.16010406631196e-06,0.00177766815415925,0.00223657533965486,0.8271484375,0.349609375,0
-0.000476585890718563,1.52931812994494e-06,0.00123665602733539,0.00132416000165367,0.4072265625,0.353271484375,0
-0.00117392168787425,2.69742069130172e-06,0.00164238262633947,0.00201745600877123,0.716552734375,0.35009765625,0
-0.000497052769461078,1.61306301276841e-06,0.00127006417663377,0.00136268293514856,0.416015625,0.328125,0
-0.000737294941367265,2.21607689847965e-06,0.00148864935376994,0.00165989681060686,0.549072265625,0.388427734375,0
-0.00106817614770459,2.68810428307204e-06,0.00163954392532559,0.00195543833653382,0.67919921875,0.34375,0
-0.000687102357784431,2.30738360010935e-06,0.00151900743912245,0.00166579941592445,0.55029296875,0.37353515625,0
-0.000407388348303393,1.15764117288494e-06,0.00107593734617074,0.00114947630606054,0.36572265625,0.362548828125,0
-0.000909314184131736,2.50339365291024e-06,0.00158221163341389,0.00182352656812426,0.6357421875,0.34375,0
-0.000697823103792415,1.97350241228968e-06,0.0014048140134159,0.0015673290560392,0.50439453125,0.339599609375,0
-0.000653478199850299,2.08349427777136e-06,0.00144343142468611,0.00158315171864159,0.504150390625,0.36083984375,0
-0.000629112868013972,2.12052958216258e-06,0.00145620382576155,0.00158495425450925,0.508056640625,0.3671875,0
-0.000278252089570858,1.08578438292482e-06,0.0010420097806282,0.00107751629870648,0.327880859375,0.328369140625,0
-0.000242191398453094,1.16729355619815e-06,0.00108041360422671,0.00110617372163008,0.338623046875,0.36962890625,0
-0.000403489895209581,1.74994097498363e-06,0.00132285334598497,0.00138175691580039,0.4228515625,0.36474609375,0
-0.000887385385479042,2.35797830684456e-06,0.00153557100351777,0.00177220895655104,0.593505859375,0.328125,0
-0.000744604540918164,2.32979685008645e-06,0.00152636720683014,0.00169693325718145,0.55517578125,0.357666015625,0
-0.000889334612025948,2.4715716729383e-06,0.00157212330080637,0.00180486964856007,0.597412109375,0.357177734375,0
-0.00046294130489022,1.6177419178976e-06,0.00127190483838124,0.00135234150416485,0.41357421875,0.359375,0
-0.000421520240768463,9.07604327934707e-07,0.000952682700553918,0.00104089963773042,0.320556640625,0.34423828125,0
-0.000267044036926148,1.13136658887425e-06,0.0010636571763845,0.00109563720719397,0.33642578125,0.358642578125,0
-0.000514595808383234,1.58836598881704e-06,0.00126030392716084,0.00136014868438248,0.41162109375,0.31201171875,0
-0.000575021831337325,1.63397294080662e-06,0.00127826951023899,0.0014004862099591,0.4521484375,0.352783203125,0
-0.000494128929640719,1.68463141618375e-06,0.0012979335176286,0.00138759946581669,0.4267578125,0.35302734375,0
-0.000956095621257485,2.5189493944545e-06,0.00158711984249914,0.00185149679674028,0.63427734375,0.325439453125,0
-0.000456606318612774,1.52546964481681e-06,0.00123509904251311,0.00131564209624938,0.414794921875,0.3232421875,0
-0.00143511804515968,3.18379078558581e-06,0.00178431801694255,0.00228844919482632,0.864990234375,0.36279296875,0
-0.000363043444361277,1.36508532388957e-06,0.00116836865923799,0.00122235884468429,0.376220703125,0.32421875,0
-0.000648605133483034,2.06481815574174e-06,0.00143694751321742,0.00157524137242451,0.505615234375,0.342529296875,0
-0.0002992062749501,1.04326164413117e-06,0.00102140180346971,0.00106334551324091,0.31884765625,0.340087890625,0
-0.000300180888223553,1.39553580217495e-06,0.00118132798247352,0.00121772692637819,0.37158203125,0.36865234375,0
-0.000912238023952096,2.27942723713949e-06,0.00150977721440598,0.00176268422995134,0.5791015625,0.3330078125,0
-0.000671021238772455,2.13936702933854e-06,0.00146265752291455,0.00160790744091534,0.526123046875,0.363037109375,0
-0.000253399451097804,1.09246724142048e-06,0.00104521157734713,0.00107447566277742,0.337890625,0.3017578125,0
-0.000667610092315369,3.00975949940329e-06,0.0017348658447855,0.00185727090936508,0.60400390625,0.35986328125,0
-0.00032454622005988,2.56188615353521e-06,0.00160058931445115,0.0016315951879292,0.47412109375,0.383056640625,0
-0.000342089258982036,1.439375791721e-06,0.0011997398850255,0.00124640597208918,0.37646484375,0.365234375,0
-0.000843527788173653,2.22590440761544e-06,0.00149194651633878,0.00171260054130182,0.563232421875,0.357421875,0
-0.000347449631986028,1.84801714624949e-06,0.0013594179439192,0.00140180231703268,0.411376953125,0.388916015625,0
-0.000694411957335329,2.07255557625593e-06,0.00143963730719092,0.00159706815924326,0.530029296875,0.37109375,0
-0.000580869510978044,1.80076886555868e-06,0.00134192729518356,0.00146102152801028,0.4677734375,0.366943359375,0
-0.000675406998502994,2.06895788272698e-06,0.00143838725061333,0.0015877666200992,0.51025390625,0.356689453125,0
-0.000281663236027944,1.124282558997e-06,0.00106032191290994,0.00109607146690472,0.34033203125,0.347900390625,0
-0.000452707865518962,2.34298268240131e-06,0.00153068046384649,0.00159475718583223,0.536376953125,0.3515625,0
-0.000677843531686627,2.01475168178657e-06,0.00141941948760279,0.00157168765179131,0.498779296875,0.341552734375,0
-0.000485844716816367,1.60943866965775e-06,0.00126863653961951,0.00135730295294812,0.423095703125,0.34375,0
-0.000714878836077844,2.16691651030215e-06,0.00147204500960472,0.00163512784757611,0.521240234375,0.3662109375,0
-0.000255835984281437,1.01457241766467e-06,0.0010072598560772,0.001038267486668,0.323486328125,0.321044921875,0
-0.000934654129241517,2.42701024114491e-06,0.00155788646606385,0.00181541847810208,0.638671875,0.369140625,0
-0.000495103542914172,1.6586314180416e-06,0.00128787865035554,0.00137856747919527,0.439453125,0.3642578125,0
-0.000265094810379242,1.12120024934262e-06,0.00105886743709618,0.00109052170229814,0.32470703125,0.343017578125,0
-0.000693437344061876,2.04387015687253e-06,0.00142963986964289,0.00158765422112646,0.512451171875,0.35009765625,0
-0.000709518463073852,2.13940034131566e-06,0.00146266891035383,0.00162436034505772,0.52685546875,0.3486328125,0
-0.000187125748502994,9.63410931433032e-07,0.000981534987370818,0.000998250470210154,0.2978515625,0.32373046875,0
-0.000325033526696607,1.20031809854412e-06,0.00109559029684646,0.0011417394832066,0.344482421875,0.35546875,0
-0.00070708192989022,2.04069647722377e-06,0.00142852948069817,0.00159266697282876,0.518310546875,0.306640625,0
-0.00104039966941118,2.58955317818952e-06,0.00160920886717341,0.00191489317756413,0.673583984375,0.352783203125,0
-0.00088202501247505,2.1308515362159e-06,0.00145974365428177,0.00170427886866218,0.57373046875,0.31005859375,0
-0.000823060909431138,2.43388964030557e-06,0.00156009283066924,0.00176251548582839,0.617431640625,0.33447265625,0
-0.000643244760479042,1.26855558977869e-05,0.00356167880328743,0.00361579856308628,1.142578125,0.44091796875,0
-0.000582331430888224,8.38382848484549e-06,0.0028954841537894,0.00295062776229963,0.978271484375,0.403076171875,0
-0.00035281000499002,1.1773078503485e-05,0.00343119199455305,0.00344587496064736,1.21484375,0.39990234375,0
-0.00115394211576846,0.000230022613635796,0.0151664964192722,0.0151952317872751,5.177734375,1.344970703125,0
0.000719264595808383,0.000528085892785809,0.0229801195120001,0.0229684385774553,9.3212890625,2.0576171875,0
2.43653318363273e-06,0.00114793836475608,0.0338812391266329,0.0338474087125078,13.754638671875,3.490234375,0
-0.000792360591317365,0.00126166901616993,0.0355199805204047,0.0354933592386959,14.345703125,3.366455078125,0
-0.000744604540918164,5.91608911693215e-06,0.0024323011978232,0.00254140049543091,0.96337890625,0.3701171875,0
-0.000282637849301397,1.81896006037851e-06,0.00134868827398273,0.00137666755443465,0.50439453125,0.4111328125,0
-0.000193948041417166,1.81362919226854e-06,0.00134671050796693,0.00135927370926177,0.48876953125,0.33935546875,0
-0.000682229291417166,1.40502243460771e-05,0.00374836288879254,0.00380626021078072,1.28564453125,0.40380859375,0
-0.00105355694860279,3.4854616709574e-06,0.00186693911817108,0.0021420753734599,0.8603515625,0.309326171875,0
-0.000833781655439122,2.58894499666439e-06,0.00160901988696982,0.00181079244827441,0.672119140625,0.30517578125,0
-0.000431753680139721,3.78813048798643e-06,0.0019463120222581,0.00199172804107439,0.71728515625,0.298828125,0
-0.00143755457834331,2.91773563849474e-06,0.0017081380618951,0.00223124964550828,0.89501953125,0.362060546875,0
-0.000441987119510978,1.69026685094167e-06,0.00130010263092637,0.00137194959040981,0.481201171875,0.369873046875,0
-0.000925395303143713,3.12483239316655e-06,0.0017677195459593,0.00199372808322536,0.752197265625,0.365966796875,0
-0.000882999625748503,2.89206733246763e-06,0.0017006079302613,0.00191467571198197,0.71533203125,0.35400390625,0
-0.000487306636726547,2.15196514319993e-06,0.00146695778507765,0.00154438905777996,0.5439453125,0.389892578125,0
-0.000873253493013972,2.65411036219188e-06,0.00162914405814583,0.00184699334048056,0.68603515625,0.31640625,0
-0.000428829840319361,1.9095291396577e-06,0.00138185713431516,0.0014455492852883,0.52734375,0.36181640625,0
-0.000246089851546906,1.72233200834659e-06,0.00131237647355726,0.00133396193159368,0.450927734375,0.36376953125,0
-0.000949273328343313,3.43772655951525e-06,0.00185411071932483,0.00208134203862785,0.76708984375,0.35498046875,0
-0.000657376652944112,2.21212657387861e-06,0.00148732194694982,0.00162476312593912,0.566650390625,0.334228515625,0
-0.000645193987025948,2.82967637874885e-06,0.00168216419494318,0.00180008433219088,0.65576171875,0.3818359375,0
-0.000533600767215569,9.25800043665721e-06,0.00304269624455962,0.00308613855370145,1.133544921875,0.4833984375,0
-0.00171093360154691,6.65092087553409e-06,0.00257893793557233,0.00309272361734243,1.185791015625,0.431396484375,0
4.04464508483034e-05,1.04776018869853e-06,0.00102360157712781,0.00102337909221498,0.383056640625,0.344970703125,0
5.99387163173653e-05,9.94301127816389e-07,0.000997146492656114,0.00099795247609318,0.356689453125,0.33642578125,0
8.08929016966068e-05,1.12259364175701e-06,0.00105952519637667,0.00106155385988189,0.38671875,0.3310546875,0
4.04464508483034e-05,4.05332147480247e-05,0.00636657009291696,0.00636034166088233,2.400146484375,0.74365234375,0
0.000207592627245509,2.11403098648894e-05,0.00459785926980039,0.00459795697418982,1.61328125,0.53955078125,0
0.00010720746007984,7.54611411256467e-06,0.00274701913218031,0.00274636950318859,0.9765625,0.375,0
2.92383982035928e-06,2.69817449375541e-06,0.00164261209473065,0.00164097454726234,0.62255859375,0.353759765625,0
7.79690618762475e-05,1.81757237858877e-06,0.00134817371973673,0.00134908252683793,0.49560546875,0.341796875,0
0.000104770926896208,1.45324880253531e-06,0.00120550769492995,0.00120885278402515,0.460693359375,0.341796875,0
5.26291167664671e-05,1.16833669696739e-06,0.00108089624708729,0.00108109875197589,0.390625,0.363525390625,0
5.99387163173653e-05,1.06534986438865e-06,0.00103215786795851,0.00103286788471097,0.380615234375,0.332275390625,0
0.000145704684381238,1.05101524474854e-06,0.00102519034561809,0.00103447922404431,0.385009765625,0.294921875,0
7.99182884231537e-05,1.03262846103447e-06,0.00101618328122169,0.00101830951051544,0.373046875,0.330322265625,0
9.06390344311377e-05,1.08777834269815e-06,0.00104296612730143,0.00104585972434351,0.3779296875,0.354736328125,0
2.63145583832335e-05,1.10175366887075e-06,0.00104964454405801,0.00104892660169058,0.380859375,0.34765625,0
9.84359406187625e-05,1.01859031799073e-06,0.00100925235595005,0.00101303841881197,0.35791015625,0.340087890625,0
3.75226110279441e-05,1.09138079508098e-06,0.00104469172251003,0.00104432290822271,0.376220703125,0.34814453125,0
7.16340755988024e-05,1.03948930066503e-06,0.00101955348102247,0.0010210513760377,0.363037109375,0.35400390625,0
1.99795721057884e-05,1.05925139314876e-06,0.00102919939426175,0.00102836584064839,0.368896484375,0.33544921875,0
7.69944486027944e-05,9.78013474546269e-07,0.000988945637811436,0.000990953831900474,0.357421875,0.343994140625,0
6.2375249500998e-05,1.04347436489935e-06,0.00102150592993842,0.00102239046038497,0.36474609375,0.35546875,0
0.0001101312999002,9.86820685411404e-07,0.000993388486651322,0.000998488801470614,0.36328125,0.343994140625,0
4.09337574850299e-05,1.10506012054261e-06,0.0010512183981184,0.00105096621459541,0.380859375,0.3447265625,0
9.94105538922156e-05,1.00051571509081e-06,0.00100025782430872,0.00100419178246015,0.3671875,0.310302734375,0
5.21418101297405e-05,1.04142996127496e-06,0.00102050475808541,0.001020818312493,0.373779296875,0.32763671875,0
0.000109643993263473,9.76795207954453e-07,0.000988329503735699,0.000993411959953861,0.359619140625,0.33642578125,0
6.04260229540918e-05,1.15267150178403e-06,0.00107362540105198,0.00107425418989807,0.39013671875,0.318115234375,0
0.000113055139720559,9.59940775187905e-07,0.00097976567361176,0.000985294976316061,0.35986328125,0.319091796875,0
-2.24161052894212e-05,1.16893964375326e-06,0.00108117512168624,0.00108032815045607,0.38818359375,0.354736328125,0
7.99182884231537e-05,1.02380697360772e-06,0.00101183347128256,0.00101397750445401,0.36279296875,0.34423828125,0
4.97052769461078e-05,1.16839808618237e-06,0.00108092464408134,0.00108098869967734,0.39697265625,0.32861328125,0
9.40501808882236e-05,1.1061013577703e-06,0.00105171353408155,0.00105486444965889,0.389404296875,0.305419921875,0
3.84972243013972e-05,1.09655176570078e-06,0.00104716367665269,0.00104682619182959,0.382080078125,0.322998046875,0
8.77151946107784e-05,1.16888634458987e-06,0.00108115047268633,0.00108362687004303,0.40185546875,0.340576171875,0
6.28625561377245e-05,1.0411482371256e-06,0.00102036671698248,0.00102128438639583,0.372314453125,0.3408203125,0
9.69740207085828e-05,1.08313037011914e-06,0.00104073549479161,0.0010442089800155,0.394775390625,0.341552734375,0
6.52990893213573e-05,1.18376728065475e-06,0.00108801069877771,0.00108888403550494,0.40625,0.329833984375,0
0.000124750499001996,1.19843359240991e-06,0.0010947299175641,0.00110072893865491,0.41845703125,0.332763671875,0
8.18675149700599e-05,1.18370827086671e-06,0.00108798358023764,0.00108997608676277,0.40869140625,0.33203125,0
9.79486339820359e-05,1.33733263986553e-06,0.00115643099226263,0.00115942108318678,0.432373046875,0.345458984375,0
4.6294130489022e-05,1.54602361058523e-06,0.0012433919778514,0.00124301282440397,0.479736328125,0.360595703125,0
5.99387163173653e-05,1.18646650257225e-06,0.00108925043152264,0.00108981234883539,0.406494140625,0.3603515625,0
4.23956773952096e-05,1.17586758322345e-06,0.00108437428188954,0.00108412081227185,0.401611328125,0.363037109375,0
0.000116953592814371,1.17409586192605e-06,0.00108355704138086,0.00108877477013559,0.40087890625,0.343017578125,0
6.18879428642715e-05,1.13997535553283e-06,0.00106769628431162,0.0010684241073158,0.396240234375,0.330810546875,0
8.72278879740519e-05,1.18411134578987e-06,0.001088168803904,0.00109057624883825,0.405029296875,0.3486328125,0
9.69740207085828e-05,1.12962199304394e-06,0.00106283676688565,0.00106619473794391,0.401611328125,0.343505859375,0
0.00010720746007984,1.00033202333127e-06,0.00100016599788798,0.0010049023793995,0.37060546875,0.339111328125,0
8.04055950598802e-05,1.1401961663526e-06,0.00106779968456289,0.00106975949886791,0.402099609375,0.337646484375,0
7.89436751497006e-05,1.18131837445105e-06,0.00108688471074491,0.00108866549379968,0.40087890625,0.336669921875,0
2.97257048403194e-05,1.1679616992821e-06,0.00108072276707863,0.00108005280238215,0.398681640625,0.36376953125,0
0.000115004366267465,2.42052439919965e-06,0.00155580345776697,0.00155849896292358,0.546875,0.329833984375,0
0.000113542446357285,1.29182800323425e-06,0.00113658611782577,0.00114111410093408,0.423583984375,0.350830078125,0
5.65275698602794e-05,1.15432044465147e-06,0.00107439305873198,0.00107480778652842,0.39697265625,0.33984375,0
8.23548216067864e-05,5.32102489661789e-06,0.0023067346827535,0.0023059025142193,0.677978515625,0.358154296875,0
8.23548216067864e-05,1.06739902686692e-06,0.00103315005050908,0.00103539886349611,0.387939453125,0.353271484375,0
7.79690618762475e-05,1.13974835820303e-06,0.00106758997663102,0.00106937018192492,0.388671875,0.35791015625,0
9.69740207085828e-05,1.12509204004101e-06,0.00106070355898385,0.00106407251070531,0.394775390625,0.3583984375,0
6.62737025948104e-05,1.32239840463726e-06,0.00114995582725479,0.001150717641526,0.43505859375,0.328857421875,0
0.000118902819361277,1.18770190103801e-06,0.00108981737049747,0.00109520277529458,0.4208984375,0.330078125,0
6.96848490518962e-05,1.22430129441435e-06,0.00110648149302839,0.0011075710168848,0.415283203125,0.345947265625,0
3.60606911177645e-05,1.16456387761586e-06,0.00107914960854177,0.00107867500771183,0.412109375,0.3427734375,0
4.14210641217565e-05,1.41317592171614e-06,0.0011887707607929,0.00118830590162909,0.446533203125,0.349365234375,0
6.48117826846307e-05,1.21732862171775e-06,0.00110332616289008,0.0011041283400241,0.416259765625,0.357177734375,0
2.29034119261477e-05,1.10704789380589e-06,0.00105216343493104,0.00105136234650524,0.394775390625,0.3505859375,0
7.26086888722555e-05,1.13018591722804e-06,0.00106310202578494,0.00106451964698335,0.398681640625,0.350341796875,0
6.96848490518962e-05,1.21142669114286e-06,0.0011006483049289,0.0011017552595666,0.404541015625,0.33056640625,0
0.000103309006986028,1.06171267237254e-06,0.00103039442563153,0.00103453672546033,0.3798828125,0.32177734375,0
4.04464508483034e-05,1.16387003672099e-06,0.00107882808487775,0.00107850955407059,0.398193359375,0.329345703125,0
7.69944486027944e-05,1.01520677288611e-06,0.00100757469841502,0.00100950906740734,0.36572265625,0.34326171875,0
0.000106232846806387,1.2349059243878e-06,0.00111126321111958,0.0011152248473038,0.408203125,0.34521484375,0
1.70557322854291e-05,4.72504554870362e-06,0.00217371698910038,0.00217161350568357,0.616943359375,0.32373046875,0
3.80099176646707e-05,1.03352740853132e-06,0.00101662550063006,0.00101632142229368,0.36669921875,0.3466796875,0
0.000100872473802395,1.05565465139058e-06,0.0010274505590979,0.00103136938690706,0.372802734375,0.333984375,0
0.000101359780439122,1.07927855379329e-06,0.00103888332058672,0.00104278382720178,0.3876953125,0.301025390625,0
8.8202501247505e-05,1.0180006959957e-06,0.00100896020535782,0.00101180454619707,0.370361328125,0.306396484375,0
4.77560503992016e-05,1.04318026772992e-06,0.0010213619670469,0.00102145910928264,0.36572265625,0.34228515625,0
8.38167415169661e-05,9.95510828471232e-07,0.000997752889482778,0.00100027447586547,0.35595703125,0.343505859375,0
7.26086888722555e-05,9.98102024405778e-07,0.000999050561486143,0.00100069067473217,0.365478515625,0.311767578125,0
6.38371694111777e-05,1.04626971566511e-06,0.00102287326471323,0.00102384400040124,0.358154296875,0.346435546875,0
8.57659680638723e-05,1.05383058270057e-06,0.00102656250793635,0.00102911754903005,0.37890625,0.307861328125,0
0.000120364739271457,1.05061835633542e-06,0.00102499675918289,0.00103102327042986,0.377197265625,0.33544921875,0
8.67405813373254e-05,1.05795365369724e-06,0.00102856874038503,0.00103119634319002,0.38134765625,0.340087890625,0
9.64867140718563e-05,1.02063995635438e-06,0.001010267269763,0.00101386016631736,0.36376953125,0.318115234375,0
4.38575973053892e-05,1.02017311278931e-06,0.00101003619380165,0.00100998036018157,0.37060546875,0.33056640625,0
0.000101359780439122,9.92255772421222e-07,0.000996120360408933,0.00100027447586547,0.3720703125,0.27197265625,0
7.50452220558882e-05,1.05722697671064e-06,0.00102821543302493,0.00102992646755854,0.37109375,0.352783203125,0
9.50247941616767e-05,1.05584881262865e-06,0.00102754504165445,0.00103090787244748,0.381591796875,0.334716796875,0
5.60402632235529e-05,1.07748541765346e-06,0.0010380199505084,0.00103849663420702,0.385498046875,0.33251953125,0
0.000135958551646707,1.50699958115995e-06,0.00122759911256075,0.00123388667458964,0.479248046875,0.344482421875,0
9.16136477045908e-05,1.08831561730056e-06,0.00104322366599908,0.00104620093246231,0.3798828125,0.345703125,0
8.96644211576846e-05,1.07817925854833e-06,0.00103835411038255,0.0010411853401588,0.3740234375,0.354736328125,0
0.0001101312999002,1.16134308531375e-06,0.00107765629275467,0.00108219865942486,0.3984375,0.358154296875,0
8.72278879740519e-05,1.02913926937385e-06,0.00101446501633809,0.00101719899902424,0.369384765625,0.34033203125,0
0.000125237805638723,1.07230730875286e-06,0.00103552272247057,0.00104204197744834,0.385498046875,0.345458984375,0
0.000109156686626747,9.85604322361137e-07,0.000992776068588046,0.00099777363690365,0.37109375,0.349853515625,0
0.000112080526447106,1.43890514107283e-06,0.00119954372203469,0.00120357597156625,0.45849609375,0.3359375,0
7.35833021457086e-05,1.9368516232915e-06,0.00139170816743005,0.00139226439814505,0.541259765625,0.342529296875,0
6.82229291417166e-05,1.26467683833992e-06,0.00112457851586269,0.0011255251669039,0.41552734375,0.35693359375,0
0.000134496631736527,1.00230599591832e-06,0.00100115233402231,0.00100915545338491,0.36669921875,0.33642578125,0
0.000138395084830339,1.06084465742587e-06,0.00102997313432238,0.00103821019188073,0.3828125,0.333740234375,0
0.000100872473802395,1.10119259999898e-06,0.00104937724389229,0.00105317133779288,0.387939453125,0.3369140625,0
7.84563685129741e-05,1.12357872450899e-06,0.00105998996434353,0.00106183400499533,0.389892578125,0.3369140625,0
0.00014960313747505,1.01076105159676e-06,0.00100536612813281,0.00101544308713497,0.371337890625,0.3134765625,0
6.52990893213573e-05,1.08983036048874e-06,0.00104394940513836,0.00104494929133148,0.37841796875,0.330078125,0
5.06798902195609e-05,1.03192462654647e-06,0.00101583690942319,0.00101608727382328,0.36572265625,0.337646484375,0
9.21009543413174e-05,1.04733712658911e-06,0.00102339490256162,0.00102651313635678,0.375732421875,0.307861328125,0
0.000154476203842315,1.02381982251318e-06,0.00101183982058089,0.00102256499427995,0.381103515625,0.322509765625,0
6.2375249500998e-05,1.07232301297064e-06,0.00103553030519181,0.0010363750862625,0.3681640625,0.343994140625,0
9.84359406187625e-05,1.00762306335206e-06,0.00100380429534449,0.00100762169194505,0.3662109375,0.33642578125,0
9.40501808882236e-05,1.08082898838553e-06,0.00103962925525667,0.00104284087070869,0.379150390625,0.33984375,0
0.000114029752994012,1.08560402236299e-06,0.00104192323247108,0.00104711027720806,0.38232421875,0.340576171875,0
0.000150577750748503,1.0252498581024e-06,0.00101254622516821,0.0010226813336619,0.370361328125,0.32861328125,0
0.000161298496756487,9.93289395482717e-07,0.00099663904974806,0.00100862479990073,0.372314453125,0.312744140625,0
0.000113542446357285,1.06533035308777e-06,0.00103214841621143,0.00103735039033211,0.380615234375,0.3564453125,0
0.000144730071107784,1.0129134812041e-06,0.00100643602936505,0.00101579451233571,0.372314453125,0.304443359375,0
0.000105745540169661,1.15406632185458e-06,0.00107427478880153,0.00107839923754045,0.394287109375,0.327392578125,0
0.000121826659181637,9.81002986550093e-07,0.00099045594881857,0.000996938629828305,0.36962890625,0.3271484375,0
0.000111593219810379,1.10582439247482e-06,0.00105158185248454,0.00105644223924744,0.385009765625,0.314697265625,0
0.000111593219810379,1.03358356300704e-06,0.00101665311832849,0.00102175024769792,0.363037109375,0.34033203125,0
8.43040481536926e-05,1.10021370375704e-06,0.00104891072249121,0.00105124918119126,0.381591796875,0.334716796875,0
9.3562874251497e-05,1.00236167450865e-06,0.00100118014088807,0.00100454714376262,0.35546875,0.345458984375,0
6.33498627744511e-05,1.0435900050485e-06,0.00102156253114946,0.00102250681962513,0.36767578125,0.345458984375,0
8.91771145209581e-05,1.0206884966639e-06,0.00101029129297639,0.00101321456366834,0.354736328125,0.33935546875,0
0.0001101312999002,1.05882309630008e-06,0.00102899130040058,0.00103384649738919,0.37451171875,0.3505859375,0
0.000121826659181637,9.52631175637007e-07,0.000976028265798182,0.000982634953119395,0.35986328125,0.328125,0
0.000116953592814371,1.11234544993875e-06,0.00105467788918643,0.00106009591189281,0.388671875,0.2802734375,0
8.96644211576846e-05,9.95686430179193e-07,0.000997840884199075,0.0010008689926941,0.36865234375,0.326904296875,0
0.000114517059630739,1.18074064959071e-06,0.00108661890724886,0.00109155762045507,0.404052734375,0.251953125,0
0.000132060098552894,9.93062398152913e-07,0.00099652516182629,0.00100425101807634,0.372802734375,0.29150390625,0
5.36037300399202e-05,1.12341026108184e-06,0.00105991049673161,0.00106020813291805,0.3759765625,0.28515625,0
0.000213927613522954,1.90357295814864e-06,0.00137970031461497,0.00139482559309529,0.555908203125,0.271728515625,0
0.000118415512724551,5.55252000957192e-05,0.00745152334061427,0.00744502475393245,2.913818359375,0.658935546875,0
-9.45374875249501e-05,7.22426030926124e-05,0.00849956487666353,0.00849160430169705,3.4736328125,0.73828125,0
0.000721213822355289,0.000145711176885578,0.0120710884714502,0.0120805829987922,4.75244140625,0.871826171875,0
-0.000292383982035928,0.000259159497872084,0.0160984315345342,0.0160850148224409,6.5087890625,1.260498046875,0
0.000986795939371258,0.000433155074091015,0.0208123779057323,0.020815000824664,7.969482421875,1.35791015625,0
-0.000932704902694611,0.000333785990755001,0.0182698109118568,0.0182753848027342,7.521484375,1.27587890625,0
0.000519468874750499,0.000333472230953133,0.0182612220553043,0.0182503826159764,7.4150390625,1.328125,0
0.000463915918163673,0.000284645677802567,0.0168714456346386,0.0168609827927134,6.7763671875,1.232177734375,0
1.55938123752495e-05,1.27410365197949e-06,0.00112876199970565,0.00112774274455748,0.41943359375,0.328369140625,0
0.000187613055139721,2.69545813996397e-06,0.00164178504682068,0.00165084119237885,0.624267578125,0.270263671875,0
7.89436751497006e-05,1.12338265972937e-06,0.00105989747604632,0.00106177798188584,0.39208984375,0.31201171875,0
0.000139857004740519,1.01263413648168e-06,0.00100629724062112,0.00101497433092436,0.383544921875,0.282470703125,0
7.45579154191617e-05,1.09079783548138e-06,0.00104441267489503,0.00104603034231539,0.383056640625,0.31689453125,0
0.0001101312999002,9.93257987047146e-07,0.000996623292446623,0.0010017007234661,0.37060546875,0.30126953125,0
7.35833021457086e-05,9.98436095947753e-07,0.000999217742010095,0.00100092842495523,0.354736328125,0.3291015625,0
0.000142293537924152,1.04806570711726e-06,0.00102375080323156,0.00103257988094531,0.38623046875,0.293701171875,0
7.40706087824351e-05,1.09695008177005e-06,0.00104735384745083,0.00104892660169058,0.38330078125,0.325927734375,0
6.04260229540918e-05,9.82202217726412e-07,0.00099106115740978,0.000991913826150208,0.361328125,0.327880859375,0
3.75226110279441e-05,9.68118389685473e-07,0.000983930073575086,0.000983663542065338,0.346923828125,0.329345703125,0
8.72278879740519e-05,1.01507257320686e-06,0.00100750810081451,0.00101027480651889,0.362548828125,0.341796875,0
8.2842128243513e-05,9.91858884008107e-07,0.000995921123386841,0.000998369642952203,0.365234375,0.305419921875,0
4.09337574850299e-05,1.08765556426819e-06,0.00104290726542114,0.00104266973082558,0.37841796875,0.342041015625,0
6.04260229540918e-05,1.10093467011899e-06,0.00104925434005249,0.00104994690340873,0.3818359375,0.35009765625,0
0.000114029752994012,9.88329242089551e-07,0.000994147495138197,0.000999679605473356,0.36669921875,0.341552734375,0
8.38167415169661e-05,9.95987665629435e-07,0.00099799181641406,0.00100051232498923,0.36328125,0.322998046875,0
0.000152039670658683,1.04256875500708e-06,0.00102106256174981,0.00103131170889415,0.37353515625,0.316650390625,0
8.04055950598802e-05,1.08965142758307e-06,0.00104386370163114,0.0010459166000933,0.381103515625,0.31591796875,0
0.000132060098552894,1.04026927681502e-06,0.00101993591799437,0.00102743990610778,0.386962890625,0.3466796875,0
3.21622380239521e-05,1.07590024342794e-06,0.00103725611274552,0.00103671941599776,0.38916015625,0.300537109375,0
0.00014814121756487,1.04612552239271e-06,0.00102280277785735,0.0010324646569444,0.3798828125,0.329345703125,0
7.7481755239521e-05,1.06960999037691e-06,0.00103421950783038,0.00103608805740213,0.377197265625,0.331787109375,0
0.000101359780439122,1.09644469148861e-06,0.00104711254958032,0.00105096621459541,0.3779296875,0.356689453125,0
5.99387163173653e-05,1.02982549610252e-06,0.00101480318096788,0.00101556024238049,0.369873046875,0.31396484375,0
8.43040481536926e-05,1.04561584914278e-06,0.00102255359230838,0.00102500534832495,0.370849609375,0.33984375,0
3.89845309381238e-05,1.07469863282468e-06,0.00103667672532216,0.0010363750862625,0.3818359375,0.3408203125,0
0.000111105913173653,1.08197206508614e-06,0.00104017886206466,0.00104506313883319,0.384765625,0.3408203125,0
5.50656499500998e-05,1.05041420150422e-06,0.00102489716630705,0.00102535349620309,0.367431640625,0.3486328125,0
7.69944486027944e-05,1.06265207012732e-06,0.00103085016861197,0.00103269509208999,0.36962890625,0.340576171875,0
4.92179703093812e-05,1.06771453887879e-06,0.001033302733413,0.00103344365145657,0.379638671875,0.347412109375,0
8.18675149700599e-05,1.12434204467042e-06,0.00106034996330005,0.00106245006422883,0.39208984375,0.353271484375,0
9.25882609780439e-05,1.16252232930379e-06,0.00107820328755935,0.00108109875197589,0.39501953125,0.325439453125,0
6.62737025948104e-05,1.04440234140484e-06,0.00102196004883011,0.00102308841731713,0.373046875,0.32177734375,0
3.45987712075848e-05,1.20007254168421e-06,0.00109547822510729,0.00109493116782685,0.407958984375,0.32373046875,0
0.000111593219810379,1.07745258156173e-06,0.00103800413369202,0.00104295494836266,0.390869140625,0.32666015625,0
4.38575973053892e-05,1.04926017943971e-06,0.00102433401751563,0.00102425062196008,0.369140625,0.340576171875,0
0.000125725112275449,1.02414342457663e-06,0.00101199971569987,0.00101877673215531,0.37060546875,0.325439453125,0
5.36037300399202e-05,9.76782834934379e-07,0.000988323244153642,0.00098879043708532,0.35693359375,0.3427734375,0
0.000118415512724551,1.00888463551413e-06,0.00100443249425441,0.00101039256102789,0.376220703125,0.33544921875,0
4.14210641217565e-05,1.01859317330305e-06,0.00100925377051713,0.00100909650566714,0.366943359375,0.353759765625,0
0.000144242764471058,1.08970615440262e-06,0.00104388991488692,0.00105277588655917,0.38232421875,0.312255859375,0
8.86898078842315e-05,1.0578494347974e-06,0.00102851807703968,0.00103131170889415,0.37158203125,0.351318359375,0
0.000132547405189621,1.1651906186711e-06,0.00107943995602864,0.00108647765900446,0.408203125,0.320068359375,0
5.65275698602794e-05,1.27162238556944e-06,0.00112766235441706,0.00112795371504751,0.41748046875,0.347412109375,0
7.50452220558882e-05,1.10920222695478e-06,0.00105318670090102,0.00105480805638149,0.380859375,0.331787109375,0
6.82229291417166e-05,1.22676828426277e-06,0.00110759572239277,0.00110859100349656,0.4208984375,0.357421875,0
9.06390344311377e-05,1.71768022868448e-06,0.00131060300193631,0.00131242796365996,0.4990234375,0.34814453125,0
5.1654503493014e-05,1.59210835150378e-06,0.00126178776008637,0.00126158577918976,0.48046875,0.36181640625,0
6.773562250499e-05,1.35808409806973e-06,0.00116536865328948,0.00116617385750287,0.439208984375,0.343017578125,0
4.92179703093812e-05,1.33045181304871e-06,0.00115345212863331,0.00115335104335535,0.429443359375,0.365966796875,0
8.23548216067864e-05,1.17683315467454e-06,0.00108481941108856,0.00108686084801313,0.390869140625,0.34423828125,0
6.09133295908184e-05,1.07453016939753e-06,0.00103659547046933,0.00103735039033211,0.386962890625,0.326171875,0
8.86898078842315e-05,1.09003594297611e-06,0.0010440478643128,0.00104676936550206,0.38427734375,0.350830078125,0
8.33294348802395e-05,1.06127676135766e-06,0.00103018287762788,0.00103252227055216,0.378662109375,0.346923828125,0
9.8923247255489e-05,1.05604487740827e-06,0.00102764044169557,0.00103136938690706,0.383056640625,0.333740234375,0
2.97257048403194e-05,1.05852757147448e-06,0.00102884769109644,0.00102825014442924,0.373291015625,0.328857421875,0
8.72278879740519e-05,1.0212714562635e-06,0.00101057976244505,0.00101333197656215,0.375244140625,0.330810546875,0
1.26699725548902e-05,1.05174192173514e-06,0.00102554469514261,0.00102459902628626,0.36865234375,0.326416015625,0
9.55121007984032e-05,1.02321164098804e-06,0.00101153924342462,0.00101503293728933,0.3662109375,0.33154296875,0
7.50452220558882e-05,1.25797542031416e-06,0.00112159503400923,0.00112298543030839,0.41162109375,0.321533203125,0
9.3562874251497e-05,1.0865234329315e-06,0.00104236434749635,0.00104551840487039,0.3828125,0.33935546875,0
7.40706087824351e-05,1.00253632444583e-06,0.00100126735912334,0.00100300633548516,0.36767578125,0.33251953125,0
0.000102821700349301,1.13989540678774e-06,0.00106765884382032,0.00107153743215884,0.400146484375,0.3037109375,0
0.000101847087075848,1.20828299227351e-06,0.00109921926487553,0.0011028345655264,0.413330078125,0.3525390625,0
0.000153501590568862,1.1416609415751e-06,0.00106848534925618,0.00107839923754045,0.405517578125,0.294189453125,0
5.84767964071856e-05,1.21274679720759e-06,0.00110124783641449,0.00110170126651275,0.40234375,0.330810546875,0
0.000138395084830339,1.10018372297763e-06,0.00104889643100624,0.00105694888570255,0.39111328125,0.343994140625,0
3.6547997754491e-05,1.17871432961104e-06,0.00108568611007558,0.00108521765675744,0.397216796875,0.352783203125,0
0.000113055139720559,9.94749887736733e-07,0.000997371489334206,0.0010027690779217,0.361328125,0.323486328125,0
9.98978605289421e-05,1.0708710866536e-06,0.00103482901324499,0.00103861118901783,0.381103515625,0.337158203125,0
0.000101847087075848,1.04854254427546e-06,0.0010239836640667,0.00102801871292858,0.377685546875,0.32421875,0
8.2842128243513e-05,9.80891629369435e-07,0.000990399732112966,0.000992872892196004,0.3642578125,0.326904296875,0
7.50452220558882e-05,1.08655246194013e-06,0.00104237827200116,0.00104403806439442,0.373046875,0.34814453125,0
9.25882609780439e-05,1.06715489766317e-06,0.00103303189576274,0.00103614546953513,0.37451171875,0.3271484375,0
0.000143268151197605,1.01822293447163e-06,0.00100907033177655,0.00101819267160616,0.376953125,0.322509765625,0
9.21009543413174e-05,1.03517777905493e-06,0.00101743686735587,0.00102058519572529,0.370361328125,0.3486328125,0
0.000101847087075848,9.92991015344799e-07,0.000996489345324273,0.00100069067473217,0.361572265625,0.336669921875,0
6.52990893213573e-05,1.01139064796433e-06,0.00100567919734094,0.00100679485260018,0.35888671875,0.347412109375,0
0.000109156686626747,9.72491300510551e-07,0.000986149735339695,0.000991193917629472,0.35791015625,0.342041015625,0
5.40910366766467e-05,1.11632432766303e-06,0.00105656250532708,0.00105689260364571,0.381591796875,0.335205078125,0
3.36241579341317e-05,1.0544654138074e-06,0.00102687166374742,0.00102639723129952,0.365966796875,0.336669921875,0
5.94514096806387e-05,1.06218950953074e-06,0.0010306257853997,0.00103131170889415,0.376953125,0.32666015625,0
