Activity,Complexity,Tag
6.09183907871602e-06,0.253234042042128,0
5.19870158676459e-06,0.304969858690462,0
4.42174784947686e-06,0.277881394290784,0
9.00729079395508e-06,0.37186369276148,0
2.60827670369971e-05,0.594529141916942,0
0.000104770191405699,0.194536140926701,0
0.000700038270594108,0.238802749329778,0
0.00341489958171581,0.170509074961666,0
0.00453553443181755,0.0821362541268533,0
0.00430972859696835,0.0735498399175638,0
0.0044519450211786,0.0606255139936694,0
0.00501162327887898,0.0628618510805989,0
0.00445794394277117,0.0548261667569776,0
0.00363978922866788,0.0467577973838152,0
0.00320387394135989,0.0254868629490307,0
0.00794701976505423,0.0318102677932239,0
0.00816080904283038,0.0217895078415745,0
0.00806540103719521,0.0242185679446295,0
0.00787459112168977,0.0285639746414709,0
0.00628367758762323,0.0204249383813188,0
0.00695459517770656,0.0235379288934358,0
0.00892584503377988,0.0286498775561586,0
0.0113737515349961,0.0342182385746509,0
0.012974855486764,0.0363044436958774,0
0.0137238452332219,0.0551742045090637,0
0.00805928666414059,0.0693571567826313,0
0.00583833368561993,0.105785617027903,0
0.00481916672321852,0.0920642608177474,0
0.00291312778988806,0.0621914697153485,0
0.00136477459103692,0.058259538576794,0
0.00187061873807084,0.073824850280755,0
0.00184327190179341,0.0704088826497108,0
0.00168562835248797,0.0652527235097488,0
0.00196371797139631,0.0775926844301023,0
0.00231199771781573,0.0840030646324482,0
0.00243774673841816,0.0889176012266849,0
0.00242886704595471,0.0823713030963954,0
0.00246527738424869,0.0742195852013486,0
0.0026755613959649,0.103476498951898,0
0.00184443645726732,0.116218401737126,0
0.000776482452190121,0.0903948406727243,0
0.000576804452073035,0.0898119398916729,0
0.000555339610047209,0.0955039031898611,0
0.000554507861161066,0.0998253869711077,0
0.000566052938577173,0.104146502007194,0
0.00059855298523317,0.115756358791664,0
0.000271566697160218,0.146508834742277,0
3.55930145199721e-05,0.298822166612486,0
3.52650747391733e-05,0.362124783569564,0
3.64651088020652e-05,0.364776182350827,0
4.01126413754904e-05,0.418072814808521,0
2.22048656793027e-05,0.402411174346901,0
1.04952269945331e-05,0.322718070360348,0
1.01404944929858e-05,0.319858489518705,0
1.2040157531882e-05,0.35090220571679,0
1.35692915447345e-05,0.373674567629033,0
1.06708522215403e-05,0.440007323746583,0
6.10222721285663e-06,0.403634282943476,0
2.96764110362306e-06,0.306237247882743,0
1.1226425662142e-06,0.219037453272348,0
8.99902407532821e-07,0.191558343026247,0
8.96097463361531e-07,0.191565051996985,0
4.54899504913619e-07,0.145569306257837,0
4.01221403888398e-07,0.151752508421141,0
3.33363058280936e-07,0.144831289899905,0
2.75658246235801e-07,0.137037328585804,0
2.54896351731795e-07,0.136347368623891,0
2.31992764421176e-07,0.129292557527591,0
2.31992764421176e-07,0.129292557527591,0
2.28438334652961e-07,0.128480776410657,0
2.12722919328106e-07,0.126726627064699,0
2.53144034283238e-07,0.134029643751315,0
4.35966930236165e-07,0.161245125647502,0
4.07819224309542e-07,0.155457761664925,0
4.16921675412245e-07,0.156092906051168,0
4.1458080312122e-07,0.155664873621082,0
4.32073690004775e-07,0.160652645714711,0
4.51192867111567e-07,0.168086910383594,0
7.2004846660076e-07,0.204309452817453,0
7.65099991219282e-07,0.202513920023534,0
7.240012553378e-07,0.201011580928026,0
6.61705048167458e-07,0.211980770663582,0
4.38822435086786e-07,0.192640250332508,0
3.97397979146389e-07,0.190922742394373,0
3.63162978564724e-07,0.185086684190003,0
7.71834875873255e-07,0.195687940211395,0
8.2407855093374e-06,0.481064514649296,0
1.31034618089392e-05,0.478292848845867,0
1.1898007035311e-05,0.430266988133073,0
1.13498055457039e-05,0.420762548838436,0
1.11516691868392e-05,0.41211221560104,0
1.26833594219666e-05,0.354407209908547,0
1.6320251550126e-05,0.336857587510736,0
1.58412515842731e-05,0.317362607179637,0
1.55537608959601e-05,0.314414523280109,0
1.66964453844441e-05,0.341310182187389,0
1.54477152743831e-05,0.37089542966912,0
1.31020842363968e-05,0.361302282549192,0
1.37889433947091e-05,0.379891122677416,0
1.37868445665596e-05,0.381460929045742,0
1.38960832200774e-05,0.383678039277425,0
1.06338438519779e-05,0.44878024769243,0
2.21556375457017e-06,0.278756052240774,0
2.62681215144639e-06,0.34103288335156,0
1.67701056025588e-05,0.437175953398972,0
5.24815846876308e-05,0.610418000959809,0
0.000153901960894039,0.85745862136398,0
0.000237391850836242,0.520806372728542,0
0.000221723536325961,0.340386637838579,0
0.000215781981761678,0.285920080368742,0
0.00026010552076515,0.18360930107921,0
0.000910422766306809,0.170711241984918,0
0.00100663276633925,0.107715236928908,0
0.000878848900146534,0.0963812637666651,0
0.000826086305034047,0.0858170615097185,0
0.000814947546322577,0.076373787863716,0
0.000812806110190556,0.0696968905188195,0
0.000812049334926422,0.0707060491276101,0
0.000762620235385909,0.0616398305513162,0
0.000928805886665966,0.04585137106451,0
0.00100607376911625,0.0350765457545077,0
0.000819740835522694,0.0379293186245859,0
0.000771142414278595,0.0363918660719953,0
0.000814479815654744,0.0357815074548303,0
0.000769700955430001,0.0353864914481335,0
0.000789841408915943,0.0343615214055822,0
0.000857902713027854,0.0372613625342544,0
0.000922429442178041,0.0394393282070286,0
0.000864711005845492,0.0378349122472677,0
0.000642530276627126,0.0441618134716056,0
0.00052173050147773,0.0651461916983861,0
0.000426312675215937,0.0601552919275963,0
0.000376338968400147,0.0735655333752475,0
0.000325850827434222,0.0820985851927904,0
0.000276547234839626,0.0936393574086788,0
0.000275611681614454,0.0857898110792386,0
0.000331018622576531,0.0679311250048055,0
0.000312218603642675,0.0617742832805971,0
0.000322941246380281,0.0628308995287294,0
0.000312504828668568,0.0653425318255798,0
0.000368235725051732,0.0638056270076015,0
0.000341430279146901,0.0538058556896027,0
0.000327320589276871,0.0524305223023098,0
0.000329664132267041,0.0499251796301065,0
0.000294254862618161,0.0462413094692754,0
0.000285458076305024,0.0589275303502938,1
0.000256541406151179,0.0588257545555419,1
0.000181324255138434,0.0432017236862656,1
0.000190309816631343,0.0581728114671632,1
0.00018560493155133,0.0627942503342326,1
0.000137699295055205,0.0668913735968115,1
0.000159992173682531,0.0719983901323112,1
0.000350189170279756,0.108787146472584,1
0.000554709668993313,0.12307176317814,1
0.000819433681507136,0.11267188138131,1
0.000771564010255026,0.113611388699145,1
0.000861958087412953,0.147244634572686,1
0.00103677039723558,0.200354717134991,1
0.000942724405298896,0.195323880707252,1
0.000869365072692797,0.174270862602281,1
0.00105929971115119,0.16224070677408,1
0.00141195440722486,0.173757462581317,1
0.00417019343996456,0.0759597257505159,1
0.0186327512451605,0.0906899454998861,1
0.055768595503071,0.0767219034759487,1
0.131740294416608,0.111360067708055,1
0.193528323886187,0.102699521688531,1
0.321005451485015,0.0880979277093007,1
0.370487804118344,0.100250543357173,1
0.36057500248074,0.0759832583223369,1
0.311635368508719,0.0661990917318153,1
0.25077865256035,0.0556008785315823,1
0.15412405299044,0.0331483028542734,1
0.0877872626588,0.0225138036994305,1
0.0545325879684598,0.0165104210474399,1
0.0479229754090538,0.015427106474149,1
0.064627695832745,0.0175713627896097,1
0.0702051837326721,0.0212568335185119,1
0.0602660428361894,0.0165202103517711,1
0.0544280038058157,0.0149800153585121,1
0.0579630161500312,0.0195047745667626,1
0.0437836437480587,0.0131839940930394,1
0.0405423365277477,0.0153022461537707,1
0.0483012374861768,0.0107174044636214,1
0.0645413861606387,0.00732856818350572,1
0.0816392927325795,0.00935920134428998,1
0.0835305285798931,0.0098565918287823,1
0.0815835301748719,0.0101437233609376,1
0.127372315453703,0.0131987262569961,1
0.151062516604191,0.0136886996347389,1
0.150208180575603,0.0143967103532956,1
0.157208718392568,0.0157806501569557,1
0.156210465333268,0.0154461488271066,1
0.15196711515036,0.0184021529764658,1
0.14234680812745,0.0268861999859412,1
0.0797122795760779,0.0179063018139993,1
0.047411233142957,0.0128753391430971,1
0.0389144253482399,0.0114954014203679,1
0.0288331947074957,0.0115281812087602,1
0.0982865014443723,0.0275922772295122,1
0.111833894724309,0.0161632653570562,1
0.120524960673914,0.0146817560495898,1
0.12103114770612,0.0123717684696321,1
0.128882759070774,0.0129592766359452,1
0.129506535368702,0.0131619801847107,1
0.136920010501367,0.0119337693035441,1
0.145640309524667,0.00995133080663597,1
0.210527274206015,0.0140823199772712,1
0.241807916351704,0.0162132742227491,1
0.152117914059159,0.00974241857129404,1
0.13458611279313,0.0115990556380031,1
0.104605966651802,0.0105359868179072,1
0.0844928267656012,0.0105931315763695,1
0.0925315586226097,0.0109646981336811,1
0.100198616409477,0.0104016432562779,1
0.092623174930536,0.0123933568932975,1
0.0780003088645961,0.017383844888274,1
0.0808541135602065,0.0166548533039357,1
0.0907997403813615,0.0178959825530291,1
0.0818103413725321,0.0260688154196461,1
0.0456574286758115,0.0194849741568999,1
0.0416914707621066,0.0194692455050483,1
0.042106052425601,0.0117576821827508,1
0.0622284841387028,0.0175733949807645,1
0.0616933509534156,0.019582327205074,1
0.0551321283703298,0.0169415402695496,1
0.0577937536397846,0.0175144804685193,1
0.0576224138448572,0.016918697682598,1
0.0565075633063571,0.0161829507932796,1
0.0565962791844487,0.0175831476525793,1
0.0440600887799521,0.013976986035767,1
0.0527850955145758,0.0166665524735655,1
0.0831948950397616,0.0215456397202815,1
0.18894138320481,0.0238271296222514,1
0.190692240639769,0.0174805300155613,1
0.188410204845486,0.0168212432393747,1
0.171596004652528,0.0162457990089182,1
0.181795108055569,0.0160689839152979,1
0.231784389384653,0.0207982325619155,1
0.185115502808455,0.0145481607590428,1
0.149802154867838,0.0123991258269636,1
0.141264355136458,0.0104132759712682,1
0.142844903553678,0.0129614968489697,1
0.119577641699709,0.0168359883634185,1
0.0999578562464432,0.0183911229552076,1
0.0840320080529834,0.00906103137227799,1
0.0883905416893666,0.00525308173302692,1
0.207885176735256,0.0125129722425853,1
0.23301207006717,0.00811195346203588,1
0.230506311095432,0.0093399521216094,1
0.228495061166476,0.0100791195513953,1
0.240604990679086,0.0102204681629309,1
0.232167794235252,0.00844394295405318,1
0.230808135308234,0.00895096113641741,1
0.231655015938094,0.00985839720606893,1
0.221117786389701,0.00930580258623674,1
0.224254027997443,0.0118861220995387,1
0.137701237515139,0.00804122516051714,1
0.108577066289697,0.0106966289295823,1
0.10847450855115,0.00973594875535115,1
0.133915055597736,0.0107792871051529,1
0.124633719277896,0.0112053258385201,1
0.126259259196124,0.0144575029029027,1
0.12011891559466,0.0114585768562798,1
0.0962501380417366,0.00901903008341355,1
0.0733492571367766,0.00936426225857361,1
0.072378565646179,0.011131451416083,1
0.0743497482945768,0.0107062128676923,1
0.0739351820705725,0.00955752712383726,1
0.0805538374309324,0.0113993531840072,1
0.0723341935967041,0.0111975989330928,1
0.0837487253241443,0.012521032059797,1
0.08603497931511,0.0118139919609783,1
0.0868105934933627,0.0111957912772319,1
0.105004859555115,0.0104048144235416,1
0.108699063705162,0.00875855023316757,1
0.110957879162852,0.00866664696154937,1
0.080162502773804,0.00679645677174962,1
0.0770225298104965,0.00874009915907843,1
0.0899899515788084,0.00802032405723212,1
0.117364138176873,0.0102924219032971,1
0.124499342286374,0.0115842833335826,1
0.12331465967295,0.0128583664685333,1
0.125880370086327,0.0115936392255254,1
0.0736307729764938,0.00678329728728539,1
0.0684545319649053,0.00900116692047664,1
0.0722273628540042,0.00913774869135165,1
0.0769106544569519,0.00847846357123338,1
0.080131817789471,0.00585353448620737,1
0.0853879276603366,0.007671131313052,1
0.0899382615508457,0.00863642118400647,1
0.0975782114100398,0.0094235017603044,1
0.0994565724227916,0.00935638213582698,1
0.0785945177822355,0.0105197568128216,1
0.0533465063689024,0.0111252103779738,1
0.0578544562912126,0.0112487420296543,1
0.0633335845003204,0.0133868350383967,1
0.0259069607458283,0.00646817911337498,1
0.0222115656705857,0.0126973622657946,1
0.0240246170548398,0.0102571070212044,1
0.039714354886695,0.0078316046188823,1
0.0744312396298928,0.0107452696740242,1
0.082648829262443,0.00836897801166575,1
0.0873741910951006,0.00713441730133825,1
0.0875560649518885,0.0074174689185748,1
0.0872040401683778,0.00637018141628781,1
0.127129004469085,0.00892278589953552,1
0.120721880292536,0.00787416965937742,1
0.129997804887048,0.00964491442177656,1
0.139523629655402,0.0115880813060924,1
0.136880269210376,0.0142321789824372,1
0.132482478663381,0.01473914693259,1
0.113037534215131,0.0192348117819507,1
0.0821103509329207,0.0159360887272608,1
0.0704852658681936,0.0116351552028221,1
0.0794117418176208,0.00613344165013807,1
0.109611372649852,0.00461510844699731,1
0.144063200609369,0.00680607968266996,1
0.17500218493645,0.00453949068795763,1
0.213572812922413,0.00561198567002589,1
0.208996430680566,0.00548868050987297,1
0.199668096506804,0.00524570791419091,1
0.212475715357878,0.00646135695481673,1
0.219151617952122,0.00595347990339624,1
0.20479286648314,0.00563035719722757,1
0.186926616143728,0.00640646540849485,1
0.178850774638753,0.0094842129314192,1
0.120436422980352,0.00606448728191204,1
0.100809850509512,0.0116347877596323,1
0.0787435784637373,0.0103696005356131,1
0.074706942921493,0.00988516665827851,1
0.0749973376418119,0.0103750393702195,1
0.0630383542393399,0.00649742784429674,1
0.0624641922357779,0.00670780964170869,1
0.0549674159154551,0.00509317883751995,1
0.0486331370352082,0.00653219938618144,1
0.04851381258789,0.00596747408067568,1
0.0564793465980862,0.00676381660202833,1
0.100604052507724,0.0122553218284283,1
0.103902632008482,0.0100397811091923,1
0.095772640744436,0.00950229097246751,1
0.100309532733054,0.010439250375082,1
0.108553859182627,0.0118595064456626,1
0.0995397859843102,0.0145446898500906,1
0.06555188628286,0.00969745541646714,1
0.0392830173845986,0.00527378799166898,1
0.0390239990904393,0.00609220167706289,1
0.0402637390761031,0.00762517290668619,1
0.0440304440964624,0.00795030383422028,1
0.0439489715571702,0.00666204357978016,1
0.0514884318130754,0.0092040461522384,1
0.0513379555506574,0.0095988586249257,1
0.0461507745193883,0.00937381934217868,1
0.0461714149670251,0.00947115618098983,1
0.0522903502975433,0.00920965602915218,1
0.0654695048062146,0.0121010064114347,1
0.0733886191764252,0.00903080126755156,1
0.10713305707486,0.012580827681425,1
0.150768170434977,0.0198677596236745,1
0.199861132224044,0.0335338421047327,1
0.196857868076,0.0320277753643937,1
0.202848005644624,0.0330847453611121,1
0.208127607831412,0.0336479138842833,1
0.207574411607197,0.0322860737023765,1
0.176695666110286,0.0315394909734595,1
0.117967750233484,0.018190633345084,1
0.0568599839193084,0.0101026397047598,1
0.061076459504069,0.00986376685638726,1
0.0899397824173699,0.0134642629457294,1
0.0879706550096689,0.013060730488019,1
0.0885444138054224,0.0124951424809588,1
0.0965314232110769,0.0112753097696985,1
0.129976762827092,0.0148396814865222,1
0.123577560230908,0.0146619794801324,1
0.102092865662717,0.0105997801391083,1
0.112181527088123,0.0154571751637854,1
0.11350325721408,0.0147328216208978,1
0.119989932311707,0.0161502079363391,1
0.105847509468731,0.0158131605356039,1
0.116712414438492,0.0137657223336725,1
0.175609679251727,0.0188186005271629,1
0.176840033984531,0.020057680922057,1
0.164277416039984,0.0184653249501334,1
0.196087938960727,0.0207569204066502,1
0.212197870112947,0.0197525511961563,1
0.149619587927789,0.0137022085834951,1
0.135482087424352,0.0129654568908181,1
0.156767349858452,0.017628707809126,1
0.120158597834581,0.0122857531137788,1
0.105138856783229,0.0126484272911933,1
0.18745581626345,0.0184948661779338,1
0.20323977673352,0.0159824376259728,1
0.227260626378485,0.0156362148780463,1
0.263256649341706,0.0189520764748279,1
0.239792082016102,0.0195835840142441,1
0.240873012123108,0.0204017817151646,1
0.23195930211302,0.0232856597790493,1
0.204097623881632,0.0185290329679865,1
0.156145508210363,0.00954108348243245,1
0.174092012104462,0.0114587576198955,1
0.201148077113014,0.0139608886383393,1
0.193655630394874,0.0139165935085235,1
0.227008435011205,0.0163764255087453,1
0.228248593123375,0.0140988980715634,1
0.251199946206195,0.014965573756963,1
0.255624796833382,0.0152128242461912,1
0.246694372983842,0.0131073897393212,1
0.167698120349968,0.00979257077824119,1
0.148008695627777,0.0133091830947389,1
0.140035480790541,0.010619164211318,1
0.120735221806684,0.010569145868714,1
0.159746775477872,0.0162482860561217,1
0.156107683508561,0.0156217852692054,1
0.152375987165812,0.0199162604310821,1
0.11375208665112,0.0162727714433865,1
0.083213684747307,0.0126493220652617,1
0.0626159682801125,0.0115168329374634,1
0.0711677677476139,0.0125443853068145,1
0.0531067473312391,0.0109298449672356,1
0.0368725403594428,0.00847338973435012,1
0.0565300669368995,0.0092469533384881,1
0.0826181490065693,0.0161601216661258,1
0.089536843584527,0.0242531835042087,1
0.0693618561337043,0.0138473365110641,1
0.0740789549107381,0.0105696273441568,1
0.0853315190057062,0.0119038546775568,1
0.0893342182282994,0.0115541602621315,1
0.090380147991662,0.011704111705874,1
0.0872745771916018,0.0115885423981581,1
0.05527047685498,0.00588089403459214,1
0.0630260249573859,0.00982068462818618,1
0.0603175310275723,0.00860637245773196,1
0.0655992815096069,0.00836453352642213,1
0.0551862996397584,0.00969567396688874,1
0.047474870193562,0.0137917768127889,1
0.0419627050844057,0.00988001349897598,1
0.0358439793348531,0.00798979315360821,1
0.0528298108077974,0.00879566684221129,1
0.0841551878384225,0.0139853736028426,1
0.0833171007949139,0.012388285932867,1
0.0861804049597277,0.0116563561166391,1
0.0781740694471926,0.00913330785647823,1
0.0855743699409004,0.00833992731608263,1
0.100431803701521,0.00757826158562241,1
0.118748882309997,0.00633877908076252,1
0.127484260463599,0.00583913646986431,1
0.126136494382917,0.00566499834651182,1
0.123698301772753,0.00640092590611224,1
0.106969451046364,0.00408618137181972,1
0.156177921864201,0.00806544016561962,1
0.158528547039513,0.0058885433277094,1
0.175314990652167,0.00640352440892625,1
0.167371227442166,0.00638666277264136,1
0.161059559923665,0.00541263047492545,1
0.154713087028205,0.00716319714866417,1
0.127606677349518,0.00642310539885529,1
0.126172678146077,0.00634940649042218,1
0.131645797842433,0.00712785235040841,1
0.15069713670432,0.00977312721482393,1
0.139204349668809,0.00905505522596988,1
0.159054181396,0.0150343980081397,1
0.138563110601424,0.010255289475829,1
0.158161288828079,0.0132749751571861,1
0.160247357425619,0.0172234853329059,1
0.115561966877498,0.0150845503630883,1
0.117403333788458,0.0176285314471805,1
0.111315295137724,0.017498067416895,1
0.121325476277211,0.0177804447119349,1
0.115825939828838,0.0163844219731778,1
0.100676057667527,0.0138835994305253,1
0.09295863800922,0.0170450342996941,1
0.0431171887889541,0.0108284841230856,1
0.0455784787392992,0.00918663880979011,1
0.0648289762333542,0.0110539464214552,1
0.0730808469742267,0.0112755308402535,1
0.0704210397075589,0.0102925000604623,1
0.0653471062840792,0.00755882886784959,1
0.0684793349821943,0.00985232231092301,1
0.0813923768023231,0.0118994638304706,1
0.0933288916734766,0.0153297070824969,1
0.0928231787431149,0.0158762611696396,1
0.152379053063747,0.0242517674852583,1
0.201034258118062,0.0268341613314316,1
0.185465419681129,0.0281687291864519,1
0.146710141365175,0.0227763759672329,1
0.103452178184527,0.0169250994922017,1
0.0894138326727464,0.0155289368778529,1
0.0848626184784751,0.0145750262044443,1
0.0860929799854352,0.00848023959072937,1
0.0837229102407306,0.00718844308231009,1
0.074490414929913,0.00634764825028459,1
0.122215597775186,0.0075333766442833,1
0.236889362778818,0.0176384650162032,1
0.289538887727538,0.0176302770407995,1
0.286298514097662,0.017716113981174,1
0.265317548835197,0.0147680206097281,1
0.280338679004571,0.0145364855414643,1
0.281985879591883,0.0139425463964636,1
0.269999923811334,0.0178971497371262,1
0.20599910667974,0.0153445658268368,1
0.158366313136925,0.0114491015768297,1
0.146638681983854,0.0121578023144948,1
0.171113961726979,0.0101385418287465,1
0.158576990145164,0.00915593187788515,1
0.186586946317331,0.00911681641866314,1
0.190297927963413,0.0100125655833293,1
0.179656980235236,0.00866728419419578,1
0.171153066060202,0.00839497736292426,1
0.171153736175963,0.00792501171085245,1
0.199549016397015,0.00821205900174778,1
0.298325325064041,0.0132271699624236,1
0.361048651001035,0.0192587510358486,1
0.366422771596022,0.0225596359497207,1
0.423847114736295,0.0244600573663856,1
0.392024623843899,0.0244416090007552,1
0.41993456847049,0.0216989542636706,1
0.287417134003181,0.018514920716586,1
0.191090021994248,0.0125739018654494,1
0.127224749938412,0.00763268852672689,1
0.110439850664917,0.00677191787188822,1
0.132394024758673,0.00772351001814443,1
0.138254602935396,0.00745261782137586,1
0.148275484321479,0.00775308988077779,1
0.181962618178552,0.0135590077043254,1
0.14316691595451,0.0125902949806789,1
0.152565443319451,0.0219389956176089,1
0.167229462861236,0.0239144756338652,1
0.196718109311021,0.0272372450495356,1
0.162459697121423,0.0263874560236853,1
0.124135924623727,0.0207187338143399,1
0.113048084422594,0.0180450858120619,1
0.0837594067346753,0.0183789080746622,1
0.044519626914533,0.0143990973844082,1
0.0352161900854597,0.0102947236859905,1
0.0343137970331873,0.0110997705800788,1
0.0280666919711434,0.0109822957697963,1
0.0190516021414878,0.00844403460252958,1
0.0225114809495194,0.0100642459590942,1
0.0375141123514861,0.0163095032017442,1
0.0419538564002865,0.00890721156846758,1
0.0507991641867046,0.0124441462182124,1
0.047991201328336,0.0116725186685878,1
0.0462612729420771,0.0123233670273639,1
0.077551428020578,0.0178318562779297,1
0.105515758757339,0.0216744264595604,1
0.109508629023714,0.0222392597317918,1
0.103082468239965,0.0207270879022576,1
0.103700732831651,0.0214283865972867,1
0.110355864274678,0.0211788596053302,1
0.10480438602418,0.0306511565751863,1
0.063820043838481,0.0203373874523497,1
0.0600509276950211,0.0180130943325894,1
0.0554937975410059,0.00715569770229325,1
0.0587554712886512,0.00583811384164805,1
0.0645156784714149,0.00588135527104886,1
0.0758397804998838,0.00715802800430442,1
0.090188932081632,0.0025320319688498,1
0.164576287101476,0.00679455972366324,1
0.167154246235123,0.00646433284068213,1
0.159246817294049,0.00615127961212586,1
0.154909347722078,0.00631328781692581,1
0.14672450562311,0.00603710336858128,1
0.152968123724613,0.00775656030609619,1
0.15235306959487,0.00711322706790405,1
0.153292373872815,0.00700315422410408,1
0.137398284328378,0.0054399094737101,1
0.154276261100508,0.0116495361980304,1
0.127151538607199,0.00391513818620468,1
0.15963746229401,0.0047689302805117,1
0.148626362339632,0.00437981023665841,1
0.147046015645541,0.00427419872834748,1
0.135909042795809,0.00351706586818255,1
0.132132588703551,0.00385301954780698,1
0.129097104480258,0.00425568927224994,1
0.145393955108328,0.00580433838471918,1
0.139671241452459,0.00579075756901623,1
0.114919113664448,0.00419571813720041,1
0.0943223547690522,0.00520785049486683,1
0.0967534779089631,0.00843095832024733,1
0.0950681343051088,0.00846521569235226,1
0.0916299005567519,0.00785296469262516,1
0.0971195417619229,0.00844008479996372,1
0.0969041069433291,0.00827095542813795,1
0.0989612895764394,0.00926247199517252,1
0.0888907650919669,0.00807979310353765,1
0.0883562331771815,0.00830414378161756,1
0.0888657478178712,0.00974529978954354,1
0.083580227017068,0.0137636139247034,1
0.0388360279202169,0.00596570452700582,1
0.0427018336766139,0.00399308390630105,1
0.105482845867054,0.01254368519068,1
0.120697417645265,0.0111812717763985,1
0.12116256012842,0.011704607978419,1
0.119366657116507,0.0121963826549402,1
0.122776750438229,0.0108792314832654,1
0.117910526645233,0.00872338696720243,1
0.111694320224994,0.00843898425428042,1
0.12308958952421,0.0065827116087317,1
0.147745573422067,0.00482764760742306,1
0.156978444700075,0.006245044137032,1
0.145207579601916,0.00608808348585234,1
0.161105033353296,0.00808353894630661,1
0.231900117580928,0.0131025098172781,1
0.353489169015707,0.0203870874491923,1
0.515547255093766,0.0299955454158008,1
0.580597954931208,0.0287230241614056,1
0.603079642574434,0.0204023357044614,1
0.496848753940274,0.021992382175159,1
0.344122355596059,0.0226714746763791,1
0.340147166756377,0.0239166108277398,1
0.315648430384596,0.02109359861643,1
0.299910199320852,0.0207323191935415,1
0.310366781595239,0.0205402180765674,1
0.303969478597412,0.0167777135491945,1
0.207729515921209,0.0116387703320594,1
0.122903537559203,0.00694309107119733,1
0.114547231321611,0.0105563687111886,1
0.129435424612823,0.00951612759699032,1
0.13400397125901,0.00978902937540568,1
0.141036832619834,0.00951281582586803,1
0.137519827490902,0.0104920764575458,1
0.154993605649139,0.0123985608501318,1
0.161321158699698,0.0138738929560577,1
0.152215876526795,0.0170688726535443,1
0.138829713254044,0.0170936659445953,1
0.245406612004933,0.0238198595555812,1
0.254546700399512,0.0240583618166502,1
0.216021492590646,0.0225125846876919,1
0.300781584319924,0.0258106861557251,1
0.365455977446802,0.0130907864904259,1
0.424212572070528,0.0101660778121091,1
0.408336930064073,0.0101938324933437,1
0.36079481945564,0.0078065839838478,1
0.347164781121715,0.00548808799855601,1
0.390540259960485,0.00656388691928362,1
0.403269801455727,0.00724226117503817,1
0.440109231665583,0.00930829242239609,1
0.456879703682417,0.0108976072215225,1
0.468803654490083,0.0107437997354297,1
0.418128235886634,0.0250628247486325,1
0.249551004420321,0.0315346770807115,1
0.245466243917247,0.0260815824334582,1
0.140056310580865,0.0218623917185936,1
0.0514355323685667,0.0206581936084929,1
0.0469905105624048,0.0163458247579805,1
0.049676423147796,0.0159181645018621,1
0.0439962399420066,0.0142277626386513,1
0.0276601758221422,0.00895552052417305,1
0.0186434349862967,0.0076931153198814,1
0.0244069285856351,0.0141772067291345,1
0.0303431555781782,0.0166171355910057,1
0.0309351875212913,0.0219441770861021,1
0.0277101520266584,0.0212171902210398,1
0.0286778308628723,0.00579776496756248,1
0.162355566411409,0.0174753434832788,1
0.183842640312526,0.00862913756124521,1
0.190206787207286,0.00856560075132397,1
0.242722647176982,0.00827680646086072,1
0.3044369147504,0.00964336412834521,1
0.283619736029769,0.00860018844527555,1
0.339828945338158,0.00883359712415166,1
0.345252559731367,0.00752289812357384,1
0.297887780529618,0.00563796807744536,1
0.252502376892735,0.0051095205169593,1
0.21858504782656,0.00494934593581211,1
0.1998786476467,0.00757596982355249,1
0.185324957368266,0.00613977942112943,1
0.189495215374211,0.00634595441159639,1
0.199916117363433,0.00731498832798211,1
0.185972826284955,0.00587646462798949,1
0.161674336839457,0.00841614419143171,1
0.143695368257168,0.0109721704801536,1
0.146069365984293,0.0100218954056795,1
0.15669333753413,0.0108795578047528,1
0.167315636088979,0.0116851456549839,1
0.187831420368639,0.0148489120548324,1
0.127383482654783,0.0113579772887922,1
0.0939628019699774,0.010289460131984,1
0.0940082035741004,0.0109346170832676,1
0.0971796943863916,0.0123730886755805,1
0.0922136036077214,0.0107983451952008,1
0.0686527795519083,0.00661124274240987,1
0.0726221973220874,0.00987150331497857,1
0.0744401457495723,0.0102034154376299,1
0.0770707801409508,0.0105918855998759,1
0.0763821915687773,0.0108176564113922,1
0.053989842718486,0.00974481293245872,1
0.0575990258291698,0.00956474088484676,1
0.0941603017758506,0.0122285176244487,1
0.0999356123703325,0.00912452031228262,1
0.081776822295913,0.00683442777279494,1
0.10159894020145,0.00750627061401091,1
0.111047751761426,0.00566850174086992,1
0.115232908684387,0.00591147359456799,1
0.112590276661067,0.00577138449090706,1
0.107665225781531,0.00567403738565666,1
0.110149748514876,0.00608166867479421,1
0.101044110965218,0.00594660171285936,1
0.0823133649838054,0.00578442185339374,1
0.101602196426676,0.00825159253743888,1
0.248775995963308,0.0174721830566415,1
0.264318618070012,0.0167320961312206,1
0.279852768577092,0.0215391164597925,1
0.254037758428587,0.0212747615984527,1
0.228138975289614,0.0167439260963221,1
0.236831599018629,0.0133050494850886,1
0.198642092807933,0.00965880866795913,1
0.15124718651409,0.00732434825087438,1
0.141477519175458,0.00641890838477322,1
0.181182371758236,0.00725506149654468,1
0.192568075556913,0.00724993833497962,1
0.220827573099561,0.00911801436909833,1
0.27027686369208,0.0110764399810111,1
0.269764258646165,0.0096047796579632,1
0.235816569832141,0.00855442218243688,1
0.220318081528527,0.0109351722601014,1
0.214563401405254,0.0133079935170854,1
0.184892806291898,0.0117004768797692,1
0.137003731359429,0.00927482973244709,1
0.127511349867323,0.0162588443430603,1
0.162223157174845,0.0275087685650419,1
0.24822851331323,0.0396487081530863,1
0.317969679022313,0.026490823545893,1
0.51466133889509,0.0271648902050643,1
0.456029976804419,0.0239446658344592,1
0.414811707111031,0.0221772534432184,1
0.328430649874491,0.0183359019556836,1
0.252771296418315,0.0132331113516746,1
0.290989880934856,0.0125021853069105,1
0.285915529985232,0.0122121654862994,1
0.305296454417197,0.0111589919264583,1
0.366622364014669,0.0141901191465312,1
0.363353486778495,0.0136073709221317,1
0.250606684792293,0.0123777558832045,1
0.283596277500951,0.0110134353206183,1
0.333617566538629,0.00957107549876754,1
0.436700965883136,0.0123021735342625,1
0.522810695214076,0.0151869733707601,1
0.568128683432527,0.0193232976173065,1
0.568736023567482,0.0191745921200192,1
0.543374288246867,0.0211472853459522,1
0.54554722620034,0.02164697742542,1
0.525492689082742,0.0398224257202765,1
0.299587740343445,0.0266004036550939,1
0.097746207586406,0.0137812272666322,1
0.0928134718744232,0.0208882754037806,1
0.0957971994434466,0.016736888431221,1
0.106266175444361,0.0166337991067381,1
0.132489064629286,0.0185116151335011,1
0.180229045464302,0.0209090706924286,1
0.159752527126092,0.0186437666710518,1
0.126340194889211,0.0128657659702782,1
0.118463909793491,0.0104761075890756,1
0.0978892369945362,0.00886054451158626,1
0.0996884990288229,0.00778379890808431,1
0.114700409845934,0.0108106664615201,1
0.0763914241641658,0.0082876282236423,1
0.0690790210656332,0.00804762630857303,1
0.0695377722969995,0.00892296377820308,1
0.0678700114821018,0.0114385249435159,1
0.0371584482751698,0.0062850745701542,1
0.0344782499130457,0.00819366666204089,1
0.0381419956657011,0.00519385017335347,1
0.0449163109112034,0.0112699209210026,1
0.0696316184485147,0.0202835768267671,1
0.106213830988588,0.030500784338244,1
0.105769829412315,0.0269035664075593,1
0.110744950436445,0.0253647281846044,1
0.109072030345435,0.0167480750992566,1
0.109156942312214,0.00873112647370619,1
0.16169464882267,0.0132752579426332,1
0.150884727706615,0.015108165662712,1
0.0998948455139301,0.0101741954744152,1
0.121412985062945,0.0112036016563871,1
0.157868081149547,0.00790150705550989,1
0.176297616248258,0.00721042773393088,1
0.166517862565516,0.00682807692274865,1
0.160447700403898,0.00700555879492435,1
0.154674398234464,0.00807421807835429,1
0.139266585953755,0.010067497951304,1
0.122057227696637,0.00890135087824107,1
0.117391965699468,0.00761231693738052,1
0.133095499545333,0.00842721969739571,1
0.105854253673753,0.00491052321941155,1
0.0733437729196125,0.00997950966605613,1
0.0568083411859496,0.0124929698919462,1
0.0622623264464073,0.012454621593444,1
0.0678042875869706,0.00855461194300504,1
0.0698757721451042,0.00424039333660378,1
0.143405025615097,0.0107491433560146,1
0.17330426481038,0.009225035743007,1
0.172537146484164,0.00884695706866498,1
0.176545172248718,0.0100802792393847,1
0.172268807232077,0.010803741355287,1
0.162466697758737,0.00894695037595224,1
0.154496066000409,0.00657980498127216,1
0.1647327468288,0.0063225802115232,1
0.146229882694068,0.00672846893317558,1
0.105984371009998,0.0070103008869004,1
0.0833774892260748,0.00576434169878931,1
0.0708366885611271,0.00761449817979802,1
0.0798119351114257,0.00884777009645258,1
0.0877011416078687,0.00811716684508238,1
0.110677981012449,0.00979045018599657,1
0.0998548635371199,0.00499838411508437,1
0.101182782647586,0.00563385375350281,1
0.0991920600122992,0.00647549006781496,1
0.0944148502670298,0.00598237278875614,1
0.0959894102896523,0.00718529654175372,1
0.0891844049499391,0.00746364678042219,1
0.0927517684726266,0.0085972928069796,1
0.15156787701587,0.0113588743994819,1
0.191309138421021,0.0119669866883528,1
0.21267030100696,0.0159206787079741,1
0.21155950687673,0.0202974235730711,1
0.159173049440214,0.0174431492567573,1
0.169833541903503,0.0164073385077457,1
0.170331507392838,0.0136154252951267,1
0.193621315961976,0.0149136675286329,1
0.178887408977991,0.0137414285220735,1
0.171325961635045,0.013945779011142,1
0.262450645096688,0.0208796304101355,1
0.330273894684795,0.0282699675658065,1
0.328068768067652,0.0289335646606279,1
0.309042040657565,0.0346632282527036,1
0.259370942272205,0.0289121185047973,1
0.125820842942164,0.0166844073856101,1
0.0967491016787594,0.0172014091848114,1
0.0973754039493484,0.0189019158143657,1
0.085622691865599,0.0185227491266023,1
0.0908158910798355,0.0192623894008157,1
0.0807489951653309,0.0266772182802868,1
0.0613870751448455,0.0237354970431398,1
0.0778250747470406,0.0108970867210538,1
0.141585962903911,0.0178424091861665,1
0.209432605077796,0.0262087321138643,1
0.279281405037329,0.0314545945249007,1
0.283289057496409,0.0312467533784911,1
0.36230934934122,0.0326385314912293,1
0.360126920714782,0.0269635126294444,1
0.412528320525633,0.0235643210162404,1
0.32783443779235,0.0190218044669715,1
0.202166141207829,0.00894892000103205,1
0.197485338376924,0.011631814962454,1
0.3229423761276,0.0178259658578436,1
0.353588382549962,0.0197646672711577,1
0.385851064072894,0.0156136630722879,1
0.450621787562735,0.00984388224962111,1
0.470786874864021,0.00982613281684592,1
0.490117350478337,0.0104285804777862,1
0.432611311176679,0.0104655198481388,1
0.453996116010896,0.0116408448436429,1
0.438171847697652,0.0125771335378975,1
0.574074465061601,0.0161879798311893,1
0.629966765960129,0.0167086899370086,1
0.658096388313601,0.0171030137130314,1
0.458719385071898,0.0174526914343267,1
0.24562931858416,0.0250576429669029,1
0.189624646494525,0.0290753876798146,1
0.106794381312458,0.0140485686421068,1
0.0698549535830102,0.00558237736196721,1
0.076737523695029,0.00595028383801439,1
0.096107331683828,0.00579821386140266,1
0.112145130952917,0.00382020265727194,1
0.120080828962852,0.0036174103667502,1
0.126703714540994,0.00319008323138534,1
0.164353873008081,0.00540628524792076,1
0.172481438106869,0.00599555623225245,1
0.18622382459279,0.00688319630149636,1
0.1440543864698,0.00627191992492841,1
0.133728000796623,0.00745597596107384,1
0.137807554252849,0.0080510678441826,1
0.0696975753415481,0.00306204248172698,1
0.0719937736339312,0.00958660350173105,1
0.108001651059086,0.0188216762096354,1
0.105709026133666,0.0266019653006587,1
0.139154882378399,0.027142693268703,1
0.133141518953908,0.0240539654801932,1
0.11882657479973,0.0216106852112512,1
0.114579127620086,0.0194493495347068,1
0.0848581691098726,0.0138805386211527,1
0.0676273876228135,0.0104401585181778,1
0.0444957294767802,0.00612648529434395,1
0.0446496482162357,0.00534093273842491,1
0.0544475913429564,0.00826098086710244,1
0.0655137638326257,0.00975361193137475,1
0.0922648476820588,0.0105859261814922,1
0.118277209909685,0.0142441369747895,1
0.135271674260911,0.00686758182184099,1
0.172926723301233,0.00841855384494477,1
0.170308739400298,0.00861044747795295,1
0.168569353968526,0.00851527611865849,1
0.206801598996965,0.0105228196873072,1
0.210925293471148,0.00950103718788584,1
0.190037767385177,0.00806937807637892,1
0.158385560850251,0.0070257079830422,1
0.142342193927301,0.00797926660330341,1
0.121823077980875,0.00640238333556103,1
0.0990485695591042,0.0128703772852655,1
0.0508679989121981,0.00802058259897882,1
0.0578660306549432,0.00950082591160546,1
0.0624394132712084,0.00729791692471449,1
0.0902265625803571,0.0117131390928613,1
0.0883643155410784,0.0127182066929619,1
0.0931848583478699,0.0130964681224425,1
0.0981614076798689,0.0138948993657186,1
0.0958048631295006,0.0130007610405803,1
0.114557763928384,0.0135190927530516,1
0.117546068624505,0.013325714533113,1
0.126549624932235,0.0135631374794911,1
0.127932539735266,0.0130719707262958,1
0.126970598749985,0.0169368866768188,1
0.0785669963764336,0.0137907035576565,1
0.062902758330205,0.00856187740683908,1
0.0811201996921688,0.0122904045700568,1
0.0903047187671167,0.01276401871598,1
0.0911656615258142,0.0118294414821914,1
0.0902019411919138,0.0104427473458777,1
0.0944627817224232,0.0093118841877257,1
0.0910204784805251,0.00872907935316878,1
0.0920580097369743,0.00888381272421515,1
0.0902919304891313,0.00909058754137185,1
0.0746891073576002,0.00736767274942918,1
0.0727708036138401,0.010130153199833,1
0.077473525785351,0.0122073030288656,1
0.104148660649321,0.0183703732330353,1
0.108902654836508,0.0255370759049892,1
0.174058668924118,0.0395866431009137,1
0.183789314625717,0.0491845678371393,1
0.145966187231321,0.0477575009528323,1
0.137791512575625,0.0448891324486554,1
0.135830592444565,0.0428389593765344,1
0.102469696225335,0.014638597601891,1
0.117516571185989,0.0153780778203593,1
0.116363906261182,0.0134251441556904,1
0.134143951519533,0.0122320710481718,1
0.132737616727631,0.0103838247658893,1
0.176364756402183,0.0141300669220515,1
0.207905121404806,0.016228210505531,1
0.20697009237666,0.0157822743587003,1
0.205691423349836,0.0153863054948273,1
0.234563922245864,0.0169135821515758,1
0.290635106799663,0.0323337197138746,1
0.203538874939195,0.0144406545890888,1
0.162860401137093,0.0100357208330452,1
0.186297513013026,0.0135082998810774,1
0.18281037878517,0.0141202260388514,1
0.213631346707922,0.0125644598236117,1
0.23592454856043,0.0140909782057766,1
0.230289069913987,0.00942778478878274,1
0.221149704594068,0.0088709102411243,1
0.216552127350399,0.00921186780825032,1
0.222736178551668,0.00915158802869916,1
0.225279214343022,0.0109025912421324,1
0.241828190291635,0.0112426522267917,1
0.251059329887292,0.0102272446461196,1
0.23354988319702,0.00928159036357985,1
0.210553768566163,0.00999222817495702,1
0.194096432489231,0.00819564820255344,1
0.211512883602159,0.0110032180367164,1
0.209117134713012,0.0110439571040912,1
0.225190302648653,0.0105270280738509,1
0.280250998974532,0.0115416808022231,1
0.323845272263102,0.014352100076672,1
0.309922205656175,0.0167502648612962,1
0.334854616303764,0.0150304254367378,1
0.414151409417102,0.0144429577768677,1
0.370402738006152,0.0128294296038025,1
0.410221685780117,0.0142951579600437,1
0.449018596987182,0.019036205608757,1
0.345995170749703,0.0159364224192028,1
0.248561988200781,0.0116425870151028,1
0.323758885274962,0.016739363314005,1
0.382898262836757,0.0208592439150177,1
0.336749095735593,0.0186818357846209,1
0.286823399902482,0.026044919715885,1
0.257598932472924,0.0591513782878122,1
0.125863629083516,0.0432142588067061,1
0.0820610512846446,0.0244297610683103,1
0.0439926024649171,0.0126706142203134,1
0.0316661913646703,0.00961342312281591,1
0.035345209097773,0.0105242717385518,1
0.0343388939059244,0.0105933803870312,1
0.0320641632427966,0.00981865370994021,1
0.0291361062598405,0.00970738435434847,1
0.0295413745473184,0.01011114769451,1
0.0579850768918996,0.0127091757795516,1
0.0639484672135297,0.0113355369519165,1
0.0613676717481114,0.0137643003026736,1
0.0663508624558998,0.0158684792021437,1
0.0765754961857644,0.0170685002846026,1
0.0757932021518371,0.0189417268185928,1
0.0720057290767836,0.0167525288909861,1
0.0574502262709452,0.0144595369353496,1
0.0651121708329717,0.0133693529688941,1
0.0704675889428032,0.0104410863514109,1
0.061898571356517,0.0136962915001449,1
0.0742088018649399,0.015915947251739,1
0.0964437438045004,0.00443338064655811,1
0.361593184827337,0.0149071405991371,1
0.384577737985175,0.00944180292412584,1
0.392508253028445,0.00949611944969663,1
0.404675224244042,0.00872151996097684,1
0.409071633859395,0.0077612220527985,1
0.382277429092301,0.00772588528443921,1
0.348695137462359,0.0072766792036665,1
0.347790393697405,0.00781408849596885,1
0.295913350420662,0.00639710176935965,1
0.281250489984636,0.010176511418325,1
0.0866402340996421,0.00216810105346948,1
0.0604791083349904,0.00524892228876372,1
0.06121653350318,0.00515016680970708,1
0.0545120874816286,0.00395560517183947,1
0.0469456922659255,0.00448299209219319,1
0.0495674883353948,0.00367016887036916,1
0.0780020391121365,0.00642171434049566,1
0.0834099223710114,0.00562560349487786,1
0.0858785642006545,0.00468831675216278,1
0.0994611064370281,0.00720407075413134,1
0.103987674049475,0.00725434877936131,1
0.117427000576368,0.00732085938492921,1
0.110412597835452,0.00696487422916746,1
0.132393357308221,0.0114318506601069,1
0.139861824593651,0.011063357437432,1
0.135808507000334,0.0132144967229517,1
0.104290061989756,0.0115780676403172,1
0.100652557669848,0.0137071013134384,1
0.100005131267088,0.0191762735725519,1
0.118180258268949,0.00571670840408855,1
0.237198347808255,0.0158753048736195,1
0.289922374247887,0.0222169385101116,1
0.327269105501318,0.0252995432847132,1
0.274656699641313,0.0231451567142891,1
0.247528455152921,0.0199038706002395,1
0.33772751877521,0.0228025257125932,1
0.3153189965187,0.0180457605069537,1
0.235609675729992,0.0131193208275178,1
0.176524093916792,0.00814209662234541,1
0.140264553955642,0.0106884708017717,1
0.146231065649516,0.0105714188024433,1
0.163327509966833,0.00626699572271324,1
0.286236297053813,0.0103416321119305,1
0.288471871369124,0.008311345239278,1
0.303526838505575,0.00863054114202917,1
0.288799612916285,0.00801812842926101,1
0.292330499731815,0.00888783464845905,1
0.289645941509423,0.00917196735355487,1
0.243854544496789,0.00859541988196662,1
0.241801564800545,0.00938313453858479,1
0.204707460382604,0.00816427706686693,1
0.171173142083232,0.0113611592371483,1
0.118768785004524,0.0099767607262397,1
0.182451475853311,0.0187396820105455,1
0.137715146265764,0.00929478494243612,1
0.210799038624748,0.0167551036447982,1
0.256648274172527,0.0197254552237081,1
0.251211878908191,0.0199385587725898,1
0.251507911000067,0.0201469899302587,1
0.254431192672595,0.0189707483383626,1
0.269052280471542,0.0179739895325207,1
0.266894435692064,0.0145323672724882,1
0.275893133852517,0.0168885326938136,1
0.166795688292398,0.0116372726214014,1
0.178348403722993,0.0201394528283579,1
0.158384989387113,0.014540186945419,1
0.158035725937368,0.0155307757047179,1
0.233273986280117,0.020031111206301,1
0.25588392476481,0.0145077450925159,1
0.265689246099482,0.0152296467929773,1
0.241526332201894,0.0128671566526807,1
0.234477530204057,0.0102732002559878,1
0.264818673526832,0.0106981654911629,1
0.288259707950358,0.0131461255713644,1
0.25933535978545,0.0124816831529194,1
0.271334346047521,0.0145064140790962,1
0.256126842977752,0.0127833304802348,1
0.173510028858483,0.00875597663650997,1
0.143624424482742,0.00889595895439914,1
0.144620548542051,0.0062842749197079,1
0.268528239234707,0.0142730702187365,1
0.222181115193299,0.0157454144459162,1
0.255415198023733,0.0197544118012684,1
0.287456868342911,0.0204942461113426,1
0.388657322864531,0.0228170240732795,1
0.445578782358187,0.0250057772406868,1
0.302178709150774,0.0183449609927169,1
0.249544785665153,0.0158314763907893,1
0.184273897038871,0.0132083833610862,1
0.0718679908346956,0.0106644415904905,1
0.0714108815258053,0.0114877086502641,1
0.0587474326315607,0.0107797493168081,1
0.0488714985454196,0.00887687615087292,1
0.0427657837303352,0.00863231956089881,1
0.0421452377673796,0.0171235877744297,1
0.132956530806528,0.0109983114249019,1
0.347047688504903,0.0302478027905688,1
0.431562168182368,0.0462709704848475,1
0.45412022527972,0.0382159375171456,1
0.403677024847186,0.0321489853402928,1
0.348331972974291,0.0293859266693423,1
0.340013618216243,0.0221624073254988,1
0.357732378658751,0.0197711264795887,1
0.315789133848373,0.0171833878971033,1
0.289429020692778,0.0157991896150251,1
0.270740509946648,0.0292777834603044,1
0.189973780441927,0.0208821746324391,1
0.136688697344533,0.0152755409008342,1
0.0920258307145155,0.00777588941362713,1
0.117356449970695,0.00901235903495707,1
0.134002785921365,0.0060947477319054,1
0.266659552951651,0.0169146768688651,1
0.22605026929646,0.0151750098834164,1
0.223042888751443,0.0154924494320139,1
0.227103876549323,0.0108542387400085,1
0.309216655903671,0.0114093729360267,1
0.298842261802754,0.00769294466239726,1
0.376485398407828,0.00910960877370291,1
0.371145179056112,0.00947383724842758,1
0.396199727884903,0.0104776410712789,1
0.439796731407775,0.0149226002282682,1
0.393431385848075,0.0138399004506537,1
0.415600501278109,0.014198313542464,1
0.469294359295832,0.0152568415876832,1
0.423974840802193,0.0209057853137974,1
0.131610451318942,0.00905998289405439,1
0.0920616728838333,0.0128853890829628,1
0.0894263434767696,0.018993308860779,1
0.0487764382306752,0.0172265136518513,1
0.0433013263883445,0.0150518527841518,1
0.0419744774061063,0.0150957377381671,1
0.0456166810666668,0.0147809929505134,1
0.0502824973557003,0.0155922293496421,1
0.0467946949948944,0.0106040129412114,1
0.0435687128699876,0.00873100948487019,1
0.0540413366940309,0.00764596396442029,1
0.0552361802927938,0.0048508799147807,1
0.0600454381382555,0.00572459362311078,1
0.0659426184138344,0.00426437339747325,1
0.108221028632494,0.00702704328442685,1
0.111642938616196,0.00537814006441682,1
0.120327634206297,0.00603503896135088,1
0.121706640901734,0.00739555881776027,1
0.114473157462892,0.00735385825157887,1
0.113786501297479,0.00685608214334681,1
0.106938721091359,0.00698904946203938,1
0.219170200774042,0.0151536002517687,1
0.223942115764702,0.0118551489770201,1
0.216878601240008,0.0133572862405442,1
0.226417223462721,0.0163791170633076,1
0.218023411288787,0.0157810767363684,1
0.193711118280993,0.0135000208770147,1
0.167694287598698,0.0123529178654905,1
0.162876138005537,0.00992933269963287,1
0.110940556529253,0.00665435779172504,1
0.101273762280344,0.00704326094064596,1
0.123397752518097,0.00669376815279685,1
0.238557110919125,0.0159015873178339,1
0.240317942236221,0.0153776236806417,1
0.245933194943191,0.0160203589564566,1
0.224230842994162,0.0190838438332405,1
0.167178796138152,0.0151856746844677,1
0.158294496228172,0.0146447593851967,1
0.201298050877933,0.00820757050543201,1
0.347436663728061,0.0129673608051461,1
0.387839481182035,0.0134764080970174,1
0.467875735722146,0.0145953990605671,1
0.464978103949841,0.013835504614218,1
0.473048736596103,0.0148054365177041,1
0.441932519009825,0.0130595419602472,1
0.443088563804116,0.0121641338432177,1
0.434071101756812,0.0119277325542814,1
0.328853225608646,0.00897851296952642,1
0.30589867639916,0.0176521204634022,1
0.256903842574319,0.0113484825754982,1
0.413140640152062,0.0147180205440525,1
0.397699350581102,0.0139288949577776,1
0.407104756776375,0.0137299718563666,1
0.481456462902357,0.0173076527071242,1
0.541960572035501,0.0199052779926023,1
0.580388288766296,0.0149838889098704,1
0.603779870930532,0.0119481919669289,1
0.631566583314841,0.0125265069278717,1
0.633719952268469,0.0122741882765174,1
0.745885132384703,0.0162003264219285,1
0.459980036973746,0.00916845654307439,1
0.418005061410508,0.00996631718100724,1
0.509057988865349,0.0119662357863008,1
0.470542092800306,0.0114794670500843,1
0.44794822826941,0.0089956712929005,1
0.45393362036346,0.00752637474339601,1
0.504942276096528,0.00740275182439249,1
0.594630655115546,0.00806100022510022,1
0.633937604208576,0.008624946443172,1
0.554667060922784,0.00746258362065166,1
0.569250796677978,0.00852747027529492,1
0.654303835435563,0.0105919314404854,1
0.575105644317453,0.00961297969609895,1
0.623445378194609,0.00967527692287623,1
0.764109282058571,0.0121949193312235,1
0.660911897552858,0.0167473654504336,1
0.280907479246311,0.0122059309268729,1
0.296106634202859,0.0163683411766123,1
0.291146638576166,0.0169669544368368,1
0.245091098533191,0.0172270872495828,1
0.120062763670065,0.0151786663458188,1
0.125013690003906,0.0138291610683336,1
0.0928654220947045,0.00954747891045299,1
0.0891519719833914,0.00985562736193387,1
0.0847419987063946,0.00937839237687795,1
0.0718638295935911,0.0206356020530702,1
0.028330860704109,0.0143623938073854,1
0.02495991324941,0.0121047864533273,1
0.0263645695740215,0.0130987134747595,1
0.032364605724928,0.0164801417230621,1
0.0357008410825782,0.0195681464093844,1
0.0353928291034449,0.0163756415998858,1
0.0369376049481499,0.0149064467290978,1
0.0569899464833405,0.0175518809016496,1
0.10023129717866,0.0308484873079602,1
0.112996313379146,0.0302022975726278,1
0.116341769512576,0.0289557428903797,1
0.0899059087632807,0.0199779442495965,1
0.0772369665396673,0.0155916206373796,1
0.0761758796313004,0.0131968707534033,1
0.0899038557361456,0.0110372944374942,1
0.103439201267143,0.0104063875328917,1
0.0700969136561327,0.00676749078640415,1
0.114980378296428,0.0129387206816929,1
0.111542588995273,0.00788873488779196,1
0.113453928092374,0.00879857965286372,1
0.227916815859253,0.00909571078571511,1
0.390495788755561,0.0122224548480165,1
0.421343976496088,0.0134351279427316,1
0.491169572748976,0.0167908771934614,1
0.501321605704103,0.0191968170322477,1
0.517707045496435,0.0172697659508453,1
0.535306833555224,0.0181450334171996,1
0.486864074005567,0.017230001635743,1
0.517555065506425,0.0201055157351813,1
0.550858973191783,0.0200213096771439,1
0.5642210643397,0.0316346672941249,1
0.431791055946791,0.0333484009111803,1
0.377272545662419,0.0313389179262917,1
0.227628660560079,0.0191022743848883,1
0.124301136888973,0.00981667393713812,1
0.12450708580259,0.0230042692927587,1
0.141972503179945,0.024338445157488,1
0.17557938229444,0.0234677251293717,1
0.170808159143453,0.0168947499020807,1
0.183211768941567,0.0182988696159429,1
0.147017353683083,0.0149204788870298,1
0.139899844072969,0.0140253051206712,1
0.129534903101224,0.0177294827539532,1
0.147309133797846,0.0169623419960957,1
0.180927698578903,0.0172294745418757,1
0.175905712234007,0.0127378904178859,1
0.17207742456082,0.00960887509424633,1
0.112916410405505,0.00536222851973451,1
0.105616159729864,0.00673587928500378,1
0.114087277100318,0.00748147523159454,1
0.115550197166692,0.00636255972627348,1
0.122672427622939,0.0051939282680899,1
0.131427823592189,0.00559221077117128,1
0.142111167345854,0.0056594204477008,1
0.150373489740642,0.00707634798571459,1
0.186861009069418,0.0107645371325467,1
0.269352100105052,0.0171003566182205,1
0.508389153205243,0.0197594278866679,1
0.516578917338051,0.0186273454818384,1
0.488314068239218,0.0172841745241579,1
0.472605926804371,0.0174467345848495,1
0.418774305868891,0.0169609102442368,1
0.303468087914737,0.0117584856801304,1
0.274674624543108,0.0118261430695391,1
0.265476130023466,0.01213509423649,1
0.252516867275945,0.012270855334973,1
0.248389148242959,0.0139438246260584,1
0.161202318477214,0.0158658330053168,1
0.155744169259778,0.0216330205318447,1
0.14488863443732,0.0136471264504722,1
0.323644790171556,0.0184614768028627,1
0.273362574740299,0.0126744392373038,1
0.211905953142884,0.0106793233467765,1
0.256292966426254,0.0106919030422707,1
0.294935425357733,0.0110993533480624,1
0.28881324580204,0.0100042079280237,1
0.269306879122583,0.0101802984048848,1
0.305535663682009,0.0116534481737745,1
0.285593263701656,0.010429037728079,1
0.281948398181312,0.0122624705228286,1
0.205757443313207,0.010221047274084,1
0.218753192224547,0.0147954192151717,1
0.23037563549323,0.0151690670359989,1
0.202562546172266,0.0175341247282669,1
0.173323742858866,0.0163347074685169,1
0.165816724188898,0.0160542226191789,1
0.206550745376855,0.0145899435370776,1
0.259581421861748,0.0194117021995306,1
0.293426904976183,0.01537236784569,1
0.292754209544673,0.0148955594922365,1
0.30691430944574,0.0176426466262424,1
0.408392384106877,0.0171494447770119,1
0.483275284768072,0.0144797003298633,1
0.489729910182081,0.0134256512838121,1
0.496903871551218,0.0127961381877029,1
0.505488949750382,0.010317895546638,1
0.55653817343578,0.0109515603433041,1
0.424358141125658,0.00682240079633686,1
0.393798711825709,0.00534987735953227,1
0.513277620762183,0.00682086864452634,1
0.502849581184351,0.00664224001519927,1
0.538100701359822,0.00871331588648402,1
0.597134747575126,0.0117493187150397,1
0.491674534662824,0.0101205744846809,1
0.382325926127337,0.00743219253211433,1
0.265991296295526,0.00560458064221749,1
0.323920446524817,0.00854013259300435,1
0.179098650552266,0.00469554022809095,1
0.166651749672273,0.00923171233577342,1
0.165475806160371,0.0135850245233885,1
0.164545257935764,0.0141503399574723,1
0.175517298800692,0.0158061042923431,1
0.191158348861338,0.0222207991398242,1
0.172800761014331,0.0203150855479901,1
0.134015037564388,0.0189443688326514,1
0.0415474316620916,0.00877253702424258,1
0.0470651854678052,0.0103193225251839,1
0.047921146848984,0.0113158641727147,1
0.0394092155333777,0.00504358466651003,1
0.0543176379052461,0.0101848792576934,1
0.0604294226170683,0.0109453204817936,1
0.0804950237096951,0.0121192263879972,1
0.143542928071173,0.0175423167099412,1
0.132544510953371,0.00979875834391915,1
0.120903837460764,0.0072906216503247,1
0.125049023251417,0.00815000045601023,1
0.154588416471594,0.0116350450355207,1
0.1224483563434,0.00981586065129333,1
0.10053503028144,0.00941198872700245,1
0.10151141210891,0.0102571627260207,1
0.0979051428128711,0.0102595500185885,1
0.0986779930793184,0.0125775450469937,1
0.0756205351711301,0.0110096069950149,1
0.0619309577602401,0.0140162219266378,1
0.0479984519554105,0.00882328918283078,1
0.131486663389512,0.0187140012410459,1
0.145515467546902,0.0197784494893409,1
0.158565249513279,0.0187703008412476,1
0.172627685490064,0.0153196184490927,1
0.197298757237458,0.0113751552566262,1
0.198314122919205,0.0114001123032137,1
0.177814659643407,0.0104087739304048,1
0.179897373271465,0.0100962323784068,1
0.152696128515379,0.00524074918103487,1
0.195313434192439,0.00779916004888961,1
0.166332717321221,0.0065869034302222,1
0.164196199761269,0.00653550810945695,1
0.186815174599764,0.00757933158079249,1
0.20886192003345,0.0109140248911527,1
0.206830967611786,0.0144354275067552,1
0.223118881093352,0.0145497173856625,1
0.290381061263633,0.0174706076668834,1
0.328123670147143,0.0193311189858377,1
0.322260368416844,0.0418491208073753,1
0.164107389607369,0.0361309691637813,1
0.0869564267672655,0.0175173547115674,1
0.045547743722671,0.00959782755884691,1
0.0384209812811997,0.00716959297197419,1
0.0622742150594092,0.0120612295430751,1
0.0690421738114831,0.0126795639125789,1
0.0682452700619639,0.0141332561843211,1
0.0515686834432167,0.00981365430450771,1
0.0854074714039149,0.0111068535728399,1
0.0938824321383624,0.00550974642803904,1
0.0992188053817187,0.00603262894783682,1
0.0899891351164343,0.00592685393477435,1
0.105668134534182,0.00726839677116814,1
0.11067579357407,0.00900251060272863,1
0.100825231003764,0.00618884797681493,1
0.118560533466725,0.00799253164762658,1
0.125605562934028,0.00702213568069514,1
0.132213356005014,0.00849816476197304,1
0.0914245425059963,0.00700193164755008,1
0.0940892484324316,0.0175315219163255,1
0.0977089793558038,0.0196548987173295,1
0.0966631300370822,0.0198617030825753,1
0.0938098772226484,0.0206795723962481,1
0.094241591194761,0.020341104929351,1
0.0900370698328785,0.0347806162789835,1
0.0487061153839187,0.0236181197585445,1
0.0177651030105572,0.026876314468962,1
0.0167588883542967,0.0288760977755342,1
0.0225219304347913,0.0291066553902322,1
0.0340054816379905,0.038853088538298,1
0.0437098574308498,0.0499411692595467,1
0.044502491568941,0.0647101939518792,1
0.0352411388982812,0.0563184840622425,1
0.0248309241522639,0.0481440406400574,1
0.015447897739218,0.0756690871867243,1
0.0146150313948222,0.0739676962113737,1
0.0107919898423131,0.066286649333213,1
0.00266304629726251,0.0327833774426454,1
8.07632644849806e-05,0.38533076263965,0
5.29667838582613e-05,1,0
4.49288423765046e-05,0.90827203952841,0
4.13707660323412e-05,0.862999589522673,0
3.82150237764284e-05,0.83138943483908,0
3.0807138338785e-05,0.719968100626183,0
2.74653716847168e-05,0.667613363861761,0
2.71788291523515e-05,0.662480421391932,0
2.09162239533543e-05,0.575049122683943,0
1.57169697461903e-05,0.541918353308122,0
1.47565963445202e-05,0.517063289485893,0
1.42676823225006e-05,0.51449794523486,0
8.68543497104161e-06,0.401233662719409,0
7.07358859719192e-06,0.386972034594732,0
6.78873498365064e-06,0.386699245747796,0
4.74666272019346e-06,0.344399274923623,0
1.90942719710046e-06,0.237380502908341,0
1.99854846601807e-06,0.248360895387345,0
2.913334919868e-06,0.29517007938524,0
3.14541161688119e-06,0.319182179980582,0
2.46712153986673e-06,0.299903996340931,0
2.40526706967148e-06,0.322230964399054,0
2.30236904863231e-06,0.30814015615997,0
2.91756671388797e-06,0.339748491906974,0
3.05280573368474e-06,0.344271232702185,0
2.20227442750133e-06,0.272499177830361,0
1.25470754799004e-06,0.199903247257279,0
1.16074821966305e-06,0.196209578683087,0
1.49726503867204e-06,0.226671715315731,0
1.50452174277422e-06,0.219685036773862,0
1.50557025848791e-06,0.219786735002512,0
1.58173972742688e-06,0.230899856177371,0
1.11867822712046e-06,0.198195255025782,0
1.09558906407888e-06,0.206093056661601,0
1.07243290896844e-06,0.204073081503878,0
1.01578893301747e-06,0.199788085269526,0
6.43297629707925e-07,0.160346605273535,0
6.30852762051083e-07,0.171600346141921,0
4.62730903430231e-07,0.151246918518211,0
5.26680094981517e-07,0.162717073178575,0
5.72867148000861e-07,0.163621969052887,0
5.13000109181646e-07,0.15808523146624,0
4.45485707529225e-07,0.162840310254146,0
4.39381985700212e-07,0.154275571935145,0
3.57708130107608e-07,0.139230097558706,0
3.07572395144718e-07,0.13841165979357,0
2.66376892941555e-07,0.135158577363498,0
2.53953842625145e-07,0.128924256480289,0
2.0615897995328e-07,0.119144280782964,0
1.45548868186421e-07,0.107997366812223,0
3.06306476050492e-07,0.146597641659306,0
2.58017514786497e-07,0.135099435739626,0
2.16442390859823e-07,0.122472193932134,0
2.40727914180847e-07,0.133403187537736,0
2.82086661425356e-07,0.136579900468412,0
5.44197622626029e-07,0.174320918649277,0
5.35412934669848e-07,0.169032027576994,0
5.58308308393481e-07,0.172438318975079,0
5.36102105952898e-07,0.166297914563153,0
5.42419124368954e-07,0.168151948787263,0
4.74965297920557e-07,0.15989158732951,0
4.6220728725987e-07,0.161625099137226,0
5.05936424373636e-07,0.168700461474275,0
5.67547823729015e-07,0.178186600694221,0
4.71238382825633e-07,0.172638893922157,0
3.01715850949066e-07,0.151304002633562,0
2.90462466754389e-07,0.154142896806335,0
3.41186243210562e-07,0.157812178622601,0
3.51108256289719e-07,0.16614558971066,0
3.41603339424698e-07,0.166735181011097,0
3.07358841883081e-07,0.161846031630841,0
3.17777520300299e-07,0.161505917961878,0
3.58163727510741e-07,0.16010691887619,0
2.10614850893216e-07,0.124504893281478,0
1.9565585559486e-07,0.124289321614153,0
1.75841860363965e-07,0.121092425404104,0
3.172477439397e-07,0.147920771979797,0
3.10132724213028e-07,0.138573053827518,0
2.91364677949888e-07,0.128662535843353,0
2.94984816413992e-07,0.129205178913291,0
2.86063064224981e-07,0.129030273356937,0
2.67603027473819e-07,0.12769233208355,0
2.15996033742049e-07,0.120571423588904,0
1.72053343366646e-07,0.114960356992584,0
2.11315315858371e-07,0.118073830758489,0
2.22085125119245e-07,0.114800480283826,0
1.84436095771907e-07,0.105101231214807,0
2.07613041524406e-07,0.114334330158125,0
2.12801718428254e-07,0.119882520294339,0
3.31278603908631e-07,0.142788868454274,0
3.67655810646097e-07,0.145773223845713,0
3.64874484752943e-07,0.140264061994247,0
3.8263636661029e-07,0.144903131360256,0
3.9620084884317e-07,0.145550753489827,0
3.51915241211098e-07,0.144762624945032,0
3.05401698109059e-07,0.149370330157647,0
2.7270135492082e-07,0.157030222837791,0
1.67587975466757e-07,0.133788195416533,0
1.68971964873908e-07,0.13444057267562,0
1.38099144790067e-07,0.122777734198135,0
9.37519352555993e-08,0.109913618819446,0
7.60783494583517e-08,0.107652002885476,0
7.06512218573142e-08,0.105523708905241,0
6.03267430158411e-08,0.108246773701948,0
6.07756668795477e-08,0.104803138593482,0
6.73208690090616e-08,0.102103546835087,0
6.98052223977505e-08,0.100111818897745,0
7.77292804425487e-08,0.106123102775028,0
7.1495424594725e-08,0.110543610897914,0
3.60781808362542e-09,0.0784186005499218,0
1.29240791225602e-08,0.0854427036485762,0
0,0.0764458874071553,0
1.57521197916953e-09,0.0791062686498895,0
1.6029328352477e-09,0.0791222007153488,0
1.16324925690029e-08,0.0848424897008317,0
7.68997081569563e-09,0.0797317706345782,0
7.60372815234212e-08,0.112552653562359,0
1.55967033254454e-07,0.144575654911029,0
2.4409548484513e-07,0.159505826031556,0
2.47753867823639e-07,0.158852139749593,0
2.3246940914096e-07,0.154987782929534,0
2.20738096853532e-07,0.153074092180713,0
1.70863399952042e-07,0.143006371765596,0
2.24989911491782e-07,0.147585829648863,0
2.6942002691989e-07,0.162352443636863,0
2.22808177448611e-07,0.149880453159367,0
3.39293268084869e-07,0.181418127790851,0
3.45266342545886e-07,0.176151923307984,0
5.37258938344965e-07,0.198999626528067,0
9.69885248749145e-07,0.241227382816205,0
9.73073917221887e-07,0.230095963804274,0
9.85843991588459e-07,0.21922101577282,0
9.77431225117991e-07,0.2055334610651,0
1.16985529090843e-06,0.221173976863598,0
1.1851130554334e-06,0.222301484396801,0
1.08605308958807e-06,0.212937827575374,0
7.744591169153e-07,0.175388836997064,0
6.50832312394666e-07,0.16128854874575,0
5.94996604738043e-07,0.165150732974933,0
3.93050168210238e-07,0.141164684539157,0
4.41531635419218e-07,0.154676946138434,0
4.33267996887466e-07,0.157518218317362,0
2.80976800483866e-07,0.132812839952397,0
2.68675927273872e-07,0.139479778532595,0
2.92075153224182e-07,0.140545728065817,0
3.08060846895794e-07,0.140052040648436,0
2.40832637414919e-07,0.127817302404392,0
2.25785346056463e-07,0.122792077514131,0
2.26254803887635e-07,0.126217084515303,0
2.2681820461996e-07,0.12808634996954,0
2.89323601583852e-07,0.13719581364857,0
3.24976985968172e-07,0.138176270958885,0
3.40929825291842e-07,0.150123570926131,0
3.59379595059272e-07,0.15161852575363,0
3.09424302335479e-07,0.1429835937973,0
2.88907018718903e-07,0.148115606275065,0
2.9574046641671e-07,0.148532592218601,0
5.26039178522012e-07,0.193398791607995,0
5.40799251010549e-07,0.18631167482866,0
6.14062393529428e-07,0.202184517484696,0
4.20124974336808e-07,0.160562674284543,0
4.22720467824402e-07,0.163111865132359,0
4.23059278287576e-07,0.16106965618362,0
4.27005136810597e-07,0.154007985031833,0
5.62281631097987e-07,0.170175497396727,0
6.25236721949366e-07,0.176038769177009,0
6.96183632938179e-07,0.181456634164148,0
5.39372140271721e-07,0.158240925959575,0
5.73657449073676e-07,0.16799781376666,0
5.0431424094389e-07,0.162538705526198,0
4.92384005846644e-07,0.176608947980991,0
3.98933919912782e-07,0.172943332577709,0
4.01679568037464e-07,0.166009227731123,0
3.9271341114381e-07,0.171818290658977,0
2.63173594016994e-07,0.157339211561496,0
1.87053406599932e-07,0.13995766467899,0
3.75866574211626e-08,0.0906512262473157,0
6.12777223840704e-08,0.1018210687653,0
5.12609963799806e-08,0.0956061828024279,0
5.28215779073314e-08,0.0925981217859584,0
4.97324991767941e-08,0.0896868599214116,0
4.12732746049356e-08,0.0847343529536578,0
3.88235722863441e-08,0.0852415170956671,0
3.6837937632465e-08,0.0844102364972467,0
4.46144077861075e-08,0.0846190932003189,0
5.87558945047574e-08,0.0915900721892926,0
2.26276621228066e-08,0.0812829121645933,0
1.61848731560249e-08,0.0852222535021213,0
1.65791253313557e-08,0.0873551125265241,0
1.01827944659639e-08,0.0859883972271584,0
3.4009383614123e-10,0.0823944558697731,0
1.30304707414892e-07,0.128788692281307,0
2.32315404384972e-07,0.161247957856773,0
2.30495068169187e-07,0.160579731093732,0
2.82831017745968e-07,0.171226249191666,0
3.05761042539698e-07,0.167161367487841,0
3.0120044836569e-07,0.166141674914754,0
2.70420031135443e-07,0.145680753638611,0
2.84343344449776e-07,0.138824515829319,0
3.34576615758126e-07,0.147922205313122,0
3.91601240130979e-07,0.159716108343574,0
3.54108268936376e-07,0.159305603617283,0
3.11771334816746e-07,0.150633873744433,0
3.22095813658219e-07,0.148567704993401,0
2.96253045579558e-07,0.141557188303004,0
3.45549711296905e-07,0.159890344879797,0
3.78096049729155e-07,0.161582120498206,0
3.18965666992752e-07,0.152553474490783,0
2.31278182353388e-07,0.136953883584705,0
2.04612002179376e-07,0.130391201466319,0
1.7684289127789e-07,0.125210343562386,0
1.61898013082167e-07,0.1274489334364,0
1.42306811398268e-07,0.115502484540635,0
3.69882462743098e-07,0.155692347326164,0
4.05625939909671e-07,0.151398011806404,0
3.81849915656376e-07,0.141606256043321,0
3.66963815942521e-07,0.13900596480226,0
3.86393055958039e-07,0.147366291691754,0
4.15812841169128e-07,0.15442683518336,0
4.6687491473929e-07,0.154259934919007,0
5.31911893217042e-07,0.163049494475671,0
5.89141343915359e-07,0.169205536975346,0
5.24760169023527e-07,0.163762853447279,0
3.44159561699514e-07,0.148990961453593,0
3.015495258126e-07,0.158409466326991,0
3.12372210039695e-07,0.15313619358993,0
4.52465203070627e-07,0.183305628920346,0
5.71279872315805e-07,0.204055089047913,0
4.39094510155698e-07,0.180830589988762,0
4.19317989415428e-07,0.185919951846097,0
5.38246622180038e-07,0.208687121886595,0
5.55924314770779e-07,0.201194352798899,0
6.03977135408924e-07,0.203071487484574,0
7.03914671688805e-07,0.218575828754204,0
6.94569663095419e-07,0.217195113963069,0
6.37136156095417e-07,0.221515692996861,0
5.72402823661555e-07,0.214318077531895,0
4.25010005196767e-07,0.189889090313071,0
4.34724881879118e-07,0.191827981585136,0
3.99619754426117e-07,0.1887166231936,0
2.83177785121535e-07,0.156685940485341,0
2.56259037147701e-07,0.147925475815989,0
4.0946168503216e-07,0.183705127065638,0
3.21591961431543e-07,0.160116605492204,0
2.8707128202752e-07,0.148885087268905,0
3.51709901536447e-07,0.163555873595595,0
3.70864243062525e-07,0.155885570396908,0
3.77886603261011e-07,0.157192476421557,0
3.83794225700733e-07,0.165010626027994,0
4.17285383310972e-07,0.166559563052813,0
3.52876230888467e-07,0.161330924523758,0
3.18067305916151e-07,0.170447496517497,0
2.02306037633039e-07,0.146534761983098,0
2.01733909964542e-07,0.152491035135934,0
1.77431959469546e-07,0.136681048233725,0
1.55749373199323e-07,0.125579508652187,0
1.49003964887024e-07,0.130627532856304,0
1.61165207118254e-07,0.131869290972281,0
2.09749600839154e-07,0.136172276200795,0
1.8698359111055e-07,0.132207940536725,0
1.77904240721245e-07,0.127532767188204,0
2.20110014123691e-07,0.136396648599935,0
2.15864616350273e-07,0.137520076604486,0
2.09974191108304e-07,0.133853318346034,0
1.84553396061051e-07,0.136241800619074,0
9.1390528997108e-08,0.105174997567587,0
1.03321020768949e-07,0.107261003975955,0
1.28602184837439e-07,0.111545715270435,0
1.06869033672332e-07,0.104866862246902,0
8.5990352228369e-08,0.0965205588564651,0
9.74544662641579e-08,0.0971831127864274,0
1.23509760906083e-07,0.100519584434874,0
1.74382665300973e-07,0.109577678094595,0
2.27479398372338e-07,0.113298976335338,0
2.9505052510988e-07,0.122354150154691,0
3.380712403461e-07,0.132615549825478,0
3.49061276408037e-07,0.131672727633173,0
3.63981257168209e-07,0.138831098588093,0
4.05660077630582e-07,0.145464992614723,0
3.883486596845e-07,0.147678358561267,0
3.71319840465659e-07,0.146363463537032,0
3.57360849382854e-07,0.147461664819518,0
2.84897761571333e-07,0.141242121824389,0
2.37624461673085e-07,0.145380157235792,0
2.16549167490642e-07,0.144032088506865,0
6.07702767130881e-08,0.0923249156722392,0
2.47095754166381e-07,0.143073532121442,0
2.62391249856572e-07,0.136052927043166,0
2.46054682015898e-07,0.136301478923024,0
2.48982569101834e-07,0.13128243166161,0
2.7731944420373e-07,0.137386644844319,0
3.14097833330547e-07,0.136999411601221,0
4.76779473946101e-07,0.156686007921998,0
4.6691983279312e-07,0.151825818288655,0
4.79544372665283e-07,0.15705011799007,0
4.37234132703359e-07,0.15762919645386,0
2.88570261652475e-07,0.141699070825613,0
2.72147194473854e-07,0.146484034579933,0
2.67402821291033e-07,0.143237215490258,0
2.95483791823395e-07,0.14833872400846,0
3.10728209269517e-07,0.152662040596859,0
3.23456445677378e-07,0.150817164708718,0
1.80492803994819e-07,0.118723011742657,0
1.95022639373154e-07,0.120663502909202,0
1.64353875590997e-07,0.107737134451274,0
1.70236087245981e-07,0.108426366709522,0
1.66415485924498e-07,0.10419992806259,0
1.7114676870306e-07,0.104886128202827,0
1.66335403451384e-07,0.099404596835674,0
2.18430078910449e-07,0.112115094288313,0
2.7876298211653e-07,0.127610678848444,0
2.45659403142194e-07,0.128870777865917,0
2.1787566178889e-07,0.13168428400371,0
2.2973402800001e-07,0.138878186721212,0
2.32812069723035e-07,0.139523485574094,0
2.2474427390598e-07,0.139834779870008,0
2.72692371310054e-07,0.149059065073435,0
2.17321244667332e-07,0.133622543299193,0
2.15895417301471e-07,0.138791357259456,0
2.36335698540053e-07,0.134062160792138,0
2.51520567480526e-07,0.136532986204732,0
2.41222782796758e-07,0.135192447860326,0
2.30411905600953e-07,0.127185209049072,0
2.67618427949418e-07,0.137245639863151,0
2.88927296011776e-07,0.136126989059085,0
3.45170089573393e-07,0.149057559481247,0
3.61176317212472e-07,0.160849264519636,0
3.61356759451571e-07,0.16088473948685,0
2.93194511125625e-07,0.144641751178114,0
3.26449014760829e-07,0.166812321045766,0
3.66968949434388e-07,0.155424015653538,0
6.64952751796664e-07,0.196328663954591,0
7.14885200481651e-07,0.193997682000707,0
7.04124118156949e-07,0.195160478252168,0
6.88828622466759e-07,0.198411909858934,0
7.56331730437073e-07,0.201955062179686,0
7.46789595756022e-07,0.193763812647995,0
8.02847583610452e-07,0.198285390292302,0
8.40401900032857e-07,0.200612872863726,0
7.54857391573075e-07,0.180088819597309,0
7.38382219452013e-07,0.193677905700791,0
5.54174820742749e-07,0.171964259356395,0
5.33911901648146e-07,0.177085633444252,0
5.22090496578465e-07,0.169965537339798,0
4.48328635324774e-07,0.15658337546625,0
4.6980690861872e-07,0.163464393791381,0
5.52343190844858e-07,0.178194349914406,0
4.78209664780048e-07,0.16938563992122,0
4.62771971365162e-07,0.174570995651461,0
4.31024660941899e-07,0.165615680706542,0
4.31981287151181e-07,0.154972716693983,0
4.86593427021473e-07,0.161746493113548,0
5.18137707841424e-07,0.161036175367098,0
5.16111005252615e-07,0.168109730613798,0
6.11669929645147e-07,0.180137974769421,0
6.7901646611354e-07,0.184130675784042,0
6.58528700075195e-07,0.178785549149672,0
5.72328131354901e-07,0.158811652729831,0
5.89837445412427e-07,0.156672658643129,0
5.78820971867378e-07,0.158133918815594,0
4.9655034784532e-07,0.156267987097407,0
3.07648114149745e-07,0.129087425427424,0
1.57978078693071e-07,0.0991644774549494,0
1.71043072167361e-07,0.0998988129362502,0
1.99262903654706e-07,0.111413412043262,0
3.05970489007843e-07,0.141543578283328,0
3.71181492859862e-07,0.141419805881492,0
6.67559282291771e-07,0.188743286976178,0
9.25578850475014e-07,0.228319284134581,0
1.10366918027641e-06,0.25067018647486,0
1.29815536974954e-06,0.262133085175216,0
1.29222310654886e-06,0.26438005114742,0
1.29758041866052e-06,0.264919276543049,0
1.32718218615826e-06,0.261962128186098,0
1.58397792988059e-06,0.285818761984144,0
1.51490371672459e-06,0.269315865824712,0
1.39906775613483e-06,0.28185907810085,0
1.28857216713356e-06,0.268388883141353,0
1.13286848201184e-06,0.247302888512911,0
9.65051552807851e-07,0.221554866842354,0
5.59200765954436e-07,0.170843389294126,0
5.04117114856225e-07,0.161069581314684,0
5.3189546604307e-07,0.16664914363074,0
5.4001254338204e-07,0.166144443263079,0
4.83108042718859e-07,0.154218410495246,0
5.16990115734716e-07,0.162627717734393,0
5.06166661483841e-07,0.168736041274009,0
5.02996216907222e-07,0.168438098451871,0
6.30176424497699e-07,0.193872704005771,0
6.5482334564611e-07,0.206525922704137,0
6.8266329873535e-07,0.221623752231318,0
7.83023064721232e-07,0.228247357591088,0
8.48385763257899e-07,0.236137837092064,0
8.75641524972756e-07,0.227093264770681,0
9.59396241493357e-07,0.22625559896283,0
7.93494104755487e-07,0.193145036344999,0
8.76927978034446e-07,0.194900823826219,0
8.47775647749591e-07,0.193569673849167,0
8.13772681000282e-07,0.189822745982604,0
8.2748731787025e-07,0.187772120736436,0
8.83050950457957e-07,0.183771291916314,0
8.55627836908263e-07,0.186321372158025,0
6.56224532251012e-07,0.162793613256105,0
6.08159904581575e-07,0.168477731877327,0
5.50852424806889e-07,0.169391317593641,0
4.78128555608562e-07,0.177276600253136,0
4.23350090601802e-07,0.168760505193122,0
6.99247300883978e-07,0.208992395240706,0
7.22574144598974e-07,0.19374874100297,0
8.03093734545441e-07,0.210867353236774,0
7.66551486044475e-07,0.218214122270261,0
8.20702895019767e-07,0.220421693289057,0
7.44333733247191e-07,0.202167325152457,0
7.70845138641436e-07,0.19999798752225,0
1.09755211136855e-06,0.236260600056418,0
1.16869897186555e-06,0.233310603141786,0
1.05896365300968e-06,0.234880449194065,0
5.60031108263808e-07,0.188245074223925,0
5.09425145445965e-07,0.188946839322381,0
4.96182789827693e-07,0.181034384033776,0
6.21018275008246e-07,0.201475972780202,0
5.12416174481856e-07,0.183419486663594,0
4.87739479080622e-07,0.186634131003181,0
5.28181128003218e-07,0.188087749829713,0
3.54463763248116e-07,0.151858492545779,0
3.06828808847886e-07,0.147456673212326,0
3.89352770693546e-07,0.155440002470671,0
4.56933394391041e-07,0.157983777701561,0
4.73442704233016e-07,0.159713485834064,0
4.17198113949244e-07,0.154598147492081,0
3.12577549714346e-07,0.129521991865546,0
3.2912792749125e-07,0.129632362669106,0
3.85875599977918e-07,0.131651211504661,0
3.67537483658579e-07,0.132071513989801,0
3.35796076750962e-07,0.128116054509643,0
3.67908378445919e-07,0.13626237486067,0
2.7862668790748e-07,0.124835163612943,0
1.51783237383431e-07,0.101326021935359,0
1.62253507393908e-07,0.102649245574055,0
2.14087144791572e-07,0.117877594988407,0
2.06719813939672e-07,0.12374838738132,0
2.23277378605189e-07,0.131059887272657,0
2.24417013799505e-07,0.142015174959915,0
2.29452969320331e-07,0.143291662672558,0
2.2928253739037e-07,0.151071380900911,0
2.16200090043735e-07,0.144877591708246,0
2.58039332126928e-07,0.15294870884646,0
2.404725229605e-07,0.151261939927855,0
2.49277488209552e-07,0.156291432446592,0
2.59383023622929e-07,0.142880537912204,0
2.39799778851423e-07,0.13492772170311,0
1.70638553008298e-07,0.125538262111263,0
1.49240105512873e-07,0.12164561966296,0
1.86737183500969e-07,0.136856896655869,0
2.29132639427875e-07,0.148330073752617,0
2.18667502909265e-07,0.140697310653936,0
1.8079953013383e-07,0.128319630813994,0
2.66937726927948e-07,0.141068087687483,0
2.62849157331045e-07,0.13615239679408,0
2.64021903547898e-07,0.147846948639402,0
2.30430129497078e-07,0.132747044314062,0
3.71058289055071e-07,0.155921820581772,0
3.72289043730013e-07,0.152076352163185,0
3.97085862840919e-07,0.154756422778226,0
3.71458701420641e-07,0.148194943719268,0
3.6894329040616e-07,0.149626812034639,0
3.58909367204319e-07,0.145916415303349,0
3.23286783771197e-07,0.137725513386245,0
3.2086377561031e-07,0.142550271519488,0
2.66802202742679e-07,0.126747024599888,0
2.43583419031469e-07,0.12841865130233,0
1.56548914557497e-07,0.109365825411046,0
1.72044103081287e-07,0.114905991281836,0
1.54413381941122e-07,0.106000571430885,0
1.88368607216074e-07,0.104881615593541,0
8.28399796049482e-07,0.194036420731263,0
1.61040848277794e-06,0.270109371762421,0
2.01910502084742e-06,0.289521006574317,0
2.02543384629478e-06,0.292497809585548,0
1.79537127481532e-06,0.272847308303467,0
1.9547579836765e-06,0.282287948838554,0
2.14829884062245e-06,0.290558574244253,0
2.17153276813467e-06,0.294621209657849,0
2.09586920481911e-06,0.292320215596253,0
1.88894020108589e-06,0.282323328758888,0
1.89633242937334e-06,0.302631501774269,0
1.34679007169073e-06,0.249054230457361,0
6.94099435240466e-07,0.18910787321676,0
5.70330946344322e-07,0.170066749787688,0
4.89209454476533e-07,0.162148075222047,0
3.94241908346996e-07,0.150521449394143,0
4.53718801784374e-07,0.150596574533173,0
1.49421702787643e-06,0.258008480853307,0
1.87881310500668e-06,0.281704757446836,0
3.11914867249327e-06,0.348415182631214,0
3.75657256080779e-06,0.349869883644074,0
3.52513832030167e-06,0.335172949152642,0
3.73705887485107e-06,0.344032728823571,0
3.83550282167247e-06,0.352187056305493,0
3.91555860062881e-06,0.358449287374022,0
3.87493214599903e-06,0.356561980767476,0
3.81374733981773e-06,0.364058119722059,0
3.48490611784721e-06,0.350628101668023,0
3.3868050882825e-06,0.338613877164698,0
2.61510342652318e-06,0.318814422870521,0
1.17505423479601e-06,0.234503465440668,0
1.13694524457745e-06,0.242675928527564,0
1.13820731355278e-06,0.240175481188006,0
1.01384205622718e-06,0.213804651697061,0
9.68995871283311e-07,0.204632565622107,0
9.74896563509013e-07,0.20149968066239,0
8.66471055102821e-07,0.195592245942339,0
6.93760624777292e-07,0.157619342081334,0
4.15324569090266e-06,0.358256892384506,0
4.60233767646795e-06,0.341581805314767,0
5.13981761163776e-06,0.342339208409149,0
1.11884147216181e-05,0.448556773420859,0
1.89846634493978e-05,0.556674390832999,0
2.6270192878432e-05,0.459881833296273,0
2.56865243501953e-05,0.374801517334563,0
3.09499726164726e-05,0.373628191283521,0
2.54062459612798e-05,0.309062185885847,0
2.02902087373634e-05,0.275112202407712,0
2.13401597753781e-05,0.207846406417955,0
4.39161361053528e-05,0.21149983399386,0
3.98830595555243e-05,0.164051024320616,0
4.08819908712766e-05,0.169394673925136,0
4.83626658868142e-05,0.190154550297583,0
5.90716507126357e-05,0.153792146134418,0
8.1017978084402e-05,0.150085081042097,0
8.24472674771774e-05,0.150781990235425,0
8.07166587956995e-05,0.146408072732137,0
8.31545990010524e-05,0.14285182596832,0
8.49293377453588e-05,0.145638561255422,0
7.06983670765907e-05,0.145939263213972,0
9.82282336430442e-05,0.175354287729948,0
0.000125568629954927,0.152570674154981,0
9.84080000579399e-05,0.115726016430037,0
0.000122458555242657,0.13547810036012,0
0.000119938099289045,0.137945419803186,0
0.000106598872625861,0.132682597126971,0
0.000104548921222413,0.110299897059279,0
0.000108341123296868,0.110445747737822,0
0.000105123455728572,0.112827223410077,0
9.11305279010644e-05,0.0959627139275211,0
9.68339605683125e-05,0.0913829070682141,0
9.22853623380975e-05,0.0706365072141608,0
0.000250951283766522,0.0888616245052331,0
0.000257714720132232,0.0714837500853557,0
0.000249640559555287,0.0696530878142406,0
0.000210655214513063,0.0597227855423046,0
0.000229783944021521,0.0658507698954251,0
0.000233871223315244,0.0688263329172464,0
0.000234093161365821,0.0658262873067066,0
0.000243418383684832,0.068085274562559,0
0.000249213284910154,0.0668959005873849,0
0.000254372322828688,0.0818877090109947,0
0.000125202164601045,0.0755274429056898,0
0.000128560117154967,0.115813722132146,0
0.000147088724780409,0.121526200574583,0
0.000209482410801101,0.158396657850111,0
0.000260806997028202,0.190938685220704,0
0.000315061441088767,0.201375226665638,0
0.00031589560399946,0.2024796889696,0
0.000318001482230046,0.205297168696695,0
0.000317380873864363,0.276026734288707,0
0.000279579769953978,0.19938002779559,0
0.000238863700983383,0.193428965453828,0
0.000162093167908955,0.166513817195549,0
0.000158594528160318,0.193730988901379,0
0.000208268526833828,0.114197778404472,0
0.000345209923416879,0.10915173182741,0
0.000310239728000861,0.0915392015094049,0
0.000320293064015545,0.0950333517369424,0
0.000350486174868545,0.0899138648630043,0
0.000324306116867,0.0719808243709455,0
0.000349987840888951,0.0856468047156451,0
0.000347126576260455,0.0869535727437855,0
0.000383665857859798,0.0844706458113762,0
0.000405646340406348,0.0762503963493767,0
0.000377494845192703,0.0965998048574963,0
0.000278963454470868,0.100106563994617,0
0.000275152831374201,0.114504964487668,0
0.000233788300994429,0.0969209192611455,0
0.00022307808413056,0.105733643652333,0
0.000214849123363062,0.124323192993637,0
0.000171169576037398,0.111585598601776,0
0.000177502559356485,0.115384087678608,0
0.000234859376094799,0.193020865123578,0
0.000206017855385059,0.250598237436694,0
0.000226877305485118,0.285645606465816,0
0.000249192761209672,0.320227181886805,0
0.000221465130719189,0.306424679771612,0
0.000179307244582268,0.341569965896076,0
0.000123707481708781,0.517568562659793,0
3.82528144901512e-05,0.488584923844703,0
1.86551238158588e-05,0.338137256609749,0
1.20457571448097e-05,0.304921696380673,0
1.19814111343372e-05,0.320726828396946,0
9.17881692770706e-06,0.358017771260214,0
3.09803795721695e-06,0.245943443964973,0
3.02019548327876e-06,0.25507476374827,0
4.11250629945182e-06,0.282129810616227,0
4.0738775431818e-06,0.270311998500665,0
3.82621761825932e-06,0.277535250405158,0
2.77517519987391e-06,0.235549310925054,0
2.6724938121915e-06,0.232465302320751,0
2.55200049110605e-06,0.223598916766144,0
3.88722377892366e-06,0.2800432496316,0
4.39477211974331e-06,0.292026366774101,0
4.32318454896959e-06,0.294651677267269,0
4.25719890119495e-06,0.310645338019212,0
2.19150205149452e-06,0.238304780057399,0
1.99312570188512e-06,0.248345126825366,0
2.07429827199698e-06,0.256399653901736,0
1.59207164983156e-06,0.24324156218721,0
8.50120883508703e-07,0.199664151363323,0
8.85260405357208e-07,0.210200818074005,0
4.95685097791258e-07,0.170362617766219,0
3.83697972728239e-07,0.170050895513605,0
4.14560269153753e-07,0.165099075167981,0
7.88010765418514e-07,0.231385056797011,0
1.3373467567281e-06,0.301534295809173,0
1.51047659333911e-06,0.318588953110265,0
1.56278302533766e-06,0.304925185633753,0
1.50258256622173e-06,0.289524461059316,0
1.27431671689547e-06,0.242835362855766,0
1.20722069483016e-06,0.224111963148265,0
1.87540831652636e-06,0.276666512274325,0
2.08578702679373e-06,0.274919476332243,0
2.17538827720084e-06,0.282899526735621,0
2.16998271026564e-06,0.280300237394915,0
1.96177854715284e-06,0.25769966118655,0
1.81347171046125e-06,0.24486492966443,0
1.91311304426045e-06,0.256253074905378,0
2.06321608975604e-06,0.274365672539258,0
1.98516776279401e-06,0.273562346646841,0
1.79827657453705e-06,0.283692469666559,0
1.07856845844702e-06,0.220488955736363,0
7.03327400219302e-07,0.190106506542669,0
6.69904518050884e-07,0.188927687979316,0
6.95926188321085e-07,0.195753066012884,0
6.55804869290943e-07,0.205396313641132,0
6.23021363534471e-07,0.197749091928611,0
6.09819049152758e-07,0.198480958332633,0
5.3161209729205e-07,0.188597108252085,0
5.40757156377245e-07,0.205261215239009,0
4.04549960014498e-07,0.180503916094462,0
2.58810125930651e-07,0.150573627987614,0
2.55489013367757e-07,0.149730117167336,0
2.58612999842986e-07,0.153089375578229,0
2.33130346218745e-07,0.139886763675999,0
2.44939687582541e-07,0.136046301713046,0
1.9642177258131e-07,0.128313759189601,0
2.3893452879736e-07,0.142095350763658,0
2.87257884456859e-07,0.145508765090607,0
3.45422400698621e-07,0.151030167473837,0
4.16117000562205e-07,0.154653811826808,0
4.01849743292832e-07,0.148138119874177,0
4.37676639702231e-07,0.15074620600231,0
5.54226155661412e-07,0.164445596505256,0
5.42190427306312e-07,0.16838928248935,0
5.47893736769755e-07,0.17487288250751,0
5.08518827456972e-07,0.172182880138382,0
4.16839539542385e-07,0.156323735329558,0
5.08677709030233e-07,0.178707321280752,0
5.81577656999575e-07,0.194113312643088,0
4.0510463381065e-07,0.173006539272968,0
2.52771086099153e-07,0.146857737144141,0
2.0920955749482e-07,0.140577937239292,0
4.45379700922186e-07,0.188086573324646,0
6.00965572405568e-07,0.199748141700267,0
6.51639553990639e-07,0.188839813656755,0
8.72530628901787e-07,0.218320202568463,0
8.82835343799576e-07,0.219563931155362,0
7.56046564963901e-07,0.204146639079761,0
6.47374392273536e-07,0.191418934828081,0
5.59648406445176e-07,0.177020700379456,0
4.44472099560227e-07,0.151653298646013,0
5.02686153998499e-07,0.158781779678951,0
4.485234513411e-07,0.153220986673936,0
3.7448823164553e-07,0.150625271217637,0
3.5316370643298e-07,0.156917447379772,0
2.8095395644506e-07,0.138148067134818,0
3.09126559807236e-07,0.140145637803645,0
3.21524969362689e-07,0.139126238266871,0
3.83903055728297e-07,0.145278990105201,0
4.66425220851803e-07,0.151905733177494,0
5.19077393527548e-07,0.166608127760284,0
4.18768962460328e-07,0.150933526143516,0
4.52915666981893e-07,0.155112611744983,0
5.97507908959032e-07,0.173163218563716,0
5.96684240189087e-07,0.172098237272115,0
5.10196452598875e-07,0.161969846653589,0
4.52101751846493e-07,0.160935706542209,0
4.61412622718968e-07,0.163445476592665,0
2.98328002991911e-07,0.132291640426937,0
2.64816311414205e-07,0.1385397569954,0
2.51278523339031e-07,0.131812916447455,0
2.53019547105481e-07,0.13589779720554,0
2.75832014935475e-07,0.148046442207156,0
1.89189709240087e-07,0.130644366482995,0
1.78974317100772e-07,0.131158205559708,0
2.39589562359498e-07,0.145869091555929,0
2.30283568304296e-07,0.13466431339179,0
2.3983673999286e-07,0.137415745784269,0
2.786297680026e-07,0.15792452450038,0
3.61905273057484e-07,0.173920497384511,0
3.9405325252091e-07,0.177477194394694,0
3.90820949367304e-07,0.176827858897297,0
3.2599136396095e-07,0.163807178024476,0
1.97664334287544e-07,0.130703348627815,0
1.51138214130432e-07,0.116219580106926,0
2.89851324547707e-07,0.153416920622544,0
4.20934012654935e-07,0.178530578330779,0
4.34876576563767e-07,0.179867535576851,0
4.29242055891331e-07,0.166565806280719,0
3.32188258667337e-07,0.143133868612925,0
3.43085635201087e-07,0.144886600612816,0
3.47138270354927e-07,0.141190195344775,0
2.79344093395793e-07,0.129295491796339,0
2.87271488210304e-07,0.130852531355037,0
3.31500370757254e-07,0.140915891707027,0
3.26839160142667e-07,0.140265374127507,0
3.59769483766515e-07,0.140459574632263,0
3.6082082290073e-07,0.144504375028455,0
4.05730663143744e-07,0.154274353264274,0
4.27073668927012e-07,0.154081632841326,0
4.50375615206455e-07,0.161643274775304,0
4.75016376164627e-07,0.174328989519962,0
5.27044572904023e-07,0.171933747443189,0
7.33050318125095e-07,0.205656611080137,0
9.06387804482092e-07,0.224973796658874,0
8.86584846258709e-07,0.217431713658782,0
7.61520664015515e-07,0.215214660987698,0
6.34824288033435e-07,0.200797918122763,0
6.37310694818869e-07,0.208546148612894,0
6.26389960897127e-07,0.213339096208242,0
4.8051537265179e-07,0.182650564767609,0
5.78257314460461e-07,0.183955783116285,0
1.16143123075586e-06,0.265654772795421,0
1.02469631142925e-06,0.237829621363086,0
9.71431456499271e-07,0.22876478572649,0
9.57174722888223e-07,0.223100931740794,0
1.03768532922392e-06,0.225814551915844,0
1.11994953638115e-06,0.238277552469299,0
1.12935204008344e-06,0.234147707181959,0
1.08407669521955e-06,0.23450587651638,0
1.00274575688361e-06,0.225732820788329,0
9.81369640077806e-07,0.234182181346106,0
7.03501938942756e-07,0.20167215499459,0
6.47127214640174e-07,0.201675571108837,0
3.41288913047887e-07,0.150385137108024,0
2.69734196622107e-07,0.131453518971487,0
2.80344354285939e-07,0.134413785898706,0
4.0531998379444e-07,0.150696064278236,0
5.24952161619325e-07,0.156294466347578,0
7.46892522267941e-07,0.186279297252329,0
8.47169895709369e-07,0.193562295976326,0
9.75733066008624e-07,0.19992052567735,0
9.81894539621133e-07,0.190395582753926,0
1.60885072467111e-06,0.23493344615389,0
1.79532199329341e-06,0.240483436409632,0
1.69306078192025e-06,0.24367549018217,0
2.19678954811679e-06,0.25955666693354,0
3.58286725975858e-06,0.338708609260389,0
4.84631534767475e-06,0.40351748247064,0
9.88842772197069e-06,0.540017487174967,0
2.94525771871071e-05,0.242203804825052,0
0.000431184363103835,0.215275812679139,0
0.000595759934444594,0.118617675954706,0
0.000574567563793253,0.119069842335849,0
0.000547514995953448,0.116946341764149,0
0.000512454228030362,0.117806380503857,0
0.000505385220047963,0.109138988683348,0
0.000489126936674877,0.0913701693537596,0
0.000454905245440899,0.0876857666733618,0
0.000426311335117885,0.0696020713521449,0
0.000436761660485762,0.0645178434696896,0
0.000306434782802872,0.0629883342954342,0
0.000321709477327347,0.0846689256226739,0
0.000298974126095542,0.0725311215107153,0
0.000287823173544167,0.069560796249979,0
0.000283925529546779,0.0656178145868361,0
0.000277212707870823,0.0706276741959763,0
0.000260824286628808,0.0781910512733343,0
0.000223380876218079,0.0657697014537825,0
0.000224937579905674,0.0771972239679353,0
0.000242701825222677,0.0902568136257914,0
0.000230062362289659,0.109416272179727,0
0.000149181963583996,0.109948963313636,0
0.000160568921237034,0.129025036631876,0
0.000156834896512551,0.0886484477455783,0
0.000229578890025692,0.111935029579407,0
0.000283597726573538,0.123175338763607,0
0.000341137630325961,0.154456689754365,0
0.000308473039855174,0.169671128490627,0
0.0003150502965346,0.204951812205841,0
0.000318865416313468,0.210638031073354,0
0.00031732671141838,0.211958825871436,0
0.000300801359670998,0.189858311501693,0
0.000301626065406301,0.145961646524364,0
0.000364191625611493,0.220692312605042,0
0.000352578810743512,0.222407207923568,0
0.000323742293134945,0.205004625562543,0
0.000282326980970259,0.162297106201864,0
0.00028238942245525,0.132078202030578,0
0.000234457111565363,0.108245658155064,0
0.000321449032697606,0.117143086485093,0
0.000347894842332783,0.0872577763840787,0
0.000399321807841571,0.0980812140835566,0
0.000463164632158014,0.134797622780703,0
0.000474225890286104,0.1429719343318,0
0.000531926696154187,0.152303925909703,0
0.00055588909696318,0.162906044109736,0
0.000563600784502866,0.18521485534838,0
0.00048072950214789,0.217390510767194,0
0.000398923544355696,0.221118945212691,0
9.74510576255586e-05,0.146980485997439,0
3.54212376151424e-05,0.215021585578629,0
0.000167242706300791,0.35420877668165,0
0.000185556675444414,0.294174633117054,0
0.00018030937945362,0.296997480934989,0
0.000160313580581581,0.266652822747282,0
0.000150699555197061,0.23986357418942,0
0.000146284899266598,0.232069482476837,0
0.000116602231017131,0.214182951844971,0
9.48388289544806e-05,0.169750309962671,0
0.000153847853889768,0.158787488674242,0
0.000160164790169956,0.163931911994747,0
0.000143425380025337,0.183659676307445,1
0.000139119430661959,0.20808186793247,1
0.000137559838615166,0.201186511375362,1
0.000122901931085029,0.186614503632004,1
0.000161110254371199,0.107606865938932,1
0.000562863224155462,0.107898279981986,1
0.00540415013251151,0.0775874410742203,1
0.00964490871594176,0.0761383797143786,1
0.0162445278222857,0.0314626402742853,1
0.0471770325871445,0.0577301853225071,1
0.0987155349480497,0.0730713875706948,1
0.163510117941706,0.0909020480407388,1
0.209381896326044,0.0749796329015182,1
0.282573026625543,0.096923691194182,1
0.355293064856232,0.0495722280278992,1
0.292353493509701,0.0331414276810243,1
0.238986243347244,0.02935602519384,1
0.182333232858191,0.0213746031463559,1
0.137019372240558,0.0141176872373188,1
0.103511325359686,0.0114047196277534,1
0.106986153962001,0.00924037845610662,1
0.137892868552176,0.010303347214928,1
0.136607648985161,0.0113807506678527,1
0.126537338380697,0.0106719533087919,1
0.0811196252985769,0.00877730863544533,1
0.0788897420675748,0.010425999526509,1
0.0850211191877081,0.0102897613932645,1
0.0810811732317068,0.0108291354754209,1
0.0502305379374849,0.00521244950133234,1
0.0427899782217016,0.00284913548268455,1
0.0405592625169642,0.00467965970604558,1
0.0568612380721826,0.0115598691285849,1
0.0733302569437442,0.00309927548280759,1
0.138296216688592,0.00939301609899128,1
0.164763361040247,0.0114703602839667,1
0.177661086918244,0.0125519253757896,1
0.220758386148507,0.0141533837651899,1
0.284618216852093,0.0174469118218817,1
0.243493930563878,0.015952902948174,1
0.246086174069856,0.0139009208116107,1
0.227677954235281,0.0133653721248399,1
0.125360415709636,0.00579720120150354,1
0.0960885380111735,0.00449212177370686,1
0.145126118518524,0.00594279721298189,1
0.162983826442048,0.00583235493973664,1
0.186936685366617,0.00316653204002519,1
0.2933631976183,0.00601531338670427,1
0.311329509279934,0.00465099355926525,1
0.337981588148866,0.00537967101095823,1
0.404694095495052,0.00771434191842166,1
0.440427996881012,0.00820236550443441,1
0.481894176405921,0.0093273393063541,1
0.480177731926607,0.0122604939800987,1
0.411727908734632,0.0105771111941941,1
0.418133823843711,0.0109698021142385,1
0.360012313864096,0.0180085998553919,1
0.0679878237097495,0.0027063943643901,1
0.0413711754747757,0.00502121086758674,1
0.0534427728209182,0.00808312790498034,1
0.057259993275993,0.00999409124567433,1
0.0612792841955825,0.00979268557646997,1
0.0619488019460891,0.0093768410121857,1
0.0644442688025718,0.0108342736617704,1
0.0697451256495442,0.0102591870989954,1
0.136321167552899,0.0182620561586197,1
0.132884877988046,0.0182563021208903,1
0.0996709560074879,0.0107540624958411,1
0.183347450516617,0.0162284587552229,1
0.311690433854812,0.0227747509477632,1
0.417441871202685,0.0216051444633708,1
0.3421053884487,0.0188003720792397,1
0.278779215295844,0.0164716478982312,1
0.252645183163887,0.0127234699207375,1
0.251204337490363,0.0126700037858266,1
0.264021208831674,0.0120373312116645,1
0.22546268622015,0.0109076092706955,1
0.16413261278377,0.00880478496996347,1
0.181612937632849,0.0109541378096388,1
0.183745891236299,0.0125035461297628,1
0.124053623624064,0.0109572503506428,1
0.147903124039256,0.0108793117757778,1
0.165657754772607,0.0113074460625642,1
0.198053417504997,0.0138376645371455,1
0.235469207753091,0.0133041890937773,1
0.216655309640347,0.0157478506907459,1
0.227774008162787,0.0185647994064023,1
0.254538567979449,0.0218615588629725,1
0.217572696465785,0.0214297598870593,1
0.155185732118193,0.0164845754876817,1
0.0980286597516822,0.00842545193904535,1
0.100572268890166,0.011427075084054,1
0.128143579945242,0.0151027319032697,1
0.137517533597248,0.0205114540687632,1
0.142327482862462,0.0180640831616684,1
0.180096338426174,0.0126264605400285,1
0.189605100740928,0.0110087644026915,1
0.217588562627125,0.0116475545716081,1
0.216673938807175,0.0119288689026305,1
0.196766116075253,0.0107009730168439,1
0.240920519891397,0.0126702807174464,1
0.24525290554974,0.0114573346528108,1
0.220208797049355,0.0102288805477187,1
0.197261406993765,0.00804494947059477,1
0.255066725421521,0.0104936339301995,1
0.236699363639831,0.00969697545185265,1
0.289603550704696,0.0141367955270927,1
0.262395266031613,0.00928536222413486,1
0.290251834291768,0.0095384132584449,1
0.316460969148947,0.00884778652099304,1
0.339859566199018,0.0103183647243826,1
0.355639522299025,0.0100617093920696,1
0.358116657488138,0.00944294458431985,1
0.363113551773201,0.00890008531719446,1
0.242148480501943,0.00672254678005707,1
0.234919256406775,0.00884183926044054,1
0.21526323756052,0.00683930713284768,1
0.21961037722921,0.00967077652727565,1
0.211825490915859,0.00768182965202068,1
0.259620725360338,0.006601834339022,1
0.331271771375978,0.00905442675599157,1
0.383247643725139,0.0117635741307955,1
0.385976572422307,0.012556047766455,1
0.378481258554248,0.0150721359653006,1
0.326337153484603,0.0130605354508122,1
0.292241562725738,0.0110765095347171,1
0.274562609840927,0.0110194908211651,1
0.284979089552779,0.0128941005819945,1
0.0654591214238907,0.00100329726278437,1
0.0405730667332673,0.00761678985791086,1
0.0537511356495798,0.00881761176869655,1
0.0518629961086966,0.00946813549827872,1
0.0564347677807992,0.00905116865782201,1
0.0435312747950716,0.00574054502338534,1
0.0431053556548822,0.00684589575756008,1
0.0304701301411646,0.00534147317134968,1
0.0337997253997247,0.00601474992170637,1
0.0342288694983242,0.00663792623287441,1
0.0338868707855696,0.00620648862711991,1
0.0402389303555046,0.010191900070687,1
0.0356270357188311,0.00977606366825267,1
0.0362227810816023,0.00769254463089956,1
0.0656904211851338,0.0114406631918526,1
0.0657351103686458,0.0103753107999012,1
0.0703033915678719,0.0114460853840538,1
0.0781211312093993,0.0100749695907827,1
0.109264791031741,0.00787913469238136,1
0.128404830837108,0.00639386232383411,1
0.131169428787311,0.00548088635922934,1
0.184121174176633,0.0068516019446045,1
0.183267471590141,0.00379803389693544,1
0.183676855597997,0.00371093248707878,1
0.175209223087204,0.00359286305267355,1
0.176237157647654,0.00391190383664492,1
0.194902270641146,0.00465460083472482,1
0.175284784019697,0.00387359714939195,1
0.156692177409887,0.00519661882342354,1
0.143850624610578,0.00637583240700664,1
0.136282126697099,0.00811280241429171,1
0.0463381162323884,0.00237781091812094,1
0.0494194517372654,0.0115464590486568,1
0.057406864267566,0.0170942095481607,1
0.0386958564494424,0.014575796451572,1
0.0386693985011523,0.0143749114387724,1
0.0392552580794366,0.0130767393722459,1
0.0450098515865849,0.0201614307090179,1
0.0421613771118529,0.0186325949773536,1
0.0351570872901086,0.0149137171436758,1
0.03756366719899,0.0124352231591364,1
0.035556303552074,0.0120423228956894,1
0.0416172051595096,0.0148464511580299,1
0.0571756437610204,0.0231966828416383,1
0.0688783169379872,0.0122943288034883,1
0.0774821742276096,0.00758563954458843,1
0.102569459953131,0.00776196874178748,1
0.092629110051295,0.00550569576763961,1
0.0830180614788619,0.00411668872155022,1
0.0789601551282638,0.00362684547091419,1
0.0800855097841963,0.00412539989738597,1
0.0822966157332702,0.00508189305032699,1
0.159315908833767,0.00514250381502324,1
0.231077025488208,0.00434900464337783,1
0.242996619359899,0.00565642360029304,1
0.238518356630241,0.00622759490244463,1
0.223070092619715,0.00645359810298512,1
0.216778043187765,0.00667692845497651,1
0.228297257300543,0.00698338533876279,1
0.400186790397586,0.0118841500212521,1
0.432298153361685,0.0109695013067747,1
0.514193936612881,0.0114531870101949,1
0.487231375562153,0.0132279720074688,1
0.460186766052355,0.0182960953524824,1
0.363666759844489,0.0154545785157248,1
0.269406309406212,0.0101030770008764,1
0.3132891608058,0.0123651873560542,1
0.350858687330054,0.0130128373797079,1
0.274797174561005,0.00961157523415868,1
0.2681530085564,0.0109930394295367,1
0.318651193252292,0.0141011549159435,1
0.333897437406577,0.0128549076326601,1
0.290305823523468,0.0141315113775804,1
0.301839431998004,0.0136595420897915,1
0.403446161787733,0.016898700896827,1
0.413669317600433,0.0204553055027154,1
0.340015027675726,0.016933588635367,1
0.205618281768404,0.0121332077897453,1
0.172129129075497,0.0098732412871582,1
0.151554621191765,0.010846460587953,1
0.178121833426246,0.017749489870893,1
0.170933682199037,0.0228905403077278,1
0.157528032153174,0.0183230667499853,1
0.219733995002892,0.0252235186824617,1
0.177001783231072,0.0216643095992771,1
0.179066129087398,0.0116612269105659,1
0.215996542660263,0.0136330077717571,1
0.274188872444068,0.00913050568066015,1
0.445113917345914,0.0156123533538732,1
0.558921701230031,0.0157467315661259,1
0.63916750767636,0.0175396061394216,1
0.613649553026509,0.0144687728732114,1
0.553240466996967,0.0127441944433731,1
0.624313959289408,0.0143433021853389,1
0.652736810316623,0.0135256956022701,1
0.621878096958574,0.0163414242921413,1
0.450736928041697,0.012507681653778,1
0.450042324817885,0.0134221363113235,1
0.415262002192016,0.0116109231011768,1
0.377231954768514,0.0104487178553477,1
0.382444922464443,0.0106977529994402,1
0.37474133209159,0.0128172349280293,1
0.387548087054269,0.0141656255585977,1
0.406366662001667,0.0153382685721921,1
0.427593801148395,0.0177803887471561,1
0.471683336581484,0.0194289543780567,1
0.390926397020497,0.0142875178038706,1
0.349758254596943,0.0211018326475901,1
0.370201027584993,0.0261192637124988,1
0.295054541808538,0.0226782269907013,1
0.289788071118842,0.0232610003915392,1
0.242801545888689,0.0213835302592295,1
0.200117286321324,0.0144782281842315,1
0.148967902238081,0.0113326214764336,1
0.0640800836474701,0.00452777248789809,1
0.0718489419979777,0.00684082314259519,1
0.0712460316915014,0.00695821646782838,1
0.07101771257193,0.00850867668466518,1
0.0822588159784415,0.0086150064236672,1
0.0840852133401572,0.00581473948113379,1
0.0883129615022118,0.00637599470218488,1
0.0979994196024953,0.0062118289745435,1
0.0962245042660687,0.00743368959488426,1
0.0789246081858066,0.00697840521147709,1
0.079270897165107,0.0071611275100111,1
0.118154056799153,0.0101874760213846,1
0.137605232892769,0.0112713973288047,1
0.135932366727807,0.0109729051717515,1
0.129477891408117,0.011808957384419,1
0.109134876827769,0.0182814024620861,1
0.0777809351243668,0.0140061545716373,1
0.0905746437982188,0.0206704069723848,1
0.105300872768061,0.0293938145360923,1
0.0798243941411032,0.0244479067188324,1
0.0826993912415026,0.0212324359663846,1
0.0920959568592107,0.0211294102846595,1
0.103515347150767,0.0212081597755844,1
0.102728067108398,0.0166325417494257,1
0.0977636969150096,0.0143575154491224,1
0.108398832897435,0.0140092121943449,1
0.117996418086624,0.0149893428034936,1
0.126278479844654,0.0141098275650344,1
0.129007296257726,0.0127956800480041,1
0.134121294928901,0.0124478648241884,1
0.114347112886373,0.0117028956902354,1
0.0913298865641064,0.0109931118358556,1
0.0727220844864917,0.0102982140224848,1
0.0521198965284249,0.00506047063562019,1
0.0547024034687171,0.00481188150052102,1
0.0864162744234995,0.00966642030006222,1
0.106943253835569,0.0115779683995099,1
0.11736762209582,0.0135181579858316,1
0.107904326282281,0.0107273439368744,1
0.111410978803916,0.0115587685180388,1
0.243148537307296,0.0171162066856221,1
0.258071553193199,0.0133949878283911,1
0.25349729281348,0.0138822983233926,1
0.259457096685956,0.014976103817684,1
0.348873989885722,0.0190493818092819,1
0.636443347677168,0.0299123414816265,1
0.757482540031677,0.02873127594727,1
0.634516693974954,0.0279318711118064,1
0.570159271507685,0.027466703859926,1
0.508585615580409,0.0248745423276594,1
0.530427397037382,0.0226244775075439,1
0.537015999396053,0.0291540955134717,1
0.493022322354737,0.0277452105248111,1
0.43288911679362,0.025313656705337,1
0.429966161590641,0.0293565330480727,1
0.338103508270884,0.0256995395705447,1
0.294811017846893,0.0228616078477884,1
0.259534408139946,0.0111915412658253,1
0.391978721003834,0.0130622069066945,1
0.424590786918242,0.0126522054780873,1
0.410632536353961,0.01599496477178,1
0.3837853269548,0.0138877848485175,1
0.323711185046929,0.0105094772855631,1
0.398632735296105,0.00698558047172173,1
0.897938963648052,0.0176678288690362,1
0.968741896135924,0.0126957276240338,1
0.750594753928471,0.0109693663269026,1
0.642418794924368,0.00937709444671643,1
0.678306271430008,0.00954479927090087,1
0.730378658823608,0.0104085781792169,1
0.687234563996693,0.00927390583555858,1
0.669542622130278,0.00936108564018557,1
0.63142565401464,0.00944668809686785,1
0.594477359372813,0.014385748228845,1
0.301747079053245,0.00701632639351449,1
0.256704251919796,0.0131578575387337,1
0.244448468037456,0.00998354396752744,1
0.229995720653749,0.0154965874043802,1
0.192678587089256,0.0141096446972609,1
0.278339183235535,0.022270616730416,1
0.295076939900905,0.019861861662629,1
0.295082420478423,0.0180916875303717,1
0.280571478404836,0.0119390142711084,1
0.315698062988331,0.0122801170368631,1
0.323536438260996,0.00983155405470566,1
0.420580038864234,0.0105003846206355,1
0.413718427183996,0.00980724773669026,1
0.380094540749346,0.00913904459385698,1
0.365225867496273,0.00971147679151315,1
0.307615614209096,0.00801654877122358,1
0.340300226721935,0.0110604020876081,1
0.321006776798353,0.00959657699902731,1
0.401412730212651,0.0117466586400139,1
0.50025456842902,0.0125655512759894,1
0.494701736778566,0.0136471222701848,1
0.427299028603923,0.0133404408569915,1
0.599930306365804,0.0200845143626819,1
0.661731877539286,0.0203203461667191,1
0.543834485298754,0.0131782366301713,1
0.50822767784153,0.0115425306910517,1
0.477128710807695,0.0104988329004709,1
0.302446670687203,0.00553454503406701,1
0.451123218092344,0.0120327953278733,1
0.493539572329883,0.0118634684127237,1
0.432869316993264,0.0115002423961942,1
0.409572694453153,0.0133356555545622,1
0.340098184666165,0.0113739779845653,1
0.259533549374775,0.00874055259214883,1
0.246436359542994,0.0137708048330344,1
0.23283849598228,0.0144480151913157,1
0.218142225056334,0.0126617550412091,1
0.220998946094834,0.0132916982123513,1
0.0983874163099774,0.0102770752203404,1
0.0891862912122542,0.0127913329526428,1
0.152896937322625,0.0131939125987426,1
0.148503115464844,0.0121913217110997,1
0.181381941022268,0.0136632104083121,1
0.299661491076572,0.015596723631497,1
0.258042569551254,0.013091505151407,1
0.229988181601178,0.0119776402829058,1
0.21081892603918,0.0100093426010315,1
0.190453736129211,0.00865367924640384,1
0.232239427638868,0.00950997945327199,1
0.233701088768467,0.00885694464669444,1
0.220924297677482,0.0102574241023305,1
0.177899602948101,0.00754499784416496,1
0.250224235085607,0.0120244591751258,1
0.26921638136044,0.0158045279638456,1
0.357711419988007,0.0202089275385374,1
0.458708747029107,0.0238372035101417,1
0.448534976337579,0.0218576377074831,1
0.444154361728236,0.019076749814894,1
0.327667578131042,0.0186002581867178,1
0.226735678306975,0.0152283270813278,1
0.166241542491028,0.0101203059289285,1
0.145861346417441,0.00871322853034212,1
0.167261582394738,0.0112269739797413,1
0.179578563424174,0.0106341701017204,1
0.18617764830265,0.0104729864482676,1
0.195599382471786,0.0105161487829846,1
0.17106661057665,0.0132119713184642,1
0.0793685424568676,0.008590038666573,1
0.0821220260386057,0.00992135567485659,1
0.0741238712902798,0.0105810567941168,1
0.0360058386401233,0.00727123194989566,1
0.0363588044219539,0.0118138000233441,1
0.0358542637362669,0.0110318872729961,1
0.0357453553551886,0.0136901290875578,1
0.0513072387186542,0.0100562503033568,1
0.194157273946942,0.0251657260543044,1
0.431270806599658,0.0503038339246109,1
0.659722471333708,0.0829738062513224,1
1,0.072849505777721,1
0.951249712128793,0.0304664246519129,1
0.839447864967969,0.0280034728009214,1
0.700526706569195,0.0245754374331965,1
0.571935097406472,0.0204393918309409,1
0.372890085278098,0.0133958135444489,1
0.290632292080406,0.0123914046091995,1
0.286710034048044,0.0131121286859177,1
0.279020040093391,0.0123357146864932,1
0.249053047407152,0.0108954145264292,1
0.0931149793507772,0.00185422802299456,1
0.0982103863750466,0.0119730937438436,1
0.0926117680531378,0.00807883503467235,1
0.103960821961176,0.00873865776694748,1
0.100752548768982,0.00868369865643408,1
0.106040179788383,0.0087659524216935,1
0.105535618250709,0.00771505681830837,1
0.166688201423472,0.00596760434769514,1
0.365790955224416,0.0152567076259656,1
0.60330370359469,0.0208083460330787,1
0.638001029940757,0.0253463410050172,1
0.553168825842805,0.0191612921742816,1
0.478124002572171,0.0161804344151668,1
0.490790722242267,0.0160109880656552,1
0.424622721414517,0.0144060807046336,1
0.511128021735382,0.0188946438715368,1
0.487217857493874,0.0194062155765728,1
0.472028797972851,0.0241401589404989,1
0.489669833563067,0.0210884785712907,1
0.505127225611302,0.0227518202591485,1
0.509132850614453,0.024267807315636,1
0.538785106573241,0.0293858086522441,1
0.449741439895747,0.0317921012315394,1
0.454358217344329,0.0332902497559643,1
0.576828350520033,0.0392141547276197,1
0.633970219720811,0.0436968984386079,1
0.411619614289406,0.0293483455876807,1
0.249992611645125,0.0170371595216763,1
0.155871092355145,0.0144700602318946,1
0.15224783642025,0.0125688258869226,1
0.143826303682847,0.0117053825009586,1
0.171747791971037,0.0116380513193558,1
0.191090504779907,0.00948982420154602,1
0.176052223598037,0.00819016937871619,1
0.176763870739694,0.0075683459735908,1
0.213684798814154,0.0097840179084507,1
0.259315306047935,0.0132963265150624,1
0.196468356036668,0.0113144497479255,1
0.186506530658007,0.0105612221548035,1
0.198116805340742,0.0129176827441504,1
0.216651967078258,0.0124411636826516,1
0.233478986916378,0.0146950449068004,1
0.204377207934972,0.0166046400708554,1
0.165056930859936,0.0137193539579072,1
0.270993679112454,0.0252779467847874,1
0.334694457476658,0.0257914867966468,1
0.344815142039368,0.025954270780443,1
0.284686456924156,0.0231273141246966,1
0.210644353749876,0.0158344861864366,1
0.199069703836159,0.0144699462720738,1
0.196504715434039,0.0146208258203683,1
0.198577838050155,0.0158214155874278,1
0.143613135519085,0.012906579054462,1
0.0756114304420404,0.0115572331610942,1
0.0754715525061275,0.0118116872074048,1
0.0929856479403297,0.0137966392914187,1
0.0829710081490901,0.0108413123643341,1
0.146593615692489,0.0102788518686962,1
0.197571104176101,0.0127363921665958,1
0.184493829506302,0.0121585831155104,1
0.148628406677819,0.00993396984801545,1
0.14143992927367,0.00961139624351256,1
0.134671203908509,0.00838761593753813,1
0.152204280566207,0.0102156836894448,1
0.108985197648793,0.00813996457025811,1
0.130261078880102,0.00763512683284302,1
0.241209116717843,0.0131562417004732,1
0.234279348696131,0.0138410152268373,1
0.259902173139964,0.0168247121321025,1
0.251690875457192,0.0154906272672304,1
0.191981418265307,0.0120527028770173,1
0.184401080681024,0.0116105048167451,1
0.168246083399402,0.00737982775742641,1
0.201590848911002,0.00906809484815641,1
0.214124121230045,0.00942484198041994,1
0.243370298435156,0.0162293382090149,1
0.186231715618612,0.0154446418021807,1
0.205756298592519,0.0211479897910965,1
0.183598521399194,0.02027742993798,1
0.199043473483284,0.020812402294614,1
0.213875827366105,0.0152972801683195,1
0.187148887070452,0.0117325112138198,1
0.172237726593869,0.00997473554084063,1
0.192994591969897,0.0061213269189281,1
0.233550730834833,0.00641188146692727,1
0.260301447201197,0.00630292015302741,1
0.264206795666383,0.00560048611843008,1
0.263901375902232,0.00548387834123637,1
0.26935942369727,0.00575623805077396,1
0.26904508788578,0.0051796633245445,1
0.264250939418951,0.00592295172729464,1
0.207088504349392,0.0043533548495924,1
0.201825285902102,0.00639472791461231,1
0.186008772657484,0.00959741419015342,1
0.140558926792063,0.00623411032812506,1
0.173599740552118,0.00874968971372255,1
0.177787415393035,0.00745209966369764,1
0.182268702609775,0.00793262162346545,1
0.175937186583321,0.00706580852330429,1
0.113617043812848,0.00332351545395959,1
0.11751732504928,0.00586338203762077,1
0.115233327373011,0.00458049173255358,1
0.293910089772562,0.0096965956110201,1
0.3483877238397,0.00877548848153344,1
0.347199933777346,0.0108754547557933,1
0.289803550699497,0.00927561746809397,1
0.320895573112167,0.00905544149858244,1
0.332949906160686,0.00850366027033007,1
0.360014906342427,0.00875512662379048,1
0.304322613800388,0.00688569096986378,1
0.285489402330304,0.00551267092193455,1
0.351205689979715,0.00634935436026305,1
0.458331459481759,0.0103976571910348,1
0.444777319121275,0.0117004974736531,1
0.421954219090404,0.00965065672662553,1
0.483413658781321,0.011742008199818,1
0.600586321766013,0.0160582320592595,1
0.540589129344486,0.014656007604525,1
0.534653961521706,0.0151195634441033,1
0.625622125590476,0.0177660200924999,1
0.628238134269532,0.0214927351118414,1
0.535530386737097,0.0265128443691102,1
0.410695789801306,0.024751587715035,1
0.396980804788186,0.0283102624508147,1
0.390612950584933,0.0309036787384018,1
0.358904289162379,0.0212551159705515,1
0.268544000452843,0.0155677120739299,1
0.198816936286265,0.0112287445630305,1
0.246831443370445,0.0157562623325525,1
0.372016555864698,0.0245522888092115,1
0.394023053896687,0.0235147940269339,1
0.433402443470914,0.0238630622429902,1
0.42773637714984,0.021917839666823,1
0.438265257664064,0.0199936226930734,1
0.535522681508517,0.0235939699930167,1
0.558992755529306,0.0355236685223884,1
0.46419801183382,0.0345222485376064,1
0.51088367119941,0.0355843159660694,1
0.562540705054598,0.0322670808077446,1
0.385219127595802,0.0236311834224593,1
0.388298434530526,0.022143439266794,1
0.281010155460204,0.017564428650723,1
0.291062613505323,0.0161939856494383,1
0.316439101185869,0.0120461858483534,1
0.347095328121798,0.0134000482961104,1
0.494049054005599,0.0183085879422839,1
0.521151887003653,0.0145787169927516,1
0.536286398992625,0.0160569536033913,1
0.487893803488881,0.0164196983405196,1
0.532740015328399,0.0171942502573249,1
0.660501204548467,0.0210430807034117,1
0.795114795906099,0.0210977814553668,1
0.847817341155587,0.021329675167648,1
0.90325455435308,0.0307637015658496,1
0.790376883041836,0.0262308737760553,1
0.441545942667673,0.0136724372212843,1
0.325494927931092,0.0114047414832719,1
0.346909551925921,0.00645216285907854,1
0.293228040445871,0.00333790565059085,1
0.299979421637302,0.00308040853415847,1
0.317523772308645,0.00397651174269155,1
0.321357107529804,0.00529673020098054,1
0.31098157359631,0.00517927862417097,1
0.341899942753325,0.00564685806438132,1
0.435660339063073,0.00799409500927618,1
0.52214909288708,0.0111803707222894,1
0.316918831516197,0.00746323572704303,1
0.266042781021032,0.0126936972045015,1
0.24068949005198,0.0194695643459649,1
0.173809654070229,0.0232423609572878,1
0.165378548974199,0.0224161108918678,1
0.153518418897584,0.0189795695700516,1
0.0463308396624428,0.00749997681060474,1
0.0195849380550815,0.0112494916689635,1
0.0268786887084543,0.0204482278471483,1
0.0384056294775206,0.0368491047772279,1
0.0427964913217964,0.0391681670862227,1
0.0409695119075757,0.0379354262175031,1
0.0374379808580666,0.0379086146741788,1
0.0305678963767102,0.0285413774511578,1
0.015211714999485,0.016068954343202,1
0.012633560257211,0.0193617333130489,1
0.0120577710396539,0.0155104901418929,1
0.0133651485838034,0.0184116018567883,1
0.0269303855588277,0.0210482906221899,1
0.0389815359584057,0.0145554621503172,1
0.0499786491828773,0.00993097537028039,1
0.0747183166696447,0.0137908146259954,1
0.0821637113170008,0.0157323122010081,1
0.0745997970652985,0.0119814888870123,1
0.072492093222551,0.00822369418733866,1
0.127169843964911,0.0139802346148058,1
0.113898273207056,0.011153423708737,1
0.107931127056451,0.0106787867138534,1
0.112459071163407,0.0127943672809736,1
0.117236436997887,0.0165311545617508,1
0.114503360566857,0.0224174554636675,1
0.186629884660557,0.0290115087249661,1
0.175743822798733,0.0209317871300752,1
0.161754761088396,0.0214220895571159,1
0.0999047826921143,0.014326061979172,1
0.261379619964958,0.0174320763819431,1
0.250399184291284,0.00879479424079506,1
0.242613387396322,0.00846934920231912,1
0.244064104002371,0.00519955267703671,1
0.317153149998841,0.00523228158512772,1
0.365113156343517,0.00531466593454203,1
0.416852728639309,0.00653148537237479,1
0.537264383567355,0.00911453822702044,1
0.594258118349776,0.00982816982790033,1
0.633303660384983,0.0104503626921891,1
0.429972798904299,0.00608514258769236,1
0.414338249008375,0.0105352724837833,1
0.414238185148411,0.0104912447427219,1
0.369139378622922,0.0150879886570216,1
0.125249677667097,0.00656515696278147,1
0.239561373781993,0.00917027908905804,1
0.283661944055748,0.00578103786298496,1
0.261696210197912,0.00484612931550213,1
0.246702557934157,0.00462559712911251,1
0.284936092911566,0.00461425353193578,1
0.30146591450967,0.00391620639644006,1
0.309355352142611,0.00364239340641585,1
0.345968355283736,0.00489810022248678,1
0.40546004576193,0.006958444317643,1
0.334625433033989,0.00559758120857231,1
0.336023909824337,0.00806842094721033,1
0.307914000569623,0.0114054265242472,1
0.22920803216895,0.00958619201616273,1
0.188234393067385,0.00726151928840721,1
0.258473220352303,0.0136164080213223,1
0.266578744673373,0.0237796294024231,1
0.153948887284107,0.0158159701517476,1
0.151425836696098,0.014416703218531,1
0.156134309113615,0.0137464465136518,1
0.209779801017799,0.0109860684920856,1
0.250470349079988,0.00919947933643898,1
0.238876313557342,0.0112938432779979,1
0.213386127976042,0.0102163350755147,1
0.226225934121427,0.00975997599839203,1
0.360120201671314,0.0164724183073785,1
0.380227358013554,0.0130277071393483,1
0.395571367924942,0.0129815909335163,1
0.372643998963505,0.0119992637928652,1
0.378681147101197,0.0118257913781272,1
0.291378548108974,0.0129302399937475,1
0.202719258058763,0.0096626177656396,1
0.256901614094699,0.010093242141482,1
0.259887492524946,0.00776797223150931,1
0.373962865827136,0.0124551095322366,1
0.274242363086655,0.00681855380903649,1
0.267677066221506,0.00726572991480862,1
0.294173532347179,0.00938199931450959,1
0.318999623265259,0.00976956863131635,1
0.360741701608517,0.00756879028568132,1
0.384925837037044,0.00554213272323301,1
0.506014724596168,0.00955763443225423,1
0.341339846227691,0.00569249360519539,1
0.324477999479924,0.00657431424528071,1
0.384368293106616,0.00608183419229895,1
0.415986060902679,0.00556990319091924,1
0.387360177058842,0.00569241084709541,1
0.40731455709406,0.00615802558832758,1
0.404609225376499,0.00634416196736428,1
0.39525304158277,0.0076848147519118,1
0.363115148434963,0.0100400993304439,1
0.253820210778448,0.00768368366892051,1
0.204782677759234,0.00618722214343312,1
0.188952028895478,0.00526045099418288,1
0.150128003860819,0.00625744654104263,1
0.0950281669990483,0.00716218011421882,1
0.112584525948939,0.0107930506943205,1
0.200307810955083,0.0171522825375977,1
0.400953037126955,0.0282129661209084,1
0.459594194753529,0.0335593218204564,1
0.401398370528914,0.0328286861072031,1
0.38275853435322,0.0309472059629299,1
0.329707199101568,0.0249334840397957,1
0.359296924414312,0.02510112036014,1
0.249134017091655,0.0262145351906615,1
0.186898803896095,0.00677135057310954,1
0.272504013288098,0.00827321796892534,1
0.277988443642247,0.00858038601430756,1
0.248006939372247,0.00707687183175861,1
0.338545916393571,0.011547015487468,1
0.411625654897776,0.0138880633007326,1
0.493096671336792,0.0158592580018222,1
0.566373824311808,0.0174550265378445,1
0.599209872955332,0.0175294025809355,1
0.633821507646015,0.0173267781731528,1
0.513182274596644,0.0317243225673001,1
0.156549575094163,0.0177177410103467,1
0.0962339145480379,0.0123208389058549,1
0.0329066987706636,0.00384775720528873,1
0.0297810739517734,0.00562447663295939,1
0.0283058184476185,0.00517511558568456,1
0.0281102946600855,0.00551120443229062,1
0.021331727819915,0.00268425737686247,1
0.0394330254715317,0.00867013375994649,1
0.0438326968883655,0.0148448261591294,1
0.0458740283889464,0.0161998738051952,1
0.0623530679195369,0.0191051895422373,1
0.0826516176263535,0.0207328610134601,1
0.0764120903005659,0.0167123759881913,1
0.118281823670408,0.0213930745850411,1
0.119686744445056,0.0210312538652978,1
0.153500890223845,0.0217939153377988,1
0.208430133048966,0.0200646423434378,1
0.199780834509776,0.0183528827528366,1
0.196172412893575,0.018761876440719,1
0.17921293583563,0.0181853742051979,1
0.217419774322933,0.0163623563391087,1
0.284251361033269,0.015507329714471,1
0.228623225590485,0.0113967899452639,1
0.357453829270964,0.0077600698498587,1
0.387232278824611,0.00488758284435903,1
0.413325135229602,0.00532802406428445,1
0.468161574993077,0.00488200000831851,1
0.46180161349635,0.00491112482234689,1
0.493054978857905,0.0047340106933527,1
0.585970393823264,0.00602916131553268,1
0.569993341496086,0.00648009293535841,1
0.538197805407515,0.00625557776149427,1
0.589661629619166,0.00701797598165033,1
0.437399647173164,0.00978287684596164,1
0.291071000056848,0.0102734885289499,1
0.292083690837174,0.0107113524811255,1
0.267499417827603,0.0220636555815927,1
0.12377672105405,0.00697644306694991,1
0.1537010324867,0.0126798146165125,1
0.17095704277929,0.00994486302538422,1
0.203455872676565,0.00288012040802943,1
0.370835313710593,0.009891101216088,1
0.380986864963998,0.00974558904084723,1
0.351579280268407,0.00865905718708149,1
0.303459328473294,0.00719595174597935,1
0.319004618600742,0.00761781334214991,1
0.306723346565781,0.00570443247681572,1
0.301704551942502,0.00675262198175355,1
0.292631691390873,0.00661018210608485,1
0.250515682051378,0.00666182482244115,1
0.246508549912767,0.0235871804371524,1
0.208086637272405,0.009074751706568,1
0.236524697047255,0.00393092239906518,1
0.281513027380129,0.00455683273734118,1
0.296762656110026,0.00464610081389975,1
0.260229908347262,0.00409953906179135,1
0.292463411563157,0.00535493681326228,1
0.38479928080539,0.00787599601175377,1
0.435630219432765,0.00884422710987874,1
0.41838276734155,0.00914807327722491,1
0.320307140060509,0.00622500877384243,1
0.294754385880233,0.00870244988177852,1
0.272557236233201,0.0182800595652275,1
0.187066002554468,0.0159872842364723,1
0.192062750523977,0.0206818986072818,1
0.182305776204202,0.0211277216520324,1
0.230344538273843,0.0140181304857625,1
0.361340940142584,0.0171974112703294,1
0.352919349281734,0.0154476460542547,1
0.371109477112745,0.0105469368421828,1
0.503751960561515,0.0145317108170624,1
0.508522968546554,0.0149584395997272,1
0.460019372776117,0.0150551259060242,1
0.400213706719728,0.0128996225000178,1
0.343096554971196,0.00914341073966633,1
0.291061381183907,0.00710018293010024,1
0.307465634230598,0.0108304692935873,1
0.300609231103373,0.0123892888892224,1
0.224406780351848,0.0113003703913933,1
0.141495942115544,0.0132250989971054,1
0.137134756063462,0.0126178426331872,1
0.216417573521119,0.0172319875797777,1
