Activity,Complexity,Tag
7.39990043675338e-07,0.259227703627421,0
4.67439169533261e-07,0.209331579512821,0
1.33452538519585e-07,0.123604661246863,0
1.2791769664309e-07,0.125912693809331,0
1.53403200189466e-07,0.138852760643745,0
1.78284529729003e-07,0.155578665228342,0
2.21547758430723e-07,0.159296464425216,0
1.01174960186192e-06,0.322306525161396,0
1.26123166848498e-06,0.315624474757124,0
1.24974552264929e-06,0.325686004863123,0
1.19786274478332e-06,0.323592204823155,0
1.18723232213216e-06,0.314603309424723,0
1.29210629017727e-06,0.322358553158608,0
1.26387027496517e-06,0.313457831179222,0
1.15866648111003e-06,0.28826248961931,0
1.10555996589247e-06,0.273225258897022,0
1.08430368039397e-06,0.267711343517402,0
7.07154706338211e-07,0.215312968318107,0
4.52314870220534e-07,0.181486398921557,0
4.51275234948387e-07,0.182045855763863,0
4.54433849056472e-07,0.182659016472653,0
4.99708901204238e-07,0.194495459170717,0
3.9750393833148e-07,0.1751944986316,0
4.51936596494868e-07,0.195733022860373,0
5.86070825686321e-07,0.218714716946777,0
5.26972728242445e-07,0.203411039219605,0
4.86575716228517e-07,0.215285063050188,0
3.7681971822122e-07,0.201665556781958,0
4.87085084314158e-07,0.235766670935258,0
5.08041182727497e-07,0.234727399535468,0
4.95526611137396e-07,0.240593086187828,0
5.35502411272969e-07,0.235753211681319,0
6.1824480147697e-07,0.237371486794768,0
6.11681723837891e-07,0.228886753886981,0
3.36786160570526e-07,0.178934277592557,0
4.34061405532759e-07,0.208494630318153,0
7.61607313643333e-07,0.260154050876202,0
8.73263229911133e-07,0.272121901377099,0
7.84967758615338e-07,0.253775534696008,0
7.34056218964139e-07,0.24536364758925,0
7.5310688935402e-07,0.24625280077325,0
7.62709266234424e-07,0.248013848027109,0
8.16290761017106e-07,0.270060467219941,0
5.66934658974717e-07,0.209316042042804,0
1.00610931452197e-06,0.257063346463949,0
1.07656208345791e-06,0.249736224622661,0
1.19474364897505e-06,0.266083892969466,0
1.20646082487122e-06,0.270693341830459,0
1.35928511996671e-06,0.281883379987847,0
1.40077021516843e-06,0.275500674261669,0
1.25787508289415e-06,0.261635285055176,0
1.3606809899127e-06,0.245048570538844,0
8.76626598210152e-06,0.472608871572052,0
3.32480664604326e-05,0.432238781545303,0
0.000129177872906981,0.55756322627061,0
0.000145619507144484,0.400693520059703,0
0.000139330907656631,0.404540572683648,0
0.00015081742568631,0.345636316545823,0
0.000158283245687029,0.249737284062333,0
0.000135612977371804,0.217821515074778,0
0.000113850001152477,0.189150120152519,0
8.72389440403863e-05,0.13943498448926,0
9.76195314301204e-05,0.140094049991648,0
0.000107623556350566,0.115529420551976,0
0.000118866150714485,0.127581040335701,0
0.000122108572496942,0.13801526359042,0
0.000125764890712483,0.12799487595956,0
0.000143077126774397,0.113981293573754,0
0.000166744086509327,0.131528204595483,0
0.000155890200792136,0.12044265163259,0
0.000176653370105794,0.134939719777885,0
0.00017344564976039,0.135933804234268,0
0.000155839099640643,0.125550191999797,0
0.000168796062827891,0.179445129546464,0
0.000149117453303608,0.134025919003186,0
0.000180092490995737,0.142489888025986,0
0.000181533815536152,0.153673510906639,0
0.000201090254046554,0.200877781067478,0
0.000233853297213968,0.201176749055274,0
0.000223962436744889,0.195714836189677,0
0.000269069754989012,0.170262402480023,0
0.000283819796053317,0.141094681361222,0
0.000233053202116171,0.1309378575576,1
0.000146957407354486,0.100053612845087,1
0.000116884406774339,0.100936380515436,1
0.000132628432254811,0.111998489708817,1
0.000118700096338582,0.100402430237832,1
0.000118650759261194,0.0957753394159627,1
0.000121138007613205,0.0963226927760943,1
9.50152450733927e-05,0.0835352774302023,1
0.000156637460493052,0.14321666179901,1
0.000181386659267203,0.190683996475497,1
0.000187292226874098,0.195772019760037,1
0.000168669884506415,0.182229176828789,1
0.000150158686976987,0.17411440451925,1
0.000100818880545678,0.145932412811231,1
9.38903733883413e-05,0.148231484401672,1
6.25239008567722e-05,0.148609865400385,1
0.00011702461922203,0.133526675084826,1
0.000200420076689352,0.0998760164065655,1
0.000221101375675288,0.100266996839193,1
0.000246793663285268,0.0949717086906117,1
0.000750405246625821,0.0481941468132476,1
0.00243226929255579,0.0702306371666768,1
0.00251101630893131,0.0577351298835846,1
0.00245414303096983,0.0560918970688625,1
0.00238150576033692,0.0523088667210882,1
0.00245541740950271,0.0467461977894297,1
0.00314753680090985,0.0551803675444792,1
0.0038259221880201,0.0525918209801667,1
0.00315426618827384,0.0415810622493763,1
0.00245569799019138,0.0358253677385749,1
0.00232319538268326,0.0455827418171485,1
0.0022660243168534,0.0490476533370537,1
0.00247911459579721,0.0579259885469697,1
0.0025091765616521,0.0589314413680453,1
0.00213908172209885,0.051806293650178,1
0.00208380044853514,0.0438783094783896,1
0.00218844654285398,0.0498880229366207,1
0.00205780609083101,0.0619301176215604,1
0.00177667646997926,0.0663211703048827,1
0.00142373720435794,0.0549308572954838,1
0.00121006856958652,0.0638693239380599,1
0.00119947797074204,0.0734774167010105,1
0.00110220870615251,0.0796794886370136,1
0.000874528118542286,0.0677331365186014,1
0.000466440974328253,0.0475173688627289,1
0.000783609490331624,0.146243117423273,1
0.00116523926562149,0.182606252584542,1
0.0014621122732012,0.155968736422384,1
0.00134355222743727,0.0695035351443046,1
0.00543524310654686,0.0492720547485757,1
0.00837401087575144,0.0478856032748033,1
0.00796240376190578,0.0451094484804292,1
0.00964067367470485,0.0455069134175091,1
0.00894547395038176,0.0378826639752719,1
0.0137937969077424,0.0379220694090403,1
0.0137561067442327,0.0188119140537136,1
0.0124431652126725,0.0155124439527255,1
0.0111599905104348,0.0127429004982442,1
0.00838949332789548,0.00820660321173061,1
0.009651361950817,0.0130610870938854,1
0.0101945916678409,0.0140397970254747,1
0.0122389965391177,0.0168544171160718,1
0.0122936932616004,0.018007262220306,1
0.012398627163137,0.0186082275164164,1
0.00649371413431973,0.0116671008503744,1
0.00444158884392569,0.0186643483464669,1
0.00450834500934927,0.0243017800229638,1
0.00288045869394488,0.00872364830805277,1
0.00437264780860098,0.0118280343404431,1
0.00426528269756142,0.0116654730621522,1
0.00509368634090036,0.0154227257316856,1
0.00628245033153609,0.0202661466977773,1
0.00802038327107428,0.0250127242546792,1
0.0089660979886812,0.0179713183867679,1
0.00856253820053836,0.0150390662634176,1
0.0096315562643099,0.0171886638764144,1
0.00749184079388658,0.0133228780963381,1
0.00928842737938012,0.020508984269155,1
0.00961226878411821,0.0162818294238411,1
0.00810865078773276,0.0111441460120279,1
0.00835895734288415,0.0104375651673692,1
0.0090643700956758,0.00770310831281793,1
0.0344933947453231,0.0183911166826615,1
0.0766385223348348,0.0488437412936032,1
0.0765116755751871,0.0221032080230461,1
0.0752300727275741,0.0197719990153057,1
0.0794431437805382,0.0200012071089391,1
0.09003772413781,0.0224663509690885,1
0.0952004455888678,0.0273798897054381,1
0.0721985345824259,0.0219487417945075,1
0.0585972719293617,0.0178892515743518,1
0.038503700791373,0.0112852716972134,1
0.0416491118976158,0.0138175703812016,1
0.0441250512736394,0.0048928905950373,1
0.0799900645723123,0.019317486414568,1
0.0712283528751534,0.00573182122950926,1
0.0911376708888678,0.00808534965022516,1
0.0923374000973909,0.00771054992472914,1
0.102638431388848,0.00895444325338277,1
0.108904600763944,0.00703703201885436,1
0.112228845242413,0.00580136221774218,1
0.115000310653127,0.00667604274161986,1
0.102411067717863,0.00658497145550552,1
0.0979427620377366,0.0101497724881869,1
0.0636590683180019,0.00575854809130376,1
0.0574815723049041,0.0128852381728088,1
0.0489404058866552,0.0142340733303132,1
0.0525968040999641,0.0168637224327129,1
0.0331676205187193,0.0111493159358579,1
0.0302602954327075,0.0177870390030251,1
0.0255936471816015,0.0252731382259356,1
0.0136197168076378,0.0155439249193579,1
0.0183644528549707,0.0164442151609031,1
0.0164033469880109,0.0128195651593891,1
0.0143120900296445,0.0127979038809243,1
0.0179002458605807,0.0103191421277013,1
0.032988213237044,0.00968260841649545,1
0.0383705899037547,0.00587393255191241,1
0.0410625522077617,0.00395153178054788,1
0.0496087554835417,0.00649185017236326,1
0.0493226350603174,0.00601056476804015,1
0.0495082537952995,0.00659656327508466,1
0.0460515822667915,0.00603783197452309,1
0.0458564792654376,0.00578669257863363,1
0.0518143980284983,0.00603706525506192,1
0.0704777649924251,0.0104924775681623,1
0.0531888100280567,0.0083341343032345,1
0.0515485032246345,0.0130735716386154,1
0.0603561758322737,0.0250669891686819,1
0.03851808677618,0.016388002058969,1
0.0308335894378564,0.0153560064849109,1
0.0361684558206248,0.0169504040627213,1
0.0415411979100704,0.0215797553142734,1
0.0301177486170077,0.0172844016653053,1
0.0314197856043802,0.0207013207891708,1
0.0334308394353368,0.0214080407064082,1
0.0282180228241151,0.0351292916378916,1
0.0210427403544239,0.0561099394227829,1
0.0202729736958972,0.0634558704996873,1
0.0106287863602393,0.0436470545284021,1
0.0041074165808284,0.0292285587998207,1
0.00326524864906547,0.0309257327037757,1
0.00344847801625452,0.0291509769961174,1
0.0035692604254765,0.0271903525762183,1
0.00429097042441761,0.0248067645632651,1
0.00480695907922388,0.0282920265206043,1
0.00494170679601148,0.0323348649226234,1
0.00260709890376451,0.0185021843953731,1
0.00268439168831492,0.0222467775616653,1
0.00309967656646344,0.024902070156835,1
0.0040632918936589,0.0193915760562361,1
0.00887236574605966,0.0215682509169027,1
0.00852085256516441,0.0175937914422234,1
0.0067281438118263,0.0142190826166445,1
0.00926952128802007,0.019679236535645,1
0.0103272232866386,0.0120044815069642,1
0.0108928464084791,0.00987472824431864,1
0.0110139860783308,0.00992121763593025,1
0.0115396106549743,0.0105347699975682,1
0.011027141472401,0.00999049545966285,1
0.0131259398684649,0.0133039556698955,1
0.0140365888955503,0.00889516060338151,1
0.0153312220164067,0.0105061504651368,1
0.0150973758849244,0.00949438994142196,1
0.0171858910619395,0.0117943126992992,1
0.0175403674611793,0.0102824894234678,1
0.0158913012573196,0.00851354164553553,1
0.0155240910718309,0.00828401818420943,1
0.0155476874509324,0.00836937712310591,1
0.0155313271132473,0.00887240595172021,1
0.0124354062571333,0.00647849743566751,1
0.0112469627006316,0.0112780447367882,1
0.00933342946191176,0.0089799487576761,1
0.00946171434511751,0.0080822320549795,1
0.00767916647832124,0.00643593152565831,1
0.00618753590220534,0.0124454994250253,1
0.00486468230100854,0.0142620518847638,1
0.00506930428119092,0.0157155128034237,1
0.00474468369318535,0.0148593393808397,1
0.00461351128209866,0.0144929952791681,1
0.00498084621014059,0.0177652502074034,1
0.00566803977789967,0.0223679963303679,1
0.00444130487663271,0.0205566528510044,1
0.00517558097484707,0.0335637576531146,1
0.00694013223127501,0.0373755009308002,1
0.00821102706262522,0.0243048910305154,1
0.0107481382807247,0.0368450152282145,1
0.0130375427156337,0.0477875054992999,1
0.0127273621455404,0.0325409402917557,1
0.0490321089211987,0.0273764203869687,1
0.0572282849119462,0.00936760123064323,1
0.0597238743700314,0.0100429470814079,1
0.0574542156691387,0.00734020185195513,1
0.100632001239249,0.0114716328628931,1
0.115991938047989,0.013423694734569,1
0.135981770701991,0.0162089438207586,1
0.144479191934334,0.0147351813622881,1
0.138052111831092,0.0142045599724677,1
0.123742422737843,0.011976227428453,1
0.124929741570093,0.0140402709379018,1
0.112538751759177,0.0197717459016654,1
0.0767929056369277,0.0107523794254667,1
0.0529822523237543,0.00736214068551098,1
0.0491861155354277,0.0104148472161578,1
0.0457686022729877,0.00717154244629801,1
0.0387315329740312,0.00640385579412559,1
0.0448155779926375,0.0109563395446748,1
0.0432157954784634,0.00745209076281192,1
0.0419631706295003,0.00808081215900833,1
0.0415133066523159,0.00735535260800552,1
0.0344326363790384,0.00739160671722949,1
0.0266126078664136,0.00799965388353206,1
0.0262322235511907,0.00980162615655924,1
0.0379368037956179,0.0155648931889965,1
0.0402600237146056,0.0124795592360979,1
0.0404306103757272,0.0104583166449804,1
0.0300504750945322,0.00745789666887395,1
0.0289131975968117,0.00621822664570221,1
0.0393964207906526,0.0105969585994888,1
0.0433003106831562,0.0117600400075109,1
0.0556343125923322,0.0152200070051633,1
0.0537998564541867,0.0145473273869459,1
0.0599194691766265,0.0157076060723976,1
0.0628449908340838,0.017412194583478,1
0.0513570569596681,0.0189737232022331,1
0.0362078902118832,0.014623268603101,1
0.023685757543489,0.00958233723103967,1
0.0127253626953121,0.00854624910202833,1
0.0140544980526811,0.0100070878110438,1
0.0140128270799264,0.0105664887782491,1
0.013037330843019,0.0110085346371652,1
0.0137951965015282,0.0126532420200999,1
0.0149848994334782,0.00888789142632547,1
0.0231790701188293,0.0144707383731861,1
0.026117871773266,0.0232299459576699,1
0.0221037736900496,0.0219904056387494,1
0.0247311034237004,0.0244683963182253,1
0.025185804129766,0.026913069683515,1
0.0217518633641106,0.0242089422642657,1
0.0219252402993372,0.0314649496403168,1
0.0228343147197664,0.043718650851573,1
0.00915401957696851,0.0256048086919025,1
0.00462277076325135,0.0702591475742748,1
0.00461389102427115,0.0715662774238996,1
0.00385488832206056,0.0857515338083324,1
0.00276700088360932,0.0526992130794644,1
0.00273708020023608,0.0290850321984375,1
0.0026507559047751,0.0231905876270043,1
0.00250561731102045,0.0283525162457599,1
0.00208211381300865,0.0237755810085889,1
0.0016694497601953,0.0198435371974379,1
0.00192171292716809,0.0224945407728506,1
0.00260028896575601,0.0186405298073248,1
0.00293096053427242,0.0162559271323452,1
0.00279777273188319,0.0144821342398155,1
0.00598846154122975,0.0189980229397553,1
0.0145477919566355,0.0311780416373121,1
0.0150094987049526,0.0206420529611574,1
0.0150529527361755,0.0141217098886395,1
0.0172917797506787,0.0131362726749594,1
0.0169805039727041,0.0111312668843244,1
0.0158524426235606,0.00522678893350916,1
0.0206223655572572,0.00733965590083278,1
0.0207711020171021,0.00614511523344504,1
0.0209065011178255,0.00556797388275554,1
0.0229091316070265,0.00650497035171533,1
0.0225087109538898,0.00693863990298466,1
0.0214050235694739,0.00745981656674924,1
0.0200058031242803,0.00911364939856093,1
0.0234037595507469,0.00902879115150184,1
0.0252635593865296,0.00820096393264036,1
0.0233996163214796,0.0103767441726633,1
0.0306545135536035,0.0144910968898064,1
0.0282130758178984,0.00818159667159451,1
0.0247058379375283,0.00670398568132056,1
0.0247636604479013,0.00723646955052123,1
0.0249438036283362,0.00674913621773116,1
0.0288935166794567,0.00783977430645321,1
0.0257493864027292,0.00545988444573866,1
0.0296475494172183,0.00682811936641138,1
0.0359803386927501,0.0115646540048658,1
0.0373281239188826,0.0118783165074125,1
0.0369045353233419,0.0139178409901436,1
0.0383858703064314,0.0135784130087262,1
0.0400086087980588,0.0150806537799882,1
0.0425948048231603,0.0169690189984935,1
0.0467121611343453,0.0100407791768919,1
0.0881646509213232,0.0216652037968943,1
0.101641976501367,0.0273164984597217,1
0.114863185386418,0.0290026137688838,1
0.114526467119806,0.0283937437229161,1
0.114485210270145,0.0288324125274605,1
0.115378590518379,0.0281306444278262,1
0.103187525075339,0.0338144985112942,1
0.084726455204937,0.0223237074193748,1
0.0591557434368335,0.0100127722465346,1
0.0518888720817779,0.0105351375519459,1
0.100068435798041,0.0120574623820962,1
0.138801754199739,0.00750771814206171,1
0.14308404910283,0.00843364856286892,1
0.134064051355889,0.00784212166733471,1
0.150457599524781,0.00824388889362049,1
0.146766796322275,0.00603979585714172,1
0.133577665622367,0.00523054529445617,1
0.134484569532287,0.00563622612068541,1
0.127417598516081,0.00589114418293377,1
0.109927529679592,0.00496908390221731,1
0.0888808720621095,0.00596759410119653,1
0.0801670605157297,0.0044034882903712,1
0.124218541633791,0.00590275248888598,1
0.127492504534777,0.00493400778739166,1
0.150250484665649,0.00765589599553489,1
0.160891343446031,0.00699824933170002,1
0.164730025725618,0.0055438312697741,1
0.173549975795808,0.00649464906739968,1
0.186955894127311,0.00817035756481712,1
0.20333270348606,0.00910527320896341,1
0.225089246148025,0.0102780140313757,1
0.219116629746496,0.016206590021872,1
0.0955261199728063,0.00869678221017743,1
0.101504213184539,0.01069781529025,1
0.107758263045458,0.0114152932516999,1
0.048048346112391,0.0114050718425017,1
0.0205946545284088,0.0161950865309712,1
0.019619253948966,0.0102182520892019,1
0.0295444433495234,0.0146658572835539,1
0.0321355864821073,0.0147883649995995,1
0.0328178124582253,0.0154448039803632,1
0.0326426937318951,0.0165954419324796,1
0.0239215784500112,0.0130278231133743,1
0.0282430458923067,0.0256723657581057,1
0.0360927140957137,0.0410157462379066,1
0.0361290279113175,0.0464083135597854,1
0.0259972143665061,0.0316760840995886,1
0.0187995305191813,0.0403246987918789,1
0.0248099625246137,0.0543051255469768,1
0.0255139849322317,0.0680488761960898,1
0.0223663776654435,0.0592131873620123,1
0.0119801797332998,0.0372690577121702,1
0.00568066814870382,0.0224187695897662,1
0.0049163135743449,0.0260798427564074,1
0.00534941948970537,0.0256037782409715,1
0.00480551094936625,0.024796501418886,1
0.00437819454339581,0.0205895183183054,1
0.00221531828224083,0.0123765412690848,1
0.00354892618455921,0.0170499790098719,1
0.00374129956821854,0.0165929285785261,1
0.00413235189996516,0.0200964314105283,1
0.0051354960320071,0.0234746984680484,1
0.00549673764536951,0.0207668719464238,1
0.00587825261809848,0.0126967311489053,1
0.0113530932626448,0.0166882106722222,1
0.0108959759536478,0.0105769391420129,1
0.0101925109372094,0.010334500274957,1
0.0107622880572439,0.00819589917804614,1
0.0157257071358557,0.0111350405747668,1
0.0157447972523485,0.00775510101732176,1
0.0391350742241016,0.0145647117294211,1
0.0425013001878965,0.0116231076357933,1
0.0367212880180746,0.00934070492564286,1
0.0351302491532557,0.00988059659456438,1
0.0346742306061271,0.0105468154647472,1
0.0301745828005412,0.010128708710289,1
0.0342203039812885,0.00743597162830733,1
0.0665698593924078,0.0172363370258957,1
0.0762127731182397,0.00825990337863399,1
0.0795380106921533,0.00869572898965795,1
0.0804831116827744,0.0072474759386519,1
0.094341759232731,0.00931651794827737,1
0.0953203373954458,0.00760620329019873,1
0.093625444623566,0.00722064519158815,1
0.0944424276313909,0.00707603047979815,1
0.102763990213856,0.00782937854154835,1
0.101456597582808,0.0104362138175771,1
0.0696975464404864,0.00584261302255022,1
0.0569068674696628,0.0125512472450787,1
0.0521401761219449,0.0138272325045822,1
0.0399630573296532,0.0174696352922978,1
0.011386537602631,0.00410643619327835,1
0.0203539268996367,0.021318300854149,1
0.0638718372352716,0.0333531083693344,1
0.127150165228517,0.056445280100513,1
0.126259194422233,0.0454000591627261,1
0.121162620843569,0.0446540873298109,1
0.133236258485923,0.0407768948951286,1
0.16131289082278,0.0566031136394305,1
0.134903916262214,0.0356443956189277,1
0.097775504576784,0.0224911432154183,1
0.0739243336394657,0.0147903318149619,1
0.0509939703058541,0.00894789581147346,1
0.0493337195011155,0.0119995206745094,1
0.0479074082683091,0.0117132130488711,1
0.0534151684220812,0.0124492841887023,1
0.0471591546213557,0.00841740963449056,1
0.0484546045685601,0.00994130926336267,1
0.0411419079680175,0.00740457849517401,1
0.0407471184001566,0.00680491245584044,1
0.0516472110505233,0.0132385916858231,1
0.0396421640567687,0.00834575120436,1
0.0422584366415672,0.0112997667347986,1
0.0456258858768537,0.010258486803733,1
0.060050964378316,0.00943267033101898,1
0.0729508337420506,0.00562120443151673,1
0.102574475238411,0.0112209039047442,1
0.104790776493711,0.0114831288329577,1
0.102939500254951,0.0112087621123056,1
0.0946242022393375,0.0115416665142911,1
0.0971992118331788,0.0127823163931145,1
0.108690402828665,0.0161794794596808,1
0.105898263570255,0.0150593926560435,1
0.102372748878241,0.0134960109005426,1
0.0354808325779915,0.00413979216662372,1
0.0229090977094448,0.0212096109907921,1
0.0285920749171569,0.0276374356852118,1
0.0336247033751685,0.0310958488120697,1
0.0303253394571519,0.0234925525043462,1
0.0210202144675471,0.0158828202155777,1
0.0169993210494738,0.0137428056159022,1
0.0168037664649082,0.0154181578376667,1
0.0178903097926966,0.0143812748261785,1
0.0176998415832317,0.0238321589594522,1
0.0147768245638883,0.023704767031846,1
0.012643022676447,0.0238598569008969,1
0.0153759621192094,0.0299526086184539,1
0.0167817701566874,0.0315385963175045,1
0.0154373243766031,0.0611941323959535,1
0.00980137490627374,0.0694040713323093,1
0.00826220687510461,0.0646615410339589,1
0.00419303956041184,0.0416218408873744,1
0.00118853551710527,0.0276808262100577,1
0.00150925278061216,0.0374531442147736,1
0.00215030801611405,0.0429389817743681,1
0.00230562241836856,0.0423940445340102,1
0.00570890806330817,0.0429626463491423,1
0.00627081333979019,0.032446599993145,1
0.00564541689639573,0.0316416856495846,1
0.00498147979887193,0.0273120005642158,1
0.00461255992329863,0.0223440672074726,1
0.00324572818588732,0.0172195673819566,1
0.00355115918888947,0.0137859885447934,1
0.0133959066400319,0.0328024119889898,1
0.0148785765678185,0.0147493708662539,1
0.014431054499229,0.0138860620362915,1
0.0150619780030047,0.0150761918484096,1
0.0154786619505616,0.011919030447359,1
0.0186620211140789,0.0142134764603194,1
0.028342133249667,0.00430283717743215,1
0.0505004966892015,0.00877440111998158,1
0.0487478976317884,0.00741060350472527,1
0.0562426482996346,0.00289269980364505,1
0.130810974453933,0.0115572676857951,1
0.139238778951291,0.00817698321725951,1
0.131474833751514,0.0073545923003248,1
0.142887321625765,0.0075856663003542,1
0.139963126583954,0.00819335537575688,1
0.110654125033543,0.00318108037653721,1
0.118854431166731,0.00646225615828742,1
0.120515078580546,0.00702856987233608,1
0.121608889857738,0.00737743439220376,1
0.116444775389842,0.01243793827929,1
0.0819017461362561,0.0053685167567144,1
0.100907458362116,0.0139095851221242,1
0.0937501047714675,0.0140676856181346,1
0.104800994415229,0.0157463484260325,1
0.114428545838608,0.0152231195402807,1
0.107257723648944,0.020998779878167,1
0.0907847816813429,0.0197570369308705,1
0.0825952007419588,0.0139111661178219,1
0.0723256016638147,0.0112222138283389,1
0.103336180138886,0.0156314184774648,1
0.131268445383316,0.0181148199363801,1
0.130370819931502,0.0194013659807804,1
0.140042450300188,0.0176867308445647,1
0.199313920095168,0.0234238270723369,1
0.303633539451823,0.0342154775461647,1
0.274733250615562,0.0146232706924947,1
0.211046095499459,0.0107750215317073,1
0.162465802820063,0.00930934404853251,1
0.170275856849976,0.00907013178792962,1
0.19517463029903,0.0114022291547468,1
0.192748530798183,0.0127487013430952,1
0.208674290518089,0.0111873657269099,1
0.25539981819506,0.016103090087645,1
0.213167218792707,0.0153995447573821,1
0.0840697215107038,0.00445112220546043,1
0.0656857114988636,0.00919699220996778,1
0.0679618825814963,0.0108329140845734,1
0.0496954648650752,0.00731886805802238,1
0.0489437755984013,0.0106188997936551,1
0.0530224867094148,0.0122254230794141,1
0.039519796102111,0.00886438094353396,1
0.0514473338433682,0.0195184904670007,1
0.0511999144876019,0.0178821794638921,1
0.0536862843736474,0.0172720472496387,1
0.061832518354552,0.0146261982191094,1
0.0631260485040811,0.0151529889234156,1
0.0425515960071676,0.00912031811820337,1
0.0360903935553095,0.00763242293776135,1
0.0426182498439436,0.00845711460381179,1
0.0402600976166761,0.00838418450593022,1
0.0336701570348321,0.00744115385682246,1
0.0322239089611212,0.00800717972214359,1
0.0299624153118965,0.00859845546412649,1
0.0298638315785988,0.0113582064135857,1
0.0286303046580225,0.0178005046332403,1
0.0141218166032194,0.018021819718516,1
0.0155199676070332,0.0250131473199171,1
0.0211585477336349,0.034624452568477,1
0.0277926965146955,0.0588157591512497,1
0.028873707309958,0.0632881129445942,1
0.0321942521097072,0.0652603737582803,1
0.0349290061155723,0.063675418320947,1
0.0281920465156345,0.072285283620173,1
0.0125482499804485,0.0507831284073356,1
0.00956929869304493,0.0519846086053189,1
0.00714060781160646,0.0348700140951565,1
0.00317234546332571,0.0232679004159908,1
0.00256374306829697,0.021317265209881,1
0.00256643156359081,0.0234931619684127,1
0.00205988110840828,0.0248694035225423,1
0.00195881498085982,0.0181090792278502,1
0.0046617366793148,0.031595686308108,1
0.00512585614143064,0.0280868086929037,1
0.00513573791288075,0.0295015777578967,1
0.00461272633333923,0.0263917130473523,1
0.00429046734582138,0.0280549297655977,1
0.00441241658604322,0.0302880386135264,1
0.00661288230364058,0.0293097832672012,1
0.00998149933508543,0.0395950052985006,1
0.0113904806635401,0.0439284833173451,1
0.0097026401441038,0.0406635796217584,1
0.0198588150604147,0.0224395397479561,1
0.0297121843801416,0.0171006734686946,1
0.0284231745244975,0.00635355738960069,1
0.0987368729601389,0.0172765701631914,1
0.098432830895231,0.00720823127822845,1
0.0909682257888832,0.00639754104015154,1
0.0936859737394437,0.00501933298563603,1
0.105889281989956,0.00544167623858258,1
0.106067786603176,0.00479676372366862,1
0.107289520661193,0.00484185695976642,1
0.116185479480116,0.00682827270445076,1
0.127675833018232,0.0085245521740126,1
0.127543959260299,0.0113439867249362,1
0.0719584459907807,0.00605105089159167,1
0.0724937438386146,0.013758477027122,1
0.116596563343173,0.0202528583577921,1
0.150591354391783,0.0181621643370523,1
0.496967947175355,0.0313567102511602,1
0.539224401629161,0.0202853423137577,1
0.502444806655565,0.0189145561389477,1
0.471457670418278,0.0166057443563242,1
0.416380066692421,0.0130515900948138,1
0.352026147226009,0.0107455161670847,1
0.267850159040298,0.00707913397444746,1
0.266870254100635,0.00769397056845701,1
0.276195126450016,0.0083256947729471,1
0.275321823302062,0.00945841048691861,1
0.106496745892215,0.00337141998150728,1
0.153914629608903,0.0169660030806875,1
0.19499876359008,0.0204053485568819,1
0.202729576401629,0.0171480457184496,1
0.216512732708858,0.020739140528628,1
0.208884981837122,0.0207545431580517,1
0.20480944135834,0.022169809213588,1
0.189225949494848,0.0197657077397567,1
0.174592111765448,0.0173178069119384,1
0.170285496431816,0.0212950290946385,1
0.174719580770555,0.0202810715300014,1
0.118027780987213,0.0198170744347072,1
0.041221363890064,0.00449215900647331,1
0.0352920614342243,0.0115667484756081,1
0.0403997521467196,0.0111181803865471,1
0.0607644997427814,0.0154649840513037,1
0.0532194047330817,0.0135445964725659,1
0.0763380725504474,0.0143105798698438,1
0.11719780988756,0.0228639207871988,1
0.114117765579835,0.0191869477525845,1
0.120783455482653,0.0191196574832869,1
0.1481096445616,0.0217666746710223,1
0.150975416350664,0.0228142634280579,1
0.108728279804297,0.0163087637042644,1
0.103677716311698,0.0171138813588216,1
0.0987819612070035,0.0203820114175531,1
0.0426061472217504,0.00862854010937622,1
0.0299992766905927,0.0210635215513907,1
0.031077527571874,0.0164902976435645,1
0.0220699027857353,0.0174946634355085,1
0.00998597852613881,0.014915264675468,1
0.00997212680423644,0.0224254596832824,1
0.00921140644178413,0.0213384430210008,1
0.00926863952474585,0.0195095882342273,1
0.0106772965263239,0.0216792029714307,1
0.0109936952324965,0.0228042528213042,1
0.010948364227756,0.0229118473371089,1
0.0057028424745158,0.0117648508315266,1
0.0034292378419376,0.016465909979725,1
0.00351222677218479,0.0182800189413603,1
0.00380794554142288,0.0190348562318885,1
0.00429566441357981,0.0168648732256685,1
0.00464199957605707,0.0208760516760354,1
0.00538199317789933,0.024968357559253,1
0.00513320956682687,0.0208023808763743,1
0.00557993233638433,0.012912688825195,1
0.00946993627938821,0.0191808960125934,1
0.00942977981298537,0.0163619828911729,1
0.0119913758056952,0.0159499967913842,1
0.0287958655005181,0.028721842829468,1
0.0302307019114589,0.00866963321565018,1
0.0319856795175805,0.00920193467152342,1
0.0331136490436746,0.00889209875462209,1
0.0332018413009609,0.00831885409197544,1
0.0299515036306658,0.00763279656563648,1
0.0282231706725911,0.00701048016011331,1
0.0402348399224487,0.00996258898370316,1
0.042529914251124,0.00557156377132454,1
0.044370375679216,0.00620007183075803,1
0.0460603030449307,0.00653882597901305,1
0.0453683690840258,0.00806185665295041,1
0.0401375004194011,0.00607645929498697,1
0.0405443213197723,0.00652765050275343,1
0.0455094958968279,0.00839272494802118,1
0.0431103518548864,0.00512870610869741,1
0.0441026805188883,0.00581685333008607,1
0.0369594298966625,0.00495094685774898,1
0.0314278126836041,0.00766009268220063,1
0.0289858211141263,0.00999313163345964,1
0.0358187934992507,0.00616633898822749,1
0.0509244987723129,0.0124643273933406,1
0.0451647186110866,0.0119265523620747,1
0.0490454310281565,0.0121710908751248,1
0.0471642263376371,0.0122165856616201,1
0.0482275377575236,0.0129559444384686,1
0.0916242760604791,0.0200760625211313,1
0.188600518065408,0.0344478814123341,1
0.198656386051058,0.0295829274259991,1
0.273293903274294,0.0244914752758999,1
0.350011776112121,0.0149960462817855,1
0.354078785701235,0.0150428845319283,1
0.318751823554181,0.0129175033576523,1
0.296885913524389,0.0112483166260692,1
0.367076910581117,0.0140050046744503,1
0.353346027007697,0.0064105242443411,1
0.392040481822929,0.00683771045875331,1
0.515218624868283,0.00993252631013091,1
0.565959736797732,0.0101780394697428,1
0.542206276616039,0.0129826206341155,1
0.491727882286026,0.0162694425110583,1
0.475029183913691,0.0164998198750737,1
0.477004680040084,0.0165057376211649,1
0.478255207214375,0.0188028988752662,1
0.266776961606634,0.0120599270711052,1
0.122619926371829,0.0164415311318825,1
0.141985502326492,0.0341269019218386,1
0.10429348229362,0.0208676563655841,1
0.0914306448710839,0.0225422680944986,1
0.0866742969489244,0.0182898454473588,1
0.0780863667350675,0.0127505692250839,1
0.101603520191449,0.0170680889242919,1
0.119170579194458,0.0263307453639523,1
0.118063561561118,0.0264012187981837,1
0.132619834803976,0.0325158659121541,1
0.134170215238288,0.03915983397744,1
0.0886204102263151,0.0244151676089301,1
0.0519339654667815,0.0173642599527089,1
0.0567518603062301,0.0168482735340699,1
0.0420050621744055,0.0186865594351181,1
0.0224006850926974,0.0192590405295285,1
0.0216094678523913,0.0167979473549013,1
0.0263109833980943,0.0147558354772792,1
0.0310333115128856,0.0145095621478042,1
0.0351964469154132,0.0147010762460802,1
0.0472879668825423,0.0212266252980428,1
0.0412029042325672,0.0249550617196709,1
0.0396169172036649,0.033649454620372,1
0.0436471949685588,0.0352113704225985,1
0.0446125606423797,0.0349516911972747,1
0.04058525354332,0.0337986781920311,1
0.0178767274432951,0.0199473214217609,1
0.0126978938921725,0.0213842553596369,1
0.0163941401543531,0.0255965215386731,1
0.0126912762640803,0.0236552829089514,1
0.0135011011715955,0.0229226515673925,1
0.0183525756071613,0.0258609654657417,1
0.0171215364577944,0.0159560318499424,1
0.0158097979366176,0.0149056229183135,1
0.0142311762782776,0.0133758516312244,1
0.0139311755771895,0.0133266524065214,1
0.0132221172910683,0.0127635761682378,1
0.01595795475895,0.0083061484962479,1
0.0268817102557286,0.0131271576500271,1
0.0266051410164672,0.0141699766836609,1
0.0270961619288916,0.0145655627847147,1
0.0293153052656485,0.0173098467684871,1
0.0292594085800614,0.0240904070904906,1
0.0330141949025342,0.0129250985450097,1
0.123237057764778,0.0269546742790734,1
0.129695668520847,0.0115453662691682,1
0.119329348908516,0.0103263266819359,1
0.13992605199035,0.00528930261316635,1
0.198659084743403,0.00726053690123175,1
0.186504619538334,0.00657082523096226,1
0.194839262797735,0.00626855088980069,1
0.194722097360751,0.00583459867111961,1
0.177861586849371,0.0037980667480511,1
0.192328151372626,0.00551716044182704,1
0.164408220466699,0.00453273311346456,1
0.162016138415422,0.0069765130116865,1
0.143610930448044,0.00577955721132753,1
0.129230533958244,0.0116922964002822,1
0.0847064753529229,0.010332306510877,1
0.104649542193794,0.014064890259251,1
0.089779396960687,0.00839866516547871,1
0.0808195146976588,0.00203879032026761,1
0.173352791253888,0.0099100352125559,1
0.203769716500487,0.0101307268849251,1
0.232503307499569,0.0125682834173291,1
0.223487198371379,0.0104752672221985,1
0.19448003855007,0.00890785634527051,1
0.17827090999225,0.00763753842017766,1
0.239071658951324,0.0100448878197784,1
0.389495052622281,0.0141766426802152,1
0.343278651339118,0.0114288254561154,1
0.231116021095491,0.0087509335444866,1
0.237229027421395,0.0107950695603495,1
0.238535798504255,0.0104274910425632,1
0.2836798208393,0.0111283178834106,1
0.293339420298207,0.00783836911052938,1
0.305878738817631,0.00815670522936432,1
0.302702588995979,0.00790969363639563,1
0.268080410351829,0.00781413599752047,1
0.283028194177408,0.00779981122071319,1
0.358687431843074,0.00886679241730909,1
0.364012065827707,0.00980360312776583,1
0.364345660198367,0.0105884106844397,1
0.394234657877844,0.0122957814764434,1
0.351290757291785,0.0120294740202249,1
0.33099147391084,0.0167346710305886,1
0.314814383994023,0.0147279513071937,1
0.318916583204756,0.0161115364006616,1
0.323065522760026,0.0175974149786549,1
0.230001555890295,0.020247240894795,1
0.0971495546528117,0.0145245432956719,1
0.0964071042189789,0.0132885978824382,1
0.123440770707789,0.0159837631982472,1
0.168245662821631,0.0202248811114084,1
0.170414097065667,0.0171347962357026,1
0.116283664037167,0.012367603336603,1
0.110518223708616,0.0100536846463089,1
0.13609099462428,0.010340604490116,1
0.134914241238806,0.00959074959632372,1
0.143633964011319,0.0119236462405778,1
0.178153477635939,0.0194229427764934,1
0.161095820306846,0.0124878998949387,1
0.169689699881996,0.0125423631733225,1
0.181481457200195,0.0124050187551786,1
0.184184114993354,0.0151338260133078,1
0.146596703543956,0.0119071628171,1
0.0690639326824725,0.00646802147743602,1
0.0738434164716658,0.00853026582503726,1
0.0734064931259714,0.00806446329250282,1
0.0744700922996878,0.00788702973650407,1
0.0770962016252138,0.00820602605365042,1
0.0667621614158972,0.0224773783333478,1
0.0145981524584338,0.00438134418600893,1
0.0131338992674705,0.0133276290428195,1
0.0125274852378125,0.0125426031967955,1
0.0123709703925342,0.0101801989015528,1
0.0142815484394943,0.0103962804473452,1
0.0149380983631838,0.0109682570948845,1
0.0122667281625101,0.00960457971159671,1
0.0124063789041166,0.0116335203161597,1
0.0138185781353386,0.00609727003585389,1
0.0317609732371878,0.0126557975955268,1
0.0304231507450522,0.00751381918369575,1
0.0332578870290558,0.00895514081024722,1
0.0334263756334314,0.00919071287812955,1
0.0340851588996366,0.00825535860790972,1
0.0358179854267761,0.00947400983851091,1
0.0352957933296683,0.00752439949427878,1
0.0373829930642672,0.00736213682868832,1
0.0375947773433885,0.00776555811519018,1
0.0373171820283816,0.0108949081563606,1
0.0276127758589569,0.00749284443850331,1
0.0282493821043161,0.010657852407458,1
0.0314319538898384,0.00534823438755972,1
0.0527059943509514,0.0110349200790376,1
0.05135669384957,0.00715252076604076,1
0.0472071028738854,0.00637797849432618,1
0.0464339153312141,0.00687152878736628,1
0.0464084385938905,0.00670721165760396,1
0.0498865284108872,0.0064158690345633,1
0.104151658681806,0.0064751117106678,1
0.153837360039644,0.0076564532356141,1
0.14107009757962,0.0056327747510913,1
0.141381199336671,0.00758929120262175,1
0.134629649234465,0.00647171420626486,1
0.133421450793941,0.00837841649832798,1
0.114388707565196,0.00700188295798846,1
0.109670363902553,0.00731095999471834,1
0.107415283297272,0.00767637046752936,1
0.092974732544707,0.00468486456221783,1
0.0706361161951485,0.00765826105385917,1
0.0399838454327341,0.00677069997324203,1
0.0369104528629038,0.00854415265404869,1
0.0890239310456144,0.00717695650989434,1
0.309802011303844,0.025813074808486,1
0.410905160011085,0.0244745673412254,1
0.433555097803534,0.0261519246636318,1
0.434703081055475,0.0243777965978045,1
0.433462179882028,0.0243062007032567,1
0.35661239885728,0.0240611097246119,1
0.237176249576838,0.0186973674156549,1
0.184563403349088,0.0159873563872614,1
0.0807538973590099,0.00676085144552099,1
0.0596597955048232,0.0128442695566962,1
0.0335654595883825,0.00651513994446105,1
0.0301873969977906,0.013643283454563,1
0.0391221504443167,0.00725515200964758,1
0.0514642078442842,0.0045573028130444,1
0.0654348100954541,0.00371897064724485,1
0.0788816054244403,0.00313808850518682,1
0.106532143763306,0.00496135914651655,1
0.113888129258356,0.00397719376527464,1
0.117871889100243,0.00406786789805852,1
0.137024450552302,0.00496236902398157,1
0.204832487406928,0.0102604756117803,1
0.227348119434925,0.0104925818189677,1
0.209101314126896,0.0110838092395253,1
0.196347830107028,0.0125675054713959,1
0.186917982612114,0.0172577451369324,1
0.218497786964745,0.0266748782068319,1
0.175065790495109,0.0159449683483627,1
0.179806633468763,0.0192571324848168,1
0.179011835484429,0.0190589234608165,1
0.198422403292464,0.0193366369542581,1
0.186405266732754,0.0161192160703586,1
0.159328305437651,0.0154623637933122,1
0.170618524881043,0.0159027141112729,1
0.227735946021041,0.0213671558184182,1
0.256107440708582,0.0205110752702653,1
0.185990503779061,0.0152512327502472,1
0.163028825446264,0.0224235338704212,1
0.174176716662212,0.0242521863459855,1
0.137029668349499,0.0193054922813911,1
0.138638427650478,0.0262623026103213,1
0.138377902812064,0.0420083517412237,1
0.0789113734708504,0.0273283715196259,1
0.0297725993878785,0.0144209215543503,1
0.0222474342021152,0.019262324336449,1
0.0190239128293122,0.0262070254797937,1
0.00918181620207434,0.0194903267760053,1
0.00958828689127253,0.0176708228724464,1
0.00762844194534453,0.0158469626940262,1
0.00410837700470843,0.00829086571931213,1
0.00423797399046407,0.0103318979471305,1
0.00438712926392056,0.009584994138831,1
0.00619723015609296,0.0134054608757067,1
0.00648865019934358,0.0123214669691812,1
0.0118911095650135,0.0158063898816609,1
0.0119588325389924,0.0118512829580419,1
0.012625672090915,0.014307708309578,1
0.0125451836603797,0.0139804084467703,1
0.0122925896228318,0.0148648492748799,1
0.0124204477304386,0.0122488932467971,1
0.0188829749626212,0.0162652872484861,1
0.0205856876945156,0.0156433472039542,1
0.0160337203643137,0.0124050617094992,1
0.0136095856027589,0.0113008139475382,1
0.0118592214022864,0.0118229661098794,1
0.0135619798144856,0.017237742327569,1
0.0162486066603082,0.0207529581071196,1
0.0184793608271265,0.0225567384310067,1
0.015336421248932,0.0153897147564236,1
0.0169931235322574,0.0131064448006397,1
0.0179771830495898,0.0111545991032883,1
0.0181933564940377,0.0103859921165359,1
0.0278235444016879,0.0143380342685452,1
0.0386774859035188,0.0182842523843955,1
0.0310646494060867,0.0122529322657321,1
0.0352950930686254,0.0127159532773669,1
0.0364959686838371,0.0130709890447276,1
0.0399568542646754,0.0119560591515707,1
0.0323733372055237,0.00686348625319496,1
0.0316900182672279,0.00796764791814571,1
0.0290076604155719,0.00865143788083956,1
0.0237721300940239,0.00765562751388616,1
0.0219707180948024,0.00812460171338561,1
0.0172058351514122,0.0057093839178747,1
0.0211780650936765,0.0090797496949075,1
0.0212708246022776,0.00795139838854103,1
0.0514209394949228,0.00826771273114902,1
0.095104149118906,0.0236824430160537,1
0.190387602681662,0.0356169106948252,1
0.219010262696337,0.0297480179817322,1
0.388178714633255,0.0345046282972518,1
0.45107075670823,0.0240055078511748,1
0.416946164824985,0.0234964475335097,1
0.396924060603231,0.0215408906836517,1
0.372758465196723,0.0211111013264031,1
0.244041884637578,0.00710795360782845,1
0.287781812081181,0.00873947710338599,1
0.326975809800998,0.00475499374675796,1
0.404799737096253,0.00644045561241993,1
0.405532757058759,0.00443323134345468,1
0.38176974019854,0.00567104685877358,1
0.368459377578819,0.00710755448692769,1
0.362763383529715,0.00614432022289558,1
0.372688807329838,0.00773075426815898,1
0.342336412607085,0.00737448324684507,1
0.377760189301602,0.0107392554750747,1
0.4082481436847,0.0124868349539288,1
0.3884032328301,0.0126163154185858,1
0.414207652399867,0.0165340164978106,1
0.474797636984821,0.0256863234407831,1
0.561094776218926,0.022683586753653,1
0.568020198938003,0.0213883950029079,1
0.560208334068256,0.0223562989369432,1
0.569822850633129,0.0217448589648641,1
0.581012001967548,0.0215097064773807,1
0.574787212990569,0.0253956207822143,1
0.485558800495646,0.0223970988373156,1
0.486465286942607,0.0271944904207309,1
0.43110891276259,0.0145225160999878,1
0.449791748507169,0.0133102979515561,1
0.38919410690204,0.0110658422755144,1
0.396278764089,0.0122079908211853,1
0.463193125245943,0.0136654221060599,1
0.533792873241657,0.015656583364811,1
0.574565488565578,0.0170716260533469,1
0.633359833920711,0.0176721616933511,1
0.639404215290433,0.0202556149568684,1
0.425613263808762,0.0226536377913706,1
0.0661416414286747,0.00690802815716825,1
0.057382185957597,0.0157010263469903,1
0.0525938331217834,0.0246397469407933,1
0.0113961860967973,0.00725886691299325,1
0.00636756054522008,0.0178249610483036,1
0.00684006140554604,0.0132172793034561,1
0.0110497208315274,0.0167081644167286,1
0.0107330770617381,0.0143406094988842,1
0.00997483379561453,0.0135795112414931,1
0.0103796611923115,0.0127473173199025,1
0.00984377967761857,0.0136664899410603,1
0.00937611565579904,0.011323735814686,1
0.0145857484636064,0.0155341210750774,1
0.0143969299524071,0.0148765863213154,1
0.0192892303682814,0.0150825547121943,1
0.0352168847769225,0.0265658585967538,1
0.0466062376809018,0.0148435862180074,1
0.0463501532305607,0.00954336779257008,1
0.0557338042712976,0.00784856099844082,1
0.0573490086060943,0.00728505370161033,1
0.0575879727660754,0.00721705048856555,1
0.0622450380004681,0.00881036921610038,1
0.0653426412114028,0.00950148761865019,1
0.0749355433400356,0.0112002705764554,1
0.0758184455065742,0.0120406539267962,1
0.0584669721640315,0.00929908279752117,1
0.0452405707339781,0.00911915062103733,1
0.05734076932177,0.0117146385605543,1
0.141950740966017,0.0292096249442459,1
0.151801140491592,0.0132407126015453,1
0.151228252807523,0.0127388402336211,1
0.162124354236332,0.0104091888631186,1
0.189650374964674,0.0100728809236757,1
0.171112922267213,0.00832942848016423,1
0.157513772334844,0.00707877629791816,1
0.146961486295649,0.00572861527716081,1
0.144102891829127,0.00572865092645297,1
0.144606311696276,0.00661511355763552,1
0.0824639320872828,0.00106362200828262,1
0.0834775704729342,0.00515889636648083,1
0.103257483066041,0.00806432795663592,1
0.0945433627474157,0.0121743355738791,1
0.0500478122090726,0.00764712777509919,1
0.0625898583697058,0.0110678893128612,1
0.0641765510664384,0.0151752302186498,1
0.057737350734081,0.0165207441378053,1
0.0621245981009105,0.0171100539335536,1
0.0518689825921563,0.0281136404042381,1
0.0185782617734368,0.0128355170546108,1
0.0140619771204319,0.0286637358452257,1
0.0144662087785691,0.0286414206023258,1
0.00874208969151935,0.0368496929378803,1
0.00271690685769652,0.0258128429253303,1
0.0153437738598333,0.0409277861299013,1
0.0265932593669271,0.0360718829802402,1
0.0283900712112894,0.0374737381188323,1
0.0315268639905854,0.0422511079310446,1
0.0323763077930812,0.0447203296908191,1
0.0301871511992855,0.0414749790652345,1
0.0232763586518198,0.0215828966118997,1
0.0186325569879033,0.011341008040447,1
0.019398464099278,0.0100359273584563,1
0.0143591255627717,0.0067584364960265,1
0.0181507647338776,0.0049973994570344,1
0.0488967278896479,0.0159791630385653,1
0.0474470699416288,0.0125110107262874,1
0.0463773855499244,0.0125234189008206,1
0.0464956109731547,0.012113320729491,1
0.0478009691536807,0.0120135558631615,1
0.0419911573815164,0.0117157014486215,1
0.0267439577036469,0.00772027961095276,1
0.028691563649539,0.00981547147840695,1
0.0273207844278289,0.00950989447328084,1
0.0306314459749516,0.0106736100860071,1
0.0241529693718431,0.00793978528853476,1
0.0244550262906273,0.0107417214135989,1
0.0237864293143138,0.00867139201747998,1
0.0263432927846692,0.00650212319200305,1
0.035706795016891,0.0106716764399118,1
0.037156995844704,0.0116680077268614,1
0.0415197077605933,0.0148092021965434,1
0.0358552683228575,0.0110792667487639,1
0.0217285451695208,0.00509803649989081,1
0.0192035356692535,0.00993274180597663,1
0.0173776146984427,0.0131101942860663,1
0.0158155780581315,0.0114456024463172,1
0.00760504361695237,0.00626387522144067,1
0.00489931627177371,0.0152648020636424,1
0.00487239257589217,0.0125786903544957,1
0.0101606490647912,0.0231872524936018,1
0.0144504410225396,0.0278436771478424,1
0.0157730232327624,0.0378443849502724,1
0.0175763054957502,0.0480751667734033,1
0.0236529481970337,0.0706814301274761,1
0.0258324864153073,0.0726922725799325,1
0.0256510827061736,0.0752685998660465,1
0.0212740612880169,0.0830458968598115,1
0.00949409778214659,0.0643792516217912,1
0.00508558145090412,0.0616888700299826,1
0.00483311692375438,0.0898807395531925,1
0.0042833893532853,0.154743548332343,1
0.00160483908791695,0.0957384869440552,1
0.000631227586453295,0.134132992712816,1
0.000634308267434269,0.178286930043491,1
0.000604814513933384,0.360718405150349,1
0.000168014390857482,0.349369170178622,1
3.93221066591926e-05,0.973429250826848,1
2.17031310740223e-05,0.930575471368829,1
1.17071266585137e-05,0.952724675958375,1
8.33946986399691e-06,0.825811476234001,1
7.2361084835155e-06,0.81102374006234,1
6.05674790272025e-06,0.72582963629931,1
4.50600573974081e-06,0.614182832451351,1
1.41079038407432e-06,0.362178692266124,0
8.08855050920979e-07,0.294944543095859,0
6.04921054699717e-07,0.243491589004677,0
5.04153759974683e-07,0.203233926904245,0
2.61753068692166e-07,0.147347470931201,0
2.57400925932834e-07,0.142902744853075,0
2.77881094821917e-07,0.144934074351191,0
3.01858063269454e-07,0.153112107295755,0
2.88703029233738e-07,0.155491432349122,0
2.76634748443027e-07,0.158714166503239,0
2.62900619321509e-07,0.161373519210916,0
4.30177022649163e-07,0.203801369059127,0
4.68256894352581e-07,0.225750257045337,0
4.41068874052969e-07,0.222098760508308,0
6.59571823479412e-07,0.276667788488156,0
7.15378502528794e-07,0.277183316559653,0
7.02277236179849e-07,0.284792966940017,0
6.99597781457063e-07,0.27910206263834,0
7.01277119207521e-07,0.274498464269053,0
8.24914110017874e-07,0.278761301877235,0
9.01905447647333e-07,0.290759201063245,0
8.27443851181733e-07,0.284658424200285,0
8.43034770419238e-07,0.278517203661725,0
9.83110993970413e-07,0.317872179609202,0
6.45194572026714e-07,0.241668854479548,0
7.15043166955816e-07,0.243322159298772,0
7.542926283404e-07,0.235818003374227,0
7.84382583791103e-07,0.236857988980842,0
7.82308823009763e-07,0.237442940810511,0
7.582368586492e-07,0.242364238507467,0
1.20116480272007e-06,0.299114536822229,0
1.5568741491652e-06,0.326373917355107,0
1.55927716578108e-06,0.313564670566163,0
1.53437398718155e-06,0.314336570774656,0
1.5572680022206e-06,0.337823349512065,0
1.31710598462444e-06,0.32948069627078,0
1.30533713095158e-06,0.339721840830423,0
1.28577253267223e-06,0.340007693316671,0
1.31267480526547e-06,0.338602824265654,0
1.39883761831385e-06,0.332424612260213,0
9.41219506252775e-07,0.265735782778544,0
3.33966681871941e-07,0.165387138651908,0
3.33904364552997e-07,0.166441167323381,0
4.01305864762572e-07,0.178164576743175,0
3.97294947322825e-07,0.176473048621975,0
3.80977689334328e-07,0.176939959371737,0
3.71530345783981e-07,0.174851138504264,0
3.69024923573858e-07,0.177747766380314,0
3.9123344810452e-07,0.17602288608726,0
2.50578509451197e-07,0.153220532583975,0
2.07113129446558e-07,0.157381977423102,0
2.46430797896694e-07,0.171985026699899,0
2.14888354935837e-07,0.168598611533407,0
1.26050456976669e-07,0.139247752388702,0
1.55775628121355e-07,0.149432436661133,0
2.67677773795717e-07,0.191472472657894,0
2.79413378899012e-07,0.191872553229164,0
2.70745001835471e-07,0.186556512094395,0
2.5079529012472e-07,0.18802709600074,0
2.38262479319317e-07,0.183828940214346,0
2.66370820024316e-07,0.185200439984113,0
2.52502176689955e-07,0.172752928694888,0
3.48617331562325e-07,0.206631159949293,0
3.51810904166404e-07,0.20218465971999,0
3.39246934701529e-07,0.206713705523292,0
3.93972180277033e-07,0.213235181109251,0
4.41806992297174e-07,0.217018071377569,0
6.08254081304118e-07,0.25110393855851,0
6.65870432496629e-07,0.245586008386837,0
6.78268349105535e-07,0.242834565206159,0
6.43619349796932e-07,0.241380172823137,0
6.1245613052087e-07,0.243085726095297,0
5.23710948572815e-07,0.22304293264677,0
5.40098693528776e-07,0.228588302202353,0
5.757193110358e-07,0.227384220869714,0
4.04568594391332e-07,0.19960080761869,0
3.34238750166844e-07,0.195048251432635,0
2.53228705432771e-07,0.1766362034124,0
2.65834093115725e-07,0.187551017019372,0
2.69525444304055e-07,0.186139038840773,0
2.59163100119449e-07,0.180717206570442,0
2.52261077062697e-07,0.180762151091118,0
2.46781712799409e-07,0.184178416150502,0
2.36630069549894e-07,0.173430119434939,0
2.33809070916701e-07,0.170332517444427,0
2.41918872011655e-07,0.169567040888316,0
2.47718942477315e-07,0.172453451253057,0
2.47125408012734e-07,0.16151425099599,0
1.99529415717938e-07,0.151256763293505,0
1.8252818715566e-07,0.151016840802474,0
2.36036725077139e-07,0.164672579545038,0
2.54229392380578e-07,0.156408478391361,0
2.69732725386275e-07,0.154510034118096,0
6.75723978571071e-07,0.232973405932333,0
9.04565333212037e-07,0.259808351562939,0
8.03451683388111e-07,0.245974035174993,0
6.21979090817986e-07,0.214710576299429,0
6.05632194104625e-07,0.223282278756261,0
6.47248193674492e-07,0.231696182835535,0
6.3519340230343e-07,0.230721964005899,0
6.19250808195905e-07,0.231263002865442,0
6.33089242829924e-07,0.246873721705338,0
6.9368143599386e-07,0.261027468699287,0
4.58484474787862e-07,0.23154992051041,0
1.18599547534457e-07,0.134136683873034,0
1.1387198092685e-07,0.132217852706683,0
1.46007008393157e-07,0.143647352462102,0
1.30757504467063e-07,0.132804467089216,0
1.31480993340662e-07,0.141538834964981,0
1.6351304523725e-07,0.152417541957921,0
1.03777335225149e-07,0.127643428980453,0
1.08021752619112e-07,0.131384671053713,0
1.23616281701313e-07,0.142408727328159,0
1.11469534286445e-07,0.132920730706485,0
8.80777406631418e-08,0.12416165876573,0
9.03411132868782e-08,0.122325510757189,0
5.09482080736263e-08,0.10808076007281,0
4.83324006125669e-08,0.114101432632345,0
5.33259557766449e-08,0.111200381812262,0
2.87298039680097e-08,0.0976863659085125,0
4.37564474821473e-08,0.101539879193937,0
1.35416104041814e-07,0.149866484882464,0
1.64097270102355e-07,0.156899176680179,0
2.35722858580504e-07,0.177904288666937,0
2.24686613388899e-07,0.168334572336529,0
2.60269802506192e-07,0.179707407013387,0
2.63176677444761e-07,0.184204367656658,0
2.90131767765635e-07,0.180636708022067,0
3.27335207175484e-07,0.188709138990682,0
4.05509433913932e-07,0.204603452246114,0
5.41156568016224e-07,0.247868171367888,0
4.96461370921563e-07,0.226915396341167,0
4.77174920675553e-07,0.230568276855289,0
3.54029818702844e-07,0.209409263594758,0
3.77891272120143e-07,0.220238570162233,0
2.89447797191855e-07,0.19016228502869,0
2.67867765621767e-07,0.172119405205818,0
3.05559104040912e-07,0.189938337246341,0
4.16863345438694e-07,0.213713738489795,0
3.54292957381923e-07,0.194609813680453,0
2.00185267501463e-07,0.151470470135237,0
2.09756105738743e-07,0.156384790936051,0
2.38232080627149e-07,0.167312333360654,0
2.27043271999226e-07,0.168047147857705,0
2.26073553719066e-07,0.172208550951935,0
2.29462057936672e-07,0.175740464450212,0
1.90978833586548e-07,0.156224110849103,0
2.16574532392032e-07,0.160492651308327,0
1.8228575758562e-07,0.158110273001076,0
1.61629086290136e-07,0.156004099896474,0
1.28971581302191e-07,0.142546232390551,0
2.31811306865782e-07,0.169008388127624,0
2.62765345141361e-07,0.176977586058249,0
2.6254799449236e-07,0.174710272921333,0
2.61897462479964e-07,0.168564932179537,0
6.49371352330602e-07,0.242588606521943,0
6.10661657723827e-07,0.205408440706445,0
2.89448617956543e-05,0.206379750275527,0
0.00018317018682514,0.453167925111156,0
0.000282577758689042,0.544924346123136,0
0.000302057470140444,0.447334153141281,0
0.000286091165053027,0.399305307164029,0
0.000269816052001344,0.353936575751484,0
0.000244841665795351,0.282339121810697,0
0.000240423779784467,0.276785016274074,0
0.000239254087697708,0.272953199755419,0
0.000208089990469419,0.225437998055592,0
0.000207299215040665,0.263574112227499,0
0.000166864802565804,0.273387996839052,0
0.00010884367758773,0.207235352942463,0
7.42623396881534e-05,0.192908125783366,0
7.41546304720882e-05,0.206566498876562,0
5.69421133300029e-05,0.217734369697439,0
3.89778405204305e-05,0.241260948171484,0
3.69290705039237e-05,0.243956243805855,0
3.6880666096409e-05,0.25474943611602,0
1.56590326370886e-05,0.272133664802705,0
3.8068662185682e-06,0.360697429405034,0
3.81373860290008e-06,0.300938698041927,0
3.86992678553617e-06,0.29751811359456,0
4.10829053049878e-06,0.301654515449179,0
5.51572489895775e-06,0.343569819060403,0
5.58375945193172e-06,0.3379676513027,0
6.29698116725119e-06,0.364387309734679,0
7.55976563893048e-06,0.400999194543453,0
7.47362999471322e-06,0.386232389065623,0
7.31803580878574e-06,0.380546646758883,0
6.23278729904082e-06,0.384196979043224,0
5.57983707068291e-06,0.42502935730939,0
5.30587645719154e-06,0.403489583943305,0
5.09667360765027e-06,0.412369949351292,0
2.84421183450043e-06,0.314884765624787,0
3.44613158832404e-06,0.348538418319574,0
4.31972920384902e-06,0.381372563575967,0
2.99891970855939e-06,0.292041439022903,0
3.43706992818058e-06,0.334542361315261,0
3.6417709214036e-06,0.320302189828427,0
4.77312284765786e-06,0.352524800366245,0
4.80227652338979e-06,0.349352985714051,0
4.20868981105675e-06,0.33176824886326,0
4.08335505328881e-06,0.342037265857248,0
4.06330863573861e-06,0.341723822609793,0
3.99445559797801e-06,0.354647624263491,0
3.16999290853883e-06,0.318571293015368,0
3.20231735785571e-06,0.340238012193246,0
3.91707572706428e-06,0.361570167756504,0
5.17019360462595e-06,0.411010327308047,0
4.98099803431871e-06,0.393221039941715,0
5.39320126024805e-06,0.382284911559678,0
5.21704254906072e-06,0.346507728769958,0
5.83411168111809e-06,0.316269600693961,0
8.977181227971e-06,0.335328754318804,0
7.98709297418071e-06,0.29032426209855,0
7.0357216346866e-06,0.265389269584969,0
7.18007742411955e-06,0.251637278077683,0
8.8280005961155e-06,0.286478114644529,0
8.81729778657861e-06,0.281967624821888,0
1.09296407780082e-05,0.30565063852893,0
1.32542128087844e-05,0.303523565579036,0
1.45820687209186e-05,0.312602172210743,0
1.53227714239335e-05,0.359297875658813,0
1.56618673151333e-05,0.396917103195986,0
1.71590889707062e-05,0.310269771672347,0
0.000124280816111289,0.271653552447515,0
0.000268379582892036,0.2539549417426,0
0.00026070090535901,0.236986382117282,0
0.00025133404367612,0.198341998064497,0
0.00034939137555091,0.183455091169674,0
0.000373124634643467,0.183224370944282,0
0.000337246578212144,0.157772830095592,0
0.000309142956904104,0.142249115193513,0
0.000244791576350331,0.123252460237291,0
0.000210354719064818,0.117999244502816,0
0.000208356263253661,0.169055032801993,0
0.000181242228810982,0.19135216552444,0
0.000188697155630355,0.202299988522591,0
0.000199369713718739,0.255980169987847,0
0.000114170632878054,0.354808188231304,0
5.83300537771418e-05,0.281460453664561,0
5.10572291832503e-05,0.410535914120891,0
5.66380262826302e-05,0.613198256760277,0
3.12766291968667e-05,0.486389200928966,0
1.74135298239892e-05,0.393462981971156,0
1.21923477330225e-05,0.401294447774848,0
1.21597191067921e-05,0.498828847536511,0
5.29857469133278e-06,0.418644627869839,0
1.94131120966825e-06,0.277192316684677,0
2.24657487641966e-06,0.314545173078439,0
2.38655572407415e-06,0.307126404174922,0
2.30970536037962e-06,0.306768157325358,0
1.37818455686306e-06,0.231094991079988,0
1.24697335191539e-06,0.230938256402167,0
1.20159703412434e-06,0.231218521398033,0
1.19487588328598e-06,0.230077633370555,0
1.34637327546834e-06,0.242617721057915,0
1.1965571209547e-06,0.235550650687496,0
1.0561772904655e-06,0.238244188114775,0
2.09335273844042e-06,0.315554163434271,0
3.14870641433999e-06,0.356038797205176,0
3.25858248718135e-06,0.362795355247,0
3.84030382999391e-06,0.404733950711208,0
3.87983675918296e-06,0.40066414055457,0
4.19140112486166e-06,0.388662431634288,0
4.50515362640099e-06,0.367720913751297,0
4.4060006922219e-06,0.359611687384198,0
4.61728680213583e-06,0.368594908974633,0
4.7321391408851e-06,0.372176269816162,0
3.98445290832012e-06,0.356728403210422,0
2.87908217428639e-06,0.307926945646677,0
3.36396240345923e-06,0.330686254416867,0
2.47029101156109e-06,0.276869448199745,0
2.82290520116803e-06,0.297189749873365,0
2.71055011498037e-06,0.310960487966361,0
3.23986734235627e-06,0.369051264823707,0
3.33553753637203e-06,0.35392888846672,0
3.52109780307963e-06,0.344949057903579,0
4.17762614749754e-06,0.381921194245108,0
3.54810039135702e-06,0.33348182306578,0
6.5279510003194e-06,0.453119907432178,0
9.46484008759982e-06,0.434539831795218,0
9.84915099353038e-06,0.433649645003834,0
9.87594440080728e-06,0.433903089350422,0
9.47696156610183e-06,0.415345488660616,0
9.12206899451689e-06,0.401855933968685,0
9.95163733429751e-06,0.437929212731311,0
9.85008727324915e-06,0.445251746326984,0
9.52600320620105e-06,0.438312157405036,0
9.64516607949973e-06,0.461178980352634,0
5.99109204740843e-06,0.396481683849841,0
1.6442113016904e-06,0.275079193948211,0
1.65601283395733e-06,0.289481799752454,0
1.7975709937517e-06,0.328838874675293,0
6.91078547976972e-07,0.222803101064834,0
6.39374742411144e-07,0.231811799903554,0
5.26670071263546e-07,0.217775927703404,0
4.24938758013132e-07,0.213048760214065,0
4.77659779815634e-07,0.211268667643765,0
7.6640175737371e-07,0.278768296673658,0
8.88444906755328e-07,0.306679837738372,0
8.45846649444782e-07,0.304014689817961,0
7.94841253831515e-07,0.308312278541364,0
7.90593036601032e-07,0.307568252316431,0
7.75712876784778e-07,0.329850323024324,0
6.1564096350095e-07,0.290290319516217,0
5.83615941301926e-07,0.267064526988762,0
4.87804013383931e-07,0.248496397006347,0
4.26268700795484e-07,0.246811113701134,0
4.62765940587905e-07,0.235894358733947,0
4.50241109439196e-07,0.21963155692051,0
3.43826687668469e-07,0.195287409004831,0
3.42310552896588e-07,0.199716482304347,0
3.46144397954455e-07,0.189119471877662,0
3.53147686654493e-07,0.182846330052697,0
3.16896296284982e-07,0.175746008640635,0
2.84605285529486e-07,0.169301344893937,0
2.62789094119618e-07,0.163148166489748,0
2.90662224943967e-07,0.175002650875789,0
1.59634172116609e-07,0.134402089901694,0
1.66556714290575e-07,0.14552785322692,0
2.09659019915631e-07,0.1615338757445,0
2.99634398937362e-07,0.195630890572971,0
3.30238472269358e-07,0.219265014529118,0
3.44762207419941e-07,0.214058687759474,0
3.43142527102862e-07,0.213594688850178,0
3.21260028545702e-07,0.207371659762958,0
3.91861181097789e-07,0.219547098270802,0
3.15280035820772e-07,0.203118842205994,0
2.72786464006381e-07,0.201112529752134,0
2.72108573171033e-07,0.200889231599891,0
2.5726641171999e-07,0.184831830475622,0
2.94522858849308e-07,0.191181515397408,0
2.63537661914256e-07,0.176158895683783,0
2.85726997270487e-07,0.183783732571163,0
2.66930915927513e-07,0.178230123049602,0
3.18027317625458e-07,0.19176628963279,0
2.60074490909012e-07,0.170108381316206,0
2.74407474266241e-07,0.176065726616848,0
2.77118277640325e-07,0.172723500329823,0
2.86909696387649e-07,0.170644825612051,0
3.2787174409225e-07,0.193629224751174,0
2.71276978948412e-07,0.180256208862221,0
2.56921196572057e-07,0.184803613738582,0
2.489871379162e-07,0.184777369819792,0
2.48492589192991e-07,0.185888512236928,0
2.236013800785e-07,0.184262238345791,0
2.01717361586733e-07,0.175437942119538,0
1.68540038962713e-07,0.152017980790629,0
1.81255241921124e-07,0.154628172815115,0
1.69248518482054e-07,0.146377812484511,0
2.30783071103199e-07,0.157353172156742,0
2.16643879408542e-07,0.143784389232885,0
2.06283055158545e-07,0.137650474604324,0
1.98075408273175e-07,0.135151742235326,0
2.17418096099696e-07,0.139451539429366,0
2.57527650480809e-07,0.152047113819022,0
2.15435531394862e-07,0.14628899409365,0
2.0070489514571e-07,0.148127103297593,0
2.03487325438216e-07,0.157162622072687,0
1.4706032307678e-07,0.150093544156003,0
1.35808437162608e-07,0.153836771876847,0
1.2727552427104e-07,0.162229916639919,0
1.37852749210908e-07,0.162802368056017,0
1.67765822271558e-07,0.180780626941701,0
2.08058338781158e-07,0.19463599296885,0
1.89177711075592e-07,0.186984921964791,0
9.80874600185975e-08,0.147455090076696,0
1.11995431660952e-07,0.160833771607513,0
1.15610026151557e-07,0.145739935727159,0
2.22066246124014e-07,0.17447776442199,0
2.27441494866628e-07,0.180131540407834,0
1.97248563846205e-07,0.166971219005834,0
2.19910788857475e-07,0.178018209758095,0
2.02168592173601e-07,0.168734397109211,0
1.63524444746813e-07,0.152421900628623,0
1.09175382986888e-07,0.12307556211172,0
2.11542028903615e-07,0.158956654890699,0
2.69235706769328e-07,0.163119857439147,0
3.24774307352153e-07,0.181585482812618,0
2.85655750335718e-07,0.173402608400421,0
2.96675086254805e-07,0.172273182773128,0
3.51863341910393e-07,0.186544481497735,0
3.43061970568618e-07,0.178690771137952,0
3.53254652052559e-07,0.184842206398389,0
3.69288442236589e-07,0.194954020866099,0
3.78941546934548e-07,0.204261691059146,0
3.13196775448132e-07,0.187204336769644,0
3.25564673348522e-07,0.197585835480407,0
3.02420439074563e-07,0.184440203234585,0
3.57323706991076e-07,0.199946474265035,0
3.54759387314877e-07,0.1949120780479,0
5.03960918271242e-07,0.221718364446229,0
5.15260112150101e-07,0.2210770539169,0
5.34666447238348e-07,0.217511687759133,0
7.10832948090543e-07,0.246195031857444,0
7.33820629099837e-07,0.247607303292255,0
7.29200027890295e-07,0.246837518451169,0
6.18461392158666e-07,0.236648617466814,0
5.96330384293033e-07,0.239828556357834,0
5.6795149522774e-07,0.236718972732771,0
5.60364171654423e-07,0.246064231281223,0
3.04534098139372e-07,0.196043656552919,0
2.1943048952122e-07,0.172583386749434,0
3.12422558756977e-07,0.183472800050769,0
3.55730625529645e-07,0.198399213923296,0
3.92236414954238e-07,0.200515266475953,0
4.023059817349e-07,0.197451119885846,0
4.36021171218467e-07,0.201984805895659,0
4.54273495955286e-07,0.20817732096217,0
4.69950861473645e-07,0.20515542845012,0
4.95338139245953e-07,0.204375705494406,0
5.01288113262366e-07,0.205557417997674,0
4.19114368593736e-07,0.19871412567065,0
2.74909052687013e-07,0.180679603928318,0
2.02396772356688e-07,0.155347887327246,0
1.61773290086108e-07,0.153748949471977,0
1.93775513266007e-07,0.157990647058929,0
1.71339758511389e-07,0.149258693600714,0
1.66663869680467e-07,0.150272317387163,0
1.63167260113839e-07,0.152147709517588,0
1.74684564609003e-07,0.162523413148491,0
1.57158768615001e-07,0.15767696551953,0
1.63162510318188e-07,0.158927608144038,0
1.70611709833964e-07,0.159431276634402,0
1.29153973455199e-07,0.144931570935015,0
1.34650246991006e-07,0.146162507964291,0
1.29216290774143e-07,0.147314860482867,0
1.32690291313472e-07,0.144334137950364,0
1.71081369627961e-07,0.147034747661101,0
2.58509528237837e-07,0.180513794901872,0
2.30091500856376e-07,0.164898664362926,0
2.87547308955875e-07,0.18217034335772,0
3.96416425119169e-07,0.202872984344297,0
4.0529360319954e-07,0.201473169259991,0
4.84163769996809e-07,0.217992852612177,0
4.45293722288848e-07,0.200407064876272,0
8.82173086585584e-07,0.267482759765015,0
1.04588068345271e-06,0.28156657894145,0
1.0247526424368e-06,0.284467345106703,0
1.01348707711115e-06,0.290695584060807,0
1.05181203827017e-06,0.284510993163496,0
1.05922646928178e-06,0.279547139817322,0
1.04542527304567e-06,0.28992258069055,0
9.2729614527251e-07,0.276490299676017,0
6.52072276129732e-07,0.221863196639409,0
5.24106131570999e-07,0.199887860987682,0
4.012703362911e-07,0.183057313910354,0
3.32972074662568e-07,0.16764912690484,0
6.35385864023219e-07,0.224971625498277,0
8.02884747779177e-07,0.239524271312386,0
7.37029971025477e-07,0.241504041841833,0
7.35624601488185e-07,0.244530088256254,0
7.28972037699035e-07,0.244523996018273,0
7.36387608661601e-07,0.240600693320817,0
6.53564281939704e-07,0.238604810754488,0
7.23472724294011e-07,0.253177626592328,0
5.36247179231087e-07,0.229682291609268,0
4.03681712547329e-07,0.212955817567884,0
3.213635740909e-07,0.191850477900159,0
2.90876535723752e-07,0.18298063131287,0
3.04461901245472e-07,0.186826581996485,0
2.39368991714233e-07,0.170879807834772,0
5.28574549327874e-07,0.229439212644721,0
7.68780455035859e-07,0.268973703561653,0
7.76001664360376e-07,0.261949062843504,0
7.19338502159159e-07,0.262791200968573,0
7.02877610350168e-07,0.259824513982693,0
9.01029965312893e-07,0.297817213308768,0
1.22225541534625e-06,0.349144864605043,0
1.22132578534139e-06,0.345587708990724,0
1.27149749682195e-06,0.348770923512421,0
1.29317461421515e-06,0.346452839535809,0
1.03022440702704e-06,0.302986296982462,0
1.68885463101655e-06,0.372476889423698,0
1.73751628746366e-06,0.34753331689253,0
1.7792764908295e-06,0.343740980816981,0
1.78586901720161e-06,0.332390067807856,0
1.59413686602478e-06,0.312663229802264,0
1.35696626972977e-06,0.287249397445765,0
1.38216678553707e-06,0.300369482623441,0
1.33543639600176e-06,0.299602535507139,0
1.31939671607112e-06,0.297783394151736,0
1.27470075900916e-06,0.309316594271815,0
2.77415994831746e-07,0.157489644055496,0
1.71374906999208e-07,0.141945085969817,0
1.98598455770292e-07,0.154594426938764,0
1.8595544970578e-07,0.155188095908613,0
1.94527310921688e-07,0.161442263029797,0
2.16061744453524e-07,0.164556476469478,0
3.36260263196019e-07,0.19807714700995,0
3.40152245752658e-07,0.194317528879885,0
3.65670997868594e-07,0.205849527149649,0
3.57912681651832e-07,0.21503535554375,0
3.10172105577412e-07,0.201076725145656,0
2.76149319327469e-07,0.196356597469545,0
2.27813878845685e-07,0.180344572820949,0
2.33661827251513e-07,0.185153306801538,0
2.50333230003765e-07,0.19505715392258,0
2.0191419311852e-07,0.203651773361569,0
2.18997878133304e-08,0.111813345005556,0
6.14798349752418e-08,0.132100423470012,0
9.65224973474221e-08,0.142520810091527,0
1.06652291536941e-07,0.141397490021058,0
1.45437032915007e-07,0.151726047466376,0
1.75762768221838e-07,0.169187871589995,0
1.8247194957515e-07,0.166447645225393,0
1.71885605027631e-07,0.159997955066744,0
1.28571268524703e-07,0.144536713633962,0
1.44864017567639e-07,0.1491956711735,0
1.55150365021824e-07,0.14694822251801,0
1.30101082708059e-07,0.147554241984446,0
1.38563888615814e-07,0.15122072610655,0
1.94870816143186e-07,0.164006339713802,0
1.85454821244138e-07,0.157088017190483,0
1.71509421212052e-07,0.153121568893586,0
1.69958137952352e-07,0.154654570686996,0
1.76122422748551e-07,0.161544879062251,0
1.81756060374592e-07,0.163679780062478,0
2.16347492159903e-07,0.162820632460876,0
3.68601431793592e-07,0.205568697533934,0
3.93072378988859e-07,0.201843192703931,0
4.22829658752148e-07,0.203937322790003,0
4.78132479478846e-07,0.230788921386301,0
4.65403027133481e-07,0.233507797371888,0
4.5994494195471e-07,0.232202281656646,0
4.77804173603431e-07,0.236881413839674,0
5.54881577530091e-07,0.249617383219925,0
5.34962834486987e-07,0.23648222288128,0
5.57017085654896e-07,0.260280223016832,0
4.29730161874292e-07,0.222052884006513,0
4.49223323227045e-07,0.210766552869275,0
5.79793305761795e-07,0.241892327320446,0
5.03481378902292e-07,0.228366011462671,0
5.44869958256375e-07,0.246087664978394,0
5.60633010088284e-07,0.237861760363453,0
5.15047131313099e-07,0.228938153705339,0
2.90286991087518e-07,0.172519199029477,0
2.57669954358521e-07,0.165236864210596,0
2.89218287065986e-07,0.166794435788928,0
2.74829256120072e-07,0.172716517396403,0
2.14693803305962e-07,0.164514897082367,0
1.80631308764375e-07,0.158625344234646,0
1.92256528616735e-07,0.163069011900233,0
2.60588988773956e-07,0.178722508649924,0
2.54592086776508e-07,0.17913812157841,0
2.5499410948043e-07,0.179263957779814,0
2.45897300849146e-07,0.189208691307295,0
2.28506209059813e-07,0.186098113266972,0
2.34736231027825e-07,0.186467628034844,0
1.49895001121449e-07,0.136601218853982,0
2.7368455536812e-07,0.193382900525489,0
3.1483374502138e-07,0.198355484052883,0
4.09337389225192e-07,0.212046018632337,0
5.90407199124091e-07,0.258605034253383,0
6.11879125345156e-07,0.259872544672214,0
5.96974646575169e-07,0.259890073087117,0
6.00951745469878e-07,0.254530087355667,0
6.02438811492373e-07,0.264292143015911,0
5.75639514468858e-07,0.273126324305714,0
5.3534984783665e-07,0.298907795147806,0
4.1760716343768e-07,0.244565497138532,0
3.580561254805e-07,0.221227036636171,0
3.5609692977027e-07,0.232678299316902,0
2.4028646224223e-07,0.182903574810943,0
3.23749111458787e-07,0.207963948453889,0
3.20674853721468e-07,0.200074888490594,0
3.17932321712433e-07,0.203357897799119,0
3.23084140067611e-07,0.199430229776792,0
3.845409860319e-07,0.205749007633964,0
3.92484164295408e-07,0.200574892043668,0
3.7186473139783e-07,0.204955448246912,0
3.21253378831791e-07,0.204417082016788,0
2.13443467098726e-07,0.177898084255615,0
1.77276623091806e-07,0.180096690554364,0
7.18387593069779e-08,0.13547964399225,0
6.67555280010041e-08,0.144207860032748,0
7.19271055060908e-08,0.131680760367785,0
1.41216174507475e-07,0.165859128632845,0
1.17369350460782e-07,0.150776153534748,0
2.1227919718869e-07,0.189159087571567,0
2.21354156759978e-07,0.186343423631275,0
2.31067108883144e-07,0.186910481727494,0
2.54428503814278e-07,0.195077750197088,0
3.69616748112004e-07,0.213778170709665,0
3.58377781642003e-07,0.204173829932711,0
4.27909470205253e-07,0.216537828807675,0
4.31587711957585e-07,0.217168764435107,0
2.67082909388353e-07,0.176197592326369,0
1.73278625096232e-07,0.15589979107286,0
1.54356009197108e-07,0.155349804351466,0
1.52012460022779e-07,0.154395539033445,0
1.70680106891343e-07,0.16189334264244,0
1.93251135826108e-07,0.165869299165668,0
1.94596277954544e-07,0.176543763976774,0
2.09999295276087e-07,0.18612360737189,0
1.82366884095343e-07,0.178578559425539,0
2.2090482609137e-07,0.189217146661184,0
2.63176677444761e-07,0.204388685752251,0
2.7894352911319e-07,0.203230156433887,0
2.56122660927168e-07,0.192783549408885,0
2.10470475004692e-07,0.182391431803087,0
2.36175039126504e-07,0.189263839247201,0
2.38591735153862e-07,0.183940365476779,0
2.82147741259527e-07,0.190378659594664,0
5.55442433400592e-07,0.265456837741866,0
5.20224218581141e-07,0.237502536603331,0
4.50209760787897e-07,0.227094528641331,0
4.57464598665624e-07,0.225937769199879,0
4.89436233161529e-07,0.240993458335129,0
4.78885797069136e-07,0.249841253661179,0
4.51485175916173e-07,0.23016505599325,0
3.42078762868807e-07,0.205261318090761,0
2.45742077527262e-07,0.181114803186286,0
2.29203669053243e-07,0.178298881777723,0
1.75026549895894e-07,0.15297241518249,0
2.01743200475075e-07,0.166223539545898,0
1.96151361050765e-07,0.164242397212913,0
2.58976148162616e-07,0.185377409520603,0
2.31693321941805e-07,0.1696534143574,0
1.96768264509951e-07,0.153951585345858,0
1.88569927224057e-07,0.155124923388754,0
1.77975793011671e-07,0.146636447330498,0
1.80984693560828e-07,0.146759006273609,0
2.38513268529704e-07,0.169930092147868,0
2.82189539461258e-07,0.184036205775794,0
2.46144860198489e-07,0.18384251721357,0
2.36067883736612e-07,0.186208700960847,0
1.40991224185432e-07,0.146496013483976,0
1.70531343291545e-07,0.161953341913965,0
1.94792349519028e-07,0.17369491701497,0
2.10858058329834e-07,0.179747887461308,0
2.46018895617818e-07,0.205068291140044,0
3.21787635846644e-07,0.236304147944274,0
2.66448336689345e-07,0.213111232775793,0
1.26038107507975e-07,0.153084922983574,0
2.07702864074618e-07,0.178501957818285,0
1.75745478965667e-07,0.164183112502781,0
2.14161826193021e-07,0.168535719856718,0
2.57564318903237e-07,0.171123400880299,0
2.65371463019292e-07,0.1734975353119,0
2.85215729266586e-07,0.177074152578472,0
2.83603838614376e-07,0.170697882457184,0
2.59480766452605e-07,0.163578453804889,0
3.81029937086492e-07,0.191651208226057,0
3.91823942699883e-07,0.19225401950873,0
4.27460899503949e-07,0.196159734470554,0
4.09986211311154e-07,0.198261676831605,0
3.97556186083644e-07,0.198547848573345,0
3.57031689554437e-07,0.201222224774351,0
3.58695447975159e-07,0.201855513207441,0
3.27373205540694e-07,0.183249221839617,0
3.63081979255006e-07,0.191318631812762,0
3.83728770975536e-07,0.190116646278376,0
2.42778205040879e-07,0.157455909251538,0
2.22505507225843e-07,0.15846566206317,0
1.69869981745065e-07,0.148444319021327,0
2.23642418312927e-07,0.155417233725155,0
2.61253960165132e-07,0.161825529477192,0
2.76251154946232e-07,0.16325929689298,0
4.47600033065271e-07,0.194830549557321,0
5.13151772856422e-07,0.204144446366419,0
4.74546383762148e-07,0.198324984924959,0
4.60090285701639e-07,0.197240276199856,0
4.6055006592068e-07,0.207333613560968,0
4.34923968423028e-07,0.204038085645219,0
3.49417767125475e-07,0.181910862672662,0
3.73029001307866e-07,0.193892727956972,0
3.59728053549742e-07,0.201769757672354,0
4.20298397653681e-07,0.22595939549038,0
3.42091682312979e-07,0.217833932500978,0
2.67317549293525e-07,0.199894958655554,0
3.35338612847849e-07,0.21770520724823,0
3.25304004563182e-07,0.224827280041573,0
3.04673932123345e-07,0.208388098688677,0
2.67934072769058e-07,0.188211949526894,0
3.2774862938897e-07,0.203811006876345,0
4.45726903652243e-07,0.238086191341329,0
5.34338141362933e-07,0.250709717176067,0
5.70833481237093e-07,0.249215218005157,0
3.78866500163258e-07,0.197272700466584,0
4.14009478219593e-07,0.224361440181705,0
5.11815180360158e-07,0.251227263509576,0
6.77266712198599e-07,0.291265900309879,0
7.86367048414196e-07,0.310758638358977,0
7.87617194629607e-07,0.301224608130162,0
7.66630697524101e-07,0.29425937327193,0
6.47778460860997e-07,0.26555823635112,0
5.73731996535316e-07,0.26177927091218,0
3.57408823329147e-07,0.209204734837491,0
3.4416867295536e-07,0.21099259637447,0
3.77769677351471e-07,0.211682821852953,0
3.36326570343311e-07,0.195725375507338,0
2.33898937050422e-07,0.156171408897298,0
4.38758573448199e-07,0.20005261842289,0
5.45951961705731e-07,0.212366856851894,0
5.5627079776217e-07,0.214214009562607,0
5.4974438854552e-07,0.212988030783534,0
5.57154069761478e-07,0.214633314779758,0
5.96584213372635e-07,0.21979929456984,0
6.18278050046527e-07,0.216808776006713,0
6.25914201519138e-07,0.217088705084985,0
6.45459230640402e-07,0.21900928721227,0
6.94589406930553e-07,0.228503654331848,0
4.81217946733901e-07,0.201199917599059,0
3.78561753274274e-07,0.199452477743226,0
3.28570914012115e-07,0.195896673117215,0
3.88927517311748e-07,0.20244332750738,0
3.80459961608342e-07,0.18932037643035,0
3.4357266859704e-07,0.185354620967653,0
3.26017423869999e-07,0.18393857876487,0
3.23533280744393e-07,0.185396229381728,0
3.53465922963127e-07,0.203439839762425,0
2.4332557149173e-07,0.17680234695088,0
2.43447926227706e-07,0.177938125556929,0
2.83776921167908e-07,0.178829496534008,0
3.90705840803578e-07,0.212829078703965,0
2.6068018485046e-07,0.177775705660506,0
2.71593315338785e-07,0.195355361423447,0
2.7457922687699e-07,0.193005671526779,0
2.15023629115985e-07,0.181715966729017,0
1.88303938667587e-07,0.176792058754569,0
2.17400046876222e-07,0.184947119698446,0
2.43801311024159e-07,0.191349131630655,0
1.90541092419328e-07,0.176295390961025,0
1.8227663797797e-07,0.183848754145061,0
1.40226697077406e-07,0.159664508303532,0
1.33783124296913e-07,0.162218008917139,0
7.45337933594999e-08,0.132498484072329,0
1.00025946619788e-07,0.136031157718517,0
1.14168368175488e-07,0.134112074784281,0
1.1372910707366e-07,0.1338874159502,0
8.53965760139214e-08,0.120960390274096,0
5.79817054740053e-08,0.106930651390748,0
6.92168721074848e-08,0.112802235050441,0
6.35332666311925e-08,0.113302508192886,0
7.69238905312119e-08,0.120332728875548,0
9.63537846058895e-08,0.124220348205152,0
7.99080921429828e-08,0.123767964230711,0
5.21626358257392e-08,0.118949291363166,0
5.39037209196635e-08,0.120902835362518,0
7.78229318520815e-08,0.129030417872772,0
1.8485197718008e-07,0.172995650826101,0
2.28364855141232e-07,0.171108602029939,0
5.10748756240538e-07,0.234462667894358,0
5.60789753344775e-07,0.227933625594478,0
5.66819143944479e-07,0.231742825717044,0
5.48313940087187e-07,0.22781717066224,0
5.47850360031625e-07,0.22536966434584,0
5.25590917691583e-07,0.225603101554388,0
5.10703158202287e-07,0.224961385440645,0
4.94642009195306e-07,0.226681249278168,0
3.45194438824204e-07,0.196023273962634,0
2.87974410580835e-07,0.20339012619483,0
8.01978296777091e-08,0.121771211468778,0
8.90520187471275e-08,0.130498809844229,0
8.66628715345461e-08,0.126168469865105,0
9.16571866659279e-08,0.133986002611521,0
9.64449806823936e-08,0.13876771979301,0
9.17955007152927e-08,0.131839368862464,0
8.69849076797013e-08,0.13874420696043,0
1.00466157680747e-07,0.148618611834569,0
1.31728932673657e-07,0.158488731613473,0
1.70137680227969e-07,0.169505644538109,0
2.0558483519781e-07,0.180569487158649,0
1.86166720616348e-07,0.173153752475837,0
1.86931247724374e-07,0.179204073870305,0
2.03175738843493e-07,0.177093997635754,0
2.16980544924302e-07,0.171515214888658,0
2.16974465185868e-07,0.176487152595469,0
2.15430021631907e-07,0.173352429582679,0
2.05882742381057e-07,0.167609837850005,0
1.71581618105951e-07,0.159882676813125,0
1.22046949218138e-07,0.139530181291151,0
1.8440606636434e-07,0.159979493694452,0
1.68460432387598e-07,0.154062264477792,0
2.04410495720994e-07,0.16170138142159,0
2.11400105009555e-07,0.166554675061365,0
2.30629367715924e-07,0.181190850019074,0
2.51137845387088e-07,0.188102125619959,0
2.52162281313151e-07,0.183194160334277,0
3.16548231259657e-07,0.203221867378429,0
3.14938050533881e-07,0.190909327052494,0
3.16239684534152e-07,0.19492810690202,0
1.9817572395733e-07,0.15964789029961,0
2.18113656174866e-07,0.174375704807797,0
3.24001990579259e-07,0.202345994430714,0
3.89893625747213e-07,0.210163025369919,0
4.08440627806236e-07,0.204417616490233,0
3.88505165482438e-07,0.189436323855058,0
3.9763674261789e-07,0.187554802193778,0
3.54257808894105e-07,0.179497759129962,0
3.53592077535624e-07,0.188899386597185,0
4.06610436545893e-07,0.190499093017106,0
4.59770149474744e-07,0.207439839967246,0
4.35765252228777e-07,0.195004010516409,0
2.66375189836316e-07,0.160666634851797,0
2.30967743158119e-07,0.161209438032264,0
1.98121006311428e-07,0.160568188713086,0
2.22006778682461e-07,0.163880392033265,0
3.05263666751405e-07,0.191844594860014,0
3.0986146894182e-07,0.193119032061521,0
3.12000776903145e-07,0.191527268492207,0
2.71442651820727e-07,0.189311443327473,0
2.0384982984232e-07,0.179918373303401,0
1.80748153737396e-07,0.176710608226343,0
2.56526963533003e-07,0.20304077710757,0
4.80777355689291e-07,0.262498190900659,0
4.68982473136267e-07,0.23001587838223,0
6.05683871881311e-07,0.277365116902049,0
6.82462038681943e-07,0.300568062572903,0
7.36957584139752e-07,0.309510115048472,0
7.45701767941888e-07,0.309291787490544,0
7.19616080217018e-07,0.299603795615668,0
7.69203946816125e-07,0.301497967492081,0
7.71019508705861e-07,0.301846171264061,0
6.6466588431947e-07,0.291196275054738,0
2.72948337042175e-07,0.196618008363682,0
1.33411310293332e-07,0.165181736759587,0
1.67172097815151e-07,0.183966370348926,0
1.67609838982371e-07,0.1841619268986,0
1.67653917086014e-07,0.180731535644211,0
1.74966322487035e-07,0.183913915455364,0
2.16718926179831e-07,0.198053636618959,0
3.97601974113723e-07,0.259886749032206,0
3.97270438377265e-07,0.250488578789409,0
4.77068525252965e-07,0.264866194199253,0
5.17917717812892e-07,0.26353053911138,0
4.80053676823866e-07,0.241784241337902,0
3.3407250731905e-07,0.2053880237949,0
2.22452309514549e-07,0.163756429150637,0
2.10412147514094e-07,0.161784476166223,0
2.68714369198646e-07,0.172462243712578,0
3.4908946125006e-07,0.199325725125159,0
3.24573485992018e-07,0.178853435953771,0
4.86209411987893e-07,0.214073910417023,0
5.17537734160791e-07,0.219578695480938,0
5.14670187530215e-07,0.218702426161298,0
5.28586708804741e-07,0.226338633371411,0
5.30342233277445e-07,0.215315422753414,0
5.30140271966354e-07,0.217527329988278,0
4.70399052191298e-07,0.209722557540544,0
5.15624896456116e-07,0.233643968451717,0
4.94166269662876e-07,0.223832576300175,0
4.5271765289176e-07,0.228511466807316,0
1.64071621205838e-07,0.156963631806717,0
1.57068522497628e-07,0.161417039577984,0
1.57950654545978e-07,0.170437107652998,0
7.23131688966252e-08,0.121809200739153,0
9.45232133618956e-08,0.139027580286367,0
1.02273929905614e-07,0.144250635208252,0
1.17129960759959e-07,0.154238505633419,0
9.0861690890256e-08,0.138538060261435,0
1.73348542088218e-07,0.178442913637083,0
2.16987954605518e-07,0.190895276636577,0
2.76004925539671e-07,0.202468364017578,0
3.50979499935607e-07,0.215782442485863,0
3.42935246020641e-07,0.207881263306509,0
4.10977398667658e-07,0.235671541364951,0
4.25001645307554e-07,0.24279530371746,0
4.1855959246167e-07,0.241061115022869,0
4.26629685264979e-07,0.243289228964365,0
4.48987733362743e-07,0.242107944632882,0
3.99422665782762e-07,0.232547043370066,0
3.80650903393523e-07,0.241667893194846,0
3.24181532854878e-07,0.228296707423181,0
2.1470349288909e-07,0.193431393470318,0
2.11852285555555e-07,0.195688602206188,0
1.71144636906036e-07,0.16859746729172,0
1.51149897132511e-07,0.156528651642717,0
1.41356958450578e-07,0.149987145635318,0
1.17213557163421e-07,0.133663796923558,0
9.41979473556978e-08,0.126975499543016,0
7.09328782803706e-08,0.117321993208272,0
3.54667241279245e-08,0.0941545487403161,0
3.32780182918259e-08,0.0928318418188801,0
4.87009847551041e-08,0.104171142543468,0
3.22779013194977e-08,0.0936908024336593,0
3.59312541426171e-08,0.0974071407934325,0
4.93712759174095e-08,0.110937426276025,0
1.30272645326983e-07,0.152652049933961,0
1.09721609486783e-07,0.150565152221623,0
1.02853024991415e-07,0.147128372991736,0
9.21891637788687e-08,0.139233248569965,0
1.03483797853902e-07,0.139860995845746,0
1.69196650713542e-07,0.164028903077173,0
2.22932608850804e-07,0.178653957667269,0
2.33360690207222e-07,0.19071277452042,0
2.20146568713604e-07,0.192137436006366,0
2.32886660601227e-07,0.181957944636312,0
2.58274888332665e-07,0.196377656198978,0
4.09105599197411e-07,0.235385094397505,0
4.52359138316003e-07,0.239650592116323,0
5.30980035837496e-07,0.24659182628375,0
6.0678734440701e-07,0.266885714473084,0
5.57799851978222e-07,0.26518794763875,0
4.9698726829607e-07,0.255836484074866,0
4.96275938899337e-07,0.253946165942071,0
5.01682346301422e-07,0.248415765962954,0
4.83794235895143e-07,0.251336025672994,0
4.27843923025267e-07,0.241162993973201,0
2.47847186959898e-07,0.179469839912622,0
1.76553134218207e-07,0.157118944864651,0
1.40824221370333e-07,0.157349830887508,0
8.86790647925909e-08,0.139697498378857,0
9.44933846452058e-08,0.142788077262934,0
8.32962163769362e-08,0.134282441955108,0
8.66535619350694e-08,0.136156620811393,0
8.79257472023019e-08,0.136831974698268,0
8.71672998327095e-08,0.141569293526407,0
8.722353741322e-08,0.139037581942726,0
9.14848640797003e-08,0.149611681356941,0
5.05171166203183e-08,0.12478206219825,0
2.37814098609839e-07,0.190214108666311,0
5.52174573992527e-07,0.276536411675273,0
5.61865677055697e-07,0.250829456614764,0
5.67674867129009e-07,0.252176904880059,0
5.62677322136583e-07,0.252567234100555,0
5.46487168679714e-07,0.252355897615045,0
4.60610863305017e-07,0.23255088961458,0
3.81233798315845e-07,0.218208869493958,0
3.80285169128375e-07,0.216492177773251,0
4.91336151422032e-07,0.244475249229459,0
5.47115661640289e-07,0.271031438122444,0
2.58178182493205e-07,0.191354017950952,0
2.16631719931674e-07,0.190812148339728,0
2.19823582609318e-07,0.191964159206195,0
2.05185852363105e-07,0.183612870938313,0
1.78179464249197e-07,0.17304008194017,0
2.01788608521501e-07,0.168753843187033,0
2.77453993196956e-07,0.186090400664491,0
2.51601425442651e-07,0.178123914348352,0
2.10049643109991e-07,0.162557167017779,0
1.46906809681331e-07,0.145810381812827,0
1.54915535124826e-07,0.145841305769387,0
1.35101477577875e-07,0.145143718118677,0
1.78310368617346e-07,0.157769644332312,0
1.9567106171451e-07,0.159649567045345,0
1.96430839026885e-07,0.154863603075092,0
1.72933599940124e-07,0.155981647612081,0
1.10953706478718e-07,0.134650466063683,0
1.03465748630427e-07,0.129421185837093,0
1.65428732819315e-07,0.153010154894412,0
1.72236519930346e-07,0.149331891100095,0
1.9684426124037e-07,0.15400782307189,0
2.01031681086517e-07,0.148122122353051,0
2.66077282653069e-07,0.164066205302777,0
2.67662764441458e-07,0.170414857743547,0
2.65788495077473e-07,0.162283203735913,0
4.86451271582454e-07,0.21525862599439,0
5.21430856668386e-07,0.213556906601878,0
5.39964369307759e-07,0.219330464166833,0
5.00056016270432e-07,0.212392603992834,0
4.89407544395796e-07,0.215668128536534,0
4.81348091134746e-07,0.218581184937423,0
4.91549892226339e-07,0.236702538357714,0
4.11413429908443e-07,0.223698688844601,0
3.26446235421395e-07,0.195312423030205,0
3.39216536009361e-07,0.204466904933548,0
1.34558860922676e-07,0.137094168023597,0
8.418157828633e-08,0.118575233796097,0
8.90757677253837e-08,0.120840954606,0
9.88084789984582e-08,0.125515026082944,0
1.84307270614794e-07,0.162287131311509,0
2.23072252842951e-07,0.184621761646071,0
1.98582496456903e-07,0.160659197978208,0
2.81045788668436e-07,0.187647747472241,0
4.4375915830984e-07,0.237588852934383,0
4.13413663853099e-07,0.223928588097002,0
4.9019620046573e-07,0.242549690839694,0
4.87936057703038e-07,0.245145772288637,0
4.80960507809603e-07,0.253704032422723,0
4.82591967619896e-07,0.252981066426344,0
5.93765494641355e-07,0.266923638265496,0
5.18325630263421e-07,0.23440503597079,0
4.68651317383462e-07,0.240487735912099,0
4.39240392719063e-07,0.236649990852921,0
3.51549475413758e-07,0.20650410202805,0
3.40292839703935e-07,0.224025356809641,0
2.38609024410033e-07,0.205983436982794,0
2.39242837141737e-07,0.202580729814012,0
2.49447868094372e-07,0.202872049415534,0
2.94630204231025e-07,0.226053918219314,0
1.41635106483916e-07,0.172688142533996,0
1.136324012342e-07,0.172281969596511,0
1.18427984915534e-07,0.164073972804443,0
1.2318975005183e-07,0.164818604864593,0
9.44052284379185e-08,0.161367599636255,0
9.33215150621276e-08,0.153779660426321,0
9.81117789723323e-08,0.153284140290863,0
9.71276213133922e-08,0.152743831329977,0
1.59788255487536e-07,0.174005864718593,0
1.25288209770555e-07,0.145800074873434,0
1.29640352529888e-07,0.145035196227411,0
1.41679944554864e-07,0.143654290801115,0
1.62517488068747e-07,0.145785761096931,0
1.60079512956871e-07,0.14224449841743,0
1.95157133825044e-07,0.156342314518434,0
2.03073143257427e-07,0.152291564204216,0
2.54838886158547e-07,0.155755721342893,0
2.53440546318817e-07,0.156190012808787,0
1.74503692390603e-07,0.130486761838848,0
1.94074940383862e-07,0.142644521197512,0
1.95734708976236e-07,0.144832227166408,0
1.45099797423768e-07,0.131538065092562,0
1.7524751038959e-07,0.146581998236952,0
1.70687706564385e-07,0.146893874786542,0
1.94047581560911e-07,0.155051308983084,0
1.75748518834884e-07,0.151615987340933,0
1.58394665443458e-07,0.159430867534286,0
1.54086410795942e-07,0.165564673797821,0
1.24484924330015e-07,0.148761299322455,0
1.23991705549589e-07,0.136429787589903,0
1.19967488682019e-07,0.128347782506033,0
1.23127432732886e-07,0.128808945158155,0
1.13339053854779e-07,0.124863315424988,0
1.20248676584573e-07,0.123661371448952,0
1.22977909165784e-07,0.123977084334036,0
2.41458901800786e-07,0.160646484831985,0
4.13009361247265e-07,0.186426225518087,0
4.12220515185505e-07,0.185389817842907,0
3.39563271091902e-07,0.179529627937228,0
3.92502403510708e-07,0.200723358008128,0
3.86579408333593e-07,0.203754308386472,0
3.93989089549551e-07,0.211821586561553,0
4.41563042792526e-07,0.227800217537386,0
4.99554437849658e-07,0.249614911162198,0
4.98863817561968e-07,0.247695959131868,0
3.78582842366965e-07,0.234657972042909,0
1.15532319494703e-07,0.169542098558212,0
1.20002637169838e-07,0.16488323320075,0
1.29930660040092e-07,0.163414576517523,0
1.12667432749691e-07,0.166495725886359,0
9.56014169747305e-08,0.162070368421344,0
1.21635806906566e-07,0.165826093381948,0
1.62340415686868e-07,0.1692720111578,0
1.40494205568484e-07,0.152045756090443,0
1.69190760966935e-07,0.162578017471471,0
1.55036369926194e-07,0.153313950633776,0
1.59610423138353e-07,0.152906593404547,0
2.02629322351773e-07,0.169248367662611,0
1.80269374335749e-07,0.165927975166608,0
1.18082959759427e-07,0.140060569258836,0
1.00763114904863e-07,0.131985976988089,0
2.73344280007664e-07,0.186024131503837,0
3.87562616033403e-07,0.211601776219339,0
3.88061344576785e-07,0.212987816819803,0
3.81729107006356e-07,0.212716384465113,0
4.56075378433545e-07,0.234366954868716,0
4.76527428532373e-07,0.236195556779309,0
4.31354971970674e-07,0.222981797124027,0
4.12074601463098e-07,0.205275372654192,0
4.31607471107494e-07,0.20315886209902,0
4.89231991948525e-07,0.203771554394229,0
4.63630783380085e-07,0.204087476650499,0
4.1848264577212e-07,0.205914720982536,0
3.82572670714021e-07,0.203102591439016,0
3.55229047108874e-07,0.198193042843006,0
3.46372388145716e-07,0.198293413881952,0
3.46672765222701e-07,0.203353631760399,0
4.10281078625183e-07,0.209699239345646,0
3.25470247410976e-07,0.192974643541838,0
1.83295564141077e-07,0.153243944085931,0
1.2647755860163e-07,0.146106453133797,0
1.13523915901526e-07,0.146031582902257,0
1.5459159906141e-07,0.157951760319619,0
1.22071078180047e-07,0.137547047227187,0
1.42688991143016e-07,0.140132494452115,0
1.41258922668336e-07,0.139571537417321,0
1.59894650910124e-07,0.139375015790307,0
1.34376468769667e-07,0.131595932146819,0
1.13465398419102e-07,0.123259034725494,0
1.13366602669556e-07,0.124822593395623,0
1.1728480409819e-07,0.124915708569322,0
2.51996608440836e-07,0.167564049029798,0
3.35377371180364e-07,0.197995732999938,0
3.11908060892032e-07,0.193741055022546,0
3.22874389091651e-07,0.194326551003108,0
3.14079287480135e-07,0.194317097589986,0
3.2707852821849e-07,0.203269097325597,0
2.25980077740649e-07,0.177404195746039,0
2.12889640925789e-07,0.172519045765398,0
2.01906593445479e-07,0.161874031912675,0
1.87847958285066e-07,0.15906873287985,0
1.2958202503929e-07,0.136888775504326,0
6.44817058268353e-08,0.108739983350981,0
6.01590118005407e-08,0.108095841657491,0
7.31719319503721e-08,0.113199162843295,0
1.69813174189076e-07,0.14469634983482,0
2.64318908302974e-07,0.17108956010635,0
2.80073030519058e-07,0.175884883100775,0
2.93603298411224e-07,0.174302992275858,0
3.2729264900645e-07,0.180527620328441,0
3.05701977894102e-07,0.172797672698054,0
3.06931794984125e-07,0.176917390507282,0
2.77066409871814e-07,0.165368507723041,0
1.7940016173157e-07,0.138036276290035,0
7.13964583359331e-08,0.10219407941192,0
6.49886040187371e-08,0.105939768000433,0
4.03533138939357e-08,0.0971222701679313,0
5.66348534191354e-08,0.107864678666174,0
6.59218438682959e-08,0.122549874111791,0
9.96490028369044e-08,0.13627618519443,0
3.1038432644711e-07,0.213469234787702,0
3.46976752144382e-07,0.219287600427647,0
4.24801013939246e-07,0.2432589428574,0
4.29740801416552e-07,0.240553208007784,0
4.15654047465884e-07,0.240331937249375,0
3.76818388278437e-07,0.226317681930958,0
3.74774076230137e-07,0.222642757807915,0
3.31868602136868e-07,0.224074393346567,0
1.88132946024142e-07,0.171422994966558,0
1.62180062585682e-07,0.164202291068091,0
1.95164733498086e-07,0.179756681814852,0
2.09169600971726e-07,0.19128526581535,0
1.72216190804959e-07,0.176834199329761,0
2.80942243123238e-07,0.216299004711417,0
3.77853273754933e-07,0.24473250730991,0
4.25827159791743e-07,0.250746397268211,0
3.80064778610157e-07,0.223948241551842,0
3.32323632560259e-07,0.208932599590561,0
3.00907534163725e-07,0.194472585657593,0
2.69520884500229e-07,0.198490405126012,0
2.97713391584169e-07,0.200309313770673,0
5.07351702390761e-07,0.250177793952819,0
5.53992415784177e-07,0.257189829394247,0
4.59928412665844e-07,0.235794850513606,0
3.5529991405999e-07,0.208631353806019,0
2.67264541574057e-07,0.184538947403328,0
3.11033908500376e-07,0.198985393188054,0
3.4205216401316e-07,0.199806941412309,0
3.80955650282507e-07,0.21813458341084,0
4.30497158876057e-07,0.234108621510982,0
4.44891509593099e-07,0.2451889994879,0
3.58373981805482e-07,0.222037625919946,0
3.11561325809491e-07,0.205750776268664,0
3.17835615872973e-07,0.212281958186032,0
2.94995558512521e-07,0.197067356449266,0
1.48861445587736e-07,0.14095094523924,0
1.39632592637346e-07,0.140796523989356,0
1.36107674288637e-07,0.134806378006932,0
1.79015428283818e-07,0.147921438793749,0
1.78495610647744e-07,0.143440484019179,0
1.82908170807761e-07,0.140708861851876,0
1.9094843489438e-07,0.143313554587434,0
1.75093996994142e-07,0.143003462528278,0
1.80134100155601e-07,0.143060009679933,0
1.57570670893878e-07,0.135424916570979,0
2.9987454860549e-07,0.180603631587479,0
2.44988189961495e-07,0.158850291858967,0
2.83862037505978e-07,0.176692132810987,0
3.0100689988875e-07,0.18050518631992,0
3.51172341639049e-07,0.199680951984609,0
3.50570447534121e-07,0.2070793170292,0
3.0270922665016e-07,0.198947939445451,0
3.00394366241563e-07,0.198167726605993,0
3.71897599983736e-07,0.211177286672281,0
4.68617878822077e-07,0.243695171513086,0
3.4457221559389e-07,0.214149329565121,0
3.5872185683898e-07,0.23181484855182,0
3.44005849960435e-07,0.23088596969243,0
3.00584358067614e-07,0.217136576309604,0
2.07947383554745e-07,0.182149875206142,0
1.95789616613966e-07,0.179809836658,0
1.21464624271294e-07,0.151286240770849,0
7.57041430079694e-08,0.121783141370199,0
6.45668221649056e-08,0.121779555903609,0
5.53474688058192e-08,0.116319823092397,0
9.87995493826339e-08,0.13756111416491,0
1.0710067224642e-07,0.137073843824442,0
1.30729575668633e-07,0.140289088858256,0
1.46310995314838e-07,0.149787760978649,0
1.36967387301514e-07,0.148172766458814,0
1.58323038525036e-07,0.146516602476407,0
3.80407713856178e-07,0.210944062557642,0
4.62343398766769e-07,0.22609425955603,0
3.79590749004162e-07,0.204425477934493,0
3.92999422127656e-07,0.210288314481311,0
3.89184386260568e-07,0.214649870427567,0
3.13811778989056e-07,0.196870366089737,0
3.18477978236849e-07,0.197064378146623,0
5.26197561592159e-07,0.248062557988697,0
6.5546648010212e-07,0.27027152235019,0
6.44678744218988e-07,0.288927008151104,0
4.24041046635044e-07,0.227285162599646,0
2.05828594710633e-07,0.175273854405546,0
1.95257639501025e-07,0.171259979080042,0
2.11368756358257e-07,0.170789532394676,0
2.30558120781155e-07,0.174300741246679,0
1.69569034692601e-07,0.148366286441614,0
2.26818321677183e-07,0.175087742037596,0
5.18277182347778e-07,0.242115859536395,0
5.35722991783014e-07,0.225272006744185,0
5.53775255127001e-07,0.236408524853085,0
5.36002469759133e-07,0.238041220408916,0
5.31044443066526e-07,0.234379477072977,0
5.11437286618144e-07,0.230091935245356,0
5.27776583658462e-07,0.228473042638195,0
4.06843176532805e-07,0.20197889879233,0
4.006008050961e-07,0.209741687155153,0
4.24927168511744e-07,0.208282628543919,0
2.42408860931037e-07,0.174489829468126,0
1.67430676690406e-07,0.165710194609854,0
1.56461118629745e-07,0.152201490159965,0
1.65207772325618e-07,0.143926589327459,0
1.71090679227437e-07,0.141628068736053,0
2.00965753922877e-07,0.155476018951879,0
2.47106408830129e-07,0.166011530206097,0
3.46828368528237e-07,0.19853110867672,0
3.55264005604866e-07,0.195899762774383,0
3.33673524484346e-07,0.19729323444723,0
3.17207882879703e-07,0.183920307203469,0
3.64307616524856e-07,0.195901400195533,0
3.37736119700777e-07,0.193677328049583,0
2.99973344355036e-07,0.190282909806209,0
2.97093068272115e-07,0.194875750126432,0
2.15458330413988e-07,0.17145315178539,0
1.61409455739223e-07,0.165988329174284,0
1.31947613265441e-07,0.148286451197523,0
1.40676597721492e-07,0.149738331321931,0
1.44981052532486e-07,0.149314824089036,0
1.22194192883327e-07,0.144198114231352,0
1.53381731113122e-07,0.154991583488521,0
1.47675326617704e-07,0.150559259666418,0
1.44905245793892e-07,0.153838575518315,0
1.50703796324945e-07,0.156264856516473,0
1.54755941990944e-07,0.149034988285627,0
1.70764653253935e-07,0.157206576742318,0
1.18278841332084e-07,0.140148082141467,0
1.0998151830482e-07,0.148012177444305,0
1.0451279358379e-07,0.147932826396307,0
1.03902729830343e-07,0.150412539373621,0
8.81850860448609e-08,0.142127183929382,0
2.38347785649214e-07,0.199675616592819,0
2.85889630273586e-07,0.18652045936109,0
5.81106529263455e-07,0.239360953819385,0
6.13251816288369e-07,0.254481439068864,0
6.07688855621618e-07,0.24461754037943,0
6.15495999737675e-07,0.238643641650771,0
6.6251574682406e-07,0.237826559471764,0
7.59714995055873e-07,0.237140222653579,0
8.46336638364165e-07,0.231781567263783,0
1.07919461019966e-06,0.265292097369085,0
7.89723064029549e-07,0.227027776507462,0
7.08808585183978e-07,0.230863430178481,0
6.09968757534221e-07,0.220295439627042,0
7.03295782359305e-07,0.238284444110375,0
6.94138176343684e-07,0.242065730855743,0
6.94209423278453e-07,0.2479748347539,0
6.68229181017043e-07,0.244775312601441,0
7.34860264371982e-07,0.274386512012799,0
7.06084102398418e-07,0.29761638053989,0
3.87225380542164e-07,0.229735808173514,0
2.60838068057908e-07,0.1918672435157,0
2.4039038777108e-07,0.179604466527115,0
2.13223076580507e-07,0.180790265003955,0
2.24991360277884e-07,0.176701317473163,0
2.18534678061393e-07,0.174481421982038,0
2.64281669905069e-07,0.189734600584748,0
2.83877236852062e-07,0.201841522521857,0
1.79783945220191e-07,0.168199738963937,0
1.56193610138666e-07,0.1665159698164,0
1.72895601574915e-07,0.16791263063927,0
1.4755525178364e-07,0.174646113611832,0
6.15064338308891e-08,0.129198914150359,0
1.27056463695604e-07,0.16561125871902,0
1.61963281912159e-07,0.175161831432868,0
1.49702159418008e-07,0.166535182119733,0
1.59827203811876e-07,0.165502169357235,0
2.3184987520647e-07,0.174119573486176,0
2.38551266894914e-07,0.178759367129775,0
2.49852930667511e-07,0.176618005108201,0
2.48568585923412e-07,0.172645985636081,0
3.42295923525982e-07,0.190367102659347,0
3.67577185859355e-07,0.186309510816995,0
6.58273609332011e-07,0.235145741066222,0
8.43137176013481e-07,0.26311341426163,0
8.13945311924517e-07,0.263213312203683,0
8.32642217534292e-07,0.268663810477215,0
8.64819043202332e-07,0.276322133530802,0
8.44580543915984e-07,0.278588453767571,0
8.46213523660887e-07,0.276080630302462,0
8.60095276431244e-07,0.293661186959218,0
5.98663293925103e-07,0.247403538315298,0
5.84240064450501e-07,0.262696945986326,0
4.41417889037423e-07,0.241524085685449,0
2.70851397258059e-07,0.210333892529803,0
2.55176311641612e-07,0.191249091643703,0
2.06580962341792e-07,0.180942336442608,0
1.91440893707502e-07,0.184151149958197,0
1.97490233448941e-07,0.17479642874705,0
2.20637507592117e-07,0.181116832058969,0
1.69570744619036e-07,0.14738984910274,0
2.32942708189911e-07,0.168947938140298,0
2.11801367746173e-07,0.165595725929258,0
2.11668183476112e-07,0.165127188704744,0
2.32073305593906e-07,0.169775563626438,0
2.19637200627962e-07,0.172499593635969,0
2.09680109008323e-07,0.171394106495691,0
2.05502758728957e-07,0.177691259485548,0
2.23944695308173e-07,0.1846591184228,0
2.21528949239944e-07,0.192812530924639,0
2.95840072179314e-07,0.219038191709276,0
3.67257239624286e-07,0.259256551957364,0
3.96140556987744e-07,0.256560281864272,0
4.96866623486528e-07,0.293490334983917,0
5.16427231937528e-07,0.266507079617979,0
7.1638545920686e-07,0.303639524332622,0
8.44839692766716e-07,0.324066765935611,0
8.50638053305943e-07,0.305758871355607,0
8.3178421444785e-07,0.306280535357015,0
7.62737385024679e-07,0.30025463093633,0
7.46970913339902e-07,0.29793656928551,0
6.41205693638789e-07,0.266000914285158,0
6.25171143487455e-07,0.256635475229287,0
4.95701403617361e-07,0.224766501153351,0
5.03812724646924e-07,0.239603202451325,0
4.23429462946989e-07,0.211423368605588,0
4.42480893304174e-07,0.198421621232364,0
4.65561100332755e-07,0.200375386429646,0
4.34467988040507e-07,0.190214171522458,0
4.13847795175625e-07,0.180747157514924,0
3.9331575851803e-07,0.17802496159659,0
3.95788502134071e-07,0.178556019738269,0
3.65982584463316e-07,0.173664994806711,0
3.70869174229327e-07,0.183283739156577,0
3.5148107835638e-07,0.181458877891951,0
3.14123935559256e-07,0.178876004757026,0
1.50589801229315e-07,0.13772930625299,0
1.4659997288226e-07,0.143594219080851,0
1.47032964253828e-07,0.145794397147328,0
1.91760079975266e-07,0.167884663560647,0
2.36613350269202e-07,0.178199071536398,0
2.2983444191573e-07,0.178512954572429,0
2.80154347020608e-07,0.192101321858491,0
3.24977218622375e-07,0.205498979449383,0
3.37803946782677e-07,0.203559865603001,0
4.47118213794408e-07,0.226353316054943,0
4.72401756029693e-07,0.226701088310282,0
4.93309976502867e-07,0.229120463063719,0
5.03679730368688e-07,0.223390316296512,0
5.91469633415364e-07,0.239857201624715,0
6.34855976820366e-07,0.249968673793602,0
6.452236407761e-07,0.251863655732182,0
5.62373335214904e-07,0.238557405552599,0
4.76400703984399e-07,0.218265409960421,0
4.35771331967211e-07,0.210788798915756,0
3.84117874235286e-07,0.21088751862901,0
3.2030246974241e-07,0.209891794495319,0
2.43413727699016e-07,0.187305976787327,0
7.20479403074592e-08,0.121634853308258,0
8.25846969883783e-08,0.131692122306793,0
7.94013839429066e-08,0.129881170291841,0
7.95129091447983e-08,0.129941091098071,0
8.97283896478664e-08,0.140384371403827,0
1.36203430168966e-07,0.160732434372547,0
1.10782523843447e-07,0.148406462479715,0
1.06713658896756e-07,0.139137101519649,0
1.01731503242241e-07,0.136750146479591,0
1.1542611406394e-07,0.145575446561635,0
1.078976879567e-07,0.149692200303262,0
1.00123222434726e-07,0.151366873255358,0
7.93958741799515e-08,0.140239650258051,0
4.03533138939361e-08,0.113241492383063,0
8.63450152095639e-08,0.146994397265267,0
9.44586161410385e-08,0.144042900860725,0
8.73572916587597e-08,0.144392556916712,0
9.17347033309568e-08,0.149751620909979,0
8.72128978709616e-08,0.150327925322708,0
6.8120999254827e-08,0.138863560672431,0
1.10179109803911e-07,0.141070191311085,0
1.79065586125895e-07,0.160338164689397,0
1.15704072105452e-07,0.13899379683311,0
2.33886017606251e-07,0.175398986672151,0
2.9781047740728e-07,0.17847569795984,0
2.91566586035966e-07,0.183213884623138,0
2.94375615184119e-07,0.186362696449357,0
3.00809308389658e-07,0.19056342244061,0
2.93762891545107e-07,0.183803970394742,0
3.55857730061273e-07,0.196052149324248,0
3.95703575787828e-07,0.2085317316254,0
3.69613898234613e-07,0.204375372025539,0
4.55804640081424e-07,0.219139778632525,0
2.75277636829551e-07,0.188932990384211,0
2.11808017460085e-07,0.175156784342147,0
2.18542847709913e-07,0.169724424773294,0
2.30800550351195e-07,0.171467128693241,0
2.28662762324478e-07,0.175472695939229,0
2.30832468977972e-07,0.176198686998603,0
2.16680927814621e-07,0.176633013381972,0
1.91123227374345e-07,0.17574873649146,0
2.16607970953418e-07,0.189186058148945,0
2.35237809448598e-07,0.185922002861168,0
3.84653651184748e-07,0.225355962665398,0
3.45378540903647e-07,0.220938550619363,0
2.64063369296937e-07,0.204587048291087,0
2.68069916924683e-07,0.209427550050294,0
2.66229276113909e-07,0.208788145244235,0
2.53821479930048e-07,0.201038637151056,0
2.70324169940769e-07,0.200398992147759,0
2.71435052147685e-07,0.197686408122258,0
2.11683572814022e-07,0.170899118651274,0
3.02266925679114e-07,0.214756302404729,0
1.83915127485827e-07,0.172274872106838,0
2.0447224306446e-07,0.169905132049377,0
2.18118215978691e-07,0.168532209719881,0
2.153519349914e-07,0.168608713286768,0
2.12074006016556e-07,0.161022425803487,0
1.96928807602962e-07,0.157981551451957,0
2.58957338971838e-07,0.178074265848313,0
3.2824887786696e-07,0.206901363998348,0
3.3869367850407e-07,0.204063925702072,0
2.68363454295931e-07,0.183403202796571,0
2.64440503071647e-07,0.180912715985961,0
2.06467157237988e-07,0.17601700412562,0
1.49146623318637e-07,0.158260429208221,0
1.14812060482146e-07,0.14528658892137,0
1.14123340112714e-07,0.14053873657583,0
9.7658078491724e-08,0.126637291639589,0
7.73380727120012e-08,0.124441790407111,0
8.50502209150317e-08,0.126380184353791,0
9.99433001754561e-08,0.138125863570177,0
1.51938743194271e-07,0.161991357702848,0
2.4786637613433e-07,0.206084626702116,0
3.03134808340512e-07,0.225386516945213,0
3.08255468036217e-07,0.215852284349827,0
4.5500971428123e-07,0.24826417552216,0
5.17720126313799e-07,0.244576517122787,0
5.58727962048478e-07,0.254854498312472,0
6.39155301852056e-07,0.257228089439463,0
6.86286004164854e-07,0.2631485245851,0
5.8350802594473e-07,0.249534655059405,0
5.96881360588578e-07,0.245324546657253,0
1.08163866504997e-06,0.297873098928597,0
1.51592426093747e-06,0.330004712076927,0
1.57429354973662e-06,0.336054565406303,0
1.56378985163343e-06,0.334708952830177,0
1.52487743574826e-06,0.350532595705234,0
1.46389841922648e-06,0.346230514144788,0
1.31709686501679e-06,0.331235036888443,0
1.01762414912339e-06,0.29762885647369,0
8.89160225980407e-07,0.275205671185243,0
5.91945182955968e-07,0.23314080353025,0
4.36493300906201e-07,0.225041672965874,0
2.28824635360273e-07,0.17208949392285,0
2.96808270524865e-07,0.191393128345522,0
2.62353442862485e-07,0.179114300182674,0
2.64808137255054e-07,0.175383300516999,0
2.21628504956795e-07,0.160112895366345,0
2.12828843541454e-07,0.163381975498682,0
5.16153833699841e-07,0.213508148604314,0
1.25120921967718e-06,0.321110105463716,0
1.32567841581582e-06,0.30564098374986,0
1.40517099583523e-06,0.322167586606411,0
1.42551095075669e-06,0.314679805875551,0
1.2984071790964e-06,0.292077819946155,0
1.63134201536106e-06,0.326328465993336,0
1.93607655487691e-06,0.36466224049176,0
2.05556260427172e-06,0.369890246533569,0
2.18659521690291e-06,0.364318178864536,0
2.13953500155757e-06,0.378715078882447,0
1.37855998071133e-06,0.297851595020061,0
2.00739967636799e-06,0.355531546314286,0
2.04354961110239e-06,0.337895989250093,0
2.07457622625552e-06,0.352184892127386,0
2.08048269214378e-06,0.354624424740798,0
1.76914213683615e-06,0.326626922258883,0
1.37853737168403e-06,0.282523055898155,0
1.1124880178294e-06,0.254620049735225,0
1.11107884845558e-06,0.259132319797862,0
1.10963206070021e-06,0.257854396789642,0
1.11561129345783e-06,0.264221100205534,0
5.55615895937776e-07,0.198640750971149,0
4.36358026726054e-07,0.182978956976895,0
5.07480896832476e-07,0.194295812005353,0
4.80631251975058e-07,0.194266680968235,0
4.98879586883529e-07,0.200397702246715,0
5.46309146338706e-07,0.199888209015764,0
7.28830493788627e-07,0.223094448685931,0
7.18707159321194e-07,0.22695731138366,0
5.65551708472898e-07,0.198263534066154,0
6.34995810804339e-07,0.209871250424832,0
6.49576733494563e-07,0.215761876576803,0
8.25080542857493e-07,0.243044697673341,0
8.81331612788007e-07,0.252913402196718,0
8.92663675252772e-07,0.246600541500941,0
9.68649006163297e-07,0.249327691333294,0
9.78792289772465e-07,0.247931042519741,0
9.07423000267658e-07,0.239588161054666,0
8.88556051973565e-07,0.242388961282865,0
8.50984788388485e-07,0.248603423106494,0
7.58941348340196e-07,0.227791058499961,0
8.69774979984851e-07,0.23453466824826,0
8.28247896589577e-07,0.226558148883531,0
6.98270688552102e-07,0.208723982195879,0
7.31186582423476e-07,0.21293825140899,0
6.82187690485126e-07,0.216552289698591,0
6.0500085126666e-07,0.219635145431218,0
5.92196922125484e-07,0.218202784998139,0
7.72337102019519e-07,0.254165446974881,0
7.77273849627608e-07,0.251568891416595,0
7.50211603916841e-07,0.264111134908034,0
8.72745502185147e-07,0.291004952289526,0
8.43566747532181e-07,0.301224360660299,0
8.1570083639722e-07,0.298935105385557,0
6.79507095811383e-07,0.296538352304243,0
3.41329245115039e-07,0.21293620309438,0
1.42268159248315e-07,0.150388930995656,0
1.17176888740993e-07,0.148822735262839,0
1.25324688201157e-07,0.143073621799679,0
1.88502290133984e-07,0.152129404046378,0
1.89952877725877e-07,0.149867293698524,0
1.14434356731958e-07,0.123756200160381,0
1.06607453465994e-07,0.118915869172736,0
1.2231141784e-07,0.126937355967467,0
1.39323855920015e-07,0.12569652729359,0
1.36634521622275e-07,0.127711551680387,0
1.36542375586639e-07,0.127628653995501,0
1.34026883809735e-07,0.126691035406241,0
1.11454334940361e-07,0.118702865282372,0
8.78355010849281e-08,0.125896162551374,0
1.17964214868145e-07,0.135867208387595,0
1.5440255719449e-07,0.153060300177621,0
1.49490698515614e-07,0.154611510290193,0
1.5980345483362e-07,0.165492210826183,0
1.25636844771357e-07,0.167858026035284,0
2.23566231590681e-07,0.200717390655981,0
2.49456797710196e-07,0.196318288340925,0
2.44890344171079e-07,0.194729742408248,0
2.48743378403378e-07,0.199361607884828,0
2.68279857892469e-07,0.199722027894168,0
2.46646438619262e-07,0.209163177954547,0
1.68646624377127e-07,0.173194510655962,0
2.12242718758088e-07,0.181537572426687,0
3.12958335706438e-07,0.202166300692861,0
3.83082798766965e-07,0.21036907174437,0
3.56973932039318e-07,0.206175034869363,0
3.51429210587868e-07,0.222447921623915,0
3.51117623993147e-07,0.215870349623561,0
3.5207613275557e-07,0.198692551634812,0
5.02481831905441e-07,0.217049351268137,0
8.30243570730408e-07,0.269224849618356,0
2.77747378574743e-05,0.129237246175503,1
0.000326003394873564,0.230740512590616,1
0.000403980644736478,0.154724240633182,1
0.000461465172950361,0.104760597104511,1
0.00161824253873512,0.107995577841974,1
0.00199790863773752,0.068093173588152,1
0.00185140533345633,0.068374209848023,1
0.00166358087165038,0.0638653991897535,1
0.00145288515297626,0.0544060934977191,1
0.00124200663784654,0.0494201646513092,1
0.00106935123913746,0.0451996475890172,1
0.00120866794984488,0.0525712769229463,1
0.00118577472232195,0.0489279261155832,1
0.00117168507726566,0.0542020289980151,1
0.000967057917906112,0.069751343030178,1
0.000817166222642437,0.0928459961251618,1
0.000824003090092355,0.0889965151379897,1
0.000828810845410033,0.0890357978752635,1
0.000984167834902326,0.109000961128954,1
0.000936785770933769,0.104704013984249,1
0.000895001067172003,0.0824236539832473,1
0.000810907417672745,0.0767517657870251,1
0.000781125984628594,0.0649451335644271,1
0.00116300289558603,0.0688674701482751,1
0.00113236231551466,0.0533245619089181,1
0.00114574127543649,0.0466883948606392,1
0.00187905280547911,0.0541268380459035,1
0.00213862543772941,0.0412126861809814,1
0.0021834458705961,0.0422511103557479,1
0.00239156371006738,0.0429799402683213,1
0.00230881616443518,0.0427388879738137,1
0.00187783684563291,0.0377810228091545,1
0.00234502525882438,0.0386900815061538,1
0.00304672252975586,0.039834648046817,1
0.00300723452812391,0.0461999532729273,1
0.0028468541441113,0.0508689967172377,1
0.00265824213160787,0.0550583563915583,1
0.00377530653707899,0.0597896070710104,1
0.0042423826035439,0.0382319715703007,1
0.00337899557889235,0.0279865858314177,1
0.00272214166581126,0.0219513661757124,1
0.00267237602633041,0.0180846394598464,1
0.0030055011850069,0.0238688238743352,1
0.0029447616058739,0.0259694457632169,1
0.0032321563341042,0.0274318315820562,1
0.00327283874423955,0.0277963680923991,1
0.00463639033813129,0.0200273714790818,1
0.00494770260270606,0.0187342692868902,1
0.00404009876821836,0.0181516029756327,1
0.0105549601587573,0.0253031512302837,1
0.0135303941827728,0.0144646464185941,1
0.0143151293579545,0.0152466036150701,1
0.0135476111896118,0.0131565269482414,1
0.0128558869946922,0.0123690533756009,1
0.0113698830964218,0.0107408787612443,1
0.0102973992201886,0.008658010914408,1
0.0101448861294243,0.00916868204247618,1
0.0103210393521278,0.0109440371695112,1
0.00984556096346294,0.0101518159981949,1
0.0065812396255521,0.0105564967927659,1
0.00551821570319677,0.0304035607856257,1
0.00382278987942028,0.0249069365457075,1
0.00516553132528952,0.0370546699193963,1
0.0055100710348019,0.0340275884769679,1
0.004986735472079,0.0300826676929299,1
0.00577847002364904,0.0378127134839678,1
0.00732803889970637,0.0269175770090551,1
0.00701521629492043,0.0187270884754055,1
0.006244727264482,0.0173365757090796,1
0.00856678587211232,0.00664434501822429,1
0.0259089861361674,0.0179944307439424,1
0.0267647937834638,0.0119083194142888,1
0.0299325829205747,0.0131927794779011,1
0.0300721261760156,0.0125889238260698,1
0.0309607040658396,0.0113353184845319,1
0.0286680976983062,0.00925046400017724,1
0.0276976286464461,0.011083769761904,1
0.0285896676044458,0.0116995903545836,1
0.0296879399892693,0.0120078729541258,1
0.0278138958239252,0.0200076425341105,1
0.00844763758258619,0.00632838317327694,1
0.00601375095516242,0.00745590303185758,1
0.00610552544506165,0.00869370856378161,1
0.00532035937829805,0.0108395767035118,1
0.00594640196394377,0.0194887690523405,1
0.00616764826937379,0.0288664299641559,1
0.00535581055957467,0.0239695107513509,1
0.00568030736923551,0.0283069598831497,1
0.006449454453778,0.0240547986693392,1
0.015785026085118,0.0274362329186698,1
0.0623621089070187,0.0472943838975149,1
0.0785284563060074,0.0241641018585224,1
0.0755386579068552,0.0188047647470501,1
0.0784372849863882,0.0195061182589742,1
0.0754341191685576,0.0184237060610399,1
0.0699893674384968,0.0176772877392446,1
0.0697099024986661,0.0179449589043336,1
0.0683252780989421,0.0173887171957795,1
0.0671516351293101,0.0186785842957749,1
0.0650073487694185,0.0211179088493285,1
0.0404809365621518,0.00935191691679299,1
0.0562952846738088,0.05032195274149,1
0.132515369363955,0.0783078634128332,1
0.144907152225072,0.0233533613762547,1
0.129386559873047,0.0215001728842946,1
0.11925202231131,0.0203012275297399,1
0.122820562964913,0.0148123500343398,1
0.159567491087253,0.0192100714471868,1
0.160270839340985,0.0189636001825865,1
0.127075353213977,0.0144673077795403,1
0.124990722131058,0.0144469212584398,1
0.126392366730408,0.00930832790907934,1
0.142452246027146,0.0116520358555104,1
0.134115744858578,0.0176520664663904,1
0.118356224613731,0.0144693808957504,1
0.102016175498179,0.011125188968928,1
0.104661387986746,0.0182433910115,1
0.0921244215477002,0.0120188044051164,1
0.128413741839956,0.016290705960082,1
0.163064500392123,0.0204414035751274,1
0.200594843122769,0.0262295069361605,1
0.209073803101683,0.0230407768670408,1
0.181542938281707,0.0196769544193958,1
0.16689414627649,0.0171302489595768,1
0.138332602856738,0.0146742711908271,1
0.133206734982742,0.0130830346443287,1
0.144409298771122,0.00990004874866386,1
0.21348811069784,0.0170600818385667,1
0.198319651629062,0.013510024452866,1
0.176617958273155,0.0116248739493733,1
0.131706747901145,0.0079654421486504,1
0.11691842513682,0.0111825239492438,1
0.124472839252427,0.0133882875810576,1
0.107521134618419,0.0133049220762902,1
0.108686235677336,0.0110928335510544,1
0.0890322259829144,0.00888952079109728,1
0.0827773059964802,0.0152898649612688,1
0.0717977877057242,0.014441844753426,1
0.0682133397408257,0.0220972773208331,1
0.0538168018023532,0.0183586291104647,1
0.0440361957457687,0.0155169594120734,1
0.041605417107801,0.0170284382667157,1
0.0620703877559826,0.0250263176640226,1
0.0454525687478241,0.0218425267170684,1
0.0431829635754185,0.0511351180218782,1
0.0516038655325619,0.0768137278879455,1
0.0552671012594829,0.11244750690543,1
0.0528941979786846,0.102927100223339,1
0.0393621576753822,0.0694181541830932,1
0.0269445130039786,0.0508205674740853,1
0.0117058634370608,0.018362902874972,1
0.00923539717988926,0.0201051062641249,1
0.0097412246340972,0.0227763229027386,1
0.009760211386677,0.0217280052801138,1
0.00982008745657044,0.022094100588404,1
0.00974439199257908,0.0258223983383189,1
0.00792616554043971,0.0220672442069487,1
0.00834157209980319,0.0210496807016192,1
0.0100906410653901,0.0315053931400879,1
0.0107485827983304,0.0400581667625583,1
0.0108224568232248,0.087789340941524,1
0.00568929381104506,0.0510350742318223,1
0.00408510306928456,0.0435384980249055,1
0.00443987466680412,0.0386563756960516,1
0.00527559462272598,0.0182788862313397,1
0.0132632090988203,0.0282217389018522,1
0.0143061531105364,0.0255711343790384,1
0.0134595439841854,0.0273527652503216,1
0.0149057599127993,0.0217628594529212,1
0.0162162372346063,0.0173241734939565,1
0.0119875197407133,0.0131340269017152,1
0.0126959488043053,0.0132882172115858,1
0.0150381829555305,0.0139260565956207,1
0.0192822970313419,0.0114336806085366,1
0.0158987154563512,0.00715827012890739,1
0.0224552682578256,0.0103324394330934,1
0.0198395150219533,0.00933573457532093,1
0.0198314617320271,0.00821647569537143,1
0.0248063497492949,0.0134476818748524,1
0.0281778947350814,0.0164475617123628,1
0.0289480178234036,0.0166826135269108,1
0.0287725914106309,0.0170724731949617,1
0.0271270398695511,0.0181716677499248,1
0.0202011816988984,0.020240235372066,1
0.0199599750144765,0.0288151736747873,1
0.0137944020970656,0.0215589525995123,1
0.0153552134842704,0.020720987294615,1
0.0157117796640223,0.0203903483178828,1
0.0145559996270798,0.0181017743693421,1
0.012945424046422,0.0145122994304243,1
0.0317321957230424,0.00873559550471684,1
0.11431257871142,0.0281338237956166,1
0.1419256885116,0.0260189203959568,1
0.16186004531096,0.0299010440569662,1
0.165080235465881,0.030367475506606,1
0.179722178254369,0.0262670820014932,1
0.182457920319375,0.0211276511316001,1
0.186360779386717,0.0204012249494742,1
0.131099931345685,0.0112645712135852,1
0.0747946297670294,0.00419613648970293,1
0.0567031908707577,0.00332468662457863,1
0.0556438713708383,0.00380158319104659,1
0.0611259019117763,0.00133118010933206,1
0.158802396907774,0.00976983891908856,1
0.172202272115307,0.00841984715299427,1
0.166341891365024,0.00903162714491246,1
0.154719003368221,0.0105833114118202,1
0.148354600524198,0.0101239408820577,1
0.133175684793213,0.0106869371519451,1
0.129484194876082,0.0118045413460982,1
0.126739112375546,0.012751280144712,1
0.116170803736875,0.0119314011641747,1
0.109927165100288,0.0237956867023255,1
0.0274638597232721,0.0102218807597165,1
0.0109431950021597,0.00545432020124425,1
0.0130574364582224,0.00669891681927033,1
0.017518073577121,0.0101865164051497,1
0.0254005751837484,0.00714373827502476,1
0.0341256043187179,0.00539608167766447,1
0.0416112433509706,0.00861069663085173,1
0.0585317452791311,0.0115166450925648,1
0.092229884748985,0.0178123675391891,1
0.125473813080861,0.0234879527038343,1
0.141046121752073,0.0274093491941028,1
0.145458234890772,0.0290267784858035,1
0.139972522862451,0.0261984708891491,1
0.145369810738962,0.02441968059892,1
0.111533066401725,0.0352942701161884,1
0.0412002981498378,0.0261338596854746,1
0.0241934151327197,0.0142380928859725,1
0.0150742871107844,0.0120268325615552,1
0.0144460458960296,0.0120948646752305,1
0.0145901595023119,0.0117714819265599,1
0.0157455754465186,0.0129454144092601,1
0.0161489996146961,0.0144309014044554,1
0.00718202162472491,0.00870847750563569,1
0.00528179797896122,0.0213083447077903,1
0.00369570619825564,0.0138036310296634,1
0.00368464962393865,0.0124086196767642,1
0.00962362285827597,0.0299108241149531,1
0.0119706386477825,0.0402552525989773,1
0.0146891776790886,0.0452041586974998,1
0.0156943409678811,0.0498807754582551,1
0.0169745178584426,0.0543337441022764,1
0.0170686055708309,0.0548347071892308,1
0.0159925706873314,0.0522639771455422,1
0.0100739576610442,0.042761401564839,1
0.00670132251070946,0.0311783837566293,1
0.00347252491385352,0.0432355915554244,1
0.00381162157566018,0.044201031615261,1
0.00891897575677398,0.0402305643658713,1
0.0085439761328875,0.0198058298968689,1
0.0085507056131575,0.013312085235267,1
0.0185761426152485,0.0156741393624266,1
0.0187189101210836,0.00706815578593811,1
0.0187552401627494,0.00632132720957981,1
0.0269932153899234,0.00732507482923657,1
0.0338654853208937,0.00756877994386548,1
0.0332765602793533,0.00747641823094698,1
0.041441168769878,0.00648741671476102,1
0.0525350650021431,0.00674995956363218,1
0.0463074240780016,0.00665285792880997,1
0.0368993192681804,0.004553719759932,1
0.035423585171166,0.00529336415833503,1
0.032814670142566,0.00741325253007253,1
0.029793139887532,0.00660350715653871,1
0.0322186016154572,0.00630504652654514,1
0.0334506650548363,0.00895094906158143,1
0.0342553499067703,0.0082637535186756,1
0.0368451131752696,0.00978285923834731,1
0.0356514096773945,0.0134716731579231,1
0.034421217049528,0.0120437282757182,1
0.0356159575674378,0.00952307473299448,1
0.0533214836401777,0.0105725732635452,1
0.105660501326304,0.0216453601416877,1
0.140499764088472,0.0270827464262152,1
0.152475526723467,0.0350527684471896,1
0.160730715570496,0.0315122070669827,1
0.132870911450717,0.0222516749802088,1
0.110283087977786,0.0236350118177273,1
0.11912108217986,0.022084970218696,1
0.107833424790872,0.0185780331790623,1
0.0949496097210488,0.0112683674041932,1
0.101580313505152,0.0129205339740837,1
0.0941241076435168,0.0107533727529742,1
0.151436379516572,0.0123273682680218,1
0.239953024668595,0.0163544940558265,1
0.24405249108041,0.0191331927555574,1
0.229840809156444,0.0188811348913709,1
0.198277492777247,0.0167834351540087,1
0.162814364918722,0.0133767679874939,1
0.1765081238982,0.0151293907974735,1
0.147222188268952,0.0174395734177902,1
0.111210819356334,0.0116003461842276,1
0.162534311530887,0.0177392252512589,1
0.179878017533552,0.0275929499098229,1
0.143360107826455,0.0187312604248905,1
0.159014932805958,0.00849140482954928,1
0.187289545878732,0.0110788993834283,1
0.190065614601969,0.0110573065047326,1
