Activity,Complexity,Tag
5.29453283494393e-07,0.361187723258871,0
3.19319960142959e-07,0.277751916964129,0
5.98689158253221e-07,0.347556595222013,0
6.85082395509572e-07,0.378890240247388,0
6.46441103630792e-07,0.375087630183251,0
6.58100281126972e-07,0.371043730417553,0
6.34245545103239e-07,0.348008352781833,0
5.21495619459654e-07,0.318948664265224,0
4.3095837612441e-07,0.281094739588713,0
4.78488267951601e-07,0.298943363896318,0
4.9573542055926e-07,0.309817897946401,0
5.04021445660666e-07,0.309584732874886,0
3.62540423447685e-07,0.280663659142737,0
3.2747397018617e-07,0.281312817699172,0
3.54593315649961e-07,0.280836603147024,0
4.74732234630753e-07,0.327763123340574,0
4.9708897852659e-07,0.346810986609546,0
4.90638993519595e-07,0.3445472401341,0
4.46384888324596e-07,0.335966787853352,0
5.23942058435563e-07,0.365249147626896,0
5.44682083584845e-07,0.351376573436366,0
5.24504022817815e-07,0.373709110762286,0
4.22187012502375e-07,0.335298487886196,0
3.3058967458881e-07,0.293558015418083,0
3.634862622842e-07,0.326865400437095,0
3.1396981084187e-07,0.294593138764057,0
3.23705393571929e-07,0.289677974110487,0
3.60158936377172e-07,0.309210239908398,0
3.6117730277153e-07,0.324049760127421,0
2.06960863650962e-07,0.248080263244176,0
1.29530244193149e-07,0.20553796419117,0
1.25808611785867e-07,0.19898769033554,0
1.28854645024209e-07,0.198351267422128,0
1.31412980112474e-07,0.194812386360282,0
1.68044364463659e-07,0.201419954975209,0
3.33736054174304e-07,0.284070828705694,0
3.61298513210663e-07,0.282905311013827,0
3.90533080190149e-07,0.28819250271999,0
4.06695796778841e-07,0.291383998428788,0
4.0350123107615e-07,0.292943234376879,0
3.43994853687219e-07,0.279160552890228,0
3.21455052222446e-07,0.274153570093565,0
3.18129713371798e-07,0.28052138647999,0
3.22324389388361e-07,0.278537860042827,0
3.41797541904857e-07,0.282553902059806,0
2.31679845008639e-07,0.22267055676025,0
1.91606879008619e-07,0.224330913183184,0
1.91653574833531e-07,0.219260698683874,0
1.85193281971569e-07,0.202574267512544,0
2.26149991296253e-07,0.224653598199347,0
2.88227619639913e-07,0.25029611636228,0
3.03836444262893e-07,0.244697211419888,0
3.14039357815143e-07,0.241989578622629,0
2.65562757814271e-07,0.238367188531836,0
2.15630390633563e-07,0.234763911546692,0
1.84857966207574e-07,0.232084709470615,0
1.75387158740048e-07,0.220288224928086,0
1.27742886980028e-07,0.193906602139359,0
1.34325011236241e-07,0.208140688309726,0
1.48140144903892e-07,0.213297228555517,0
1.22874598850904e-07,0.194053328700066,0
1.21476332115041e-07,0.195764146762129,0
1.41443640714849e-07,0.219889881827954,0
2.34131996771637e-07,0.264101781496725,0
3.08890025399381e-07,0.301760996731748,0
2.95990924722558e-07,0.308160916516969,0
3.40806994299809e-07,0.310603249726785,0
3.76859772671565e-07,0.30060260817452,0
3.93074152726118e-07,0.30598844668108,0
2.85350237811758e-07,0.254274104775494,0
2.80559569072448e-07,0.246030867369964,0
2.82003041340937e-07,0.247729216400348,0
3.10303691822183e-07,0.265228249095551,0
3.29383407175591e-07,0.279776883263781,0
2.98511133166545e-07,0.268806872225026,0
3.02161355735198e-07,0.267360029607582,0
2.56235887743216e-07,0.25859262833358,0
2.32876177139961e-07,0.259694276485171,0
1.24576636830741e-07,0.201502044562465,0
1.21488627026388e-07,0.201784976851596,0
1.36984686199847e-07,0.219710983754455,0
1.52769489503413e-07,0.243009189002257,0
1.49855968087361e-07,0.229311254293058,0
1.38938956148824e-07,0.222057158509633,0
1.83268321104186e-07,0.241168353977473,0
2.03890861545046e-07,0.243262731929509,0
2.27189718546687e-07,0.259705535445135,0
2.68908339801783e-07,0.294241056408354,0
3.78514493871373e-07,0.348090550540784,0
4.57773081007059e-07,0.366551558687053,0
4.63564356824338e-07,0.363988727290314,0
5.50191073205248e-07,0.392440916896612,0
6.07145076675053e-07,0.391842203583608,0
5.85495103895105e-07,0.376124726695123,0
4.84367967777756e-07,0.346078292150192,0
4.72290639104768e-07,0.350126624964697,0
6.03370290509626e-07,0.379322441213294,0
5.7181732549967e-07,0.360806101320837,0
3.72599896367558e-07,0.280877870553208,0
2.25657077123179e-07,0.227197617404108,0
2.45543164793485e-07,0.228967228392693,0
3.03870596794412e-07,0.253520869204881,0
3.0179909051906e-07,0.253697257291442,0
3.87698544265171e-07,0.270532146918821,0
4.71693031898714e-07,0.296795089278555,0
4.98577283754636e-07,0.305210511913812,0
4.74560851018045e-07,0.296815311839035,0
6.50911980484069e-07,0.353311311888017,0
6.60904887015238e-07,0.340257907978541,0
5.67679156398889e-07,0.315142213030709,0
4.79427027899766e-07,0.284833617238358,0
5.12483822015731e-07,0.289661275889316,0
6.19743014119398e-07,0.314296273188895,0
7.65786690352175e-07,0.377498596123249,0
7.65557185340373e-07,0.355173823929502,0
7.79026074433942e-07,0.355578831847709,0
7.72900973144952e-07,0.361215781445288,0
5.91648023973404e-07,0.304940694360933,0
5.74410309883547e-07,0.314543001291731,0
5.67815269760868e-07,0.31058808238037,0
5.44099751874706e-07,0.304727820705552,0
5.4540686239917e-07,0.302629534200755,0
4.69038697149128e-07,0.296286297746635,0
3.72922917220208e-07,0.266129798484341,0
3.56173894808617e-07,0.276116881161277,0
3.6514843494543e-07,0.268365580233364,0
3.71597550615259e-07,0.25999156591769,0
5.21644151924002e-07,0.302415883430756,0
8.65762451488781e-07,0.388075269876032,0
7.73441949244198e-07,0.349102236505792,0
7.56702986305529e-07,0.354665942778975,0
7.25975022266025e-07,0.341823641260301,0
8.9213367022579e-07,0.367772244240189,0
9.28705070312526e-07,0.355374585419018,0
1.01282014743009e-06,0.315844560489286,0
1.24231033082342e-05,0.521554168983497,0
2.21615156065769e-05,0.440286839099872,0
2.18765160842161e-05,0.419943766701296,0
2.18115721270454e-05,0.408626573021707,0
2.63535146856247e-05,0.399301543252575,0
2.59379053265017e-05,0.350922337402602,0
2.35285762429586e-05,0.326146642366437,0
2.22282101604177e-05,0.316376589485037,0
2.54342709842619e-05,0.31691498075249,0
2.23192278988236e-05,0.254069960052103,0
2.565695157512e-05,0.237525757314593,0
6.19871582876686e-05,0.427470222933159,0
0.000127404297664838,0.527505297609702,0
0.000124439330241408,0.276424992977562,0
0.000126769169742511,0.217478078791453,0
0.000173556786723957,0.247120376914404,0
0.000192615187917113,0.266010095980645,0
0.000236556844020356,0.275326057950375,1
0.000413186630697351,0.320026088894071,1
0.0003912612856832,0.209653906585828,1
0.000320839629193086,0.188031660776694,1
0.000322416201949318,0.164770646859233,1
0.000373579802913123,0.160629321314478,1
0.000287734277256189,0.135251828995932,1
0.000370072085570055,0.110561921560037,1
0.000417009781815049,0.0890144130304608,1
0.000420486060076275,0.08129686082425,1
0.000496298790783901,0.0914521750737521,1
0.000517700863377616,0.0994889112276695,1
0.000548658309577773,0.072889413118438,1
0.000952907217312435,0.081380150714924,1
0.00100006150183343,0.0570209058866249,1
0.00105726054127189,0.0456025790634169,1
0.00116640117758404,0.0464171812976067,1
0.00115071024890919,0.0478173946528727,1
0.00169486826711391,0.0609444864016606,1
0.002505536094198,0.0692875025721617,1
0.00221955161183467,0.0427063015971336,1
0.00189929556930202,0.0250063260263494,1
0.00307037913011864,0.0331403887938341,1
0.0033315706987176,0.0303840948852146,1
0.00295908739337986,0.0321707958689333,1
0.00241143975234003,0.0292239324574987,1
0.00236612451979415,0.0268046356241341,1
0.00217522393649818,0.0223930097283289,1
0.00224042395308119,0.0214160316514032,1
0.00219061969837995,0.021257645471829,1
0.00187666550679475,0.0226581787443751,1
0.00170843724523083,0.0239634194217198,1
0.00138046450402291,0.0242048621531046,1
0.00135716862263819,0.025930468290637,1
0.00144932995135895,0.0250939935815447,1
0.00142700034109054,0.0241806753980648,1
0.00156598731346324,0.0275694405793963,1
0.00162953388875913,0.0251047678062842,1
0.00202569862986782,0.0353236515542419,1
0.00290299433412239,0.0431821751642807,1
0.00262828972105654,0.0298242534877948,1
0.002643660063147,0.0283791609696613,1
0.00312375474000313,0.0321735229003996,1
0.00295754752403877,0.0337477649417037,1
0.00255561431690554,0.0320034305701468,1
0.00297583621907286,0.0382647552302218,1
0.00237968948554748,0.0192453919508107,1
0.0102623553549015,0.0297168540273532,1
0.0109928263654458,0.0162665485615041,1
0.0110911425505071,0.016183981554797,1
0.0102329576282389,0.016229533903077,1
0.00992561500858869,0.0163772182518903,1
0.0113593314636309,0.0188099679441595,1
0.0126733194689092,0.0204540064767272,1
0.0143650058828862,0.022173007658235,1
0.0143450928602941,0.0216819404599111,1
0.0139595706836161,0.0252665296996361,1
0.0036597815855278,0.0124258201263169,1
0.00560296274315673,0.0154503801810699,1
0.00971141930047972,0.017002545523091,1
0.00990312495506742,0.0163514098194049,1
0.0165075691502978,0.0240356607842472,1
0.0183095818182619,0.0133055176716612,1
0.0187410937624618,0.0141989695699872,1
0.0176311964183652,0.0136338701497925,1
0.0179575142148295,0.0116867873886877,1
0.018502587209532,0.0119973060829246,1
0.0155462896791998,0.0102373723965352,1
0.0154370683974594,0.0163906411581196,1
0.0142957785923351,0.0183920191174655,1
0.014596554329445,0.0197342760585251,1
0.00910560985194133,0.0159157351498191,1
0.00628362121595527,0.0345019361945079,1
0.00664369465327055,0.035176759024709,1
0.00661238169424441,0.0328423857223915,1
0.00537455254626636,0.0553667795059862,1
0.00297111261882657,0.0553338354858539,1
0.00281711581463619,0.0559365257632737,1
0.00320557815009035,0.0864449733006083,1
0.00329056432080747,0.0517730876676161,1
0.00350000180384016,0.0359596135810132,1
0.00653464413580218,0.0443348223847855,1
0.00634890021405523,0.0255023519962817,1
0.00576851123204787,0.00937448274536145,1
0.0140449085405854,0.019845374995202,1
0.0136428542349091,0.0161777695057397,1
0.0137843813230501,0.0166665257042376,1
0.0138481192328741,0.0169916769162203,1
0.0136088982325813,0.0158463174104888,1
0.0116018406859274,0.0138318774582508,1
0.0107698803678138,0.014220957602447,1
0.0109687676590783,0.0144439342738682,1
0.0101273962465284,0.015857417855721,1
0.00979753926619303,0.0330799965681274,1
0.00483458144536819,0.0212519597623495,1
0.00514485797524739,0.0202222257270559,1
0.0057321116781854,0.0161167383876041,1
0.00937093874973717,0.0164031532459619,1
0.013325290694505,0.0236595487963877,1
0.0157921232269481,0.0290920825715376,1
0.0150586161924653,0.026231836266513,1
0.0256754121237056,0.0358650034056563,1
0.0261714021805723,0.020675032281689,1
0.0226861250665803,0.0162380636873193,1
0.023176385308277,0.0131590582925806,1
0.0250999745604423,0.0162218536958812,1
0.0232586964185013,0.0160670237643502,1
0.0239543464685274,0.0186422346046116,1
0.0235739873951868,0.0180759540297783,1
0.0261759327830001,0.0176854258699184,1
0.0289543643722996,0.0206020545059078,1
0.0174198666342206,0.013689284310661,1
0.0166774522057133,0.0215116067772796,1
0.0113606461816007,0.0219475545837423,1
0.00710330349655671,0.0325010271702074,1
0.0070507444047748,0.0307013910195939,1
0.00748386530826612,0.0268938095717287,1
0.00842041893198151,0.0328388028921001,1
0.00471558644295202,0.00923019854085501,1
0.00682451498089979,0.0184395620984329,1
0.00675547911727492,0.0187553354100558,1
0.00670043445554003,0.0201085255800316,1
0.0063497422103189,0.0201975308971385,1
0.00648302997315754,0.0203325861606974,1
0.00664454060712957,0.0201791278234446,1
0.00706206392379527,0.0189019028425592,1
0.00762156249823951,0.0217125563228298,1
0.0063065391433202,0.0188410054749271,1
0.0051239198543623,0.0340123202509899,1
0.00236352379768854,0.0262598297533461,1
0.00273058440741451,0.0274698847755874,1
0.00261288292542327,0.027664762969307,1
0.00292142800677697,0.0241579141849747,1
0.0030662934024163,0.0240641786889841,1
0.00224911268695075,0.0196811240640204,1
0.00270526870147639,0.030018633344617,1
0.00323655898481342,0.0489964402593944,1
0.00273981036619345,0.0425848142860025,1
0.00250967222967077,0.0396834245411323,1
0.00253658761559538,0.0485377028526827,1
0.00272414136468574,0.0601233752120243,1
0.00314655859344191,0.0638421000725727,1
0.00236200948586661,0.0922629575736455,1
0.00114542003916378,0.100225598621707,1
0.0010397616781732,0.0934184364409364,1
0.00110710705060284,0.0875637442495303,1
0.00114213002707078,0.082207998544132,1
0.000870359189114074,0.109783848637897,1
0.000471475578383853,0.0776517795522582,1
0.000372227822047603,0.0651496395445957,1
0.000377034787629808,0.0583220930519325,1
0.000489437134515145,0.057606038190292,1
0.000494569684128537,0.0467342047671072,1
0.000495659258799492,0.0462088533040195,1
0.000495310558720489,0.0506398828364636,1
0.000472721472668915,0.0556773976078691,1
0.000423953237495094,0.0584937381126273,1
0.000448087549246609,0.0616928095162588,1
0.000413175468408141,0.059781034297474,1
0.000469331175951701,0.0695621152103359,1
0.000564419767949468,0.0581268963960844,1
0.000656448634896912,0.063283910786633,1
0.00071727688477634,0.0656686603497556,1
0.000874583720031781,0.0624726444728234,1
0.000969239525188982,0.0522191543464155,1
0.00115896835835229,0.0383440053983245,1
0.00136239404838447,0.0415247773569181,1
0.00150159500847313,0.0421594299275825,1
0.00150248809332241,0.0404846659773856,1
0.00159456925263906,0.0407334301258893,1
0.00162431774504996,0.0480127232363471,1
0.00142905781576727,0.0449661736695385,1
0.00139014509198709,0.0479456440302605,1
0.00137679344033761,0.054931127099964,1
0.00103947571902679,0.0573036767443526,1
0.00053049936199797,0.054346658984508,1
0.000772766969167512,0.0519609456441797,1
0.000891925749241334,0.0513341641555191,1
0.000873667518141162,0.0548906197766645,1
0.000854550554422396,0.0601252597296121,1
0.000872990493880225,0.0613576241289215,1
0.000838219971931742,0.0695274145043827,1
0.000806642292287113,0.0741082307582755,1
0.00078544819494933,0.0689093535175269,1
0.000969028405043756,0.0633465440662364,1
0.000873636918093877,0.0686908583454931,1
0.000517685770690888,0.067204279406338,1
0.000936592177949351,0.0598674505490383,1
0.00216801350849221,0.0672482272319786,1
0.00245406231671398,0.0650836665371819,1
0.0028469402954362,0.0632509975549864,1
0.00247641729771824,0.0456570864702138,1
0.00231185754895599,0.0401228291724308,1
0.0021956931103391,0.0367234751378576,1
0.0022134300978034,0.0372016035492916,1
0.00182591106359057,0.0338753887051862,1
0.00139250196799824,0.0202424613113696,1
0.00155217449136311,0.0324040418890559,1
0.00133341685090839,0.0349753449764129,1
0.00146134966632574,0.0433635311340521,1
0.0011079428140916,0.0341871806870921,1
0.00135606087348026,0.0496938296618419,1
0.00225836423864328,0.0697960071216302,1
0.00228682771659665,0.0602414563780197,1
0.00711610950264863,0.0165407706445585,1
0.0275793103381516,0.0345569334852265,1
0.0283875842971894,0.0279221898128698,1
0.0274674747828294,0.0247309323253027,1
0.039897125181032,0.0254660758733,1
0.0662582267135572,0.037687493463684,1
0.0715535252855151,0.0368105842136832,1
0.0792373515734493,0.0301517160387172,1
0.0709401680606964,0.0250677757978835,1
0.063188598246767,0.0220857652168423,1
0.0512176107746495,0.0204864709623445,1
0.0509982378924843,0.0232664077657062,1
0.0471699290680463,0.0212321149088931,1
0.0316713253137791,0.0126501377276388,1
0.0569199727404956,0.0185304086347479,1
0.0661269437236925,0.0147130015640028,1
0.0661572462729948,0.0149288674909247,1
0.0636625761719451,0.0161044242129049,1
0.0486283820645602,0.0133890469170844,1
0.10190370702963,0.0131446153998863,1
0.241313711814923,0.0299985690246341,1
0.277195234993575,0.0300118621055083,1
0.281832949021909,0.0316357452025142,1
0.266841315401642,0.0299194848925447,1
0.297393702207671,0.0353178034229285,1
0.268184927115668,0.0293170799288851,1
0.237298867167781,0.0244087694173854,1
0.176685394677286,0.0154674266463623,1
0.187851387422926,0.0165640098743674,1
0.182389058844013,0.0119408191380874,1
0.190257444232953,0.00767988410604087,1
0.332112870914379,0.0136020402032008,1
0.352695733980992,0.00801178872828829,1
0.375190259047257,0.00919961336003711,1
0.378583329458592,0.00858313590065289,1
0.373248045264305,0.00939925456982089,1
0.347382328240046,0.00776448056676271,1
0.414294327699032,0.0115874115146776,1
0.386321439532829,0.0105336427039848,1
0.362841395982983,0.0127513359557935,1
0.360461733514571,0.0165037163573733,1
0.177357667264596,0.00959485229109749,1
0.149307814005261,0.0307488272600864,1
0.164341311812448,0.028228950363459,1
0.164792407574917,0.0250595473870042,1
0.14598589588906,0.0227857373248597,1
0.142096144384248,0.0255679984948511,1
0.128657769817541,0.01877832491435,1
0.112841463412157,0.016996035320252,1
0.150310060015404,0.0214475607901049,1
0.210940565198243,0.0287509755536456,1
0.198772468788349,0.0259757829670805,1
0.228065366633096,0.0282808681252999,1
0.163811515564016,0.0238533563480511,1
0.156903716466276,0.02591482675873,1
0.140135996459713,0.0233568767987631,1
0.0775856558398532,0.0139954794035561,1
0.0684322430205151,0.0160007609281351,1
0.0652097024913117,0.0159349720845048,1
0.0624623830247792,0.0219660642281364,1
0.129039688585457,0.0309505330030838,1
0.160283942789211,0.0281479029969777,1
0.128998152716882,0.0254142161297225,1
0.123683516416261,0.0253800445215301,1
0.10073838616008,0.0239578419676997,1
0.130575432674304,0.0239196097021662,1
0.171554307697968,0.0263659752426236,1
0.174644872054552,0.026173640403971,1
0.200312041564253,0.0277457017635752,1
0.208571253165554,0.0277098752890604,1
0.141216999508312,0.0241515869715948,1
0.0714433357223782,0.0145482018425671,1
0.0739258285566237,0.0137104429366176,1
0.0719907745807963,0.0130364420102324,1
0.0458182932338786,0.00765587390774204,1
0.0384598667234792,0.0106499633234065,1
0.0375494166114608,0.0146358093362332,1
0.026354302517712,0.0112025510075898,1
0.026272276860804,0.0137104731924821,1
0.0185901886345674,0.0127031050812547,1
0.0240643524100196,0.0211690733671345,1
0.0178455305620841,0.0162007684585182,1
0.0182358533080098,0.0140172754540747,1
0.0196488846333158,0.0116798693496934,1
0.0253612649607546,0.0138695530881115,1
0.0335827217424758,0.0136270709419443,1
0.0580797200168761,0.0247909506447784,1
0.134397083924713,0.0413870043253457,1
0.16015631717271,0.0382232432913268,1
0.189125230851797,0.0432148861386073,1
0.177938220566106,0.0391354495805929,1
0.166153040427051,0.0350508309076337,1
0.139167448984036,0.0319646487095251,1
0.120796485732314,0.0255854694705533,1
0.146173576194268,0.0290203211551241,1
0.0990857506978454,0.0189950807789563,1
0.085819350041046,0.0155395238355799,1
0.10294240074709,0.010735869000334,1
0.162434146120867,0.0168987790781691,1
0.162193961711316,0.0152468596134714,1
0.169424542568899,0.0141378393149387,1
0.195223145023164,0.0166343585058838,1
0.196190580769113,0.0138473502387166,1
0.198523229309351,0.0131096874470328,1
0.195891341910948,0.0132717987045796,1
0.201118932390597,0.0117578820226978,1
0.203738392127881,0.0110630632199492,1
0.196291593823356,0.0158892698144116,1
0.136239208381288,0.0107475570413082,1
0.129135216357276,0.00934064818728545,1
0.13129091671014,0.00962147633233149,1
0.204145078506137,0.0190067822219244,1
0.217814506086387,0.0167705753666432,1
0.215637213803281,0.0194287392156012,1
0.215297126021554,0.0191433108265948,1
0.191463433823525,0.0212227105862976,1
0.147635858136528,0.016386383278806,1
0.156190519290408,0.0174876752175359,1
0.197100626262305,0.0194152570966895,1
0.206715747410325,0.0171946204939779,1
0.206599673821912,0.0183022036696558,1
0.144742294667184,0.00997609966599266,1
0.233015589045955,0.0189733910968778,1
0.410057337712297,0.030978768777069,1
0.519779226755028,0.0369877449989563,1
0.526848237311309,0.0367939274463512,1
0.432620730801991,0.0324096791959186,1
0.40140885537059,0.031537883189524,1
0.396852937087427,0.0330009252922077,1
0.249385443240381,0.0305774283536495,1
0.205621826575142,0.026342376927802,1
0.165606773581181,0.0266204523907843,1
0.151230324852124,0.0332772356851279,1
0.103694884061203,0.0239252304830024,1
0.0728111441506677,0.017953661438305,1
0.0601147646794899,0.0169257530776287,1
0.0598527499096968,0.0162766540925875,1
0.0552176351299424,0.0158724957265076,1
0.0565734595972398,0.019017716693475,1
0.0788812059913376,0.013258068685678,1
0.11826752720819,0.0131824058179453,1
0.118781196171235,0.0147386000242397,1
0.122354051630602,0.0150775660985126,1
0.124636981943635,0.0151931050161202,1
0.119420246454927,0.0138610819314848,1
0.135465259969996,0.014885638847024,1
0.154246013265546,0.016713090928359,1
0.165606641829781,0.0179368322409324,1
0.166880041474821,0.0165529178359482,1
0.124551355149791,0.0226544175821585,1
0.0262162403170315,0.0123106027919981,1
0.0276307908799481,0.016635550973382,1
0.0282647884971705,0.0149302229549727,1
0.0306847871753205,0.0191492923355174,1
0.0173366538813919,0.00996599929641281,1
0.020728656559035,0.0132755963013194,1
0.0252609424403964,0.0155692609558223,1
0.0401258320711474,0.0234155148377333,1
0.0460695948065898,0.0254182233371046,1
0.0459936427180297,0.0272074585342185,1
0.0523719069080981,0.0357593100292645,1
0.0886933467447916,0.0483045973830599,1
0.118090709694609,0.0705244817354557,1
0.123470106671288,0.0666454372835837,1
0.148377676532696,0.0583433503568669,1
0.135123277001578,0.035369568652539,1
0.163048923391802,0.0244206029276715,1
0.209043954659365,0.0230839378977355,1
0.185922886963953,0.0192593815395115,1
0.137203645734171,0.0135954657891097,1
0.107537492583995,0.00998966093639191,1
0.102037858675165,0.00964477548515331,1
0.121038960579032,0.0099731411364987,1
0.125037949258558,0.00825926653416927,1
0.14973543839201,0.00984241172910359,1
0.16350518483246,0.00853572228582086,1
0.274616251492899,0.0101929803000551,1
0.41477928015547,0.0121919473877074,1
0.385510598570542,0.0129032452296691,1
0.369837160243011,0.012497058656481,1
0.374811243376908,0.013324592138588,1
0.377795633593891,0.012917624672143,1
0.453824096692348,0.018366414423147,1
0.461115314963164,0.017128976462647,1
0.411228006680258,0.0163108203264136,1
0.392440475557628,0.0179235900290569,1
0.331548722409432,0.0234219772013988,1
0.22003421696936,0.0221672661131665,1
0.228680857247584,0.0226593015473285,1
0.237515680325781,0.023987497414669,1
0.240698399582461,0.0237827167401463,1
0.268928634778091,0.0307172497715381,1
0.149206427687073,0.0171409008642199,1
0.12407707963212,0.0230018007284517,1
0.158362836924839,0.0184222038312724,1
0.25592838866225,0.0325421009553961,1
0.217969614179428,0.031055922045185,1
0.169347979030677,0.029895876570454,1
0.154228754982566,0.0275083769255969,1
0.140138246555661,0.0249212956272805,1
0.0981702753132892,0.0173126770409056,1
0.0964655532468791,0.0178408256467514,1
0.097125198537862,0.0147587579550214,1
0.0666211481520851,0.0108047140255774,1
0.0623695704841566,0.0322946474454622,1
0.0766483299254393,0.0300615603771794,1
0.0728889925676063,0.0194001850830712,1
0.0749647267876387,0.0172288585944147,1
0.0720525840310433,0.0162150744960931,1
0.0563824397156739,0.0126434042945414,1
0.0538687889069629,0.0121327833062316,1
0.0394859847289685,0.00859986857878256,1
0.0476446379884204,0.0137768537242746,1
0.0647396866591881,0.0173840319284523,1
0.073655196457832,0.0204929445638091,1
0.0705769916211122,0.0251338947182716,1
0.0899683647266626,0.0381285682200481,1
0.0829721505959523,0.0405231529874405,1
0.0711597644835995,0.0364277251690682,1
0.0632822992057611,0.0346624036615162,1
0.0406856394596121,0.0219236484570008,1
0.0259516201406474,0.0128651141950103,1
0.0226708937783227,0.0120962264975148,1
0.0331076890556061,0.0135675298534603,1
0.0383520804507615,0.0120987555477972,1
0.0312485063378659,0.0113141433610759,1
0.0215846814213636,0.00921469877998426,1
0.0197896412795902,0.0099871749035044,1
0.0360437770954038,0.0178684799662606,1
0.0458606357070078,0.0178057914505745,1
0.0419251192171977,0.0174060945052263,1
0.145267058848214,0.0143620462331545,1
0.426580130598672,0.0358737992648272,1
0.635685582034033,0.0322413133053598,1
0.619358542167217,0.0307391579849251,1
0.57548651277782,0.0250887563682483,1
0.577888699456755,0.0253090364257519,1
0.481591135532505,0.0195793275761741,1
0.427843007023253,0.0174028491694741,1
0.35572156923336,0.0144818494403464,1
0.21782698785058,0.0078197142049913,1
0.209040528371468,0.0149112373207264,1
0.174335950665951,0.0087478171571609,1
0.140415280944021,0.00508340572856734,1
0.156586253339779,0.0068398683545937,1
0.15915859556389,0.010328768221629,1
0.128001402874879,0.00459109395563288,1
0.154218525683762,0.0066987177028501,1
0.152239473616822,0.00678460679517162,1
0.191328776477109,0.00779478060910552,1
0.444552642649087,0.0182354329955025,1
0.449875930410374,0.0120247005018569,1
0.445042442314339,0.0141523031383717,1
0.42559185810065,0.0177931566991579,1
0.367559225404619,0.0155215679881709,1
0.327846474907629,0.0136268117420249,1
0.318568268774263,0.0174333187155866,1
0.321223550543867,0.0144237268455493,1
0.352629841859508,0.0155239001853101,1
0.347257922854564,0.0185271215885381,1
0.192662988952346,0.0114344809321953,1
0.184007984628991,0.0255394975684115,1
0.325949429762015,0.035905624945974,1
0.530034056398544,0.0497673057791979,1
0.750782906964846,0.0612782021436909,1
0.922497385673921,0.0680061356555212,1
1,0.0619012567449609,1
0.904287284138823,0.0951549237227411,1
0.534084860064928,0.0700228229779864,1
0.299286096545869,0.0498394197502887,1
0.19817721017464,0.0387844730383454,1
0.11744585253323,0.0201356992262135,1
0.135072688682248,0.0315801564729029,1
0.127929154902451,0.0301321859709763,1
0.100974965101533,0.0271049934539823,1
0.0696920500627035,0.0145134401447562,1
0.0622113169058298,0.010752611788994,1
0.0625607762072816,0.010693287096044,1
0.0625986896710839,0.0104304731992869,1
0.0596111661423916,0.00983484735417582,1
0.0674988300407469,0.0124952695575186,1
0.0667013617244777,0.0138428635481113,1
0.0664760370868545,0.0158171239805698,1
0.0670553969842853,0.0141537934177297,1
0.0759591211208496,0.0121215104646043,1
0.0734665613308025,0.0175991567120737,1
0.0541548378613575,0.0174969532411814,1
0.0578014088754936,0.0177432994329043,1
0.0592089913668273,0.015225392966322,1
0.0602577427325923,0.0175329889857138,1
0.0563096154619989,0.0168616003542723,1
0.0573873395595791,0.0186661880376555,1
0.0438912495190957,0.0110353120212004,1
0.0350873664493127,0.00860417221906521,1
0.0521635681844078,0.00982743004094085,1
0.0757701358100308,0.01049367306363,1
0.0751553064429491,0.00947195373636332,1
0.0863872361116127,0.0108519790789637,1
0.0843347852838189,0.0119660529893349,1
0.118134842425433,0.0136618374824282,1
0.109823767850484,0.0103048712939898,1
0.124968643073796,0.0118278744748039,1
0.111666350396578,0.0109154919183058,1
0.10574422550095,0.00626850590364058,1
0.232972550734494,0.0184964729174978,1
0.363845853505778,0.0245715342143629,1
0.320105404691659,0.0154938559772629,1
0.319336038304958,0.013975126712455,1
0.304210232841225,0.0134453122730086,1
0.315417685795413,0.0144829196783418,1
0.296180092031844,0.0151109146418033,1
0.288848648983052,0.0141484402826438,1
0.276023582045354,0.0112432084891399,1
0.30587104730173,0.0138299459618318,1
0.3309978438177,0.0129560193824563,1
0.309981685522891,0.00763672687119584,1
0.354696174093398,0.0123709468985996,1
0.302298001265276,0.00939074165520762,1
0.314826691588496,0.0097164491124073,1
0.305196707611587,0.00847923722462666,1
0.314605643954609,0.00880671308896583,1
0.287474638902623,0.00837420892950548,1
0.272721079120601,0.0113661681531127,1
0.238393508325679,0.0120678416616492,1
0.173289692331288,0.0127457313942089,1
0.239935904212554,0.0333029963985035,1
0.220535851960309,0.0319038708123664,1
0.229014837309301,0.0386090099183232,1
0.177162328347835,0.0382992372084753,1
0.14841954597153,0.042416793851135,1
0.16622838173832,0.0451520092087855,1
0.247172701519761,0.049020312819479,1
0.375256601197518,0.0651389040071256,1
0.407139138971188,0.0617958450096056,1
0.392034886823603,0.056330046418725,1
0.438866015221966,0.0731924796034035,1
0.43972428795238,0.0607613895009305,1
0.413462833132652,0.0633004541928258,1
0.295329681295407,0.0472812564390319,1
0.147613560963589,0.0307163664964041,1
0.103171544112022,0.0216954019261167,1
0.120233071920598,0.0517328197574423,1
0.109485263402596,0.0454271958665785,1
0.0866647393700186,0.0397186320948579,1
0.0706896830756348,0.0354172662598181,1
0.0351153192748891,0.0191364056060239,1
0.032189022681552,0.0248828637943481,1
0.029413775739439,0.0264577439816797,1
0.0171745848387508,0.0221387494007256,1
0.020714798122317,0.0193770074473254,1
0.0263023839942886,0.0168012278161302,1
0.02689981226306,0.0140335953945691,1
0.0288501350118459,0.0163144265850623,1
0.029569404319544,0.0167833156440143,1
0.0308401722727141,0.0152766858134393,1
0.045315910263369,0.020402888232261,1
0.0356539196938648,0.017912264398962,1
0.0278935355776395,0.0137157159042327,1
0.0301438771644515,0.0101546188877559,1
0.0371769374052962,0.0133545534917649,1
0.034019513225059,0.014313804644792,1
0.0332738041130133,0.014347253041411,1
0.0383786579771174,0.0107544485694902,1
0.0471251208114505,0.0134473411815506,1
0.0479453274450585,0.0146888859774629,1
0.0501633656562608,0.0139423749057335,1
0.0552625467877361,0.0123780309956149,1
0.0637781566997629,0.00944411569501207,1
0.126690368843013,0.0265604190625222,1
0.162862440440693,0.0331330774652237,1
0.171488421790009,0.0328824473207775,1
0.125884934530113,0.0252081925938502,1
0.117096997871177,0.0248961386422055,1
0.129028992982269,0.0273999903736276,1
0.104599909270735,0.0204304799575548,1
0.08874058011515,0.0183215144233194,1
0.105715927583664,0.0197041873658938,1
0.103224715315156,0.0177206045675569,1
0.153132537885659,0.0123127478468069,1
0.325193974253803,0.0212568665950038,1
0.32872515926077,0.0209147770043128,1
0.270021995141667,0.0168886644492169,1
0.257569722827888,0.0180666268842848,1
0.266436494844612,0.0188057154171748,1
0.229601773150281,0.0174351055188921,1
0.189573293045584,0.0144797783733768,1
0.190695298787594,0.017214299782172,1
0.208767998095466,0.0203985010833887,1
0.20427224125996,0.0467151688735193,1
0.0551308862859717,0.029083140471846,1
0.070318924765236,0.0322630458605703,1
0.0725542488026275,0.0218312449864761,1
0.081069903894231,0.0231652071959646,1
0.0902570180128991,0.0259295567615575,1
0.115470029874903,0.014320462134224,1
0.209209038866199,0.0288439246405279,1
0.258516554310837,0.0356107760879103,1
0.281024554462706,0.0375955275836618,1
0.245715014161281,0.0310967709094461,1
0.30317571523931,0.0303943629142434,1
0.336857284640966,0.0160431715161042,1
0.424686146251243,0.0231852848780306,1
0.42038284826181,0.0202556106058832,1
0.364305121199427,0.0144819110489802,1
0.602489192358388,0.0253234348597961,1
0.837665280096356,0.031478253784613,1
0.967493762078228,0.0326789372760139,1
0.893234903528421,0.0288166672255487,1
0.860923846713255,0.0268520856507742,1
0.533016838613997,0.0194087841592927,1
0.309961443352234,0.0196263862485447,1
0.365957564342795,0.0231359080294488,1
0.348936209076209,0.0244895947392099,1
0.220223325780079,0.0213983204524934,1
0.205070331021158,0.0340913657339023,1
0.186988911916385,0.0232565385012395,1
0.202001962564328,0.0207735209654612,1
0.19259756078965,0.0159927540955662,1
0.189800700645483,0.01272897926829,1
0.201967754162249,0.0129887235761055,1
0.216569897097945,0.0137415727439175,1
0.198204167941621,0.0103586495912627,1
0.195714980635572,0.0109659389962962,1
0.203643231882258,0.0116760159229281,1
0.19213756552885,0.0112565738995526,1
0.170772661815876,0.0148989453118634,1
0.0887033530023545,0.00622081721463548,1
0.0972612296605436,0.0101161982650785,1
0.094244787837681,0.0147547375577355,1
0.0545901758657257,0.00769968592961555,1
0.0635156175681457,0.0108144591189856,1
0.0656289028209692,0.0145595690979942,1
0.0503016800607191,0.0126882829440247,1
0.0547558024896478,0.0133934774504153,1
0.0693424241247166,0.0144125330093441,1
0.0608862505595056,0.00916792503876535,1
0.0640760755037178,0.0121001572724966,1
0.0687696763755912,0.013415928566654,1
0.0709676473504945,0.0159956272542919,1
0.0484690789368391,0.0129768989392646,1
0.0464887763545904,0.0165151176483261,1
0.0471635332059842,0.0175478976332362,1
0.0589074939979035,0.0132339091496198,1
0.160714750872712,0.0290454345413976,1
0.182807140901683,0.0302526205200547,1
0.233936083678791,0.0423310063224526,1
0.33500057879099,0.0472606016282549,1
0.539256911801769,0.0663785481662388,1
0.611276211365378,0.0549093039952793,1
0.510710130405318,0.0430326494364238,1
0.399700712980805,0.0358283164676154,1
0.299404075399942,0.0211110488352109,1
0.296385646687116,0.0227327478449807,1
0.304648289706149,0.0227756602533824,1
0.257015511899887,0.017936785598527,1
0.249215544360297,0.0193122809733599,1
0.288184920832558,0.0267961018640614,1
0.298074784591999,0.0288060000569271,1
0.275124059112918,0.0234990592124315,1
0.296177274873721,0.0229335916458499,1
0.303902171458698,0.0211674559549503,1
0.299682870554354,0.032199492068186,1
0.198481834299974,0.017712339025479,1
0.171488872042082,0.0164637476657858,1
0.179212353171665,0.0194213905505046,1
0.174763613587559,0.01727065093676,1
0.215827224466364,0.0202258144974714,1
0.213236220424602,0.010640879357786,1
0.221121478067229,0.0106116707215511,1
0.203968185752667,0.0114420244969891,1
0.216929840244967,0.0101366996408303,1
0.257951923208886,0.0106194467143723,1
0.276205532067813,0.0116561072430027,1
0.279452768301747,0.00749864464457865,1
0.313159644125567,0.00926056028727109,1
0.312771322796725,0.00872368916155077,1
0.244714741736517,0.00572690901579283,1
0.221567981334438,0.00843338388600107,1
0.213484127144276,0.00969471566827572,1
0.196551601487495,0.00715916835138381,1
0.250295152582376,0.0114091676799,1
0.449536324597989,0.0209173616049716,1
0.677575720477233,0.0320307482538782,1
0.867711585517973,0.0541013043986804,1
0.807013064335026,0.04793983150733,1
0.811167960347247,0.0560949509082634,1
0.674246039143255,0.0530964650003273,1
0.560979557908649,0.0462868224280664,1
0.337083910970784,0.0257636702224326,1
0.230617393542011,0.0197861923241932,1
0.258030047285188,0.0367776712820813,1
0.23857096691618,0.0410795037191977,1
0.196452302223056,0.0359628936927858,1
0.134243414050288,0.0271797377982902,1
0.116764343404701,0.031129847848911,1
0.108222238640406,0.0317994911372844,1
0.100095412346509,0.0253762419817539,1
0.100508552779263,0.0138482770104197,1
0.102646925526587,0.0120458068001463,1
0.109788457816027,0.0121557067419267,1
0.106948080186598,0.00974273276211374,1
0.115033971718581,0.00790174047298603,1
0.129664770649305,0.00747342287409646,1
0.143929617328866,0.00796793208893546,1
0.150390677599577,0.00850033045030851,1
0.187211510697151,0.0116804165831046,1
0.193447355171625,0.0129727997727646,1
0.176330243021645,0.0141548080240465,1
0.17463071516358,0.0179231442083745,1
0.118784653939942,0.0136176490161099,1
0.116739323221239,0.0155129940270649,1
0.0848835628560238,0.0226439914529919,1
0.0229812480848175,0.0099819042026199,1
0.0217914662610042,0.0118533622973842,1
0.023999659374727,0.0132336570694157,1
0.0219411402485072,0.0118596251228833,1
0.0241685326367786,0.0145719372817585,1
0.0222801286947699,0.0133252847081758,1
0.0231543090920331,0.0144878207359516,1
0.0217959753757769,0.0115456558246838,1
0.0388099142382039,0.0194243263215351,1
0.126053596547083,0.0531923250292599,1
0.178525979951172,0.0604412566873153,1
0.183706709499035,0.0570022285433582,1
0.18570311234618,0.0525226519173039,1
0.161472270401089,0.0426341398833509,1
0.211752914452192,0.0137664406893736,1
0.501450830839187,0.0320295792702944,1
0.55301542123348,0.0256404356636271,1
0.457310111015683,0.0183385563811825,1
0.408954366427574,0.0152405918239041,1
0.435858355361809,0.0171600434037682,1
0.437468374039395,0.017646826106647,1
0.447002287278473,0.0180341744436815,1
0.414725814530813,0.0184218469221459,1
0.241668694700925,0.010867123203119,1
0.266410902969258,0.0189931742417899,1
0.330769012328593,0.00987192400023209,1
0.535249243691771,0.018427745295572,1
0.671169298906428,0.0233274888797773,1
0.708360216288609,0.0229689473559684,1
0.7058663026059,0.0225607842932365,1
0.703831222599018,0.0229124692652102,1
0.720051166530033,0.0223235011303272,1
0.680204549474338,0.0195208107033459,1
0.597762818056324,0.0173765944699111,1
0.285823173251279,0.00690646310523218,1
0.258585336182334,0.0274767569864576,1
0.194175509830434,0.0196690495756713,1
0.135099916969444,0.0139151752736496,1
0.126084254261725,0.0131048064114494,1
0.173134361788403,0.0193038190700795,1
0.1811033152318,0.0168053502543127,1
0.147575862821066,0.0181164103419627,1
0.142110441680623,0.0209421975629598,1
0.149557984768032,0.0202269829273755,1
0.150751934126783,0.0217029614634548,1
0.166808930745926,0.0209593949524268,1
0.19999513235754,0.0128979216891596,1
0.38744764571481,0.0224199413223435,1
0.611891860423767,0.0464085677169016,1
0.611566981447997,0.0457849324465308,1
0.565666059937903,0.0356732806706906,1
0.538361467010702,0.0339956568046275,1
0.521758008243259,0.0325696312472766,1
0.487449638083025,0.0334902529892002,1
0.414738476525988,0.027750444089313,1
0.188383273068096,0.0126734771625834,1
0.11046437195613,0.0262543338173067,1
0.129802816913296,0.0270464420003457,1
0.153103513306326,0.0211236294564065,1
0.102221670021148,0.0118716544087163,1
0.0850003780728675,0.0108050095015541,1
0.0864717312089161,0.0116867681033117,1
0.0875368287037766,0.0126617134326384,1
0.0853228819182851,0.0123887345097923,1
0.0768956458982191,0.00925791976700575,1
0.075502418624464,0.00834906611019488,1
0.0781137486719091,0.00775750487065902,1
0.0739254803045017,0.0140099224601215,1
0.0464974388594399,0.0141855516786772,1
0.045140822916663,0.0183037135301327,1
0.0429111608678865,0.0230489000749926,1
0.059977328701987,0.0270116759257611,1
0.0556468241474862,0.0212377412873486,1
0.0529181817396991,0.0221908004984888,1
0.0474344924446722,0.0260904977851387,1
0.0209666286414882,0.012937562010101,1
0.0260501482566972,0.00593166258904756,1
0.108270191566602,0.0180926850959787,1
0.115504794047212,0.0113905867826789,1
0.129566955456173,0.0133656969485975,1
0.136817245157363,0.0143063981517243,1
0.13120198697008,0.0142747584078604,1
0.132567801374377,0.015053749237887,1
0.132805071563566,0.0147709795886244,1
0.131806098892126,0.0149214907531779,1
0.149666794230351,0.0136157325990953,1
0.163531956047757,0.0163761700481323,1
0.0844687938702362,0.00885595460217613,1
0.116668141700355,0.0236851147607299,1
0.202667767971887,0.035098594884947,1
0.243837397867879,0.0345832562266881,1
0.232026873105875,0.0338456047632221,1
0.194004325821885,0.024620799992102,1
0.177220870421293,0.0198045125452506,1
0.144220779523405,0.0183530149275623,1
0.147201465743479,0.0215644349611569,1
0.144877155873537,0.0272709897003086,1
0.11847551233172,0.0179168030073533,1
0.108003939398583,0.0151485314430454,1
0.145712276821784,0.0218861932802724,1
0.146827007890778,0.0187331848113379,1
0.160933817180021,0.0157841522791353,1
0.224697509901047,0.025016792982575,1
0.215313802256973,0.0241846076870376,1
0.227602496121958,0.020300088601589,1
0.234313431108878,0.0201561595633224,1
0.230749458938926,0.020899459324147,1
0.212190765319353,0.0212968508348032,1
0.206314466093797,0.0218147011632855,1
0.191630668427244,0.0192286561561527,1
0.195637398006301,0.0224801774637879,1
0.188149049703615,0.0281188008704385,1
0.131134808027035,0.0173651288552183,1
0.0734167281675357,0.00826169490289014,1
0.0744890320051385,0.0104917673001682,1
0.0750171404101278,0.0111799309509968,1
0.0595226811995625,0.0097685021652971,1
0.0607826121421676,0.0106582397791869,1
0.0648804552378602,0.0138517014868784,1
0.0527832202165558,0.0143149766224265,1
0.0494657968566572,0.0138242170080365,1
0.0438816052248405,0.0131000029158213,1
0.0300034787860568,0.010371340149154,1
0.0324123522266433,0.0179510723583899,1
0.0836681609396619,0.0197336707766003,1
0.242068794061301,0.0534339773715065,1
0.39058811432955,0.0698340758005908,1
0.495439348095306,0.0828960271787564,1
0.483167111907918,0.0698453816678351,1
0.435923608417522,0.0635484666944388,1
0.370153946845985,0.048937829717379,1
0.282407861836493,0.042802403973075,1
0.171472276519776,0.0336831380131852,1
0.119145889994009,0.0141823233455027,1
0.142700870004682,0.05161456512602,1
0.173152563501534,0.0589967174832897,1
0.149690657677133,0.0432728874651664,1
0.128756439375244,0.028439313796115,1
0.0941050062306577,0.0245946580638993,1
0.078186957076115,0.0218417473814096,1
0.0670227560429429,0.0172425776092327,1
0.0680585845579881,0.0154610096683374,1
0.0634070234620038,0.0135173193028667,1
0.0936898671460567,0.0231313633176248,1
0.122400722086393,0.0275693531033496,1
0.108841946725428,0.0227969504885729,1
0.100290487776489,0.0269716717292248,1
0.0611213429711658,0.0192152166004666,1
0.0947702430415364,0.0198443291438504,1
0.0882116347789037,0.0105087635044098,1
0.0925841383745137,0.0103645509839661,1
0.139134156269696,0.0116127422262394,1
0.170343473496659,0.00955651383302896,1
0.161756734033221,0.00989392882460027,1
0.142279136027497,0.00837536567342836,1
0.143464496132866,0.00897739209909678,1
0.160193319272359,0.0101759286213096,1
0.162313648690344,0.00955611212996924,1
0.137316965858062,0.00651336200507571,1
0.137842793933544,0.00953830110422681,1
0.147825323167466,0.0111793809821529,1
0.112631768510317,0.0144193575182605,1
0.0663412518590788,0.0118372731668733,1
0.0768668699916655,0.0126243522651111,1
0.0853059275504867,0.0141570700202978,1
0.134891633650847,0.0241445760899314,1
0.135191990919348,0.0229011276814132,1
0.146230018324066,0.0294545667639611,1
0.171558623344363,0.0369503964739586,1
0.19638246118593,0.0534652497540921,1
0.163747121475643,0.0525946582515253,1
0.0944018407679901,0.030291768826665,1
0.0591001688999696,0.0147797029703728,1
0.105248970883455,0.0191043197011316,1
0.153520096278366,0.0229268729324725,1
0.156744410297365,0.0187488696563716,1
0.15486729993497,0.0178034045179324,1
0.154934894298977,0.0147096354747741,1
0.173134675867502,0.0149082327467248,1
0.189049042792841,0.0125109534565236,1
0.206942423474673,0.0138168806516997,1
0.175220133293387,0.0121159145379942,1
0.135049878740469,0.0118176149071214,1
0.123744308226258,0.0143505258866571,1
0.0939552866390931,0.0109231096849882,1
0.103927838210435,0.00901287792194348,1
0.15349479069201,0.0167509863204984,1
0.17570025009624,0.0246861492589219,1
0.135250247700938,0.00867569177034559,1
0.198718091188892,0.0154790552690011,1
0.196368377178696,0.0150698140216025,1
0.194440357917963,0.0156101792095279,1
0.199025554375051,0.0162177583978498,1
0.203577722598978,0.0169019568982808,1
0.184932652709251,0.0156646782293508,1
0.222925605368665,0.023805489290144,1
0.276799329491045,0.0192818329042366,1
0.311442774906564,0.0146315942190553,1
0.342336508091609,0.0240011552034898,1
0.263601048144519,0.0207772548250879,1
0.275629941138447,0.0210600386179086,1
0.30037482686093,0.0205134188712284,1
0.29802033323897,0.018979303754263,1
0.297709067913573,0.0205118000667963,1
0.309614046045515,0.0205779375211305,1
0.24643838619036,0.0190288885694712,1
0.0966468713804416,0.00648672708772163,1
0.100871206813156,0.0110748668246271,1
0.108018411713891,0.0112054284174719,1
0.141663061773196,0.00991306352111293,1
0.167643311593042,0.0137430403701018,1
0.193719747303121,0.0177611662939032,1
0.23356025592297,0.00976239331820133,1
0.385773310052351,0.0165925927163953,1
0.569751995621467,0.0247600883930241,1
0.744958784335014,0.0311189119437486,1
0.82545143438058,0.0376335878431612,1
0.814533770047098,0.0405812858937662,1
0.852961064752148,0.0433944217665027,1
0.700639060359248,0.0511970000353749,1
0.489147981060365,0.0388686287993758,1
0.24515916306143,0.0132140868817357,1
0.206724379684471,0.0347221824295031,1
0.222122094330366,0.0396747044981255,1
0.218278050050052,0.0382107320434108,1
0.174085346466945,0.0277200996674106,1
0.334132201910805,0.0221526984828204,1
0.382528795263015,0.0118144039311089,1
0.334221710781054,0.0101095216061041,1
0.315333237698575,0.00951632453392767,1
0.293986761178838,0.00826817513466797,1
0.28432061314604,0.00935688084239476,1
0.28317072009344,0.0100361555713913,1
0.297191979135715,0.0105721257513254,1
0.298876806313534,0.010733081111707,1
0.302237615690326,0.00998203931412009,1
0.165102125763066,0.0116751918781521,1
0.0486813263441164,0.0351782862915463,1
0.0544211970834046,0.0162135857161989,1
0.157921649166577,0.0254336009538237,1
0.212962823722845,0.0146093981388109,1
0.214971660102488,0.0172265135849881,1
0.235451070783956,0.0184768889215078,1
0.240739797376946,0.0184186030454259,1
0.252005188702587,0.0192800384092421,1
0.250737947268039,0.0200299352148394,1
0.247375078707826,0.0194239165777646,1
0.234098071225543,0.0177068305875912,1
0.241652337804219,0.0206202665703651,1
0.144490670067659,0.0181375608336229,1
0.0630022347307868,0.0159901488176897,1
0.0630781729665833,0.0139354975407281,1
0.0714417156256358,0.0167503410398572,1
0.0832202030562761,0.0219028737017183,1
0.0912811843432866,0.0242897349328859,1
0.0869758211682807,0.0250133468900625,1
0.0901037345778453,0.0288020679048963,1
0.0334865042520855,0.0160649756444461,1
0.00911259833220768,0.0455381140886186,1
0.00819305117864764,0.0380718921103547,1
0.00862246991282473,0.0450820822841657,1
0.00445153160969115,0.0407006808854974,1
0.00192334727092324,0.0479902189765888,1
0.00207299145605788,0.0551986864387232,1
0.00178695550980366,0.0696119863211427,1
0.00138848653191854,0.0813234548846322,1
0.00137973417536011,0.0803749928690418,1
0.00124309467363977,0.081657609072126,1
0.000482971283359726,0.0589733977006745,1
0.000453455855275363,0.130204094099815,1
0.000497433655437379,0.146284598416107,1
0.000583098494332018,0.185040711338109,1
0.000501616511945835,0.196200679637381,1
0.000485967170622327,0.289761616796912,1
0.00050278076243096,0.305993076231546,0
0.000506838621667588,0.337978044161258,0
0.000426569417781615,0.39621420733484,0
0.00023884074625532,0.23407647688995,0
0.000109003803387385,0.237972995809787,0
0.000111134125910607,0.289550932149033,0
0.000113817084207336,0.281397298341938,0
0.000118736899813149,0.287676877956678,0
0.000122154652557692,0.291702176335332,0
0.000126616219182495,0.297849843820198,0
0.000134599607524929,0.299754611094479,0
0.00013632994516172,0.357065251387624,0
5.8482586330658e-05,0.3461565994836,0
5.0538334926479e-06,0.400712527254257,0
4.95014752467819e-06,0.479719047975268,0
3.78498535324828e-06,0.510761364815445,0
1.37355470920212e-06,0.367295736080355,0
1.38518196960521e-06,0.375188461103186,0
1.23091498473799e-06,0.356412603640703,0
1.64965979463642e-06,0.348286543297199,0
3.9683890425683e-06,0.496770766052272,0
6.31237539156355e-06,0.284407968844495,0
4.30355434913888e-05,0.40177504809697,0
4.60858919952319e-05,0.292900896935382,0
4.38250904083956e-05,0.284479983763506,0
4.18429668966228e-05,0.284506542643376,0
4.01003973133343e-05,0.285890333090846,0
3.94213356986538e-05,0.2860194972134,0
3.75856204879592e-05,0.285920881321171,0
3.7008943070938e-05,0.282735941857636,0
3.86231122999669e-05,0.27932952057228,0
4.01355523147957e-05,0.367854018788121,0
1.29213608001028e-05,0.374755942149474,0
8.64373759880846e-06,0.597258776578563,0
8.93032527598038e-06,0.600227450484707,0
9.61343402774128e-06,0.626452438032915,0
1.05987143189013e-05,0.654037966367597,0
1.07064183632519e-05,0.66318591225958,0
9.32006254009065e-06,0.682678977289009,0
2.00501949309364e-06,0.410019584177672,0
8.64759608972386e-07,0.362540107041968,0
6.68818960000656e-07,0.311004644502564,0
7.29214917692367e-07,0.31612869225165,0
8.33037619979171e-07,0.315345060772838,0
1.2472155782012e-05,0.447530785400697,0
3.79529602735179e-05,0.530814987375562,0
3.66553140985871e-05,0.431058358191841,0
3.69098544062837e-05,0.441622164314357,0
3.65407329762991e-05,0.450835882822757,0
3.77723362276904e-05,0.469959920779721,0
3.72693756217542e-05,0.475687375869014,0
3.71971509658189e-05,0.473463506535728,0
3.6180469719462e-05,0.46587563093563,0
3.58802577902258e-05,0.465325878799473,0
2.96067694645769e-05,0.737105316653261,0
3.09227415153473e-06,0.367170528485239,0
9.07344214235758e-07,0.307445751188937,0
8.9176805185201e-07,0.312868953624892,0
1.2050971612026e-06,0.378634996298251,0
1.30947226516283e-06,0.400270299041265,0
1.29814293902561e-06,0.424437477615301,0
1.38261432019017e-06,0.451359066977166,0
1.39708344378863e-06,0.447734272281241,0
1.34830977885906e-06,0.418477859257018,0
1.29980523587786e-06,0.400961376283038,0
1.23885575879351e-06,0.369939316475948,0
9.34008027024608e-07,0.302023739141706,0
1.05359591043324e-06,0.322504267074187,0
9.66744780872495e-07,0.319061116265905,0
9.21575884596905e-07,0.320956207014371,0
8.974745052001e-07,0.311460879683247,0
9.34543041954717e-07,0.304799641121113,0
9.52455734258397e-07,0.306318622655242,0
9.18987743662954e-07,0.318994037479027,0
8.31727777252185e-07,0.312273286364409,0
8.03872599972959e-07,0.334410403646203,0
7.40626209905238e-07,0.345262746552032,0
6.54742155846068e-07,0.342082530140187,0
5.58270568634239e-07,0.320310394821251,0
5.11915399700247e-07,0.30790959408272,0
7.4244076495255e-07,0.400383175171087,0
6.34943995420542e-07,0.390223204753444,0
5.66462084366609e-07,0.41895162852951,0
5.80512560024175e-07,0.408095835165641,0
6.67838720250576e-07,0.466805546448742,0
5.13341112652348e-07,0.385914557606666,0
4.09798212741944e-07,0.326611730970614,0
2.99916975554854e-07,0.26343912794126,0
3.83109437557329e-07,0.297626133904941,0
3.99087482093776e-07,0.297313303346863,0
8.72494722692652e-07,0.335639283920062,0
3.5619780158068e-06,0.653275465700664,0
4.69134970030702e-06,0.700735792097955,0
4.66314653977938e-06,0.674415785076611,0
4.39900713528776e-06,0.636211189457191,0
4.3561511726376e-06,0.650865947692367,0
4.17016269554127e-06,0.644758395235365,0
4.48064335957223e-06,0.675170200332639,0
4.59171670639583e-06,0.681040880741794,0
4.4657244160859e-06,0.673734972896369,0
4.33719962242065e-06,0.826196090551499,0
2.13845728365655e-06,0.618356166335956,0
6.20500703555005e-07,0.329705583089951,0
3.1876817942465e-07,0.249361538528106,0
3.49493038688561e-07,0.264821648983061,0
3.87668738419482e-07,0.253182942750042,0
4.18961523234783e-07,0.248305143399733,0
4.14517471642626e-07,0.23608109101386,0
6.83543047770784e-07,0.298715139300568,0
7.80053755155076e-07,0.319010041810761,0
7.57731784745877e-07,0.316201625689889,0
7.35719670940813e-07,0.313641661273494,0
6.72846102326247e-07,0.313829416391122,0
6.37790453683795e-07,0.31640096434464,0
5.16677007740011e-07,0.28251875547292,0
1.34496792260226e-06,0.454228828843353,0
1.75054165348195e-06,0.469697791520532,0
1.64627024902651e-06,0.456916749958866,0
1.6462911131185e-06,0.455846286679609,0
1.69455174492915e-06,0.460048786137135,0
2.10993594572619e-06,0.50674609453203,0
2.31179603565166e-06,0.514406852961445,0
2.28921127703631e-06,0.510735987056075,0
2.26833811910962e-06,0.510910772599297,0
2.2448858861937e-06,0.531749196397986,0
1.39010204539121e-06,0.455098298517574,0
6.91440603350049e-07,0.368152523127404,0
6.83201646646626e-07,0.399152803280965,0
4.74533901565901e-07,0.342353290807594,0
4.67648378638782e-07,0.352032115119504,0
2.70185023525442e-07,0.272943567079168,0
3.73576534577952e-07,0.305775976692707,0
5.91846853802351e-07,0.351905286530837,0
6.12683996332169e-07,0.337372427715081,0
6.30746463010432e-07,0.337796180074225,0
7.07088051381402e-07,0.331048958082053,0
6.804506912806e-07,0.311389224997139,0
7.24012804091531e-07,0.305168176118727,0
8.95410450386171e-07,0.326249612788779,0
9.58261912998519e-07,0.327983909825791,0
9.67552519290653e-07,0.325714795215562,0
1.0004551923462e-06,0.339299054226042,0
8.76863141951374e-07,0.324873245276524,0
8.84443886229177e-07,0.333091761469701,0
8.19430382085198e-07,0.305944962072328,0
6.39892386759953e-07,0.274909164629701,0
6.44422254349489e-07,0.285795121179513,0
7.42642451175042e-07,0.315338606486112,0
1.02878353742574e-06,0.398096354872495,0
1.19451794884853e-06,0.432556584335351,0
1.18176266137716e-06,0.444900768707049,0
8.73460928857053e-07,0.378725537526201,0
8.90331037516753e-07,0.377773145491491,0
6.07944866867694e-07,0.300355059580241,0
5.85369050006047e-07,0.297203624783598,0
7.00489161336988e-07,0.324749855788044,0
8.77254592058083e-07,0.355654482885483,0
1.21820428184413e-06,0.440829361867607,0
1.06074931339848e-06,0.397238008765494,0
7.22041644163331e-07,0.330102081443092,0
6.49746571917647e-07,0.312656891269155,0
5.10712237062621e-07,0.27678544791898,0
5.33132318380545e-07,0.28289237687013,0
4.88015706525935e-07,0.283748629403746,0
6.46929919500083e-07,0.340711045969643,0
6.77283199221076e-07,0.33163523638076,0
7.27341123526748e-07,0.366351254087754,0
5.89806146900877e-07,0.321517874650064,0
5.65073131957524e-07,0.314616180783589,0
7.95054167952941e-07,0.378279032934872,0
9.77731712357376e-07,0.411875515705908,0
1.01340769516322e-06,0.409657721949403,0
1.05905534783518e-06,0.429176478618893,0
1.04693591840516e-06,0.426343524403879,0
9.32552384035797e-07,0.417756879218033,0
8.78608895171555e-07,0.441586429093541,0
6.99321641523166e-07,0.385020480732562,0
6.32017682329047e-07,0.3577006583017,0
7.41796958685678e-07,0.359309019383976,0
9.86114606457271e-07,0.420739844232025,0
9.15565039049722e-07,0.41905071965169,0
9.1457809298436e-07,0.451446568508448,0
9.29339438061597e-07,0.46526213293468,0
1.02524223038487e-06,0.479464973092037,0
9.96992746605389e-07,0.462517773511507,0
9.95411546491616e-07,0.453089063407866,0
1.06712279673487e-06,0.465143080110069,0
9.19040400657002e-07,0.416890124412215,0
8.37250179503149e-07,0.461720594784064,0
7.23191156278717e-07,0.423026163513957,0
8.79812057809181e-07,0.443580251072323,0
9.70507768890669e-07,0.414012912762755,0
1.01367706549363e-06,0.43073368572202,0
9.45461295803491e-07,0.413337112135423,0
9.14844731112249e-07,0.408476123740588,0
9.23151620305637e-07,0.432183987042229,0
7.63144526322911e-07,0.393432749200291,0
6.91318896146823e-07,0.389519766320588,0
7.81582795038898e-07,0.40500473285842,0
7.70001361123554e-07,0.390567772128731,0
8.12263566489393e-07,0.390747141605167,0
7.67837332535544e-07,0.418637603479764,0
6.77159008197375e-07,0.380260359394613,0
6.38148123832057e-07,0.372651329218274,0
6.05171929690473e-07,0.363277289294185,0
4.77618806594662e-07,0.316465144078361,0
4.48809593871357e-07,0.297898005082844,0
4.39603561666364e-07,0.285297886988693,0
4.18665451834277e-07,0.280693980972589,0
4.438080487738e-07,0.293667994744071,0
3.16041317117222e-07,0.255052486809043,0
2.5785931280505e-07,0.2369066446031,0
3.34286468791352e-07,0.265066273145342,0
3.51635085465375e-07,0.264688399811525,0
3.65578632651534e-07,0.270969368299416,0
4.81437928955551e-07,0.280417513204031,0
8.73722599343995e-07,0.382785450965353,0
9.25150723214171e-07,0.414942295798415,0
8.73154425410557e-07,0.40264128374084,0
8.46264460767544e-07,0.414042034603523,0
9.32926074826117e-07,0.415684339833229,0
1.23096366761928e-06,0.426946784140328,0
1.364761984724e-06,0.44400003210515,0
1.16048277784784e-06,0.398232324047188,0
1.00458119072666e-06,0.373471730649653,0
1.14493691807388e-06,0.437878789909648,0
1.24180554398848e-06,0.463786543365437,0
1.42877314311568e-06,0.501662306938296,0
1.5518096870615e-06,0.52318605218509,0
1.58976743154582e-06,0.516951839634435,0
1.76846092790989e-06,0.519856889417285,0
2.39852011779515e-06,0.647302963224867,0
2.25389519981715e-06,0.63211712030645,0
2.58608395802715e-06,0.681409509862547,0
3.33400738410308e-06,0.720280100783277,0
3.18110302314793e-06,0.675558956684918,0
2.91119121987463e-06,0.622167478532768,0
2.4180967214344e-06,0.53954739928555,0
2.01661582993183e-06,0.470510846676239,0
2.23889987885126e-06,0.50427121657778,0
2.40535658526791e-06,0.560360944823136,0
1.86463097931617e-06,0.495796931726919,0
1.79287129457367e-06,0.49511444577581,0
1.50234080078124e-06,0.477962085267141,0
6.66368919485061e-07,0.321304366077655,0
6.16478901443435e-07,0.325848384492401,0
6.30137430230195e-07,0.333988463687929,0
6.62485217791848e-07,0.350844284529637,0
7.21395850840079e-07,0.369488431722397,0
5.357849144558e-07,0.298079640340001,0
5.54010195566137e-07,0.310195739584102,0
5.7925375980793e-07,0.30705827095131,0
5.69137283208177e-07,0.305475708500543,0
5.99677718801891e-07,0.307805783227164,0
5.85438472788297e-07,0.315801801492763,0
5.77244845808523e-07,0.320563124600076,0
5.96060406854517e-07,0.33369178809377,0
5.84274181941089e-07,0.330816220734232,0
5.29370696463631e-07,0.329882099440341,0
4.50321247011859e-07,0.350842927108447,0
1.99974373421575e-07,0.233521809442804,0
1.67877079154732e-07,0.239958447414809,0
1.88780912264277e-07,0.259561399368192,0
2.03721961752811e-07,0.251453528197644,0
2.07669373441184e-07,0.263302591231321,0
2.26442585348095e-07,0.267269805721816,0
3.33040211868501e-07,0.32597718272138,0
3.43906926442438e-07,0.328453297344456,0
3.86562072207272e-07,0.316828386034042,0
4.2841929064482e-07,0.314614474530092,0
5.33469000245802e-07,0.328222835214019,0
5.94064284530553e-07,0.330552811304862,0
7.17965322192355e-07,0.346503914173993,0
6.52976656253117e-07,0.318002701985348,0
6.48170463635843e-07,0.307809181837625,0
7.32621725854564e-07,0.315288017815658,0
8.27807687589026e-07,0.33086172266747,0
7.30462416525455e-07,0.311500008857764,0
6.68216881917748e-07,0.305327390239783,0
6.71296198350444e-07,0.30700642764174,0
5.99559488947326e-07,0.30029592261792,0
5.49579680795564e-07,0.294430856777612,0
3.97816759539255e-07,0.27299082490032,0
3.94393061397835e-07,0.281674299781263,0
4.47971925416486e-07,0.307167142359053,0
3.46776111663029e-07,0.284098350642075,0
1.64657551056278e-07,0.199217810280403,0
1.89921855199029e-07,0.215675461149098,0
3.23845481046665e-07,0.293585536805938,0
4.04360012005051e-07,0.343165599052179,0
4.34275145794423e-07,0.363201415224465,0
3.84215358623396e-07,0.346951317987085,0
3.19188441848858e-07,0.316601985574252,0
2.94754975654673e-07,0.316850018382317,0
2.87873799413386e-07,0.310849494959935,0
2.40386132534254e-07,0.284734701032053,0
3.9288972905592e-07,0.38367313410055,0
5.40626501514827e-07,0.431661138051402,0
4.99819193991658e-07,0.399642172496254,0
4.949182436233e-07,0.386362285045938,0
4.99609559543649e-07,0.373187585118824,0
4.65562962968777e-07,0.349507349998813,0
4.52083269256146e-07,0.330352374134052,0
4.57024954280277e-07,0.332154999626707,0
4.97923666396892e-07,0.348892057344144,0
4.77913884466978e-07,0.376933480484287,0
3.10751400462629e-07,0.303312271970835,0
1.32138255690894e-07,0.212856911200712,0
1.12464534671118e-07,0.204029686070353,0
2.08469039442802e-07,0.255290919831911,0
3.94679073325421e-07,0.32754510594166,0
3.82239106863224e-07,0.314517060078696,0
3.72367038198117e-07,0.318401460167404,0
3.69975615845708e-07,0.313242795348171,0
3.47205936796062e-07,0.293384578963865,0
2.95324391498348e-07,0.264492494304654,0
2.96818533704509e-07,0.262180345926754,0
3.27779480104478e-07,0.275298204697778,0
3.15220662832598e-07,0.263219548818333,0
2.65845416584218e-07,0.266718521320435,0
1.18139443499188e-07,0.203641467824271,0
1.16881264238062e-07,0.214856756276967,0
1.22603365655138e-07,0.219570507552619,0
1.37862592546397e-07,0.235659821537649,0
1.47689952442972e-07,0.235101969549627,0
2.23291113930629e-07,0.286194533210397,0
2.41541233245707e-07,0.308603051552175,0
2.09742742581891e-07,0.272955390929421,0
2.51079476439103e-07,0.296827754101541,0
3.54927016930648e-07,0.359164177457789,0
3.58367605051293e-07,0.338488607100398,0
3.77206886582813e-07,0.342397424744464,0
3.65213138468779e-07,0.33456519863326,0
3.12444745070807e-07,0.310059314008572,0
3.4908072448987e-07,0.344295401860674,0
3.11364407355623e-07,0.325555593252778,0
2.71685872046882e-07,0.293885965535585,0
2.66026114523704e-07,0.301454761691472,0
2.77586808538089e-07,0.30304700838528,0
1.83333893964701e-07,0.231416439483606,0
1.57990480139851e-07,0.22289529907078,0
1.60330611599471e-07,0.225988486268024,0
1.76623480381003e-07,0.23010940403137,0
1.72341373883753e-07,0.224306355979087,0
1.57438451039495e-07,0.21202108522754,0
1.61838414818239e-07,0.212065993242332,0
2.3816261644589e-07,0.252761339328424,0
2.4210692335867e-07,0.24111448305759,0
2.50120721736123e-07,0.246397002929709,0
2.28556192380482e-07,0.24122798056827,0
2.67678476094061e-07,0.252517537831837,0
2.48726925877113e-07,0.23763663047788,0
2.66418558158603e-07,0.25405958501223,0
3.31197217076761e-07,0.277296686106452,0
4.03995387159461e-07,0.296267019027864,0
4.07182253018682e-07,0.291421368721273,0
3.41425589788869e-07,0.262070262936163,0
3.25613961224183e-07,0.256813024527832,0
3.10706070738978e-07,0.259746775067819,0
3.10068349832267e-07,0.256876143016759,0
2.20580769029354e-07,0.224223977113388,0
2.08601178692021e-07,0.224227317892221,0
3.24413779171125e-07,0.277330556926592,0
3.04098114749834e-07,0.268587416955989,0
2.40284792658913e-07,0.250350784032945,0
2.42075130456603e-07,0.260803262518197,0
2.45490880372507e-07,0.263137123073642,0
2.86673244787257e-07,0.283531261265207,0
2.2209825914797e-07,0.246804002799288,0
2.86910698024576e-07,0.287247661842711,0
3.30928964465564e-07,0.312455984298671,0
3.94937390654721e-07,0.333829194141968,0
3.31944847039448e-07,0.297545961222421,0
2.87204782368702e-07,0.285240813701912,0
3.13512787874646e-07,0.293120105425101,0
3.88139794972385e-07,0.294706767378191,0
3.66313843511851e-07,0.291956021056598,0
3.00274148939021e-07,0.262706802189201,0
3.31219447270003e-07,0.258407910787787,0
5.46964093645372e-07,0.320502146152205,0
5.49249208481491e-07,0.300051416084622,0
6.64448926258626e-07,0.316441063221897,0
6.54083943420445e-07,0.307156127621707,0
6.3925491423529e-07,0.303520829614241,0
6.49578293080531e-07,0.310490854711583,0
6.31098047798533e-07,0.321966559780193,0
5.88319704538186e-07,0.313336394451016,0
4.47105196262069e-07,0.281960493137213,0
4.12636101824561e-07,0.287705778477617,0
3.45323697640833e-07,0.273717358311359,0
3.31390955073736e-07,0.278579658810298,0
2.36686357747143e-07,0.25550760971564,0
1.71158206000943e-07,0.239999347646916,0
2.04569441298555e-07,0.254598957908254,0
2.05248021052063e-07,0.254316499868088,0
2.06680688701491e-07,0.235357023763531,0
3.19190801478308e-07,0.291110189627922,0
3.6383511486978e-07,0.290333067043372,0
3.96571868717665e-07,0.296374776283795,0
4.36325415404722e-07,0.299312482198833,0
4.16740490966894e-07,0.290633809216989,0
4.77980450855683e-07,0.310227260663993,0
5.1669240742695e-07,0.308032585155401,0
4.67509657265308e-07,0.296468885878185,0
3.95885837502735e-07,0.276796504619042,0
3.89219635923474e-07,0.282997279143407,0
3.41827347750547e-07,0.26439464708006,0
2.48739344979483e-07,0.242217481387227,0
1.2402175133684e-07,0.178431807305899,0
1.18685014666312e-07,0.182272416712449,0
1.27120938333327e-07,0.194458252523652,0
1.45779397734338e-07,0.220634397256187,0
1.50201591706324e-07,0.227508025713058,0
1.70122452863266e-07,0.237242932193627,0
1.66808415395775e-07,0.223942921382311,0
1.71894907153544e-07,0.233880636140365,0
1.84056685722647e-07,0.244873184269888,0
2.42232107910562e-07,0.268150221165707,0
3.05132998550344e-07,0.292127454670325,0
2.79315547588023e-07,0.270929260700282,0
3.13154745153313e-07,0.288756897381485,0
2.83803314420524e-07,0.262376611445999,0
2.71265112858579e-07,0.244113738326782,0
5.35978279879704e-07,0.314660151786347,0
9.36445648437834e-07,0.406561693771214,0
9.58461736355656e-07,0.386465163837195,0
9.48348116149448e-07,0.381637212420649,0
9.71511604935254e-07,0.383618369468562,0
9.25138676684873e-07,0.367762576198327,0
9.26026021549224e-07,0.377031590220584,0
8.80492624619069e-07,0.3784394798101,0
8.74706192251715e-07,0.380231258683425,0
8.16118455865109e-07,0.380221544722847,0
5.99487582344602e-07,0.362488728534452,0
4.02791851948764e-07,0.298690245458286,0
3.98692927211475e-07,0.306861697785544,0
3.98239878357009e-07,0.306687581885252,0
3.10729046078362e-07,0.266361431831062,0
2.45371656989753e-07,0.249731958799033,0
2.62293429115312e-07,0.255011260408747,0
2.4888079855548e-07,0.240300374484769,0
2.40866006649838e-07,0.236474439187432,0
2.61755557791658e-07,0.24120486993254,0
3.06656449838099e-07,0.255550879677758,0
1.89269231369474e-07,0.201642520337675,0
1.81254936227927e-07,0.199474941057398,0
1.91178668358894e-07,0.196724332748548,0
2.85489952713423e-07,0.239451190718462,0
3.02588572856734e-07,0.241893357222165,0
2.83182359302013e-07,0.236215225641605,0
2.85808254307171e-07,0.235093260240697,0
3.0334117046037e-07,0.240173314607378,0
4.28409976318042e-07,0.287867150945223,0
4.36124101755301e-07,0.290419461496548,0
7.14829250461828e-07,0.358399588694754,0
8.99757136215745e-07,0.377058502757353,0
1.03300106459066e-06,0.412597861638726,0
1.09949256610772e-06,0.423173618775843,0
1.05890793309005e-06,0.411261145935949,0
1.07307502411887e-06,0.412462743767469,0
1.07998501267766e-06,0.416766707794336,0
1.07683552831657e-06,0.427424911241248,0
1.0147992555838e-06,0.411154083301532,0
1.02357744971214e-06,0.416534196621651,0
6.72950422786157e-07,0.357506778499686,0
3.39567071119167e-07,0.283285099852353,0
3.07250579695489e-07,0.276500347351763,0
3.71721244874866e-07,0.29816678663996,0
4.28979640543764e-07,0.300561329597457,0
4.96694547835312e-07,0.316284430772641,0
6.23493583035203e-07,0.344813897934173,0
6.33687182260676e-07,0.34454549788038,0
6.03710077150475e-07,0.352490496765782,0
4.95626629222497e-07,0.338569322413627,0
4.77299884045796e-07,0.351442088027385,0
4.66192238885875e-07,0.335474590795651,0
4.5953361295906e-07,0.335146519782514,0
2.29653668456937e-07,0.254668508650626,0
1.09539587680885e-07,0.193870186962011,0
9.04110652551627e-08,0.191882592883862,0
1.02113833800663e-07,0.193018505641038,0
4.56347368054959e-07,0.360668273806436,0
5.52729165156649e-07,0.373926084073974,0
5.64324011702553e-07,0.35751659014973,0
5.80145948122207e-07,0.351599363190912,0
6.21884067368023e-07,0.375631094767964,0
6.65698660530141e-07,0.388556193418919,0
6.72544069756606e-07,0.386634030625987,0
6.12475355412349e-07,0.384884104794247,0
6.10517111350614e-07,0.375865272002096,0
6.27915404434119e-07,0.381224049982551,0
3.64890241807153e-07,0.285729680546686,0
2.57357581069294e-07,0.24479879780929,0
2.75979279927289e-07,0.250501136329471,0
2.84303183290925e-07,0.243607757052806,0
2.49002008994614e-07,0.230548163758044,0
2.21810135972981e-07,0.215710917514497,0
2.25480229105427e-07,0.217451294825594,0
2.63150843942952e-07,0.225961752891175,0
2.82291164515926e-07,0.224748832193372,0
2.85681703654019e-07,0.241895954835464,0
2.34933649829634e-07,0.221769470088632,0
2.22033804006669e-07,0.217939501135778,0
2.09345331306044e-07,0.220830292503832,0
2.01207466095914e-07,0.229680520834832,0
2.01949507462534e-07,0.224492781907077,0
2.24284642120247e-07,0.232699862192621,0
2.53497724052631e-07,0.242563423910958,0
2.18465050749564e-07,0.239248447160641,0
1.87053663506627e-07,0.243477906207399,0
1.11490877045294e-07,0.191281310826836,0
9.50846218591216e-08,0.192529958097023,0
8.76808497900946e-08,0.185820535499992,0
1.06034916992011e-07,0.205532560681091,0
1.34109539810118e-07,0.221101788097878,0
1.39496325463199e-07,0.214860014011355,0
1.16739562280018e-07,0.204641484201074,0
7.88882495030063e-08,0.180722150459534,0
9.66057135174256e-08,0.17667274837704,0
1.49326293371271e-07,0.204282630451267,0
1.49441170068195e-07,0.206961605622505,0
1.59339070466233e-07,0.213767639462333,0
1.62952532491871e-07,0.210042702791416,0
2.11541649560217e-07,0.230285162962353,0
2.81620657178959e-07,0.270600677139624,0
2.78379768224428e-07,0.282785644337759,0
2.80814781626155e-07,0.280438983431686,0
2.95244412479084e-07,0.276968799990978,0
3.52145758954838e-07,0.313423423387514,0
3.32066926815747e-07,0.293526849691135,0
3.52256040583886e-07,0.30606654378341,0
2.95554765847316e-07,0.282920976844964,0
2.64917461255115e-07,0.27623953007704,0
2.53600057456162e-07,0.277876758362214,0
2.15304637578392e-07,0.264168764695342,0
2.09530127549313e-07,0.262415087197291,0
3.51600311978739e-07,0.31968798349302,0
4.63433211103308e-07,0.359287367040251,0
4.40085298647305e-07,0.339739861050772,0
4.23481455542423e-07,0.335153500171933,0
4.07127608968253e-07,0.32461436665533,0
3.98780481883183e-07,0.321466151321761,0
3.50199437231379e-07,0.301653799622843,0
3.31603942679385e-07,0.289652472474044,0
3.5715748771634e-07,0.293804708090461,0
4.13098713387853e-07,0.312514944625262,0
3.06051391170621e-07,0.279018844366565,0
1.67886020908438e-07,0.230958269126561,0
1.33771243461553e-07,0.223156130048015,0
1.17527554325408e-07,0.223532847354827,0
1.4159329089841e-07,0.242961843308337,0
1.46699032264852e-07,0.238333863325113,0
1.77965736965176e-07,0.256542848529268,0
1.69050808519741e-07,0.24266604974707,0
1.66830893971065e-07,0.232135363502865,0
1.28978836047911e-07,0.210496071100546,0
1.22560643942985e-07,0.21591575712573,0
1.0588427328026e-07,0.192334646484811,0
1.50006860181159e-07,0.219130396230022,0
1.50297963940717e-07,0.216141231435285,0
1.43411447485409e-07,0.214471937743939,0
1.42531554082479e-07,0.217074382590534,0
9.71865549352804e-08,0.188240319694232,0
9.52153950070801e-08,0.18971448123899,0
9.55426383545352e-08,0.193095527004317,0
1.30316745946254e-07,0.196690704121529,0
1.37619178139941e-07,0.196448799775215,0
1.4164632046553e-07,0.201997203786034,0
8.98652457059917e-08,0.158693408343605,0
9.60598939682546e-08,0.168895035251976,0
8.80689467391636e-08,0.160500033215301,0
1.19473751857844e-07,0.1753747327904,0
1.42511683518687e-07,0.178057370398151,0
1.86166318642276e-07,0.204174463441481,0
1.78668285586259e-07,0.200234208769106,0
1.58363425784029e-07,0.200127382791121,0
1.92351031622643e-07,0.227372651158333,0
2.00548632715174e-07,0.220393339467697,0
2.34207504914048e-07,0.247050336017943,0
2.411592216568e-07,0.256938451187861,0
2.43506928768865e-07,0.248802358964196,0
1.96688775698511e-07,0.236060266387447,0
1.82093846593035e-07,0.251677549343601,0
1.51870346491809e-07,0.220299763911052,0
1.65837365781448e-07,0.233002300458852,0
1.58025626199559e-07,0.233044664535268,0
1.65449268832378e-07,0.232966794313403,0
2.29381441732983e-07,0.281111355296574,0
1.75933971817408e-07,0.24710373852176,0
1.51665182920654e-07,0.220262715771257,0
1.51134514676374e-07,0.226457404082743,0
1.48172931334149e-07,0.21331935261681,0
1.8945092283715e-07,0.241368129030078,0
1.89343621792672e-07,0.238823897859227,0
2.15227639143696e-07,0.253219705180114,0
2.30313743747915e-07,0.261430666496613,0
2.24179700705219e-07,0.267370101669611,0
1.93348658116042e-07,0.254567835790308,0
2.03323681139798e-07,0.249519557666172,0
2.17600184460502e-07,0.265522316780938,0
2.23011311554229e-07,0.257381175123482,0
2.0779840791481e-07,0.259696471476575,0
1.26197950645173e-07,0.208397582360026,0
1.13920053468908e-07,0.208699673605068,0
7.75935580809113e-08,0.179454214544402,0
6.63846972366743e-08,0.165281991122258,0
5.60300222534603e-08,0.154190206694792,0
5.93639302847445e-08,0.163656738190874,0
2.45421333399234e-08,0.122030784907356,0
2.12634903141867e-08,0.114822063133746,0
5.70341066800922e-08,0.164217810901961,0
5.80856320777782e-08,0.171720214266634,0
5.73613500275475e-08,0.170868549877601,0
7.17333562454782e-08,0.187103350169659,0
5.96136784334095e-08,0.165243254615049,0
5.96017560951341e-08,0.168376196930534,0
6.88620597774846e-08,0.177034294903898,0
8.32796441011143e-08,0.186458321957613,0
8.86357545713401e-08,0.197030287044135,0
8.42303263875544e-08,0.192625132290749,0
5.73758803773205e-08,0.165893583154986,0
5.02119211750621e-08,0.159060165221794,0
5.19397908878303e-08,0.161093530400787,0
5.32302598151192e-08,0.159822598448095,0
5.94527268666915e-08,0.173317333482549,0
6.47055104051974e-08,0.172562233536472,0
6.85633803654811e-08,0.18363572926189,0
5.8270428321047e-08,0.17551260226688,0
4.80887514338502e-08,0.170271299488018,0
6.99433910208593e-08,0.192958291040646,0
7.0960888078051e-08,0.186177436168268,0
1.15775467363018e-07,0.217622202585821,0
1.48236392947261e-07,0.252847399116584,0
1.26382374315371e-07,0.230724845248177,0
1.06005111146322e-07,0.211092227788558,0
1.0619388150235e-07,0.217261657964087,0
1.7503197241226e-07,0.255217863159119,0
2.23623449110056e-07,0.276957512773911,0
2.24067432019792e-07,0.272985667849966,0
1.95764421909096e-07,0.260181366111531,0
1.92391766278417e-07,0.261914567411065,0
1.63089639382038e-07,0.242579074668316,0
1.57007259805202e-07,0.224396274855013,0
1.44413917428733e-07,0.215270694186642,0
1.29235166320833e-07,0.200027271535436,0
1.15342661645416e-07,0.184650558556467,0
1.2184530364646e-07,0.191321057048826,0
9.60439975172209e-08,0.176093264492715,0
1.00757667821836e-07,0.177331416930386,0
1.25213364209263e-07,0.189313927237663,0
1.1252663018297e-07,0.179047038594158,0
1.09876890501261e-07,0.181897110450314,0
9.26992848668745e-08,0.173669135170689,0
1.23485618687518e-07,0.206843620153667,0
1.14894207858827e-07,0.199559030873327,0
1.06190404153686e-07,0.192584205918521,0
1.20842461130065e-07,0.218373093411903,0
1.23944628711121e-07,0.216849131178716,0
1.29257644896123e-07,0.224811584724049,0
9.49554631944715e-08,0.199443630198604,0
1.31155656311363e-07,0.226445284834285,0
1.40337968030828e-07,0.222243401067561,0
1.48999422596887e-07,0.22037695385828,0
1.43379157819246e-07,0.205785466633764,0
1.35179445479312e-07,0.192354263643928,0
1.38358363113016e-07,0.194532753860761,0
1.37021446742863e-07,0.193808800109941,0
1.56896978176154e-07,0.190243084691016,0
2.36706228310935e-07,0.234547890270402,0
2.45378735878104e-07,0.2373279135842,0
1.85630434375001e-07,0.214444874210359,0
1.78260939028516e-07,0.219225789163165,0
1.96497024757915e-07,0.230270638482125,0
1.76260842591793e-07,0.216675909868861,0
1.86941891585296e-07,0.233332980308459,0
2.02379829359662e-07,0.228782303548897,0
2.91555939075131e-07,0.26868669577007,0
2.84123851452699e-07,0.268466430209661,0
2.02102510803735e-07,0.224743218360338,0
1.88554884601139e-07,0.219771570358468,0
1.96788128517473e-07,0.214302830064173,0
1.92817120534597e-07,0.212199861028096,0
1.81948791477351e-07,0.211113138598852,0
2.02510975080692e-07,0.222468311688276,0
1.9856058280775e-07,0.211074598988258,0
1.88275578988833e-07,0.217064425154284,0
1.28919845311653e-07,0.183556135987394,0
1.26387341956319e-07,0.184104748633483,0
1.46857996775191e-07,0.200049142757425,0
1.61863253022979e-07,0.21203779284197,0
1.618397809195e-07,0.210699388670919,0
1.65063779894807e-07,0.206209836797754,0
1.66210435616649e-07,0.204439375068149,0
1.49275747624624e-07,0.192240122141852,0
2.89761502973658e-07,0.259474058201213,0
3.70339619736179e-07,0.27394331221437,0
3.0536300032624e-07,0.247892596048025,0
2.66913335197032e-07,0.243453742586026,0
2.84123230497581e-07,0.245983136123404,0
3.02435072751438e-07,0.247546684088464,0
2.77000626906216e-07,0.238151749745152,0
3.58160081850686e-07,0.260798436345814,0
3.83331987871803e-07,0.267346140794377,0
3.58661813586442e-07,0.266953697900796,0
2.71317645661605e-07,0.246873638048646,0
1.58194525991794e-07,0.202085197862938,0
1.70766631703209e-07,0.200364206489209,0
1.94885522034356e-07,0.206698356169882,0
1.28533362845892e-07,0.17235797352611,0
1.23924882338352e-07,0.173996464927584,0
1.03922055105766e-07,0.170665222491732,0
1.16890578564839e-07,0.189662871806965,0
1.13682600231589e-07,0.198700242906614,0
9.78674943182393e-08,0.185689715075361,0
9.9983336789053e-08,0.200227192963163,0
8.39636882596655e-08,0.192709860741272,0
4.50521567133092e-08,0.166432712989754,0
6.39490628798277e-08,0.210121051130118,0
7.31783188062527e-08,0.221960645243065,0
7.2183797088446e-08,0.240722703827638,0
8.59348481878661e-08,0.231411729278279,0
7.57611195261863e-08,0.204318556336136,0
7.17267741212221e-08,0.190959546618951,0
7.40353610608214e-08,0.195514701290125,0
7.17675087769965e-08,0.185361899210609,0
8.143851217473e-08,0.183196167047942,0
1.25065328509009e-07,0.210691183660094,0
1.18380870849265e-07,0.193863329912568,0
1.21607850409142e-07,0.18321593665685,0
2.77966336306523e-07,0.259986566075175,0
3.18080036962316e-07,0.288511476244544,0
2.94565211770457e-07,0.279952241650397,0
2.95624312820589e-07,0.270680358796105,0
2.92968611969742e-07,0.254918022922854,0
2.91627348913759e-07,0.244760636022447,0
2.67228904588259e-07,0.244896058729586,0
2.79095977858117e-07,0.263111314425263,0
2.36479579692679e-07,0.234355834138995,0
2.38854112065864e-07,0.246562251693202,0
1.82140542417947e-07,0.221585567722104,0
1.54153971035645e-07,0.192784530546992,0
2.01688209548665e-07,0.212681595083996,0
2.03922281874043e-07,0.208007664862519,0
1.85220603996784e-07,0.196972781964342,0
2.24815558746573e-07,0.222594587466864,0
2.37582395983154e-07,0.216776213040631,0
3.18632562826767e-07,0.251237789792561,0
3.25057212864927e-07,0.253445460718509,0
3.01103620786328e-07,0.245866681876723,0
3.00025766891616e-07,0.248957292270675,0
2.97505185874558e-07,0.256950942766281,0
2.58434689817863e-07,0.247484956108994,0
2.52812189601796e-07,0.263084380856979,0
2.44388188273055e-07,0.259030932714481,0
2.5248929294017e-07,0.254215362237787,0
3.79063914960232e-07,0.32123220013695,0
3.71062535685149e-07,0.291537210382195,0
3.53433371488583e-07,0.2942798008935,0
3.57213125294957e-07,0.287622212743242,0
3.57861029865612e-07,0.267971480959043,0
3.7938085045272e-07,0.27591607813723,0
3.74713751781993e-07,0.275213910167783,0
3.52324966602041e-07,0.25881237519125,0
2.81655306474572e-07,0.235653340764271,0
2.71049393050408e-07,0.233478523485381,0
2.03939171853267e-07,0.207442078703446,0
1.82932384385072e-07,0.211583176480898,0
1.85729166238844e-07,0.218265360510606,0
1.66166596185282e-07,0.20942022292981,0
1.61458266094686e-07,0.199310042670871,0
3.44271427097004e-07,0.282683235792824,0
4.04144416387903e-07,0.309766998936919,0
5.12057101658291e-07,0.328611297894367,0
8.45451754708437e-07,0.417870860823767,0
7.94797713488996e-07,0.393353068243765,0
8.02167333026505e-07,0.395140754090483,0
7.81225124890636e-07,0.386542274257295,0
7.73379853732347e-07,0.37309251881291,0
8.47310770142236e-07,0.395749069224934,0
8.61641917513368e-07,0.421602799133083,0
9.0957505759452e-07,0.439496574043036,0
9.64669300484384e-07,0.464283034616109,0
8.03177751195346e-07,0.473520772008791,0
2.8275216159591e-07,0.278590829480604,0
1.38304215826682e-07,0.210880969776643,0
2.66143350850078e-07,0.267289223371531,0
6.35689265753778e-07,0.406393611756677,0
6.88666051689521e-07,0.403757613840757,0
6.1701043902488e-07,0.37489799167671,0
5.82557365229431e-07,0.363469338445059,0
5.16495192081311e-07,0.334976839206918,0
5.01754711096056e-07,0.323651868258545,0
4.64731752447138e-07,0.305639402046574,0
4.70487385440613e-07,0.307538039010887,0
4.68925434935512e-07,0.297265951640412,0
4.54961396230442e-07,0.299410816126625,0
3.1614961168989e-07,0.238042681263483,0
2.83033330073571e-07,0.236366928305788,0
2.98457855217377e-07,0.247358117249465,0
3.48877423784069e-07,0.267184973402584,0
3.32817661554026e-07,0.258437220059383,0
2.43925700900789e-07,0.213919406453412,0
2.45551113019003e-07,0.211295937347147,0
2.16420245544308e-07,0.206881116019865,0
2.13721822981308e-07,0.203713469668334,0
2.04636007687259e-07,0.202738933595275,0
1.6954757261455e-07,0.189490283856487,0
6.16602471512019e-07,0.339462802395134,0
1.00378847942237e-06,0.421170694801685,0
1.06184219440706e-06,0.432933126594966,0
1.02297537162923e-06,0.422435289157198,0
1.32177003290289e-06,0.4578350337596,0
1.62375193260884e-06,0.513555265518449,0
2.34160585545293e-06,0.518550940373881,0
6.211535385093e-06,0.775296662867842,0
6.33710592268643e-06,0.638481886219942,0
5.97507257118852e-06,0.607100123653587,0
6.72031123571406e-06,0.647263528069389,0
6.85263677146869e-06,0.616622463147954,0
6.75651043530276e-06,0.566730842569885,0
6.40749081279655e-06,0.513261344124438,0
7.43472109308884e-06,0.538155896709808,0
1.03392772833312e-05,0.610609895583929,0
1.04022093459179e-05,0.610969520054658,0
8.74106597989282e-06,0.575694494966204,0
9.48947847022008e-06,0.654448462127069,0
9.35348669125472e-06,0.654812606676666,0
9.04455903597517e-06,0.647963537353286,0
9.61282797554561e-06,0.712146440618489,0
1.05026035066134e-05,0.798541609302767,0
1.09412094417863e-05,0.909210864990159,0
9.20210280100276e-06,0.947951075164659,0
3.51504871177024e-06,0.623088265432019,0
1.05885465514088e-06,0.365323186231314,0
5.31619174947758e-07,0.273974310236212,0
5.6889821548755e-07,0.286019955843413,0
4.95208850618763e-07,0.274375796455561,0
4.59596826190125e-07,0.260590037923305,0
4.34685597127759e-07,0.255771837257076,0
4.53575424405927e-07,0.260614334410726,0
4.46241323501197e-07,0.258678624749517,0
4.13456383536114e-07,0.252546191508566,0
2.41203806234309e-07,0.205094327809003,0
2.02828779910345e-07,0.201035792921415,0
2.20006509735755e-07,0.218016534368711,0
2.07936135760096e-07,0.218893929722009,0
2.04084599542022e-07,0.213470667214522,0
2.07146280849351e-07,0.218489490749039,0
1.91857372303427e-07,0.219003088268194,0
1.84778483952404e-07,0.223925173185149,0
2.18497340415727e-07,0.258326047667625,0
1.47775520058302e-07,0.224201025737103,0
1.17940737861265e-07,0.205176816259735,0
1.20987516245749e-07,0.210905045693667,0
1.18177321761417e-07,0.20223238974159,0
1.87100856095635e-07,0.233227585723728,0
1.61576495949251e-07,0.217546364104912,0
2.06220685149698e-07,0.235416410786561,0
2.89277778936338e-07,0.27768647202225,0
2.97863725359986e-07,0.268713347294257,0
2.77244041312671e-07,0.25340465583569,0
2.76601352765013e-07,0.251732788040965,0
3.57585698366064e-07,0.287771529578038,0
4.4895762957161e-07,0.330390739240505,0
5.21164153617393e-07,0.371644855035688,0
4.94903216509432e-07,0.36668426541817,0
5.00665804200235e-07,0.368813809059371,0
4.11594511708772e-07,0.363861402439008,0
2.27726596342152e-07,0.27978059683861,0
2.3807133604347e-07,0.295567566657065,0
3.6491358971961e-07,0.382656623864064,0
4.5037626363536e-07,0.45028647036545,0
3.95963332701525e-07,0.430937046794061,0
2.9670986655877e-07,0.362642539266313,0
2.05013548399313e-07,0.294494605720318,0
1.87419778644502e-07,0.28255517963812,0
2.19785449713565e-07,0.305283063449787,0
2.1334987086532e-07,0.295186611801354,0
2.17031265380923e-07,0.292130013163229,0
2.1462692716205e-07,0.292976305889828,0
1.92475222646345e-07,0.275856146525539,0
1.73398612068529e-07,0.262335655524386,0
1.99452771122026e-07,0.280968879752072,0
1.54694450370796e-07,0.240431698037539,0
9.6451716648035e-08,0.190596424489625,0
7.71133113922553e-08,0.180432369169793,0
7.35564804734259e-08,0.189071167016808,0
1.32005122913485e-07,0.215634295190955,0
2.57825532846604e-07,0.293183901506337,0
2.78717567808897e-07,0.308381486572488,0
2.994891374782e-07,0.319647964527922,0
3.21872334062085e-07,0.331559483049558,0
2.44987285771395e-07,0.285583262777054,0
2.14247026820545e-07,0.275753388363728,0
2.26861233288995e-07,0.292976714514762,0
1.98824861306188e-07,0.279911912144445,0
1.44249364322327e-07,0.236609187259443,0
1.28720518718611e-07,0.26433953907195,0
6.67342949683957e-08,0.192032176724183,0
9.22164301667206e-08,0.227496911878876,0
9.33121675688446e-08,0.209297743364769,0
6.8876962700329e-08,0.174136773622544,0
8.2356159648865e-08,0.172169458649477,0
2.36936726850926e-07,0.265633220295017,0
2.73787184167922e-07,0.266719390353702,0
2.85609548669248e-07,0.263007778881873,0
3.53231188501996e-07,0.295902141978182,0
3.91212280898775e-07,0.300647414867429,0
3.91477056161309e-07,0.300748980517167,0
4.0993966631794e-07,0.290089354332461,0
4.43019187391244e-07,0.313273059943995,0
4.33220639812169e-07,0.323731997443189,0
4.04817655927394e-07,0.340880355347323,0
2.72338123303365e-07,0.2947163925947,0
2.45903194571198e-07,0.281706582526735,0
2.81614571818797e-07,0.292470108941266,0
2.22175878537784e-07,0.247047056859962,0
1.78764533629628e-07,0.21565020885628,0
1.603684898617e-07,0.204765541607939,0
3.67607417214732e-07,0.292977212280262,0
7.09697056407337e-07,0.374875725941105,0
7.1583904767555e-07,0.366441647341226,0
6.68916698336311e-07,0.337896958241463,0
6.17997509281264e-07,0.30826688236188,0
5.93535727533677e-07,0.3063109663662,0
5.95729437776352e-07,0.312986399316003,0
4.79849277380353e-07,0.279109037753795,0
4.80124484688876e-07,0.284750023510228,0
4.46120982399229e-07,0.275444051761995,0
4.02157484199693e-07,0.292504424993223,0
1.50949842624129e-07,0.185661595442095,0
1.50435070830884e-07,0.186379815301914,0
1.79071658031243e-07,0.215218306701496,0
1.72146766549611e-07,0.221475460218189,0
1.71218687029486e-07,0.212431062860629,0
2.05923620221003e-07,0.242043417394881,0
2.5235814721914e-07,0.27144453134578,0
2.52611621098516e-07,0.285752284113252,0
1.89839019786219e-07,0.24497617381109,0
1.90374904053494e-07,0.238393454848168,0
1.70416909780465e-07,0.229755363365625,0
4.77098446205349e-08,0.143581351389144,0
6.1861660153442e-08,0.157708502145787,0
6.23140880527889e-08,0.160919377191361,0
4.84643050895256e-08,0.153967205025429,0
5.06730424460682e-08,0.149484165181685,0
2.79976243834119e-08,0.120298719414701,0
2.29113810076905e-08,0.109130645953385,0
2.88591375148337e-08,0.121343000522486,0
3.00717386702614e-08,0.12746885546565,0
2.71030764396855e-08,0.12572966199497,0
2.63135941020108e-08,0.119929821802819,0
4.62974201079705e-08,0.145808259930412,0
5.06649700295277e-08,0.146903354548994,0
5.47330953929388e-08,0.152658264766441,0
5.0197018252218e-08,0.1502018381356,0
1.02415990561331e-07,0.201728075432979,0
1.17774942844622e-07,0.204915589333405,0
1.06426739671791e-07,0.19144795284768,0
8.32268629160408e-08,0.175641651439087,0
7.19085897799217e-08,0.167742730342421,0
9.20410724412534e-08,0.177889529539968,0
8.95095626141088e-08,0.172037191681345,0
1.3040951664096e-07,0.196757428551631,0
1.49059158479288e-07,0.212238666624336,0
1.84043273092088e-07,0.245065220229976,0
2.29067859398135e-07,0.270879441827167,0
2.72430521425e-07,0.310700235333808,0
2.29603371092338e-07,0.280891292762874,0
2.28174304982598e-07,0.267516189203054,0
2.41576379305415e-07,0.275020867481476,0
3.08256030223382e-07,0.314581787340459,0
3.39825388448468e-07,0.334662436545319,0
3.52550621692107e-07,0.36005713838194,0
3.5131554196139e-07,0.356611282965927,0
3.45389767265442e-07,0.325315359150162,0
2.69654106899114e-07,0.299658754083021,0
1.91273053536908e-07,0.238931558736985,0
2.37743968504991e-07,0.255107289513628,0
2.2773963639964e-07,0.246822944547487,0
2.74863547770349e-07,0.258271663686826,0
2.81617552403366e-07,0.267297943237481,0
2.86463982912319e-07,0.27635430991331,0
3.44791166531198e-07,0.298874159309601,0
3.50788972020893e-07,0.305193721480831,0
3.40047069425776e-07,0.304695862616236,0
3.11102488486635e-07,0.294807830946008,0
2.34716067156108e-07,0.276199639952811,0
9.10947368406427e-08,0.192190259923342,0
1.36555482021932e-07,0.226652677804114,0
1.21910503933904e-07,0.231440893090872,0
1.08631378724552e-07,0.223955946553986,0
9.35562029304195e-08,0.223953909006087,0
6.40424545296518e-08,0.190680146717633,0
5.24851136729062e-08,0.184884685751011,0
4.74250746031861e-08,0.18224139792206,0
4.31986056845548e-08,0.176108718787927,0
4.05489901938693e-08,0.16389664246197,0
4.46084221856214e-08,0.169516829493192,0
3.36981165623641e-08,0.153634261597567,0
7.21257998803771e-08,0.189960033552597,0
7.98971773795626e-08,0.181704605639045,0
2.05872950283332e-07,0.254920996593189,0
2.17413897924949e-07,0.250706681315262,0
2.52322007631243e-07,0.259472607808671,0
2.71317645661605e-07,0.268863655085919,0
2.51336800240214e-07,0.255912476180534,0
2.48011461389565e-07,0.254053765778501,0
2.51109282284792e-07,0.252572124317378,0
2.48741828799959e-07,0.254419274783331,0
2.3945780463208e-07,0.247336543623816,0
2.27541800098883e-07,0.246533669132496,0
1.23232268999166e-07,0.192026210751681,0
1.00038353412553e-07,0.187510460405261,0
8.74453836091553e-08,0.173996174305683,0
9.75167788673046e-08,0.185394022112469,0
9.47752620190796e-08,0.183067516160397,0
1.03191811886398e-07,0.190221461513072,0
1.05878436302146e-07,0.201942617490845,0
1.06540001885408e-07,0.191460074771591,0
1.31959420616763e-07,0.212618915038058,0
1.27907440086433e-07,0.209586265424881,0
1.19803603216797e-07,0.204995762161738,0
1.19710211566973e-07,0.198722444144,0
1.10932514202729e-07,0.194173038034099,0
7.94464881545474e-08,0.15138851105502,0
2.33752965767298e-07,0.229270891891726,0
2.85596756993807e-07,0.240830873634384,0
3.76898892844032e-07,0.275136108167983,0
3.70131599771478e-07,0.277833861611116,0
3.5026053921504e-07,0.281488594587313,0
3.58410947718565e-07,0.282057322489241,0
4.9825637414939e-07,0.321339077193157,0
5.21552623139534e-07,0.320738879810312,0
5.02903726447347e-07,0.31788649905479,0
5.52938799604659e-07,0.355958537912291,0
4.00127581917282e-07,0.318114215496276,0
3.5960467183839e-07,0.330239598153412,0
2.68585443140158e-07,0.282370715138943,0
3.11224692453958e-07,0.302750098187919,0
3.09822451605336e-07,0.29433088076783,0
3.01216882999945e-07,0.298050545884763,0
1.83808303675243e-07,0.244890361542371,0
1.70732479171691e-07,0.251629340534161,0
1.95094783909294e-07,0.273461047590441,0
1.43321408993225e-07,0.232895225750663,0
9.37275865431283e-08,0.188003367280702,0
8.77285391431962e-08,0.176873468578897,0
8.81249568908534e-08,0.173262949169638,0
9.75342898016467e-08,0.182597423798994,0
1.02971869583421e-07,0.186982601714822,0
1.06405006242643e-07,0.192666239510045,0
1.18446071136709e-07,0.199481633642931,0
2.35862598686926e-07,0.262754125126582,0
2.30106220547309e-07,0.250095061434438,0
2.34144788447079e-07,0.260770144772493,0
2.50701563153978e-07,0.268726692720965,0
2.79625652574207e-07,0.276233143909487,0
2.88722396678342e-07,0.275053972913856,0
2.18235545737762e-07,0.242248890214817,0
1.72154218011034e-07,0.221293814494912,0
1.61253599287625e-07,0.211658838706398,0
1.60255724412178e-07,0.2110372087045,0
1.36898870202469e-07,0.201259179188043,0
2.22703317815447e-07,0.251386511472817,0
2.99256279308758e-07,0.279087356691696,0
2.80959464168768e-07,0.280393733016396,0
2.60394424171883e-07,0.266751121940915,0
2.55366550577301e-07,0.27549656456661,0
2.13633398972432e-07,0.24880236165757,0
1.66564007461129e-07,0.220702309619813,0
1.58507114798452e-07,0.212789770175188,0
1.41353229649593e-07,0.201801599758704,0
1.05645826514752e-07,0.169705415697023,0
1.10922082156738e-07,0.176295922072621,0
1.29558062982458e-07,0.19630168729361,0
1.39990233164462e-07,0.195483988213026,0
1.32843660705522e-07,0.194575987094492,0
1.32072807021403e-07,0.197929424561566,0
1.22560643942984e-07,0.199436027065682,0
1.26808970481788e-07,0.202678275619412,0
1.262049053425e-07,0.20840285487695,0
1.27757417329801e-07,0.212813474568953,0
9.14221043791217e-08,0.183091926028805,0
8.56228803363261e-08,0.184318262952475,0
9.42755173397023e-08,0.189187229396755,0
9.03545583393781e-08,0.17934751734279,0
1.32712514984493e-07,0.223931209290763,0
1.56901945817102e-07,0.237843329656393,0
1.52853939399531e-07,0.234951386468,0
1.49678995878585e-07,0.22901092238592,0
1.4473619313524e-07,0.221929093307289,0
1.40486997259271e-07,0.218981540243599,0
1.41820808853832e-07,0.22689480787777,0
1.38127243617906e-07,0.219026514246246,0
6.89250246265018e-08,0.162567396857531,0
7.08087540740157e-08,0.175737520513886,0
9.85599834664026e-08,0.206267825772664,0
1.1348973157178e-07,0.228382277324371,0
1.12749553070515e-07,0.204370385441188,0
2.66904020870254e-07,0.304676726980068,0
3.4999017535644e-07,0.334558831293547,0
3.49743904556439e-07,0.350070748240795,0
3.55548965577348e-07,0.342373362216079,0
3.67426595084223e-07,0.364574854464877,0
3.65756474197476e-07,0.369969959011416,0
3.25894757128774e-07,0.343959067920985,0
2.35092614339973e-07,0.284471486630343,0
1.70394058632104e-07,0.239605297557745,0
1.85675515716605e-07,0.266663825740332,0
1.15506593796703e-07,0.214787188446919,0
1.02785086283773e-07,0.206547125814436,0
1.34603199129334e-07,0.223493454322605,0
1.42412330699725e-07,0.239836621936673,0
1.13040656830073e-07,0.223685498496553,0
8.60047677342106e-08,0.194479045616366,0
6.78102859977511e-08,0.170974987698187,0
5.49689341469493e-08,0.154399518007348,0
1.0030561249556e-07,0.19756379888439,0
1.25386362305279e-07,0.212614040211745,0
1.28958096146953e-07,0.213675846464794,0
1.15058636774209e-07,0.206144784293978,0
1.07576375978202e-07,0.193806697602173,0
9.16321114002021e-08,0.183276411156394,0
1.02810297061585e-07,0.184680494548903,0
1.03096060607123e-07,0.181882286103387,0
1.06858924434275e-07,0.19312815431955,0
8.72864190988167e-08,0.182431972414092,0
7.78945971223656e-08,0.174166003118886,0
1.37269828790267e-07,0.216640482015814,0
1.79656721943904e-07,0.228431099192341,0
2.81568000184909e-07,0.288594217365371,0
2.50243919231635e-07,0.266696874025226,0
2.55910010497022e-07,0.267860030273146,0
2.52956872144408e-07,0.273628086974462,0
2.41255469700169e-07,0.27891219682257,0
2.54675054957328e-07,0.282302994176468,0
2.91947264990817e-07,0.293508876218057,0
2.91059050789299e-07,0.293325054297166,0
2.11390633275395e-07,0.269930962803631,0
1.83121154741099e-07,0.279896643504936,0
7.78981986620528e-08,0.186979477942276,0
7.34952542987405e-08,0.192969534133142,0
7.56710810340022e-08,0.189515180829323,0
7.82055714457158e-08,0.194005992884027,0
8.22184318035795e-08,0.187196253953305,0
9.30459020140271e-08,0.201119337649955,0
8.93128440325647e-08,0.195706210091782,0
8.72019692026989e-08,0.207687002710032,0
7.27650110793721e-08,0.192361447423371,0
4.54634773838107e-08,0.163404524403441,0
7.39856846513405e-08,0.202087575208043,0
8.83018049086053e-08,0.200596046536721,0
2.32957522260486e-07,0.299567982688495,0
2.71938600780116e-07,0.314508170472622,0
3.02231896236662e-07,0.326352615340034,0
3.05338037930476e-07,0.304038795569253,0
3.0771555088823e-07,0.314089814229603,0
3.01925889554259e-07,0.302633689774457,0
3.10460793467166e-07,0.298925322855227,0
3.14928689735875e-07,0.289335064122095,0
2.68627171324122e-07,0.261063855261183,0
4.00003390893579e-07,0.333102758371593,0
4.41413645836823e-07,0.366889770266436,0
3.97329930726343e-07,0.332908364134634,0
3.44797997037501e-07,0.300734632041038,0
3.97081051914844e-07,0.333489300676635,0
4.12228755266818e-07,0.310302150218628,0
4.22602307285636e-07,0.305954159548686,0
3.98853878778192e-07,0.297522441188171,0
3.22303649487403e-07,0.276043123101378,0
3.13110408957852e-07,0.285116175902813,0
2.49956789584836e-07,0.255820053552029,0
1.43356182479862e-07,0.187298838759542,0
1.55541805725516e-07,0.200471390172479,0
1.79988187786165e-07,0.217565392980844,0
1.38474978484272e-07,0.194609414165123,0
1.5735710591897e-07,0.215540564072607,0
1.48337732822602e-07,0.22115690748546,0
2.3089793832341e-07,0.255832892102134,0
2.71854150883998e-07,0.266204928481739,0
2.56912107867275e-07,0.261978652303639,0
2.55908023440643e-07,0.258029768259804,0
2.93061010091377e-07,0.279137071044486,0
3.18420444558284e-07,0.290800561483532,0
3.10701724053148e-07,0.287297918727365,0
3.15401112390037e-07,0.293278176460222,0
3.4923906804509e-07,0.312525772638737,0
3.47475555508519e-07,0.311358499238952,0
2.7433995841442e-07,0.290107149736582,0
2.16871307342394e-07,0.258265539030779,0
1.76520153449283e-07,0.216915292486299,0
1.73654445577356e-07,0.225263371010676,0
1.72824228583907e-07,0.224750212755977,0
1.46684129342008e-07,0.210683499339357,0
1.4117936221641e-07,0.204126252091455,0
1.44514263775884e-07,0.212206108750001,0
1.29621276213523e-07,0.204642081884934,0
1.29908778433393e-07,0.214616868328318,0
1.12757625487056e-07,0.215032057871116,0
9.79848548356379e-08,0.209719570623014,0
7.83665230124336e-08,0.202582208007042,0
6.28197939013044e-08,0.179019508116424,0
8.91961044702845e-08,0.210072021885868,0
1.32114411014343e-07,0.249536160889068,0
1.30683730421295e-07,0.264978770116999,0
1.41405886643643e-07,0.262793536432024,0
1.60173758336535e-07,0.27838495687138,0
1.56656668545291e-07,0.269832231818576,0
1.77595150950449e-07,0.265538268789492,0
2.434940129024e-07,0.293307105496669,0
2.43192849669922e-07,0.279930697625496,0
2.41485968240159e-07,0.278975624336135,0
1.9663673965958e-07,0.253631484293203,0
1.31424033113583e-07,0.215601396381137,0
1.44541585801099e-07,0.21844340126398,0
1.1751153368335e-07,0.198549560873158,0
1.12270672483119e-07,0.194522346357963,0
1.1798954493358e-07,0.1960897226768,0
1.13188319957255e-07,0.201795523806722,0
4.82925489037456e-08,0.145521267308541,0
6.11317895071446e-08,0.162551559636075,0
5.45741308826e-08,0.158095369126074,0
5.26967351772946e-08,0.165612451956646,0
1.98725508487229e-08,0.114918431311755,0
5.42456456249079e-08,0.151917214823281,0
1.17246261656722e-07,0.201405547670737,0
1.28925185525672e-07,0.207365217925708,0
1.52412316119246e-07,0.234633871021948,0
1.88104816331243e-07,0.251249089309891,0
1.92002427419111e-07,0.249861968907822,0
1.87059624675765e-07,0.250460319727154,0
1.87770866668507e-07,0.25091378024664,0
1.9716778047693e-07,0.249342893824406,0
1.9676788538061e-07,0.256584938923203,0
1.46599058490772e-07,0.239582950742374,0
3.95314931366777e-08,0.148522902774024,0
4.58320763421586e-08,0.155235715637335,0
3.93691754686989e-08,0.142519610263186,0
1.69048821463362e-08,0.107008085711831,0
2.00215800771653e-08,0.11296390127218,0
1.5975560715973e-08,0.106594056402633,0
1.50291009243391e-08,0.103054654166699,0
9.85579964100241e-09,0.0981835279788655,0
2.31215122197945e-08,0.117603955767497,0
2.59946715531437e-08,0.119555259569443,0
2.64533090036757e-08,0.122453042705202,0
2.21980277675454e-08,0.116228571105071,0
3.01964264580585e-08,0.123161656617289,0
4.20407727705796e-08,0.140608272072846,0
5.37122451781073e-08,0.154387656717283,0
8.09383949222814e-08,0.189477249026199,0
8.65601499922064e-08,0.198692225310535,0
1.01615082649475e-07,0.213310143994431,0
1.08950301273419e-07,0.212721049111275,0
1.49642359526593e-07,0.228926862578943,0
1.83057196363892e-07,0.247894024351347,0
1.85946873103394e-07,0.246068542241312,0
1.97419143108904e-07,0.253149942272714,0
1.62217942586672e-07,0.230643421904968,0
1.55585520965859e-07,0.233195532378262,0
1.47611587907016e-07,0.220650174775945,0
1.7990212340674e-07,0.223025082307164,0
1.7092162210079e-07,0.212255120769688,0
1.23972571691454e-07,0.185228379207466,0
5.35880541544052e-08,0.134667708177922,0
4.81415326189238e-08,0.132013955670475,0
7.01233438142036e-08,0.149353892893605,0
7.74734653609914e-08,0.150768814958035,0
8.21132420065035e-08,0.162022466454876,0
8.3560812578776e-08,0.158886283348732,0
9.57315329015862e-08,0.175838469726817,0
1.10159425080183e-07,0.182428336957868,0
1.67361810597392e-07,0.221203248205581,0
1.6767775256169e-07,0.21291645011213,0
1.89515502169475e-07,0.223018710290781,0
1.9334555334045e-07,0.230866189111246,0
1.46919968096018e-07,0.206739257239908,0
1.43485341144512e-07,0.217697742755625,0
1.4529070605607e-07,0.209836970371578,0
1.36936996846745e-07,0.201635098474274,0
1.01076590370703e-07,0.170834361452031,0
8.5751418045858e-08,0.170442060602436,0
7.5289690400213e-08,0.165761216255417,0
1.00007554038675e-07,0.193678600865256,0
8.92675143089131e-08,0.187276994852441,0
9.67000986954394e-08,0.184980696275972,0
1.24290997476226e-07,0.206947183581298,0
1.14509091494327e-07,0.197803455228125,0
1.12616047720035e-07,0.197755355597458,0
1.13223093443891e-07,0.195646770257152,0
3.92126947788342e-08,0.124099034115149,0
3.55285680607102e-08,0.12365309131884,0
8.02419316613598e-08,0.164133130400782,0
1.12524146362496e-07,0.20440051925409,0
1.25469818673208e-07,0.221773491527668,0
1.21923419800369e-07,0.236182046825335,0
1.01859614775145e-07,0.217925410782171,0
1.26771340601606e-07,0.240398780568489,0
1.16885735114915e-07,0.222583410032462,0
5.55676590722173e-08,0.169073169756579,0
4.29591653908569e-08,0.154644756682278,0
5.55338791137703e-08,0.166975766179514,0
5.27752239042745e-08,0.172520550108451,0
5.15680871538898e-08,0.16064736315291,0
5.78750041015794e-08,0.168124577304164,0
5.73663176684955e-08,0.164296205489102,0
6.62307003672837e-08,0.171344671215504,0
5.82207519115663e-08,0.159393645017217,0
5.13704992351796e-08,0.167145255479007,0
6.12436856195001e-08,0.179272197213746,0
6.00110897092562e-08,0.170573030155596,0
5.5290464707314e-08,0.165117971094782,0
6.07648050321048e-08,0.171375543924634,0
6.10022582694231e-08,0.171698322561853,0
4.44262339538503e-08,0.151893548160703,0
4.49809952567278e-08,0.149616472216464,0
4.71971840746927e-08,0.155363158782032,0
3.87422591810505e-08,0.153897544416335,0
3.77099833920381e-08,0.149152111110716,0
5.74954763331457e-08,0.178760942484936,0
6.32400563255121e-08,0.185292785067783,0
7.76094545319454e-08,0.197428241680776,0
1.07501737172957e-07,0.234942548598063,0
1.09908683403329e-07,0.225127524905587,0
1.28376882156027e-07,0.222156212861004,0
1.20052978792391e-07,0.221274462513796,0
1.2839575919163e-07,0.226034621732612,0
1.32367388129625e-07,0.227277511170958,0
1.32290265503906e-07,0.231295820459016,0
9.39059248531646e-08,0.19542284312123,0
7.51749378943121e-08,0.171007739732226,0
7.93878699913601e-08,0.178177102017422,0
9.49983090976488e-08,0.18380841337064,0
1.36093615604784e-07,0.222605716349069,0
1.27120068996161e-07,0.215726202949628,0
1.28264489279577e-07,0.205117595569937,0
1.28398615585175e-07,0.206775614923324,0
1.22575546865829e-07,0.199540771304008,0
1.41598258539358e-07,0.201965140044693,0
1.6129334041521e-07,0.202145768915204,0
1.79501358973253e-07,0.21463909789374,0
1.86847878980353e-07,0.212519918404508,0
1.77785908362855e-07,0.216626521996924,0
1.32521757572086e-07,0.195656986238887,0
1.27636703654763e-07,0.19349474683723,0
1.28867685081698e-07,0.199764262536191,0
1.31427883035318e-07,0.19760929361084,0
1.73364707919058e-07,0.219252772721618,0
1.59779824409352e-07,0.216773099153521,0
1.31903907229168e-07,0.220108460863142,0
5.99097498339154e-08,0.157131344073084,0
5.85616562716287e-08,0.165650400910564,0
7.13483640720016e-08,0.176449518391367,0
9.9723529167468e-08,0.199996511513307,0
9.26961800912821e-08,0.200788689461249,0
8.86425850776443e-08,0.204683836192504,0
7.93580641456716e-08,0.202144591700157,0
6.01751460515668e-08,0.186317000853555,0
5.31477969753809e-08,0.176946981256728,0
5.87007502181751e-08,0.178001759291515,0
6.56215433960246e-08,0.184656838227377,0
5.95278624360314e-08,0.17340472184438,0
9.01616896795687e-08,0.195259953399338,0
1.32549700552419e-07,0.22356396234454,0
1.36322002897372e-07,0.212627756473188,0
2.12868382266427e-07,0.252207675777691,0
2.42549664358169e-07,0.254413580257188,0
2.11135296530663e-07,0.2381129873955,0
2.15892682075621e-07,0.246601174410111,0
2.20502652875445e-07,0.254220206151932,0
1.57992963960325e-07,0.218459726116964,0
8.86332707508664e-08,0.16318638904303,0
8.43803491441864e-08,0.16395335618982,0
8.7755364404316e-08,0.164475005482487,0
1.07276206273914e-07,0.182487837035035,0
9.22143189193177e-08,0.175709839361466,0
9.0537243335244e-08,0.185267512867592,0
1.0012479036505e-07,0.200464908937043,0
9.1040092790214e-08,0.179853423259941,0
8.40793101027324e-08,0.173718869873849,0
8.50976764970897e-08,0.177453907663663,0
5.85735786099041e-08,0.157075864157556,0
4.30675841545488e-08,0.13970805939887,0
2.71030764396854e-08,0.124546018261693,0
1.9705638112867e-08,0.122008798782186,0
1.79536753415008e-08,0.120381480671382,0
1.70843381755858e-08,0.123076066247028,0
3.3332498188585e-08,0.138549267831916,0
3.30543102954922e-08,0.141086049445484,0
1.07931934879061e-07,0.223311972719385,0
1.18604414691929e-07,0.216021550782076,0
1.16088801315818e-07,0.21590819976495,0
1.02832154681756e-07,0.218563319693953,0
9.73150926448124e-08,0.222191771148014,0
1.14077527686962e-07,0.222780948358208,0
1.40248550493763e-07,0.233418081660163,0
1.34342025406489e-07,0.221278503998487,0
9.77727365671548e-08,0.205540079438497,0
1.14468977793671e-07,0.229557218744856,0
7.89000476502579e-08,0.203445305510987,0
8.21107581860295e-08,0.221269542688904,0
1.0157732857827e-07,0.24854581113004,0
1.0402749328489e-07,0.233929396491964,0
1.18631860908167e-07,0.237878336882986,0
1.00261524682146e-07,0.211853437986718,0
8.77474161787989e-08,0.208037581994369,0
1.03297746829616e-07,0.22332699950174,0
1.07484847193734e-07,0.214357784744408,0
1.14101744936584e-07,0.212413577616099,0
1.13528603362198e-07,0.203212505191611,0
1.11651704420988e-07,0.198693023896937,0
9.08279745217309e-08,0.188647911098479,0
8.63515090723866e-08,0.18787788348004,0
5.89927233148988e-08,0.160419701387208,0
4.65225784339425e-08,0.157730159471332,0
3.44744346515261e-08,0.131055674386312,0
4.79706457703097e-08,0.143879967536054,0
5.35145330683734e-08,0.151547326365996,0
7.75206579499982e-08,0.179281257145475,0
7.4693449295419e-08,0.176583829207749,0
8.33715454586538e-08,0.17884063001698,0
8.98130854760367e-08,0.176086233785939,0
8.95437151456267e-08,0.175811541194463,0
8.98145757683212e-08,0.176044628507221,0
9.43088005340545e-08,0.179915471925559,0
8.4687349354778e-08,0.186304167807589,0
6.70651398555383e-08,0.171825978039162,0
7.72270703699662e-08,0.179093808022002,0
6.12529999462778e-08,0.154534149132721,0
5.81859784249296e-08,0.151477972495049,0
1.02983170966578e-07,0.196120168883391,0
1.1351121661888e-07,0.212035094906112,0
1.13289038877477e-07,0.204811670415528,0
1.05641852401994e-07,0.196730024924611,0
1.11086386881096e-07,0.18811373499919,0
2.3265909123053e-07,0.254147787845543,0
2.3995258167051e-07,0.253081125374496,0
2.24958626805878e-07,0.245353414329688,0
2.80607134234525e-07,0.280569637849589,0
3.26031864018941e-07,0.294331754896874,0
2.92435087331918e-07,0.2722045625351,0
3.67638340779634e-07,0.301397352320236,0
3.64827525340183e-07,0.296926656291434,0
3.61470393587467e-07,0.298871915915193,0
3.64067476275126e-07,0.319425126389867,0
2.61333308311071e-07,0.278012344836219,0
2.59745153499968e-07,0.285027183129066,0
2.51456023622968e-07,0.295671840746382,0
1.65899461293299e-07,0.240521113608492,0
2.6154530238853e-07,0.290748666046374,0
2.97562313745461e-07,0.298381058019086,0
2.08388191086372e-07,0.252661339492969,0
2.0084371058749e-07,0.255244900260224,0
2.01665979355422e-07,0.24501466892308,0
1.84577791258102e-07,0.231717259703737,0
3.28949856311847e-07,0.292836407329842,0
4.77844461684729e-07,0.360886083697092,0
4.98558034145962e-07,0.339573097594835,0
5.13740635175598e-07,0.346670063206779,0
3.75840785322089e-07,0.306696736047742,0
2.83599765332676e-07,0.274665948798301,0
2.92335734512956e-07,0.272261852639239,0
2.67032682770809e-07,0.260301709124967,0
2.67537270900112e-07,0.27030951996983,0
2.56306055671608e-07,0.264694131994202,0
2.25634846929937e-07,0.24379134450621,0
1.4504480782914e-07,0.191799626253623,0
1.39759610433448e-07,0.200734962250627,0
1.07566937460401e-07,0.173210404533073,0
1.00078218731161e-07,0.179311831165899,0
9.4536194298453e-08,0.180107173869798,0
8.08037718525883e-08,0.176355014120309,0
8.2885710173931e-08,0.181304182831517,0
8.09248581006977e-08,0.176468415635925,0
6.57665985117086e-08,0.170600108643085,0
4.51846685355994e-08,0.159682412879801,0
2.3424414126604e-08,0.137185346323365,0
2.00036965697521e-08,0.136326753722683,0
1.69982737961603e-08,0.154347299489966,0
0,0.102936539853243,0
1.91750940596117e-09,0.106362290671876,0
3.35216411176836e-09,0.109973486550531,0
1.63863846223798e-08,0.135276424631125,0
2.05183441719739e-08,0.132202803010375,0
1.08189258680172e-07,0.228260679309212,0
1.18918493790872e-07,0.220260649079089,0
1.16566315801953e-07,0.207473714188285,0
1.58685949872583e-07,0.224997759571001,0
1.54600065192783e-07,0.216044758406509,0
1.71835792226262e-07,0.230400129339297,0
1.79498378388684e-07,0.231784504658572,0
1.86747532633202e-07,0.217692885406534,0
1.44096360981126e-07,0.183585487013186,0
1.43470562412691e-07,0.187369260075792,0
1.09884217771659e-07,0.171687864844071,0
9.04812331835542e-08,0.16559142494404,0
8.73486388016915e-08,0.166450639266769,0
4.40780768380037e-07,0.309764181063339,0
1.11397758615722e-06,0.464632900742904,0
1.18512972841177e-06,0.457804416451715,0
1.17645125967546e-06,0.452402622332115,0
1.16604703247379e-06,0.477787625972024,0
1.13975070092408e-06,0.470059832122342,0
1.04434119534695e-06,0.432772382327083,0
1.05448114405018e-06,0.431404465773711,0
1.05028547450543e-06,0.42370355507956,0
1.08645288119207e-06,0.427990935664915,0
1.00361448779816e-06,0.4760589502045,0
3.60662779360333e-07,0.291140916732495,0
2.28427033715832e-07,0.244251741314159,0
2.10670325337922e-07,0.243698758818617,0
2.17733689810982e-07,0.24149652708875,0
1.41195879622563e-07,0.211069940742617,0
5.2062864192319e-08,0.142483477781676,0
8.92128702584842e-08,0.175697652782428,0
8.93461272269165e-08,0.178378305748072,0
2.32658470275411e-07,0.259597054058818,0
1.69409968960287e-06,0.606996972425562,0
2.1670162514671e-06,0.546165872745073,0
2.17815655886626e-06,0.529301331834761,0
3.53178370059615e-06,0.474862463270486,0
9.86151143456444e-06,0.771534691796417,0
1.08479563891448e-05,0.662167144985966,0
1.13907561093833e-05,0.633912077004434,0
1.11358951404635e-05,0.526141016168127,0
1.01073019878771e-05,0.419770663742067,0
1.55883599293308e-05,0.476513765071995,0
3.84058014805917e-05,0.643263047402397,0
4.27920342029905e-05,0.413322003664266,0
3.72582828795171e-05,0.269601085970791,0
9.81912733570883e-05,0.313572550694275,0
0.000115955812227424,0.247022062894351,0
0.000108319487374683,0.245128256661259,0
0.000101659586751201,0.228736374341211,0
9.47309745064992e-05,0.207382799467277,0
7.49705369802327e-05,0.17017350234478,0
8.91716444272111e-05,0.173676565957701,0
0.000115971033451862,0.202909614339355,0
0.000137920140803915,0.2401046512641,0
0.000155107179491698,0.310703834655017,0
0.000111790753658766,0.419681998257116,0
8.98747141538296e-05,0.554034118331031,0
8.57771058413916e-05,0.541442518451285,0
8.33186719996496e-05,0.570000001154061,0
4.97097851975234e-05,0.707155818074736,0
6.27121513315104e-06,0.335005201186859,0
2.04761701422348e-06,0.530006579305152,0
2.08955632292769e-06,0.540672590923124,0
2.04868195225172e-06,0.536755704469349,0
2.05645941511107e-06,0.539679730208371,0
1.84299292887449e-06,0.513525907559952,0
1.63695194813609e-06,0.53069752421822,0
1.14136021659125e-06,0.480860771297199,0
5.38558969352234e-07,0.354381712801032,0
6.33637133278123e-07,0.333019006211658,0
9.90561514442973e-07,0.396680560618358,0
1.42812287891558e-06,0.450139899631361,0
2.20255463061868e-06,0.516858809398087,0
2.06776079826797e-06,0.479089906995242,0
1.8552191625849e-06,0.436995743217485,0
1.77520698431739e-06,0.437378744011289,0
1.79954345732206e-06,0.42781134155804,0
2.07816490127861e-06,0.449481155311942,0
1.70384620114302e-06,0.40689314835407,0
1.26095579984335e-06,0.350908525311046,0
2.00220967118238e-06,0.448717771691398,0
2.00940542328671e-06,0.471520902956019,0
1.59679813377964e-06,0.44323170960621,0
1.68003642226987e-06,0.469537946447862,0
1.61632133527869e-06,0.477629424951267,0
1.61429453777187e-06,0.475735133035252,0
1.62527513551455e-06,0.485916005148301,0
1.20447123844314e-06,0.435571586212056,0
4.77143900120025e-07,0.277635291287711,0
4.07431628594276e-07,0.280024687849817,0
1.99927801787687e-07,0.197412985266058,0
2.11715889566471e-07,0.197460687237381,0
3.85428332351896e-07,0.265820077577098,0
4.01479773783351e-07,0.257099258119742,0
4.42555333917716e-07,0.261016625142322,0
5.00922631237251e-07,0.270434193755524,0
4.22365847576506e-07,0.256773202684162,0
4.08692912630995e-07,0.258370714641868,0
4.01503618459901e-07,0.252144297612836,0
3.90163487703611e-07,0.248524087486281,0
3.81850761532108e-07,0.253936601371011,0
3.61684002148233e-07,0.2510285060228,0
2.68232740632843e-07,0.220561010442154,0
3.48175992882199e-07,0.266834043002491,0
3.14415035661842e-07,0.252375847256841,0
3.44829417366498e-07,0.254174654509544,0
4.37325898291667e-07,0.269512289242927,0
4.45052939595391e-07,0.270827026156708,0
4.02142581276849e-07,0.262472911974917,0
4.62735381741126e-07,0.267161831630557,0
9.81982212239093e-06,0.439319767639409,0
2.23276614628612e-05,0.439929741310346,0
2.25612667655013e-05,0.447334057329648,0
4.59202171955005e-05,0.32200957564496,0
0.000181154696312483,0.526701654357523,0
0.000286029518126831,0.577521825151012,1
0.000493549041561097,0.4054848576245,1
0.000667904328505532,0.257200435023113,1
0.000719586293363752,0.215437506209575,1
0.000743463850605808,0.197456099373986,1
0.000760602415549983,0.198188543010482,1
0.000695746506958689,0.183530416264566,1
0.000454514011107613,0.141010987391588,1
0.000275380899880493,0.0965351867860262,1
0.000267633092347314,0.0698660151606295,1
0.000252303632327376,0.0598025241300878,1
0.000501099529552368,0.105227398907216,1
0.000775624462548367,0.154096641636092,1
0.000842543502965903,0.193720042082675,1
0.000801187880771705,0.193494425466292,1
0.000701985226020196,0.180725739854984,1
0.000731664813773802,0.133785119878743,1
0.000830763305415427,0.117359912939393,1
0.000873809339322588,0.0609337125818533,1
0.00215198354304191,0.0925535857014081,1
0.00277884125822945,0.112860903407881,1
0.00287618246973684,0.120815208333576,1
0.00229161913495298,0.0987174118442528,1
0.00188880583819501,0.0848604956640889,1
0.0015843246059352,0.0707499634011364,1
0.00103914077273109,0.0512242048946205,1
0.000944721887907528,0.0537795613285982,1
0.000981160928554361,0.0566132278679163,1
0.000912324932126066,0.0548984646066791,1
0.00141957351916751,0.0698128018675877,1
0.00266830462924327,0.0435372544750574,1
0.00509847738577694,0.0435209317122546,1
0.00496430183856192,0.043086174144253,1
0.00561064548303848,0.0376742181353454,1
0.00812132942370664,0.0445688035477415,1
0.0075334949980774,0.0393676785703118,1
0.00619836765327074,0.0302211713262672,1
0.00582805248525684,0.0287643645174619,1
0.00637853904765507,0.0159064564093943,1
0.00866138583874627,0.0214111645458506,1
0.00902528426023876,0.0265724568503694,1
0.00927562875432903,0.0298118947056835,1
0.0086580735594511,0.026741795660893,1
0.00858093595666718,0.0309214500489264,1
0.00815978100448239,0.0314593354226294,1
0.00921256650788075,0.0295679210867042,1
0.00924661000713149,0.0291583712657057,1
0.00409358856593635,0.0147078558532092,1
0.00502633191763995,0.0252869760079123,1
0.0117498539682102,0.0508241511293619,1
0.0148972276159151,0.0327415427910235,1
0.0145825631371178,0.0345632853380243,1
0.0126315958843598,0.0320388152415947,1
0.0118545503071562,0.0278146799898612,1
0.0116377091254514,0.023647441613173,1
0.0200895396736841,0.031269478892458,1
0.0202828628387361,0.020513282131868,1
0.0196312921520429,0.0126637218135046,1
0.0221025288792046,0.0112719617771958,1
0.0239908770822948,0.0127614698631781,1
0.0233760729981459,0.0144220092290386,1
0.0235985560984511,0.0122786242576923,1
0.0298277492534043,0.0157032932454604,1
0.0335810024445516,0.0180910371706487,1
0.0368929314549644,0.0216182111496527,1
0.0247525013862966,0.0152154664306559,1
0.0230504146392517,0.018261181757082,1
0.0167516524814006,0.0237658896883881,1
0.00691027299808407,0.0208948411846001,1
0.00750191932560809,0.0210833189707042,1
0.00884530283502641,0.0164320070199176,1
0.0110553767890167,0.0159283434216351,1
0.0105085144330305,0.0160925674661837,1
0.0116525801656035,0.0189047230250157,1
0.0133975179081543,0.022410732712513,1
0.0137764602122836,0.0255041091819009,1
0.0163212704758172,0.0293356010168728,1
0.0157961600202824,0.027787489385906,1
0.0161040455878127,0.0292120017615388,1
0.0168523794074732,0.0297211179321971,1
0.0118136392572823,0.0252746792946454,1
0.00829571285072257,0.0363009355695329,1
0.00849798596025174,0.0289893217755562,1
0.00897223543357399,0.0307034800696658,1
0.00901448031677585,0.0256285822241565,1
0.00974372507608091,0.027015075587797,1
0.00850116161725012,0.0234392513257001,1
0.00862601152102883,0.0256383919343144,1
0.00901122577090701,0.0287443307936495,1
0.00968824384899356,0.0368311017120029,1
0.00753390831139287,0.0450742778791974,1
0.00331957585064367,0.0295044171460753,1
0.00348059675134732,0.0404926164961789,1
0.00340989154613438,0.0390904831919128,1
0.00378438402987422,0.0503393969453808,1
0.0023951700053191,0.0331511421783469,1
0.00216186750784098,0.0359444143951791,1
0.00227587412692429,0.0344912970590283,1
0.00272577290277458,0.0375831726050812,1
0.0025772153301066,0.0337958396385242,1
0.00260494400628489,0.0339787998924341,1
0.00287055686275812,0.0419587233943423,1
0.00291625949839782,0.0304382865701621,1
0.0033902361419245,0.0309781235244521,1
0.00338638167467407,0.0191752990409833,1
0.00568593877150103,0.0320010909320756,1
0.00582757509992937,0.0253598476826125,1
0.00572514868228969,0.0225848029427032,1
0.00740244537867008,0.0220506188113153,1
0.00834818921103955,0.0220933907902971,1
0.00758501347898973,0.019650377435413,1
0.00784420753569136,0.0200602184566077,1
0.00769308059666743,0.022002563854105,1
0.00571833844656915,0.0167679329261603,1
0.00542394667948563,0.0227893959122907,1
0.00466489695165324,0.0227159120863016,1
0.00399906428317155,0.0255550741670848,1
0.00381748627032921,0.0213994707914167,1
0.00483588998856031,0.0284496048314681,1
0.00442985448564864,0.0213207858708503,1
0.00443531873334151,0.0193595121983096,1
0.00423890307295373,0.0199270103899782,1
0.00459846010722667,0.0205985026027339,1
0.0048879676265168,0.0222229222333042,1
0.00464509612161748,0.0211346307310981,1
0.00528924165116832,0.0237392983283066,1
0.00533787422950637,0.0225437685714373,1
0.00515659927281608,0.0284854590085884,1
0.00461097709994235,0.0349049232590676,1
0.00275385368956577,0.0357460314569746,1
0.00215216218748282,0.0381357937690745,1
0.00179319384548748,0.0359106374246051,1
0.0015829477155793,0.0416107218908433,1
0.00241794736247878,0.0452826757283789,1
0.00303926756174035,0.0332166450559652,1
0.010992705297578,0.0550452120160957,1
0.021679520294025,0.0833712142235492,1
0.022176561803265,0.0298161278480354,1
0.022547492818669,0.0286437099521598,1
0.0213019912325788,0.0294352323064028,1
0.0265183506988095,0.0225730252528842,1
0.030061685533195,0.0191475253683764,1
0.0251640370315843,0.0164637794735916,1
0.0245106312326279,0.0161564515339412,1
0.021650201520067,0.0126572606506107,1
0.0220884882196056,0.0132983254578504,1
0.0257242768295973,0.0116529100986623,1
0.0433857525088399,0.0297465699770522,1
0.0472066646531373,0.0287000456123852,1
0.0822736601530284,0.0405932540227907,1
0.1010520178354,0.0513438256969234,1
0.13973390382049,0.0752450676139999,1
0.128241027634968,0.0423120140243385,1
0.119771658711269,0.0377832005524108,1
0.115606351447602,0.03590500375205,1
0.0898084170609411,0.0254152312433911,1
0.0650604113451179,0.0179580962835405,1
0.0916217738189955,0.0218435941600298,1
0.0742882702237419,0.0161154335627262,1
0.078196780362546,0.0170408173030491,1
0.0767671310984539,0.0166020742089499,1
0.0793699163181297,0.0149011958811221,1
0.0556874992919155,0.0134807823130797,1
0.0565151571196865,0.014593295679458,1
0.0736982793650477,0.00933863787241083,1
0.112595398148797,0.0138096497180008,1
0.114037528207275,0.0144474922860343,1
0.110034718167589,0.0150383463432677,1
0.116834895388369,0.0143861320817372,1
0.146414556780922,0.016862454280359,1
0.144827168086361,0.0162626453222219,1
0.141987275249135,0.016694547584079,1
0.153316231421304,0.0184080613723483,1
0.137676492237768,0.0152255349178647,1
0.104820722359069,0.022279878782766,1
0.105618339233634,0.0211249302195238,1
0.167403574944788,0.0233504076587048,1
0.165182085615184,0.0155145219142766,1
0.203295649762282,0.0237113376117198,1
0.197647354164121,0.0240854874436986,1
0.199111852712482,0.0227347495551715,1
0.210522333874512,0.0191313529344376,1
0.30721897912955,0.0253840809299565,1
0.425323804024329,0.0341978607977239,1
0.501936445535813,0.0397066792062952,1
0.450368250671173,0.0506849921834406,1
0.228132769299688,0.0328872726369795,1
0.1757347786747,0.0342124956441133,1
0.176806988889658,0.0347134647248818,1
0.168754870144835,0.0325375576959074,1
0.128520377331238,0.0273154313503627,1
0.128707412467307,0.0496157941475293,1
0.168194429844761,0.0600096323480809,1
0.13679544697812,0.0453024105179061,1
0.105995463226559,0.037698400674145,1
0.0856693104169131,0.0295261989634163,1
0.0594042943068147,0.0220848250442649,1
0.0576920666402653,0.0267019060262046,1
0.0623181567941398,0.0260543567307915,1
0.0630259033779871,0.028324604471474,1
0.0669410289996257,0.0376859136259542,1
0.050814810597928,0.0347639284937206,1
0.0109863412287905,0.0145576282631212,1
0.0134844635347892,0.0202389076843801,1
0.0205988687133496,0.0140441281752453,1
0.0207985907619072,0.0111846502137535,1
0.0207697645795982,0.0105739529709316,1
0.0222839733042336,0.0116701059363211,1
0.0227021405478799,0.0126335891548172,1
0.0235798556406264,0.0117128612772888,1
0.0255907691384893,0.00970761708703133,1
0.0444641765420621,0.0170287953365363,1
0.0473315284772394,0.0162086320984195,1
0.0518209902693285,0.0177867383115813,1
0.0373588703282655,0.0129514445293031,1
0.0358832565354964,0.0159824339981429,1
0.033151567555482,0.0152427349934466,1
0.0475016649060637,0.0206965726977103,1
0.0477926989093864,0.0197287075696537,1
0.0477224732750146,0.0209515650482303,1
0.0549533345323325,0.0194230768632636,1
0.0995053809717351,0.0303374473827901,1
0.104389350800775,0.028000058523093,1
0.123788437598087,0.0310619058298283,1
0.129536093986783,0.025830621037128,1
0.128381608115282,0.0222259730914407,1
0.135514430088564,0.0231561660187152,1
0.134061891006876,0.0241445738608229,1
0.109346916011884,0.0200339622956148,1
0.09620375011399,0.0189422566150262,1
0.087218731016786,0.0212890208471785,1
0.0949530581678617,0.0155415829614286,1
0.114235874105655,0.0193673690504276,1
0.129814075886709,0.0226094697589749,1
