Activity,Complexity,Tag
2.52043001718244e-07,0.224000842374043,0
2.53455906080906e-07,0.244084449240821,0
2.28738086258269e-07,0.225616169040956,0
2.10795564926908e-07,0.214453187274807,0
1.8456520399909e-07,0.198883829476833,0
1.45091657070099e-07,0.179197549756493,0
1.65601603748863e-07,0.185560617504088,0
1.5208204440237e-07,0.185391858165823,0
1.16676800100946e-07,0.173891584120495,0
9.96343702153955e-08,0.175448967454974,0
4.01304772769872e-08,0.136947663334387,0
6.08669789298114e-08,0.146507257235982,0
5.7377122946311e-08,0.14102380872777,0
4.65436041168869e-08,0.132108328512165,0
3.84400134173084e-08,0.125152206324265,0
3.78271683740382e-08,0.123445253916123,0
5.73385730161699e-08,0.140992967595972,0
5.42108886840472e-08,0.141097219512451,0
4.84778221502281e-08,0.131368994828508,0
6.04035890003192e-08,0.143426740337237,0
6.2661033370998e-08,0.142648366408971,0
3.82974775217609e-08,0.132472854852315,0
3.01567207356869e-08,0.130008640717394,0
5.20726525588822e-08,0.161833122018338,0
7.73693144094859e-08,0.184562385074039,0
8.50755442906862e-08,0.182178463484243,0
7.27759419641999e-08,0.176283074085821,0
8.1231622025735e-08,0.179249543873807,0
7.73218683416199e-08,0.184522136534051,0
5.589996870008e-08,0.165324199881381,0
6.58873659858923e-08,0.174443120490471,0
8.46348889353801e-08,0.174731165812847,0
1.6055017905672e-07,0.212796895557734,0
1.50205354726316e-07,0.199668804816421,0
1.26071121538432e-07,0.185589039324837,0
1.21325130908177e-07,0.182692693903325,0
1.55521884322661e-07,0.193079748293445,0
1.54576916804328e-07,0.18956106672006,0
1.52277166356469e-07,0.18834253678291,0
1.94945612880393e-07,0.209894248013065,0
2.22514743689833e-07,0.214806589739985,0
3.24142639523403e-07,0.257767986707975,0
3.20071964592442e-07,0.252641391510178,0
3.17850697848511e-07,0.255386214514937,0
3.15156551961515e-07,0.259820309744415,0
3.09357851700481e-07,0.2557276514544,0
2.84738680160615e-07,0.261934133475857,0
3.32218948733958e-07,0.281598972538774,0
3.46689010973369e-07,0.287340716523046,0
2.48955053467959e-07,0.238219934240807,0
1.74077250697291e-07,0.209280968206411,0
1.26760671058086e-07,0.196402798786247,0
9.9169201058359e-08,0.197534970637011,0
8.55231188642227e-08,0.178732625291831,0
7.9180172666375e-08,0.170310201819198,0
7.99822089052613e-08,0.174470982362603,0
1.20339636540208e-07,0.204246719693828,0
1.03297008962709e-07,0.196319059369368,0
8.36766760564342e-08,0.170397837812455,0
1.03524947780415e-07,0.177668260715617,0
1.68723752706401e-07,0.206555333730064,0
1.77133568235665e-07,0.192762687714608,0
1.61949838058769e-07,0.175373096974597,0
1.77353401683445e-07,0.181374774145083,0
1.74277908025975e-07,0.183644397687455,0
1.64053280400832e-07,0.181064852332991,0
1.5732226490623e-07,0.182836412817324,0
1.74579388248874e-07,0.191357040317751,0
2.54411351272559e-07,0.237370340287799,0
2.34903109701619e-07,0.228541508640037,0
2.896335328288e-07,0.255347748696518,0
3.53559201600379e-07,0.289579744450364,0
3.49931158944218e-07,0.297903227616108,0
3.39915294017687e-07,0.29897985892154,0
3.36413971901118e-07,0.297606985942117,0
3.40978085937887e-07,0.294433522168391,0
3.44062080349183e-07,0.285862144557869,0
3.02951841770762e-07,0.273952150863925,0
1.54306474217492e-07,0.205870168211981,0
1.07921616736005e-07,0.195377956857333,0
7.41993240001824e-08,0.178536547338836,0
4.32461024001938e-08,0.144412536654229,0
9.66355810343095e-08,0.187379128572982,0
1.1952059879367e-07,0.188310713913566,0
2.27283073510375e-07,0.248420985251367,0
2.93913168150322e-07,0.279583025588267,0
3.81218084554866e-07,0.287188381272318,0
5.13315845172038e-07,0.326338321466458,0
5.31183045870661e-07,0.312256172466519,0
5.9575655116056e-07,0.332530382399267,0
5.8510253662123e-07,0.325333367941964,0
5.87177313630623e-07,0.336694918576033,0
5.46382591403511e-07,0.33187402962853,0
5.24520036406666e-07,0.355930643754511,0
4.128636233618e-07,0.317286878429687,0
3.13620090130452e-07,0.287865758280572,0
2.8327734127034e-07,0.304580009353247,0
1.58706108552324e-07,0.239261604179342,0
1.30554774951777e-07,0.237305750026617,0
8.98371525849458e-09,0.120648298731155,0
1.98300840646322e-08,0.136570350048504,0
3.33790995115921e-08,0.144663751709184,0
3.45966842282056e-08,0.151874681714008,0
9.61375950136649e-08,0.197510908862523,0
1.35522378257357e-07,0.229021292475971,0
1.54230362816956e-07,0.241532395938445,0
1.59680334479175e-07,0.245296474343112,0
1.57659329680029e-07,0.238332002715004,0
1.67072431852712e-07,0.229360569023283,0
2.37877780464873e-07,0.265883416001537,0
3.24918580424963e-07,0.303703597872363,0
3.20302078021592e-07,0.291058705932911,0
3.49457686725304e-07,0.297712222543265,0
3.13029188893569e-07,0.287938867387885,0
4.6699583064997e-07,0.309612894649919,0
5.61552680835896e-07,0.31519929741132,0
5.80689261541886e-07,0.320445159114238,0
6.57326324970639e-07,0.337204696748,0
6.77752845646737e-07,0.350055763157048,0
8.35924395167771e-07,0.379515692743306,0
1.58166903760221e-06,0.505928622755953,0
2.11699511365733e-06,0.555472518557991,0
1.72287426863823e-06,0.433080494267694,0
8.03407113940576e-06,0.609705215124094,0
1.50208043336829e-05,0.612545052020947,0
1.7666510750767e-05,0.488362109219666,0
4.00279927819369e-05,0.682212351316653,0
4.65004653612156e-05,0.617397913960513,0
8.85018004017477e-05,0.199850350621103,0
0.000601261564017651,0.295200629308531,0
0.000712688962998297,0.159515902072489,1
0.000678052950526745,0.154502460756236,1
0.000642259331889889,0.150974775416373,1
0.000625530801828577,0.133690199329583,1
0.000725887715559221,0.138275575509755,1
0.0006863881175759,0.110184493557448,1
0.000708337577953721,0.10685274807664,1
0.000670083473452591,0.0984261781654048,1
0.000638493494584204,0.110689553056033,1
0.000412454760825803,0.111515609554677,1
0.000396118432020682,0.122301454376923,1
0.000421415565168893,0.0869791787247131,1
0.000419446924024856,0.0851344226208169,1
0.000465640041073037,0.0960007218308913,1
0.000402756795427032,0.0819324166147273,1
0.000395717189323184,0.0924674995474636,1
0.000369293471237299,0.0840228572819386,1
0.000410603408931526,0.0990148946213584,1
0.000442074467196187,0.088179267425006,1
0.000457505130433292,0.0723445492968388,1
0.000471885547281309,0.0968974009031154,1
0.00044135216308589,0.122911824589534,1
0.000437084726148417,0.107645249997375,1
0.000431456455326229,0.10862835210201,1
0.000366253685688197,0.117732857387673,1
0.000318171241110711,0.113839796037627,1
0.000317426356625949,0.124105079462622,1
0.000314640678773285,0.120145899807689,1
0.000248726275447927,0.142996517479961,1
0.000174867250461836,0.206518985916363,1
0.000172414700940874,0.220997351597794,1
0.000160114924645472,0.194518788281318,1
0.00016049480850706,0.259684752027892,1
9.66379175554601e-05,0.223362190514906,1
9.74374314427635e-05,0.25474377468743,1
0.000108616693722567,0.27009644091857,1
0.000165865236836501,0.153639099593506,1
0.000338834439972526,0.164094075164548,1
0.00034283137738788,0.147382718076205,1
0.000332541302854416,0.138309506713034,1
0.000311740641465552,0.130812256420331,1
0.000294894351845332,0.133747825662018,1
0.000292272175317147,0.128208307369075,1
0.000367672185326105,0.13899598039849,1
0.000344644536779061,0.114750057003157,1
0.000302613904780081,0.105076133986588,1
0.000292451520860605,0.169174222594735,1
0.000154222335535349,0.146830230195533,1
0.000155090632778006,0.171513954784921,1
0.000151682987189373,0.162225876089403,1
0.000153670400370162,0.149653948376698,1
0.000168223078075244,0.14286597125631,1
0.000219058282423509,0.130663751158577,1
0.000195448864426111,0.117257009763191,1
0.000190400915949207,0.133081712682854,1
0.000184712986638977,0.119139036016378,1
0.000275668975823331,0.125565238275868,1
0.000283801674685546,0.0989319909632548,1
0.000303084201077827,0.107335284216391,1
0.000299330679387517,0.110952409959542,1
0.000325469240081693,0.0912586978704181,1
0.000469308972750484,0.0891178993403238,1
0.000482892778619783,0.0859732920498505,1
0.000516519059690365,0.0945431317913833,1
0.000496158281076668,0.0960539618886794,1
0.000486651593709731,0.101991759044335,1
0.000433056771656962,0.101293407335023,1
0.000441202447018738,0.116838575156451,1
0.000430342916673374,0.108401635969155,1
0.000418218014920302,0.101494135201973,1
0.000447721990051179,0.133612517842965,1
0.000322825061230302,0.109556958069522,1
0.000356486588205474,0.156096258159986,1
0.000294582333257684,0.133431009526315,1
0.00044277919056142,0.125990491635167,1
0.000882052528895251,0.153811641619517,1
0.000922079776180846,0.113617026601385,1
0.000918381612980987,0.12152504791593,1
0.000813300378820818,0.115071337744639,1
0.000733388086638856,0.0949888069698876,1
0.000626657277640295,0.0779897518661039,1
0.000610897390882874,0.0775848336143878,1
0.000695336322615668,0.0708272580973726,1
0.000676578603506196,0.0526008252657188,1
0.000742697997567769,0.0643879423325632,1
0.000606552491715775,0.0457198070549674,1
0.000929710854653618,0.061564170235215,1
0.000938884688876048,0.0498599739842005,1
0.000848571845177746,0.0440653790211021,1
0.000782011357675507,0.0462059686923443,1
0.000991231798552184,0.058608071699182,1
0.00154161399067699,0.0714466202806755,1
0.00373925699422403,0.0991205948144368,1
0.00411612732691697,0.102474316047263,1
0.00429439881001362,0.0958394825404156,1
0.00639272694338704,0.115584763951409,1
0.00734251631861278,0.0754525054050656,1
0.00582441627890926,0.0672726163841971,1
0.00460237925472019,0.0458389324084314,1
0.00709220319736586,0.0439765041997178,1
0.00688321875738228,0.0175452571651883,1
0.00830928795677232,0.0222463069398664,1
0.0087238513631923,0.0189311147767808,1
0.0186570622043367,0.0199476997814034,1
0.0266085064927936,0.0141158802958405,1
0.0284743797393003,0.0143389209233731,1
0.0289877763034792,0.0146832561465839,1
0.0273572127185865,0.0140374896884144,1
0.0270655578656399,0.0145881236193816,1
0.0262138139811735,0.0146650908145534,1
0.0257285245686191,0.0173891090407711,1
0.0232436509610849,0.0154711624490928,1
0.022483939056033,0.0163411585043758,1
0.0139910348282827,0.0186727109155938,1
0.00473864147532914,0.0228630466771464,1
0.00404083890986194,0.0313972318189636,1
0.00353257783907443,0.0327500901281528,1
0.00366218901295463,0.0280838129188624,1
0.00503903992788091,0.0328078883479349,1
0.00455444065100281,0.0290211173094228,1
0.0045899618706933,0.0430717240807946,1
0.00379058479570809,0.0479602728627356,1
0.00369784309072897,0.0523207309515395,1
0.00320620292373782,0.0596560618987867,1
0.00263918137683164,0.0553063340088066,1
0.00192770814499024,0.047048262197034,1
0.00172279724686627,0.0449046729575333,1
0.00228916400996364,0.024999966466799,1
0.00277958258363852,0.0172102143065743,1
0.00344005209021089,0.0219890347527809,1
0.00450895662176503,0.011308298867482,1
0.0107558056265076,0.0238979619079994,1
0.0112657725512754,0.0195495322143205,1
0.0125597128535662,0.0214077047086312,1
0.0127234165711082,0.0209158410585174,1
0.0125525560096125,0.0196674482984771,1
0.014606800391526,0.0206678605455917,1
0.0144867420761652,0.0206156654946833,1
0.0140584895697829,0.0239363309892916,1
0.0134242024359992,0.022048397194421,1
0.0133124395112765,0.0344926697708723,1
0.00837186304060292,0.0276258366347683,1
0.0084243425495199,0.0363786209918455,1
0.00686546359800293,0.0307381383071123,1
0.0110301326102682,0.0278015586167405,1
0.0127395418034612,0.0186536594060343,1
0.0109782319370531,0.017274590111398,1
0.010763482653334,0.0178717165624153,1
0.0133978511834789,0.0207072872086553,1
0.0148654766293122,0.0231927340702089,1
0.0156706637040372,0.0256814389116141,1
0.0190302012248437,0.0292428846620665,1
0.0211162028950901,0.0328085742766733,1
0.0234752803711806,0.0355703505880249,1
0.0145602285133088,0.0371117880934683,1
0.00763081578524451,0.0491497342557191,1
0.00579060363284717,0.0459855523113439,1
0.00126079702238882,0.0246002766493728,1
0.00146473882073819,0.0394447042311311,1
0.00176589679488666,0.0318595305080667,1
0.00165603799770345,0.0242440599582834,1
0.00177996920214207,0.0280531722813502,1
0.00178635642421968,0.0275948987502927,1
0.00180086334632076,0.0273651347711741,1
0.00155775563422953,0.0320014022997005,1
0.00159002449634613,0.0369385774531523,1
0.00147846950263209,0.0331537040336396,1
0.00143351067784025,0.0347044740433516,1
0.0013490269740209,0.0330753879118818,1
0.00117079338076097,0.0492530421376017,1
0.00178018070880494,0.0811188419173375,1
0.00544109189397982,0.123164296137201,1
0.00682084164444446,0.114093448815012,1
0.00631601702019494,0.097101490024329,1
0.00590848697162706,0.0803680819116179,1
0.00556144893531926,0.0696936432720381,1
0.00523866338875581,0.0704464810458979,1
0.00437492753732465,0.0467573295555419,1
0.00421667518813851,0.0465974489139003,1
0.00462520704560248,0.0403470678509473,1
0.00486906047545004,0.0457789253259756,1
0.00431612641712501,0.0253221133663513,1
0.00503229647538807,0.024627427946854,1
0.00501364468516048,0.0248271451592556,1
0.00504862478165619,0.0266286238380086,1
0.00459372707380321,0.0229408162726177,1
0.0155139154922691,0.0235038160829197,1
0.0441728743396388,0.0538758575711814,1
0.0478382403025501,0.046346119175573,1
0.0537930967522134,0.0495376667822364,1
0.0527832113674023,0.0501438644826046,1
0.0526252930976438,0.0337054685288703,1
0.0976369379360335,0.0438599773715387,1
0.106186873177747,0.0400709047930141,1
0.12987960916387,0.0402348048269884,1
0.0982288061221973,0.0281472950746324,1
0.0847225584421969,0.0276019918494469,1
0.0910300194508982,0.0247609921437019,1
0.0819890485598585,0.0211921341225213,1
0.0716614478954125,0.01824163973051,1
0.0550085309732309,0.0126543916449833,1
0.0474159854862259,0.0130405913039659,1
0.0452876585512137,0.0156174559631564,1
0.0428695249854879,0.0206237799773335,1
0.0292196357257857,0.015156246767699,1
0.0298902963205555,0.0127122417097839,1
0.0336709104567644,0.0122976977532581,1
0.0519534068206951,0.0139400890423368,1
0.057112383659136,0.00927006560199038,1
0.0616651367507693,0.0106436049211425,1
0.0593631992066264,0.0103025551809828,1
0.0690415974247401,0.0120110610756587,1
0.0824741508488774,0.0148358874225682,1
0.0887002160342014,0.00798133272364852,1
0.120010380575283,0.0118956632585252,1
0.12104584839139,0.012063290505537,1
0.102133337854126,0.00906994013442281,1
0.0902372132909777,0.0134307084274065,1
0.0836060233882801,0.0171469643355506,1
0.0845313500864947,0.0134252830077499,1
0.0880314190853929,0.0142572664412401,1
0.08779872772851,0.0147154373445228,1
0.0934336074827152,0.0153306577492788,1
0.0963594871993108,0.0328770188027664,1
0.0547498292891301,0.0245685319110133,1
0.0529420029545928,0.0309271531658211,1
0.0608228996497481,0.0373887117603395,1
0.0532008055614223,0.0347441331874049,1
0.0272950418032943,0.0197551279002976,1
0.0285383608567099,0.0385418598422653,1
0.0321784900402436,0.0491814572872714,1
0.0382607632046647,0.0628096208486928,1
0.0457358223495596,0.0671155354561431,1
0.0463559801914156,0.0884305704774813,1
0.0363421972732672,0.076169943200742,1
0.0173654923259818,0.0650163255004062,1
0.0135270272031777,0.080235040298763,1
0.00463247401879892,0.0563133519287572,1
0.00141003903986317,0.140427763482304,1
0.000727338699542877,0.0980347533945355,1
0.000265565574483122,0.132050030704068,1
0.000557534165739644,0.179182077840063,1
0.00109669154261489,0.187957487020397,1
0.00199410136889251,0.15339113927153,1
0.00240560542221423,0.0869878676604623,1
0.00266025775997315,0.0773181363796017,1
0.00245406557208802,0.0596817457270968,1
0.0022076292405788,0.0567263668694828,1
0.00169515217862521,0.0450495412828793,1
0.00135500986466199,0.0386769312200281,1
0.00125250080836369,0.0328726798449692,1
0.00174022976408799,0.0434750580333427,1
0.00260339485988268,0.0563134134720476,1
0.00261558595067965,0.0649145706633275,1
0.00351632717829638,0.0784603634887447,1
0.00931052050077075,0.0996278535219584,1
0.0107260510161394,0.106456811860818,1
0.00930816728196517,0.0867595997660098,1
0.00747288018106514,0.0745344639141443,1
0.0139119337181623,0.0323572126740493,1
0.0193862746022787,0.0171848932451167,1
0.0183803623288515,0.0168354258730701,1
0.0187327046805563,0.0168799473108225,1
0.017164615380323,0.0140510108974798,1
0.0150239191196038,0.0121486258266793,1
0.0183799864779057,0.0150045094966617,1
0.0185977354056258,0.015254302308742,1
0.0203076083364885,0.0123647636772427,1
0.0320225413834828,0.0184333148086613,1
0.0692764622976556,0.0176265207832284,1
0.156363251924473,0.0275278707310846,1
0.171396938524884,0.0212072020810737,1
0.235349007215403,0.0217920935568951,1
0.215130997990623,0.021294754864373,1
0.180689824836747,0.0173820363011408,1
0.160931388172979,0.0151651017347569,1
0.139431987598672,0.0110759780192712,1
0.15296736809903,0.0129748862130225,1
0.154654400311143,0.0123599425287213,1
0.147963054855824,0.0163673779322308,1
0.125037677268651,0.0170631345280224,1
0.111398037028993,0.0266754082170496,1
0.0491427654289772,0.0137845804810601,1
0.063611002897955,0.0133506300498557,1
0.067012559503376,0.0171045821588512,1
0.0659840884887159,0.0170341025387573,1
0.0637097288973857,0.0217683016577749,1
0.0467127762191196,0.0151700716584421,1
0.0481517861981011,0.0199342932157443,1
0.0480831417648346,0.0212851497347031,1
0.0376180277398199,0.016997718631367,1
0.0313953156110112,0.013411501533538,1
0.0277365556111795,0.0206878366524084,1
0.0248451833908799,0.018080887094509,1
0.048473908236117,0.0287755967374171,1
0.0515888699179912,0.0348994007610102,1
0.0474325327143842,0.0335460670072686,1
0.0578800242647275,0.0378536603207184,1
0.0652581070392981,0.0405046751863719,1
0.0753982858036295,0.048164886102978,1
0.0887635980151205,0.0519166016652362,1
0.125851426573863,0.0751956108752464,1
0.154295714022606,0.079206992019914,1
0.161353387636543,0.109636712430002,1
0.125850743790943,0.105443527461833,1
0.100886104443967,0.0916669763565021,1
0.0680342280726841,0.076504502029017,1
0.0615459982889323,0.0953420085673661,1
0.0569570784038723,0.111750898893907,1
0.0396678766215326,0.0827655506721534,1
0.0190813970944307,0.0739041512792352,1
0.0154013656895355,0.0943095056936775,1
0.0108255175087236,0.0595851220364763,1
0.00458850687079538,0.0388527855811112,1
0.00229361299750058,0.0571403620375897,1
0.00228568384879334,0.0598656609667811,1
0.00228999031783162,0.0576879477977794,1
0.00235396853312336,0.0612491900402257,1
0.00228432143791995,0.0590932059028851,1
0.0021696561061562,0.0552291858184918,1
0.0023464366250378,0.0553825611736222,1
0.0021952540345247,0.0506532670171685,1
0.0020410014347242,0.0750252642313715,1
0.000909329613341619,0.0462298951036617,1
0.000975039271661854,0.0365719828698138,1
0.00202268293552879,0.0404794990740845,1
0.00202721593225964,0.0373626014308781,1
0.00204439440959326,0.0343850281158294,1
0.00245996685727161,0.0388556848374308,1
0.00239477312116721,0.0317151630674814,1
0.00196843598308855,0.016702363779312,1
0.00514939015087511,0.0282595293651849,1
0.00527566586440509,0.0246971891703868,1
0.00952596603280115,0.0225357504888005,1
0.0365032537234165,0.04716314770201,1
0.0580968146025701,0.0535270173603813,1
0.0564403677814737,0.0511848601007423,1
0.0537091507080259,0.0425263304550057,1
0.0510837951859464,0.0368299969876658,1
0.048376343128294,0.0211544606976783,1
0.0426693116149989,0.0179956546895573,1
0.0435243592334207,0.0195926172702358,1
0.0340079849275509,0.0125965940297404,1
0.0285943370607634,0.0100240120950468,1
0.0628946866727884,0.0188509474246671,1
0.0859123932515631,0.0255591351380449,1
0.102047713737806,0.0304162182706038,1
0.10035318502384,0.0289402423715917,1
0.0805565429004432,0.0227686885163312,1
0.0708973764530931,0.0220642462841176,1
0.0633119375187913,0.0210145202284008,1
0.0552927629531098,0.018572584793111,1
0.0396031270341979,0.0154550372732632,1
0.0188534345173148,0.00674382728813778,1
0.0305127275539987,0.0134434806194976,1
0.0621171277490135,0.021737286430255,1
0.0645277030738884,0.022808061745689,1
0.0645495249559413,0.0261947186275915,1
0.0835288843314172,0.030433744389532,1
0.10613214404199,0.0270095353821103,1
0.0992791213049215,0.0221274518888813,1
0.0876888054038096,0.0177276967223072,1
0.0851816660463731,0.0159166522704825,1
0.0771352259147666,0.0139658249422915,1
0.0972439069746393,0.0207052618234286,1
0.105191683590321,0.022030187563071,1
0.10821188835914,0.019042756897885,1
0.107354992906357,0.0172986659114052,1
0.0880197397660715,0.0178979195217966,1
0.0503448234268007,0.0130755872889375,1
0.0499081819645529,0.0147128384168274,1
0.044525276168548,0.0163027713203168,1
0.0514827500514486,0.0148399507126493,1
0.0692719902321536,0.0210512669238458,1
0.10568747411831,0.0335167653868506,1
0.138259183797539,0.0484077882237826,1
0.146009414178363,0.0729399279318829,1
0.152447012611972,0.0745477324916323,1
0.150397377154337,0.0707189712417792,1
0.164414977315356,0.0725915076469499,1
0.137386512086535,0.0785440275362077,1
0.0591097214407582,0.0424623471303902,1
0.0220875483286565,0.0537240932314309,1
0.0115018643747613,0.0389413148818505,1
0.00912440396158678,0.0370478366257162,1
0.00615948370768131,0.032744668501938,1
0.00630834843876859,0.036696489629971,1
0.00448350532527157,0.0546866028773068,1
0.000972796815701707,0.0407376761591155,1
0.00108840821098796,0.0409352883984661,1
0.0010174183756555,0.0303844494489931,1
0.00145469252410142,0.0388359194838873,1
0.00136763546437387,0.0338377589501755,1
0.00223057555252939,0.0433609831626995,1
0.00253456737256939,0.0390489759333712,1
0.00256630329929868,0.037021815106939,1
0.00241279213168842,0.0348887363033702,1
0.00221326993910769,0.0351336173351609,1
0.00229249060699299,0.0292341221298146,1
0.00540286940832908,0.0363437583865995,1
0.0124385571992217,0.0526589802933579,1
0.0131842947714012,0.0436212930978641,1
0.0130167913355142,0.0447630585788475,1
0.0130591118418348,0.0459907779609885,1
0.0137972076504894,0.0453347657515914,1
0.017109276533533,0.0472727818326863,1
0.0211341385130186,0.0497802556978083,1
0.0190403025045539,0.0487811082905145,1
0.0134389828929846,0.0266679629885378,1
0.0162420152204144,0.011784219931063,1
0.0470679930922299,0.0294873680842941,1
0.0502159846132255,0.0277092448618393,1
0.0450888343756942,0.0237788318435637,1
0.0427741716650799,0.0112670378785205,1
0.0673168710798643,0.0203255201688055,1
0.0691271087194511,0.0205906457870779,1
0.12678046723462,0.0266174444932072,1
0.148268240641928,0.0255261522808108,1
0.177459136209433,0.024547553372012,1
0.207973459657393,0.0205631595648188,1
0.206222228299746,0.0195622721977159,1
0.296624635518088,0.0203627252202093,1
0.255359547603355,0.0100014916413212,1
0.19580047913029,0.00733937046407315,1
0.209762856347949,0.00835335933905341,1
0.173932401702147,0.00549763454871612,1
0.167280828271632,0.00607584842953514,1
0.153350424917791,0.00545209850807344,1
0.145070507188254,0.00700441593979841,1
0.137141960626974,0.00876587926727763,1
0.0950011359063741,0.0052633491096131,1
0.0740799261908243,0.00854649105745425,1
0.0981554959343459,0.0383533440452415,1
0.103576619845823,0.0483869651026444,1
0.110572667177683,0.0582590605481734,1
0.0910047822350168,0.0483671533459012,1
0.0759643733442452,0.0304012770981428,1
0.0883700270858434,0.023368972577842,1
0.0885854172236011,0.0196504745255854,1
0.0867501725879202,0.0183740080679976,1
0.0811956966230748,0.0135450900950564,1
0.0850406190226689,0.0168918745624846,1
0.0861417181972464,0.0136312037672806,1
0.0923606698139775,0.015966878140364,1
0.126717497304613,0.0211712628833516,1
0.17359330195859,0.0283218592533169,1
0.17190733787608,0.0295561771503446,1
0.104066031816968,0.0226584505104127,1
0.130528165813075,0.0289900593320749,1
0.163534209693194,0.034968572207591,1
0.191649124452568,0.0539223251077453,1
0.137733373825907,0.0491972584975428,1
0.0956049016952044,0.0493881600910775,1
0.0724066412285744,0.033690973777547,1
0.0669578318400285,0.0406621194349161,1
0.0676787684328715,0.0412904196342632,1
0.0419547953892658,0.0564128160460224,1
0.00605730868257384,0.0292632086698478,1
0.00135606198536846,0.060147222207402,1
0.000836946746234334,0.0306188748015322,1
0.00157754989236139,0.0460068847647458,1
0.00172471641520457,0.0418813453472563,1
0.0028547947940055,0.0593242433157844,1
0.00395200761391575,0.0751205646270959,1
0.0042568522337311,0.0719013236033187,1
0.00414010362301798,0.0859758976607865,1
0.00386343254571447,0.0283349035278791,1
0.00897189218470469,0.0344252888693359,1
0.0091476264306077,0.0311218814986577,1
0.0101280992026339,0.0314296863782148,1
0.00996857590890632,0.0283545523450993,1
0.0101107775913866,0.0183030512025165,1
0.0280161280186961,0.0315124608153066,1
0.0384220876096453,0.0241777531753531,1
0.036921694734065,0.0251784412590517,1
0.0304206375792786,0.019557497031635,1
0.0238274797576028,0.0183803244080487,1
0.0255759630706302,0.0188608763532725,1
0.0325768288565114,0.0238270586402249,1
0.0402800333012373,0.0247148708889992,1
0.0332300561347909,0.0198176044699728,1
0.0284173359724268,0.0167646020254358,1
0.0291520469200831,0.0209714785797132,1
0.0286876676356946,0.0286502979699042,1
0.049631781340907,0.0250298919705897,1
0.171146870070357,0.0436524068933801,1
0.259973566999597,0.0350189266809793,1
0.242116801241203,0.0347661619014619,1
0.234518988010231,0.0339164299456039,1
0.241932142844626,0.0335476280630386,1
0.200093173048886,0.0261852583034033,1
0.172273353507646,0.0223556207933919,1
0.157561912433725,0.0190737167948693,1
0.12114017613005,0.0144202390382634,1
0.111572111507851,0.0154371582260322,1
0.0879580550832227,0.0166529049584556,1
0.0861008287776101,0.0253426245086473,1
0.0929820552817196,0.0234058249559547,1
0.0819712098940159,0.0232008121289982,1
0.0830734576756235,0.0259176592076342,1
0.0661421463979852,0.0222912071583672,1
0.0627571359523952,0.0228683496989111,1
0.0666842132555172,0.020325402735512,1
0.0624610340995065,0.0176345066893036,1
0.0558729592500065,0.0147679153746182,1
0.0643711515497947,0.0180093271466061,1
0.064505754167048,0.0108372161851698,1
0.104913868448355,0.0227543481654528,1
0.113602111262229,0.0223534048077672,1
0.11553017593694,0.0199021975334528,1
0.154746669028644,0.0277437627364986,1
0.195416287692589,0.0358472144321591,1
0.245719113107155,0.0479240118216968,1
0.265635971502967,0.0559210696155656,1
0.271077783845125,0.0577348738278758,1
0.311872877366977,0.0602602876581146,1
0.274299882694765,0.0910579048858159,1
0.161113689963299,0.058854719915367,1
0.0781989526393399,0.0320198546843935,1
0.0409664793192267,0.0234641367727669,1
0.0655706366600423,0.0383485048872805,1
0.0852176654275355,0.0464449031777475,1
0.100688913558214,0.0556124766696537,1
0.0984134829733179,0.0555017010236775,1
0.069774901395036,0.0455188934057156,1
0.0631272933447661,0.0543749627832677,1
0.0355945466827482,0.0511763894387719,1
0.0215567001017791,0.0599122677982041,1
0.0110307287750533,0.0430583598337806,1
0.00326645416519345,0.0808096670928089,1
0.0033190099737137,0.131377903030055,1
0.00358212995506017,0.126352771037394,1
0.00361830351409851,0.12382890827543,1
0.00329258255483452,0.126049363293388,1
0.00217263537207112,0.0947846472734021,1
0.00184490227508499,0.0533941392656921,1
0.00210626928554044,0.0464253127982274,1
0.0016780089906884,0.0494780910940853,1
0.00157879816361317,0.0426192350321849,1
0.00267348903048746,0.0500587579156995,1
0.00294509196409297,0.0433255993477185,1
0.00365456362030002,0.0306496127841248,1
0.00362708247506036,0.0202801483549395,1
0.00460534245935037,0.0241959546411696,1
0.0056369047055287,0.0263351184563309,1
0.0062561681953316,0.0210659502707015,1
0.0065740055054813,0.0145963481050093,1
0.0200562101742786,0.0255397981836821,1
0.0236380942118221,0.0239926268323278,1
0.0372370645638116,0.0266378409124985,1
0.0498618072557853,0.0321013677040155,1
0.0556109021121779,0.0386742629332743,1
0.04913162630528,0.035214652940589,1
0.0450768467708023,0.0333123468707095,1
0.0633147407002892,0.0256731466122231,1
0.0889206725071711,0.0279675474795202,1
0.0672811600377478,0.0194263884915338,1
0.136500288410916,0.0341540009853558,1
0.192188101661699,0.0480536381876195,1
0.250352098013747,0.0566243436871434,1
0.295312970736034,0.0526504485948745,1
0.262378250289295,0.0380996613674095,1
0.222013498915687,0.0345323978576835,1
0.162243653254743,0.0268381726064679,1
0.134230054724112,0.0281997415675691,1
0.132353521240316,0.030177175952725,1
0.105025693983502,0.0234612395218908,1
0.104477929394302,0.0226927807778107,1
0.104273331231399,0.0181267350292893,1
0.0921314047853633,0.0164004383535391,1
0.0590018962542013,0.00934151125560375,1
0.060129407203701,0.0138336693714916,1
0.0565796034155251,0.00679654307807827,1
0.119078812075014,0.0176487982912745,1
0.133844158108537,0.0138747599726481,1
0.131798479429372,0.011243212222766,1
0.149376967123807,0.0111933783980504,1
0.153765605561969,0.0116139296221564,1
0.139152060412393,0.0101575371610251,1
0.147697437827267,0.0119419877402456,1
0.147395322916736,0.00964189350491959,1
0.155229819187355,0.0106097474551502,1
0.228920666230816,0.0215484214347134,1
0.231146548410602,0.0189935762989821,1
0.229631386478535,0.0213359986932195,1
0.276478717792927,0.0324848405381185,1
0.282431223953381,0.0382143248936859,1
0.344984606899087,0.0513527313887671,1
0.325915824572036,0.0551890997892927,1
0.216858407265136,0.0413232510177216,1
0.172155884329744,0.0489778436176858,1
0.172077819114961,0.0449029702312605,1
0.177292839499637,0.0486345851423618,1
0.144423562599666,0.0838570812614509,1
0.0590954007086913,0.0556913961220228,1
0.0360720511470571,0.0695114525471159,1
0.0235021234348135,0.0512148505742048,1
0.0135233278364292,0.0561067398106384,1
0.00945741452167005,0.0662024152804618,1
0.000949583273263072,0.044949450293686,1
0.000641946058156053,0.0570312917199759,1
0.00166872331382711,0.0521100653288804,1
0.00359891134379723,0.0885997884276941,1
0.00466675081788142,0.0870686942496039,1
0.00690076594918004,0.0368926967946088,1
0.0173288874078544,0.0500048971735263,1
0.0171955856350614,0.0302104261877084,1
0.0161966118425728,0.0284631692233179,1
0.0165824493205781,0.0286221678231428,1
0.0160425738988656,0.0267815807154725,1
0.0139557111684835,0.0228692974488173,1
0.0137415925195132,0.024993573088542,1
0.0139711601575666,0.0250580681118004,1
0.0159080153558463,0.0233705648546014,1
0.0334491599055389,0.0428213165232179,1
0.0329203919175041,0.0309116847741529,1
0.0321744241984855,0.0405415380504411,1
0.0335453657309636,0.0361600867209882,1
0.0295835339073494,0.0284930640427041,1
0.0219396885754673,0.0223059557829745,1
0.0237876937496516,0.019675384120298,1
0.0220595117536511,0.0162195652040866,1
0.0209888400527724,0.0120909569925265,1
0.0354594102988129,0.0219996573874002,1
0.0474607026254926,0.032160876469012,1
0.0563503549560664,0.0541199654338154,1
0.070627216896285,0.0642512810255508,1
0.139529363830223,0.0325859488803406,1
0.290141689977674,0.0338915903679994,1
0.246642300353044,0.0249111432923461,1
0.229508567668113,0.0221664485712245,1
0.199776688962271,0.0204307092829545,1
0.171746350592215,0.0175521771790591,1
0.176423381429622,0.0174715338647005,1
0.148929121909991,0.0143112867413108,1
0.133603929636363,0.0118595255489921,1
0.238866398947648,0.0150885165923975,1
0.540680127550847,0.0392059390809007,1
0.873327991878652,0.0452789546343681,1
0.783160313121629,0.0268045907843485,1
0.712748518987017,0.0255328546614886,1
0.714483003584243,0.0237185622046488,1
0.711196114137457,0.0231599033722034,1
0.713270019168782,0.023426966502549,1
0.669163500630355,0.0225064357867877,1
0.70743485078296,0.0238123373940576,1
0.730318938598006,0.0271718449963475,1
0.584140229929488,0.0173632340283059,1
0.299583004649847,0.010077778120346,1
0.32180885268885,0.0205212778692476,1
0.336085735731103,0.0246024029621985,1
0.309013406106448,0.0193594745353556,1
0.32850183074063,0.0217473110167829,1
0.4045952251214,0.0266004799919957,1
0.540919820496288,0.0328359688143012,1
0.66621120727737,0.0392742727704171,1
0.847262565643756,0.0623714062579151,1
0.807806617087031,0.126145200086797,1
0.709653360094473,0.130088582352432,1
0.512983841024305,0.074805960767301,1
0.280648477409265,0.0419850465467376,1
0.162385164887543,0.0440308036460553,1
0.0988350682765969,0.0287675390746242,1
0.0682694264590352,0.0186814839440297,1
0.0618908013137657,0.0177746145616508,1
0.0545013741906946,0.0159727079150743,1
0.0582615607550993,0.0192662552635281,1
0.0615199578496719,0.0203803463933821,1
0.0621313917377579,0.0197115514819882,1
0.0431867756936075,0.0339103582312316,1
0.00690572092016774,0.0235922073729622,1
0.00597604640109674,0.0429876454313055,1
0.0035977792646049,0.0522157153160716,1
0.00615958276479103,0.259610454364012,1
0.00759792879773267,0.185919792079518,1
0.0067690465561272,0.149340281788611,1
0.00592650480943962,0.116257472668676,1
0.00415163319305989,0.0455467092604185,1
0.00463174766872518,0.0514263125231398,1
0.00473454936050857,0.0430675937036949,1
0.00477573922386885,0.0470285512274648,1
0.0305442353410553,0.00790796646350397,1
0.104882350440625,0.0276491177328148,1
0.108736064328524,0.020544732663895,1
0.108248820093691,0.0207384337216343,1
0.118257279113671,0.0207847020349176,1
0.121783275789528,0.0193702731944158,1
0.111550045923222,0.018062796508289,1
0.0968509677486359,0.0116499849599982,1
0.0903602479588672,0.00975131754743106,1
0.0765333151719023,0.00717167396323462,1
0.07376942137096,0.0119890305063753,1
0.0537452714147146,0.00564889015364166,1
0.0743468936949992,0.0131677763118594,1
0.0617336374540809,0.0105897962333103,1
0.0839507834977497,0.0169837939727338,1
0.10314472176052,0.0223446023483061,1
0.077990413914044,0.0161272688416998,1
0.0639555496019306,0.0167543101708406,1
0.113154420721211,0.0212440507098444,1
0.154570836461045,0.0223420677809848,1
0.176376168868963,0.0184421344273625,1
0.459964120015238,0.0347631101995504,1
0.539722194945314,0.0156038362516911,1
0.512412697249548,0.0121805191246851,1
0.862891454187367,0.0186460541307045,1
0.954713289469261,0.00964566955479637,1
0.909370686571276,0.00962245295619188,1
0.806567749041762,0.00785502693739761,1
0.797048903263298,0.00846122366390631,1
0.789383993819211,0.00785154896632782,1
0.760230460632074,0.00875735812679948,1
0.656402132183628,0.00818510454203531,1
0.617955806776309,0.0133683225029086,1
0.593323268879461,0.0144815821652184,1
0.339244017682873,0.0119343766900856,1
0.209866338198884,0.0356990029441777,1
0.205540648524446,0.0362700836949882,1
0.214359847148986,0.0229488657883192,1
0.330579394983317,0.028401040248178,1
0.374298307903944,0.0238855837998783,1
0.411049766908806,0.0225514028930797,1
0.421281328775779,0.0192940360228284,1
0.399476603191208,0.018747578221199,1
0.385401198578696,0.0203854105667226,1
0.40556937120838,0.0176145766789632,1
0.434747831467721,0.0158921895903267,1
0.468001112590326,0.0167565939274165,1
0.593673030140362,0.0277280809951821,1
0.476872932726701,0.0270191668362329,1
0.365730830147429,0.0273606530737137,1
0.440328348539037,0.0358126174242187,1
0.484572153223954,0.0457996945682227,1
0.413073731302727,0.0386565979759999,1
0.37203860630003,0.0406841427105686,1
0.106419718473397,0.0231648275083595,1
0.0603909956204414,0.0466202091464781,1
0.0184737362649419,0.0283031245402639,1
0.0174650734371952,0.0499002433472517,1
0.0140073615026038,0.0453244892586935,1
0.00967860545838653,0.0313083779038793,1
0.00900528822542788,0.0492118213850945,1
0.00952278210174865,0.0571239805820119,1
0.00803481861820198,0.0467893430845045,1
0.00384361806033542,0.0270131410030997,1
0.00257388432770522,0.0353777637030593,1
0.00323880099771091,0.038479456314325,1
0.00272251204848432,0.0425267862880236,1
0.00243898782159984,0.0549829725523773,1
0.00220671017545045,0.0346849946793344,1
0.00262749526955955,0.0345678561137029,1
0.00270155163064958,0.0317217804532804,1
0.00294103282863879,0.0152872954109338,1
0.00939929503955594,0.0320401859788249,1
0.0101974789938079,0.0232745762078106,1
0.0106866369047019,0.0220992115945593,1
0.0114537636442716,0.0176494966799065,1
0.0117450564311343,0.0157675699636122,1
0.0112978814910825,0.014942763102264,1
0.0108457839036653,0.0154946481128303,1
0.0107243091468375,0.014961061913156,1
0.00871841395603962,0.0111628838694759,1
0.0395642233066364,0.0185022636897834,1
0.0558864758202507,0.0138909789665205,1
0.0541625868512244,0.0145347215400882,1
0.0665802078583759,0.0111453610847074,1
0.119080501582044,0.0199432944501999,1
0.10771739461502,0.0137271725481413,1
0.10522413387691,0.0127312321848189,1
0.0994609972264532,0.0112372031686358,1
0.0912345644320968,0.00813136049386905,1
0.0959624944056492,0.00804281566783898,1
0.144042210187385,0.0152556872316171,1
0.209335944886685,0.0288750692904564,1
0.212285944753487,0.0266331786709854,1
0.377308445204703,0.0372766145970158,1
0.572193827847422,0.0489328384060805,1
0.536880910633233,0.0529076450602131,1
0.480538013673966,0.0517408037043922,1
0.414892090545716,0.0497927095519749,1
0.526736249821736,0.0508628772545565,1
0.511581626649001,0.0231760754994291,1
0.495198094764526,0.0152355386064253,1
0.519380064160889,0.0112686501197523,1
0.468086015050373,0.0102875193898404,1
0.487519104539348,0.011283199069831,1
0.538878403354933,0.00992513612078396,1
0.661011004568945,0.0130761688265561,1
0.741235433861007,0.0128331227711574,1
0.741718490846119,0.0137401254092235,1
0.569815349055801,0.0099057634470752,1
0.449309228251885,0.00960112907383395,1
0.491465754240417,0.0129740179541977,1
0.504324791038599,0.0166751651040689,1
0.397678675488492,0.0107324602012857,1
0.430429443517561,0.0131805967039732,1
0.47022304772975,0.0118422812522205,1
0.46353919426179,0.0118052465521678,1
0.474660812018935,0.0151760883507796,1
0.443070504649788,0.0153486944491768,1
0.431871230555619,0.0189523351132048,1
0.436402660807093,0.0195153659629669,1
0.398361696188814,0.0216440365341495,1
0.379153511912637,0.0266637941739305,1
0.418994313461426,0.0326901957192153,1
0.312401752064184,0.0258737714847819,1
0.211577938740912,0.0158187732896606,1
0.23847738910693,0.0079712868732841,1
0.339077529762853,0.0119374146932614,1
0.46894470959637,0.0176484576416829,1
0.532465027578957,0.0203031468403452,1
0.560715771508597,0.0207447094290358,1
0.487044043447898,0.0168434414073756,1
0.399503176958669,0.0127216279377071,1
0.371995278786503,0.0149158712406451,1
0.384555746098182,0.0150163109907677,1
0.181079314784226,0.0104855918574362,1
0.019733667492275,0.0226555143715093,1
0.0148784447793541,0.0377563587449271,1
0.0156045375767855,0.0439039683019972,1
0.0161222860131219,0.0459891043883567,1
0.016963823367475,0.0474812547632566,1
0.015067576631603,0.10253161450111,1
0.00368548350866503,0.0733321775109345,1
0.000723689446122077,0.0678473304456344,1
0.00108018020088308,0.173923414037356,1
0.00314302752912662,0.169960185190185,1
0.0057821738630833,0.163944299825675,1
0.00800924159259405,0.0806821657247057,1
0.0140568596603512,0.0577332019172923,1
0.0127722764843506,0.0406604714460458,1
0.0109270357477982,0.0365558742178752,1
0.0100657255382345,0.0344726829098378,1
0.00876038721566026,0.0300771556675272,1
0.00753695352473449,0.0259186454180899,1
0.00750438565018359,0.025017133147895,1
0.00736828161100876,0.0270460663883379,1
0.00728413723909449,0.0253146657961285,1
0.012437491320144,0.0176093234765351,1
0.0478160046838662,0.0412465200334959,1
0.0981092519444376,0.061530897383583,1
0.100783536730095,0.0427861041745984,1
0.0970697539496063,0.0422512403178125,1
0.0910003800186274,0.0336859191400926,1
0.0838896533536691,0.0290110209293573,1
0.0753844831733322,0.027287755132265,1
0.059833898067059,0.0208115112508135,1
0.0380142247375867,0.0124278580723941,1
0.0326969224308244,0.00746459324714547,1
0.0539435404941723,0.0164517104045484,1
0.0479144368165864,0.0148274091880855,1
0.074617534210225,0.0258705746877512,1
0.0783734982936322,0.0149324290109973,1
0.0852568191652325,0.00610971872224847,1
0.383252684464895,0.0221902283143894,1
0.491586248556871,0.0180190964631619,1
0.56235235744799,0.0200380405146019,1
0.534075691889185,0.0152066345635985,1
0.463768573240637,0.0131844431059927,1
0.487493586101727,0.013910367413745,1
0.435071453025071,0.0108958821129727,1
0.409360918984704,0.0090852877324939,1
0.48503124395275,0.00847543302809167,1
0.593771824887761,0.00965021061662791,1
0.58699260635412,0.00832857096211566,1
0.614847791917775,0.0108079597901669,1
0.61288880392593,0.011666999147095,1
0.692724865911299,0.0145731347196071,1
0.748077682657274,0.01626787641266,1
0.766560066433846,0.0164191157886133,1
0.760581728706351,0.0183291571430127,1
0.745251727353649,0.0192458885458074,1
0.572520079010564,0.0319796608521597,1
0.13695475732414,0.00866910590478217,1
0.100032156752119,0.0157793980493576,1
0.102520324831939,0.0183565786185424,1
0.0936602286647981,0.0189337864854256,1
0.0870114734306825,0.0218443482268441,1
0.0726113498852641,0.017800353703231,1
0.0714558513312295,0.0198307359488596,1
0.258137933173311,0.0195442585116142,1
0.366871034281192,0.0179100856990494,1
0.389883908157496,0.0204012415548958,1
0.391909543246873,0.020080551058737,1
0.382156896070043,0.0212503858878983,1
0.353835029662868,0.0202785086759044,1
0.356986403354867,0.0184540310161478,1
0.318594503423133,0.0136148833568526,1
0.356874629431553,0.0104524910285151,1
0.467896069913015,0.0144922254272209,1
0.431786006767671,0.0227761071583828,1
0.474895475407971,0.0304090562986492,1
0.473776503479924,0.0306641365986981,1
0.494899930477722,0.0328603415672737,1
0.496261931884633,0.0298356727426401,1
0.398223280079622,0.023474270978089,1
0.380693882850537,0.0230148750669768,1
0.213441338226145,0.0198176419309459,1
0.0552824558578925,0.0247303627075582,1
0.0341173097160772,0.0129906409214308,1
0.012666370426989,0.0122675492757523,1
0.013293459347604,0.0144224609875483,1
0.0146307124071012,0.0175627191348217,1
0.0164325765659506,0.0201012712865438,1
0.0142999589928737,0.0344165438985321,1
0.00829213734886358,0.0351554480640872,1
0.00971799327027089,0.045627970964627,1
0.010347873890633,0.103267917029793,1
0.0052039862017958,0.146004348744997,1
0.00365522792455773,0.139381940969152,1
0.0029733568685554,0.16396900256962,1
0.00205073441591413,0.160204057212065,1
0.00127730763009043,0.176060880840821,1
0.000996052466130189,0.139845834163366,1
0.000367322111828957,0.0624157211780944,1
0.00136487570512193,0.0988724957932685,1
0.00201708613825341,0.088107994703699,1
0.00359673620234125,0.0484121241460805,1
0.0101707562041778,0.096738494166338,1
0.0157746901826526,0.0811836725072678,1
0.0147358596031572,0.0487470197070516,1
0.0136789970961463,0.0449551217714271,1
0.0122200601379496,0.0372927408689253,1
0.0145894558082765,0.0357203960019085,1
0.0165860105732069,0.0303665911403004,1
0.0164066349821541,0.0231529083311795,1
0.0153143337349063,0.0215178147229057,1
0.0162059427760636,0.0205873712076508,1
0.0216987139901528,0.0263933738818361,1
0.0219439361520738,0.0280281829348033,1
0.0531400080680496,0.0274859362551162,1
0.0855159328162261,0.0356443688237455,1
0.0866051288853817,0.0262460360085593,1
0.0844379313008225,0.0250031056912595,1
0.0938815653255882,0.0272696459352324,1
0.076583888745387,0.0166930007052212,1
0.0764539621708052,0.0155250024841964,1
0.0841899162860173,0.0184975208385652,1
0.0927792078591493,0.0185088056305426,1
0.0898472973092426,0.0168855276893928,1
0.0841387751988464,0.0222963394405281,1
0.0665943373039102,0.017700171304784,1
0.0587063505939716,0.0180662170569404,1
0.0587514122084949,0.0207050491038478,1
0.0392746214497909,0.00538136047786133,1
0.0781104498206269,0.018472618918364,1
0.0759313502887253,0.0119922162551868,1
0.0740666104692746,0.00932343501251703,1
0.149395065756935,0.0125530981026882,1
0.205969964894239,0.00980667244504568,1
0.202121178016568,0.0112159700512113,1
0.189031837391921,0.00793484955584542,1
0.222181860644023,0.0104519826266559,1
0.212627898200894,0.0087340172249766,1
0.193338332369954,0.0101981153437739,1
0.27298167225299,0.00776127207321393,1
0.370535276251105,0.0140980562910831,1
0.351813106459675,0.0148303385337743,1
0.389940822945397,0.0185542616758733,1
0.40147911218283,0.0258711493642301,1
0.303851121773951,0.0133469530357506,1
0.292016454415456,0.0147845476119443,1
0.336627858304552,0.0178511465060978,1
0.410540389432832,0.0223411996358713,1
0.450413337837954,0.0236630762283841,1
0.48055015641801,0.0507092568887822,1
0.440378178154224,0.0507919940926259,1
0.406494965392303,0.0561110660751975,1
0.311054056413384,0.0473192000593295,1
0.171442117518409,0.0305730292602372,1
0.0437124529016526,0.0413037492154473,1
0.0381052970182695,0.0474399625363485,1
0.0232997071248104,0.0397526651171115,1
0.023419669848799,0.0393435592341694,1
0.0189747717438072,0.0268583328819615,1
0.0154615197375235,0.0190965242921223,1
0.0174643770497088,0.0235536978842661,1
0.0191311177963778,0.0261338365774196,1
0.020735268889122,0.0277846811670045,1
0.017913650886967,0.0523651127822792,1
0.00664925550130365,0.0377217805399739,1
0.00569462083062992,0.0414108885438843,1
0.00643005801567547,0.0474865973862596,1
0.00686265244398412,0.0498866315919603,1
0.00373050730985836,0.0690669292042222,1
0.000729169028084483,0.123635311759302,1
0.00379871391575294,0.0485388288314894,1
0.0078808733301415,0.039194968539279,1
0.0136009064878324,0.0196625012443384,1
0.0300065392848826,0.0291242193164285,1
0.029476747966613,0.0262983407349512,1
0.0277451875891654,0.0249711632166587,1
0.0245248827241811,0.0220840161598716,1
0.0233535752662633,0.0201715131785852,1
0.0242594790135401,0.0208271394795209,1
0.0246771628608591,0.0209776097680021,1
0.0266228267314214,0.0279969170617386,1
0.0293467648821829,0.0328200142386115,1
0.0284591567514561,0.09671773532684,1
0.00991755177016428,0.139114662242867,1
0.00720727117029996,0.213050992761029,1
0.00524730566846919,0.204797142283871,1
0.0021321208939977,0.150914146196524,1
0.00140285341828777,0.215616867745632,1
0.00125791672165686,0.205671985282889,1
0.000640537107434688,0.215630717875999,1
8.40743173996891e-05,0.190130679987181,1
9.24275979737119e-05,0.246694215820754,1
9.71722047603209e-05,0.247895432404124,1
0.000106256425815144,0.269662121897873,1
0.000104047886281226,0.265481750998963,1
0.000107983698927349,0.288955493579843,0
0.000118109786011833,0.308952592733183,0
0.000122243243952098,0.311136719489067,0
0.000126055084767493,0.318370648936841,0
0.000130398725427642,0.363272394972454,0
5.90644174086565e-05,0.483833965627831,0
5.29178726272047e-06,0.403009295580654,0
4.16622340396542e-06,0.47496267670798,0
4.06219058556689e-06,0.535269034114533,0
1.997351945855e-06,0.347474080698824,0
1.60957523318545e-06,0.316971622005761,0
2.71882654073229e-06,0.415722140197062,0
3.04022600676524e-06,0.437614357402985,0
5.5740929480593e-05,0.276525024736502,0
0.000195721992460389,0.318762810600921,0
0.000192954261873664,0.250561837259992,0
0.000198012886308913,0.259300614181975,0
0.000204469681125834,0.270639472937303,0
0.000201188891495778,0.271689616840915,0
0.000202879073644429,0.270319734350878,0
0.000206816504201467,0.263372899439535,0
0.000210045095249191,0.259885205645763,0
0.000208556470125286,0.254013912057679,0
0.00017433730813064,0.428863769311366,0
2.5044636245777e-05,0.288541142766314,0
1.51321460211442e-05,0.535298959890543,0
1.43992179454841e-05,0.531560109223503,0
1.49683287849311e-05,0.555700724374014,0
1.79947205067663e-05,0.621750224700573,0
1.91183572643982e-05,0.641203783258251,0
2.0515806268145e-05,0.664624127005562,0
2.2666848680103e-05,0.920259454325203,0
1.33582664387822e-05,0.933905374839536,0
1.1106040147109e-05,0.985199037763351,0
5.59305872292097e-06,0.726907417585681,0
1.26273123172372e-06,0.38396525448243,0
5.75605415370035e-07,0.29462848091186,0
5.58752572064e-07,0.303067273362337,0
5.60923229668873e-07,0.3146522999143,0
3.73534984631749e-07,0.272670798444433,0
3.41284310767573e-07,0.26719641340611,0
1.81669313477689e-06,0.53793044261066,0
2.1309648175727e-06,0.507203926224027,0
1.86279983968551e-06,0.463013188414798,0
2.12334754906875e-06,0.499619095845137,0
2.14065172309536e-06,0.501022798732654,0
2.12941016808229e-06,0.484090901961758,0
2.16220014558454e-06,0.4841747386897,0
2.1598072822285e-06,0.466972880637243,0
2.15252134543181e-06,0.447339004252283,0
2.23621620914759e-06,0.479737989354752,0
9.95351288567762e-07,0.365268157990717,0
3.79880896208839e-07,0.257823054558153,0
3.00769124956971e-07,0.256079563860777,0
2.74268914518165e-07,0.261331654920326,0
2.91008084953271e-07,0.262042423444724,0
2.8898510323463e-07,0.27228717665554,0
3.85539432877719e-07,0.300269884293661,0
3.15188973441223e-07,0.285137479402751,0
1.7664645527224e-07,0.230230130959564,0
2.01093832508041e-07,0.223198035044006,0
2.00175553402882e-07,0.203302029460943,0
1.96316804241723e-07,0.193516494591991,0
2.5079358859777e-07,0.208595672306381,0
2.96581218699991e-07,0.22875367343689,0
3.05897451817447e-07,0.243982253931722,0
2.99378362092646e-07,0.24003593686134,0
2.80765862744627e-07,0.234739720478788,0
1.85873727012447e-07,0.196662539434013,0
1.89935110421785e-07,0.207470007118442,0
2.37567997180097e-07,0.236754451745314,0
2.88281319894617e-07,0.258915545480623,0
2.81691258759966e-07,0.254106098009108,0
2.76689652439082e-07,0.254009077497608,0
3.00377101821228e-07,0.250364959302253,0
3.54623772748124e-07,0.27296712581887,0
3.83450224356016e-07,0.262438665201127,0
4.23929627923768e-07,0.293643993929101,0
5.11018467027571e-07,0.321546910392895,0
5.75613323048012e-07,0.322658409422672,0
5.65837653840052e-07,0.32053158600883,0
5.32789292959876e-07,0.327586339771682,0
5.23820997673439e-07,0.339399126800044,0
5.40284783222972e-07,0.349675887876536,0
4.59545809535246e-07,0.339575045437425,0
3.34694051940973e-07,0.287482466081543,0
3.05268593726272e-07,0.320095802255282,0
2.58094747674563e-07,0.259839660042359,0
2.904308244609e-07,0.265330404959055,0
1.67675985374358e-07,0.213132111970541,0
1.75862804384652e-07,0.215567144998073,0
2.38603112227376e-07,0.224618764460295,0
2.1854070058376e-06,0.548615934717331,0
3.48303165740563e-06,0.635982761005171,0
3.86516386953471e-06,0.659053096297085,0
3.66490192474993e-06,0.625956085383186,0
3.10094451904102e-06,0.566102118413293,0
2.81976627088986e-06,0.558466556675436,0
2.93571516923295e-06,0.578883870258669,0
2.98381263207246e-06,0.588281866663638,0
2.74870491120317e-06,0.548772247148596,0
2.49912732578641e-06,0.548942366346868,0
1.66562188931202e-06,0.531321709630902,0
8.94681605613138e-07,0.440260919757084,0
5.48602078919897e-07,0.338334447395714,0
6.52549494396271e-07,0.398570851295958,0
6.91841757807623e-07,0.401649161662706,0
7.39713456440863e-07,0.415130304065242,0
7.76610681884727e-07,0.438902399238643,0
8.08063471040954e-07,0.411139579046635,0
7.27836124118385e-07,0.396884032327753,0
5.43755660779326e-07,0.332648246505625,0
5.0980701076139e-07,0.335753704265435,0
5.12263135541259e-07,0.310599489203376,0
8.79389737939896e-07,0.382142766605683,0
8.31397447217497e-07,0.336010520883054,0
8.27547198810162e-07,0.338475615058741,0
8.11571910067703e-07,0.33067113966746,0
8.06422627860586e-07,0.327959511017403,0
7.84844946962885e-07,0.333524438183706,0
6.22219397820923e-07,0.30575511081898,0
6.1056051510258e-07,0.321508747309637,0
4.79450423464817e-07,0.27232218217483,0
3.48184550570898e-07,0.246522845785081,0
1.52476439841507e-07,0.195206165856191,0
2.18656785296472e-07,0.248486034157017,0
3.41096701107552e-07,0.29688828341166,0
3.4965775097814e-07,0.314664967726623,0
3.61058250318563e-07,0.31995994033693,0
3.80990936504956e-07,0.315691365309203,0
3.69705296187158e-07,0.311471259651329,0
2.94981693137055e-07,0.271429574880685,0
1.67747154476158e-07,0.217115326017504,0
1.24035685226976e-07,0.191007346791959,0
1.17769048121613e-07,0.177514996828012,0
2.63310454376693e-07,0.249751905697486,0
2.69826381030303e-07,0.251252755555345,0
2.85451359638353e-07,0.237809614763738,0
4.43012436419509e-07,0.280326652347559,0
4.53683254774543e-07,0.276804060406735,0
4.50706014015945e-07,0.275916512499717,0
5.01390078321946e-07,0.285064217974186,0
5.67483439319157e-07,0.29538397749729,0
5.65651032639779e-07,0.291648136488932,0
5.71906005920125e-07,0.299720364841724,0
5.00642011985259e-07,0.297923543758032,0
4.51503701031943e-07,0.294075740043847,0
4.30387235452292e-07,0.313845293226377,0
1.80846223046186e-07,0.220904019527903,0
3.90544399961743e-07,0.309939732219566,0
5.56818156338709e-07,0.344667849395722,0
5.44450547981615e-07,0.351775380261633,0
5.00698947266698e-07,0.342315455844901,0
5.22835898689369e-07,0.345493883907531,0
4.98753065408339e-07,0.331386238406921,0
5.02421239530236e-07,0.313926523877509,0
4.77320885785429e-07,0.290823043147934,0
4.87420374406575e-07,0.280219157288177,0
5.41556337841784e-07,0.296703762383697,0
4.70664993231614e-07,0.299608171027702,0
4.5307100280712e-07,0.315263173206851,0
5.06897973725351e-07,0.324192577316403,0
5.55165451641374e-07,0.325250502807994,0
4.64160928094971e-07,0.29824641282807,0
3.41719233056345e-07,0.257133451181543,0
3.48613739793137e-07,0.267023096459894,0
3.63695460924121e-07,0.284452889425316,0
3.762805304256e-07,0.280812035571556,0
5.99995659632446e-07,0.343363814384036,0
6.42709970688642e-07,0.35427983576246,0
7.20076912794734e-07,0.351797886245336,0
7.52099252457306e-07,0.343397274521543,0
7.71391614419456e-07,0.359729783487286,0
7.7721482848222e-07,0.361080670477506,0
7.80951206326674e-07,0.366296584226601,0
7.62599660351919e-07,0.358083495620792,0
6.9958436300752e-07,0.334888698732171,0
7.16570648379429e-07,0.365071244384984,0
5.16748568182151e-07,0.319102159281103,0
4.27836020844741e-07,0.298982881987575,0
2.27757534189036e-07,0.218672921956763,0
2.33085727610398e-07,0.242694617600135,0
1.9350463626091e-07,0.214070963072892,0
4.4274298229242e-07,0.308637158239022,0
5.07759910624919e-07,0.319971991458384,0
4.91149635340849e-07,0.31939034114288,0
4.6752722661007e-07,0.316292514137638,0
4.69066653820375e-07,0.312180025901949,0
5.20790775472391e-07,0.319902006223955,0
5.5155263126532e-07,0.30474063227598,0
4.8814471770933e-07,0.301816221665784,0
3.72476937318336e-07,0.275421649461321,0
3.80929256616731e-07,0.274643850408592,0
3.08896636382433e-07,0.246972366877486,0
2.99862905060729e-07,0.241854647174695,0
2.87026569091508e-07,0.232154325356339,0
3.32502043605559e-07,0.247208366893902,0
3.33351921296211e-07,0.247509409173328,0
2.41531127690562e-07,0.216093724184308,0
2.77998175452439e-07,0.243216460978718,0
3.08540790873437e-07,0.232848882240909,0
3.14397414875657e-07,0.231934806122223,0
3.12062277568848e-07,0.239911890802381,0
2.58070826948681e-07,0.23205088778949,0
2.03334868446916e-07,0.213844879312321,0
2.12717130675486e-07,0.221941901513101,0
1.65911584725587e-07,0.195417763956893,0
1.60201648149853e-07,0.192511695566764,0
1.50245881575952e-07,0.193177767920159,0
7.4696716944979e-08,0.149249696305515,0
5.88291703149627e-08,0.156993061104433,0
6.87311646786158e-08,0.158842029626822,0
1.66979121252575e-07,0.216495689121828,0
1.72628366399831e-07,0.208517200148691,0
1.98053330325622e-07,0.214713900449953,0
2.1140445613119e-07,0.219272713837842,0
2.07647716015944e-07,0.214290815236813,0
1.77599132776601e-07,0.204469507466705,0
1.96446490160557e-07,0.213933168112179,0
1.97643514914429e-07,0.221479061061234,0
1.57126154492383e-07,0.191043493191777,0
1.43319348743351e-07,0.195785701331317,0
9.07097648497842e-08,0.165864234790208,0
9.67431254548062e-08,0.183374917087158,0
9.54209616969378e-08,0.178834929099579,0
1.22987127127136e-07,0.192031622176486,0
1.22125190227569e-07,0.193319557020153,0
1.58139325733274e-07,0.207694787410243,0
1.46174020493294e-07,0.190928019735023,0
1.95758324484549e-07,0.207134453177251,0
2.17539232706276e-07,0.214143355588821,0
2.17299036987704e-07,0.201485265770057,0
3.08165966937295e-07,0.23000353039867,0
3.80343495370534e-07,0.248237649046469,0
3.79414145516207e-07,0.253800903890356,0
2.9688981583307e-07,0.231606908073738,0
2.86035539348955e-07,0.228754593631542,0
2.98032475300845e-07,0.23469711619566,0
3.30754446772492e-07,0.250129526562555,0
3.58281073812802e-07,0.262976045325228,0
2.68793835978367e-07,0.243205547837037,0
2.29105200208383e-07,0.236725297637705,0
2.09284605357324e-07,0.244375579133794,0
1.37915439305353e-07,0.207229023023112,0
1.32460525344399e-07,0.216696834184373,0
1.3752302078571e-07,0.220078477677267,0
1.28776535866546e-07,0.219063503890512,0
9.00304953115015e-08,0.19037254066598,0
7.94790828939314e-08,0.175989776428043,0
1.07829887671465e-07,0.187531307408104,0
1.54885316245458e-07,0.199263964823111,0
2.40278551498897e-07,0.242178560047629,0
2.01409151167401e-07,0.223354519808399,0
2.32392421943705e-07,0.230814815136172,0
2.90454547494832e-07,0.255897934407055,0
3.04438287538615e-07,0.253802973830212,0
2.83045053229744e-07,0.256645115947522,0
2.81170933549034e-07,0.259993999420677,0
2.76041815920761e-07,0.27132104121908,0
1.99341491068187e-07,0.270032029129062,0
1.62471151729448e-07,0.274277740503083,0
9.37777462131747e-08,0.207952952039968,0
1.581654210706e-07,0.25655500383529,0
1.35087455968585e-07,0.23416798462909,0
7.66934056343437e-08,0.175958186264304,0
5.91415235950812e-08,0.154040685579002,0
1.68975216866091e-07,0.213847494442538,0
1.91532659065226e-07,0.218403978413933,0
2.01293699068927e-07,0.216172895802413,0
2.16426820106765e-07,0.210613091921377,0
2.9281498937117e-07,0.239418272103361,0
3.29445726067186e-07,0.244740980730511,0
2.79054048154409e-07,0.227584121744318,0
3.56894857863314e-07,0.246526133077395,0
3.7764855871574e-07,0.237981106802912,0
3.75232763093558e-07,0.243833052452491,0
2.86206542885222e-07,0.22057989533921,0
2.69185859114111e-07,0.215528148022336,0
2.58786669497612e-07,0.214220715037108,0
2.46891149515784e-07,0.217742580003507,0
1.73154424677296e-07,0.183931389007023,0
1.72589025701891e-07,0.190392041363604,0
1.53607237792315e-07,0.180954520856614,0
1.1542106083809e-07,0.174589900576542,0
7.94569413955936e-08,0.164084920295591,0
1.45277487502574e-07,0.204158871196882,0
2.01610006188034e-07,0.223454146360086,0
2.21375444985199e-07,0.225652956507872,0
2.27820202537009e-07,0.213063793548093,0
2.09240915436497e-07,0.189502839270394,0
2.74041173392407e-07,0.22603089660415,0
3.70032476363485e-07,0.257254440515673,0
3.83407720586886e-07,0.252132273098954,0
3.92031834189345e-07,0.249057728017137,0
3.96797000938696e-07,0.256354747003205,0
3.23294343368347e-07,0.244376200587848,0
2.23123634894115e-07,0.213558819377768,0
2.13017622438639e-07,0.225303625059299,0
1.81332545241814e-07,0.225396983019426,0
1.30519981168675e-07,0.215387626647466,0
1.31023897947803e-07,0.205183557496892,0
6.49257923438061e-08,0.162203963291388,0
5.95780274194493e-08,0.168734099802514,0
4.4774854245229e-08,0.154601762057493,0
4.46141306903326e-08,0.154441983897391,0
6.08827942857667e-08,0.160529200341881,0
1.75855687474472e-07,0.235259027146792,0
2.10700672791177e-07,0.227801349705909,0
2.20243658574643e-07,0.236340988706318,0
2.31145183434675e-07,0.237682542641469,0
2.46048981811161e-07,0.244826332574741,0
2.23257472343887e-07,0.237735091260607,0
1.76864707184424e-07,0.226178370053727,0
1.76507873215681e-07,0.218197414097938,0
2.19886429222002e-07,0.236359140470219,0
2.2069143084013e-07,0.236494293842773,0
1.91409101596825e-07,0.222424901331066,0
2.8023703677987e-07,0.283468243440658,0
3.72163002502622e-07,0.312188519659555,0
3.71677273382843e-07,0.309223623830796,0
3.36075325591724e-07,0.314491550438973,0
3.379441075898e-07,0.309273697746459,0
3.37120720620374e-07,0.287773551328607,0
3.05480519496075e-07,0.292510465258051,0
2.29204639258953e-07,0.246118785591627,0
2.89224903569303e-07,0.283928426284154,0
2.88591300871342e-07,0.281969018588303,0
2.77560090092476e-07,0.267229653428228,0
2.75203602055126e-07,0.259472474804879,0
2.8376603576936e-07,0.261108753138813,0
2.62559224968813e-07,0.233649213110185,0
2.98388320809841e-07,0.23502296294756,0
3.29274722530918e-07,0.240026976993807,0
2.96672947764532e-07,0.228426685609192,0
3.06806834784881e-07,0.245117273975285,0
2.59088742796358e-07,0.22050253027461,0
1.7636652347183e-07,0.189514820940593,0
1.81564042514611e-07,0.197806507749316,0
1.3122692757988e-07,0.185785560781677,0
1.64072456519928e-07,0.20927327219766,0
1.86949368909361e-07,0.219816360072724,0
2.00355848460773e-07,0.244025537600431,0
2.25967433586839e-07,0.269958209086125,0
2.81711621030758e-07,0.289828767762649,0
4.05317523959648e-07,0.359341128289836,0
4.91078663930999e-07,0.393948781396297,0
6.20705868255995e-07,0.431889673522726,0
6.18649278905948e-07,0.41412661267763,0
5.17509089111653e-07,0.372958599719004,0
3.61270769164214e-07,0.30638111261695,0
8.99931315330569e-08,0.186271735819543,0
8.74193800432709e-08,0.188371139087114,0
2.34624561744855e-07,0.284547361813561,0
3.52457068982239e-07,0.332082219910761,0
3.48969585302132e-07,0.323623189712602,0
3.07268643178778e-07,0.299716841683853,0
2.15681916841268e-07,0.262537662610223,0
1.73072975594126e-07,0.253710525109324,0
1.78000842817868e-07,0.246072865667438,0
1.11023798806651e-07,0.193612153051795,0
1.37977909961377e-07,0.190024993703819,0
1.15561817506093e-07,0.17317068496125,0
1.06371711852381e-07,0.17031756798837,0
1.05821139773185e-07,0.172877891600313,0
1.28230906086086e-07,0.180711788301502,0
1.21613761154362e-07,0.176855406614947,0
1.26170758280951e-07,0.176667422093755,0
1.11086071770725e-07,0.169214601669946,0
9.72887552352662e-08,0.167285372326683,0
8.69534201184365e-08,0.172673773274591,0
3.31574868362674e-08,0.146492335552684,0
2.15126402463335e-08,0.138403280257127,0
5.27448051869849e-08,0.159058812457988,0
1.22957077950821e-07,0.225644436811612,0
1.39653349232898e-07,0.24334952554079,0
1.52588135792941e-07,0.246336489055947,0
1.5535582308513e-07,0.24227576166545,0
1.54907457743795e-07,0.24197987091742,0
1.42486077176453e-07,0.245379583275011,0
1.39556282485722e-07,0.237237062668867,0
1.42558630121898e-07,0.21897207241081,0
1.83283171706959e-07,0.249225504303244,0
2.27860334002746e-07,0.293192845126636,0
2.4393763179112e-07,0.291871388733113,0
2.53021972251881e-07,0.293509943452271,0
2.26348385973414e-07,0.2821853626107,0
2.3686559768373e-07,0.294830305938884,0
2.27835029433217e-07,0.293291847354267,0
2.05434159258041e-07,0.261700230888765,0
1.90583737707904e-07,0.229923166210474,0
2.13159367566387e-07,0.233384643575534,0
2.98316163248294e-07,0.263626221714074,0
2.59962541212892e-07,0.246956757387125,0
2.06674083164941e-07,0.212248647542123,0
2.35642477592532e-07,0.236055051611167,0
2.50603804326306e-07,0.238827507891079,0
2.41966049979335e-07,0.228165415090733,0
3.45534687680577e-07,0.246007743331956,0
3.80937164294709e-07,0.251345931852075,0
3.07993777249331e-07,0.225613669737011,0
3.06663508121535e-07,0.229205341054216,0
3.11150324606072e-07,0.21640803236136,0
3.70300744338877e-07,0.225130002695189,0
3.82677841909545e-07,0.232261284220295,0
3.45015746313291e-07,0.21985617231738,0
3.25834882610627e-07,0.218165720596714,0
3.29818177699934e-07,0.218330068964347,0
2.84561745865864e-07,0.225040906561354,0
2.33436235436759e-07,0.209452136473841,0
2.17251590919837e-07,0.220388204830165,0
1.98198040832614e-07,0.229650064790236,0
1.60494232235028e-07,0.235344655705634,0
1.34334645025109e-07,0.233631367577805,0
1.23167619876976e-07,0.23120779967831,0
1.77400847751311e-07,0.27642207407193,0
2.61689380391268e-07,0.337612191832108,0
3.14976256903624e-07,0.403702363780413,0
3.04722963945812e-07,0.399071575963092,0
2.85494851867231e-07,0.355910774588241,0
2.55327851150173e-07,0.333866790730077,0
1.61217784769986e-07,0.265695961805298,0
4.84651698654637e-08,0.166596818146737,0
5.35745182987933e-08,0.17634162018648,0
6.64331934583015e-08,0.188993066624095,0
8.60788309341045e-08,0.191673624154001,0
8.22641670776709e-08,0.180456817099047,0
8.97007451398318e-08,0.18199079645962,0
4.21010706290257e-08,0.145069829282763,0
2.88778515147462e-08,0.138119498411806,0
4.99296718269304e-08,0.149095829238316,0
7.62369349230818e-08,0.169654377703075,0
7.95354250995224e-08,0.1740588408498,0
8.11001568793561e-08,0.171683044102387,0
1.00783948901401e-07,0.179098661877571,0
1.20274793580791e-07,0.188570459918459,0
1.71652558937385e-07,0.204842983541417,0
2.78339194065226e-07,0.250856973881695,0
2.81430305386702e-07,0.248467078918357,0
2.37891421209385e-07,0.226603959359064,0
2.06381499079767e-07,0.215489485891848,0
2.47999608276306e-07,0.245458538836353,0
2.37877780464873e-07,0.236895661101634,0
3.46167301918792e-07,0.270096126269067,0
3.68277960312187e-07,0.270229752631967,0
2.8555178714867e-07,0.24276300711394,0
3.00618879075395e-07,0.252416660552145,0
2.60588631616775e-07,0.239501708397498,0
2.60680558373266e-07,0.239540851617979,0
3.10653722429073e-07,0.256589969309678,0
3.53164806161242e-07,0.264866576049453,0
4.28608007907314e-07,0.27027206200882,0
4.38133399107279e-07,0.268999653749474,0
4.74818105705493e-07,0.286478443677312,0
5.11872496249161e-07,0.300940533230318,0
5.13275516014352e-07,0.301583369378474,0
6.6492560350719e-07,0.346758506656497,0
6.79905908668111e-07,0.333986473654378,0
6.77360624819045e-07,0.333364842089837,0
6.25170740934143e-07,0.321790579334766,0
5.14091588381649e-07,0.301460068126804,0
4.80558289149492e-07,0.301631892809636,0
4.60290712800744e-07,0.313908230313737,0
3.64685304514977e-07,0.285657851529047,0
3.59010161722344e-07,0.278735172484637,0
4.17593403252201e-07,0.304822048515896,0
2.32969682436076e-07,0.24342766781805,0
2.17588260309737e-07,0.239458187255232,0
3.06925449954546e-07,0.285295828801219,0
3.17960416880451e-07,0.301369505536376,0
3.01131296608349e-07,0.298933048299889,0
3.56873507132775e-07,0.286912962339898,0
4.15738261998637e-07,0.298834667462962,0
4.05814126136646e-07,0.309440569591009,0
3.8666232315055e-07,0.323605542389245,0
4.56327384598329e-07,0.356947484281764,0
4.55569829048068e-07,0.335077370993849,0
3.98903408660001e-07,0.32658676357643,0
3.04357629223243e-07,0.26558001406259,0
3.19794998171273e-07,0.259766887912909,0
2.61205430499034e-07,0.236374803880901,0
2.32755186670931e-07,0.250899853910161,0
2.18062918680348e-07,0.24360708731793,0
2.26108190254841e-07,0.239106534325108,0
2.27835029433218e-07,0.236003762773655,0
1.4841130028513e-07,0.195451807996216,0
1.20606916055854e-07,0.185424700664726,0
1.20627673710545e-07,0.192352970929723,0
1.26887391597678e-07,0.213363015263735,0
6.31008979585065e-08,0.164166031861763,0
3.95273191392397e-08,0.139364952439253,0
6.459841447553e-08,0.149823789827965,0
2.52390939549262e-07,0.24542084844032,0
2.70330890885279e-07,0.233348190658315,0
2.61593895179688e-07,0.229906712965914,0
2.6182697398808e-07,0.233346252274972,0
2.68481482698248e-07,0.227923112892319,0
3.00332621132603e-07,0.238743580592024,0
2.91964913988569e-07,0.225439588479092,0
2.86342554946438e-07,0.226067316889804,0
2.95974106723254e-07,0.237002470464359,0
3.73224212887226e-07,0.270260468685709,0
3.04683425555924e-07,0.232985702339274,0
2.81053702223016e-07,0.237630190972557,0
2.91817040410388e-07,0.238621080093544,0
2.2201992074038e-07,0.20762233098489,0
1.93555245399967e-07,0.187590658252714,0
3.86402358237034e-07,0.263410874839939,0
4.16986686659363e-07,0.265772251695851,0
4.3216329992608e-07,0.264404707455815,0
4.61547440523346e-07,0.269720560005843,0
4.02121833596918e-07,0.263388703377456,0
2.15448640340926e-07,0.216380665729288,0
2.07098132396495e-07,0.222631808407669,0
1.33354092955877e-07,0.189955379401919,0
1.37023255537521e-07,0.188966846915596,0
1.39105544840994e-07,0.204355675576684,0
7.27275074365868e-08,0.150323717752734,0
8.17296080463794e-08,0.162370653207618,0
7.23647427093606e-08,0.16156488371246,0
7.77646983083701e-08,0.159647331206721,0
1.05731189936188e-07,0.162040079653101,0
1.82381696417503e-07,0.189737396086166,0
1.68798084879391e-07,0.180918845707973,0
1.92508466527672e-07,0.192179943871574,0
3.25826974932649e-07,0.242055769116422,0
3.21090275824017e-07,0.234363156450116,0
3.12813506976728e-07,0.241679646549651,0
2.6366966064883e-07,0.227701942701269,0
2.75768407954682e-07,0.227833321389871,0
2.30611612863131e-07,0.205597176578926,0
2.58154846027194e-07,0.228700672182325,0
2.29959031738023e-07,0.221156935714889,0
2.60205900002655e-07,0.22923698695765,0
2.60308897508315e-07,0.226199051656667,0
1.53339365200821e-07,0.180982203192365,0
1.22450986560249e-07,0.174501252407328,0
1.27771272303634e-07,0.177592100762895,0
1.39507847958108e-07,0.18724027085522,0
8.66539168150313e-08,0.154738760293163,0
9.88143440091105e-08,0.155304517023334,0
1.6814649221403e-07,0.177214766474752,0
2.1925618728718e-07,0.193602593349285,0
2.11869427596278e-07,0.192906189787505,0
1.92329555313427e-07,0.194296528625586,0
1.92201648622138e-07,0.196913706511239,0
3.12709718703271e-07,0.231609030688393,0
3.43247589517482e-07,0.233586138972297,0
3.41707173847429e-07,0.230512123728178,0
3.35136881907723e-07,0.22837294415824,0
3.28333708851574e-07,0.246181510178577,0
2.49042037925713e-07,0.242117956472288,0
1.77448293819177e-07,0.230685095442428,0
1.75593745641461e-07,0.244117507247283,0
1.69075644376408e-07,0.225892689299741,0
2.53252085681032e-07,0.250298452133086,0
1.76151434630837e-07,0.231092016166701,0
1.16729188467548e-07,0.19348786614818,0
1.10399883014212e-07,0.197134572731682,0
1.0597158334671e-07,0.202666744252914,0
1.0391637784031e-07,0.186708014588358,0
1.14275435991074e-07,0.188202609176865,0
1.01283121073743e-07,0.17944295968368,0
1.04620161180324e-07,0.167862683212495,0
9.70989709638016e-08,0.157840852608749,0
1.92192159408565e-07,0.220363128886932,0
4.69123589101814e-07,0.326840130179873,0
6.58199332619375e-07,0.379612561019418,0
6.67179489422779e-07,0.368352139202566,0
6.30626247970946e-07,0.371520544113337,0
6.1360002882525e-07,0.390857362129273,0
5.28081654567813e-07,0.369428993193291,0
5.37409551510286e-07,0.360924133827705,0
4.08557101935156e-07,0.303073123836579,0
4.74216133719442e-07,0.345146927679149,0
5.85317427770274e-07,0.412915168158387,0
4.39338726923028e-07,0.37174997081668,0
2.5503131322601e-07,0.288269200412491,0
3.34343544114612e-07,0.342217870530312,0
4.68518058660673e-07,0.369090089878983,0
4.64600397298581e-07,0.335588941076918,0
4.61377425446827e-07,0.340042309746829,0
4.20040631894344e-07,0.336861242999165,0
4.10717479558658e-07,0.339366158854556,0
3.92699044518712e-07,0.310177477138516,0
3.57668031077581e-07,0.257728758418707,0
4.4714340739505e-07,0.267007643878616,0
4.48052988054433e-07,0.265787638623631,0
4.37551591700073e-07,0.257090041775433,0
3.36551367805981e-07,0.226378664417031,0
3.31299088093205e-07,0.230946063913948,0
4.16347943970716e-07,0.248498233276071,0
4.33214823405161e-07,0.239526579545507,0
4.27003540045643e-07,0.241557297609302,0
3.88338750881818e-07,0.238782452816283,0
3.2267339295515e-07,0.237720519338652,0
2.12090842579653e-07,0.200452727093673,0
2.78010827737204e-07,0.237052663805369,0
2.09521835696654e-07,0.204725813146002,0
1.9375293734941e-07,0.20338167737379,0
1.6055017905672e-07,0.195653226329404,0
1.12472485412162e-07,0.174432990033428,0
1.60225964259635e-07,0.205330016576232,0
1.70417379637271e-07,0.198153717928963,0
2.30422421667515e-07,0.226373393490895,0
2.366459619279e-07,0.236815323070827,0
2.12739272173823e-07,0.22336891869926,0
2.02430230086269e-07,0.231823616643328,0
2.08446391491689e-07,0.243066879046558,0
2.09917219595538e-07,0.237312006935234,0
3.09949346013211e-07,0.272541110860461,0
3.76765073393683e-07,0.309054307746636,0
2.66606374557791e-07,0.289606191856118,0
2.29235676895014e-07,0.309367473721889,0
2.3540920109219e-07,0.297632128898003,0
2.52340923486053e-07,0.281016859851054,0
2.65893299696154e-07,0.294423625599167,0
1.81690763054203e-07,0.228857184919608,0
1.95255396165169e-07,0.218347567725222,0
2.07617666839628e-07,0.222655176443928,0
1.84336474413586e-07,0.205128471447004,0
1.98140314783377e-07,0.214970065932426,0
1.93205923725303e-07,0.197331140125506,0
2.45798308419269e-07,0.217388084921339,0
2.50583244363564e-07,0.213650815463599,0
2.48537330378788e-07,0.210184323494491,0
2.45810763012084e-07,0.209151492487305,0
2.52094401625099e-07,0.214248854056241,0
2.03844715984527e-07,0.205065506002714,0
1.93151953823106e-07,0.206188149463986,0
2.02895794627205e-07,0.210590650788373,0
3.64928267920841e-07,0.256775508890827,0
4.15829002603431e-07,0.259303149168913,0
4.39034874396735e-07,0.263585571940121,0
4.40701812914431e-07,0.268193043381506,0
5.20247715687273e-07,0.293904347085273,0
6.01036507746258e-07,0.310696037020051,0
6.00207585402248e-07,0.317600652819931,0
6.07629929644049e-07,0.308842977695154,0
6.60258491964763e-07,0.325748034418409,0
6.55713356355141e-07,0.339870929854949,0
4.20562538640871e-07,0.285588315266128,0
2.7127664917141e-07,0.260006183173314,0
2.71096551805468e-07,0.251546100728045,0
2.71240273852712e-07,0.255686323109102,0
2.14937606651618e-07,0.252341281785439,0
1.00925694029151e-07,0.192417418077788,0
8.34940086951499e-08,0.185422220707704,0
8.98792609701785e-08,0.18618360979732,0
2.15567057818642e-07,0.239388309743892,0
2.8047802326624e-07,0.252001652648353,0
3.50946504796553e-07,0.284279674392359,0
3.89224608507268e-07,0.293974634090535,0
3.94182524907325e-07,0.304999663108807,0
4.02620017309511e-07,0.299078031971927,0
3.75566269412267e-07,0.272661110756122,0
3.55695856189947e-07,0.258637564446317,0
2.8146648301345e-07,0.234759924970053,0
1.77149383591621e-07,0.195256907875287,0
1.37681372037213e-07,0.192665625204739,0
1.23169003720623e-07,0.194108227491251,0
1.07181260385346e-07,0.183802190680977,0
8.94635148005016e-08,0.163415924950749,0
8.46586119693128e-08,0.158860902668071,0
1.1351847351666e-07,0.15957904052329,0
1.58699189334094e-06,0.49131892872501,0
1.76051481581199e-06,0.465548653377748,0
1.99956767722435e-06,0.467448451160695,0
2.6450210190954e-06,0.536525806083045,0
2.67550749000275e-06,0.514097779695055,0
2.60367473632935e-06,0.490704644084187,0
2.3507984630442e-06,0.451317858363035,0
3.39584160002372e-06,0.527746696701809,0
4.05349312825118e-06,0.572058746787481,0
2.96206355225459e-06,0.466562381134734,0
3.03133718364248e-06,0.476313255175121,0
2.8647318978663e-06,0.469412286036879,0
2.59728078560854e-06,0.443433219973329,0
3.20978243796269e-06,0.492097297553833,0
3.57540282539852e-06,0.539277921794001,0
3.78642316607196e-06,0.565182462119187,0
3.86425448656728e-06,0.574145540068241,0
3.25654370091591e-06,0.537796561963661,0
1.99725705371927e-06,0.410063574725123,0
1.79546260094241e-06,0.42206585356347,0
1.69542256684676e-06,0.443783034121445,0
8.93477463949086e-07,0.321804260846054,0
8.95806077421563e-07,0.319352738736206,0
9.62067871959699e-07,0.292952925068051,0
1.55952852772445e-06,0.358945070715954,0
1.62713680213023e-06,0.35436051162427,0
1.64056245780074e-06,0.353063594767271,0
1.53333098366024e-06,0.348478901707547,0
1.72912845115078e-06,0.381640744266803,0
1.92619964787157e-06,0.409265160055539,0
2.22246930405925e-06,0.43871421737772,0
2.39094238337375e-06,0.464212074872537,0
2.03232127940791e-06,0.463325287860812,0
1.25906918605225e-06,0.420288446540535,0
1.28444789006187e-06,0.454557889177108,0
9.09128933278362e-07,0.445350255453952,0
1.70967754024517e-07,0.223534142471828,0
1.01818273180882e-07,0.199766568136104,0
5.70515243055799e-08,0.166398561341987,0
4.92925106738789e-08,0.150177863095145,0
9.1382708245685e-08,0.195970246275076,0
8.40428015468009e-08,0.194745348752353,0
7.78595904441022e-08,0.199532948868163,0
9.59112377315542e-08,0.204534205797519,0
1.59506563255615e-07,0.251290465417165,0
2.37792575234664e-07,0.299333141196368,0
2.59934073572172e-07,0.29078772386515,0
2.59235034838945e-07,0.290429886294669,0
2.57718144510877e-07,0.283644070801657,0
2.69937088521991e-07,0.289829692777955,0
2.10106015407255e-07,0.258723026557444,0
1.99954336111457e-07,0.264093599287658,0
1.94339884747303e-07,0.240379840883032,0
2.1521694537618e-07,0.256216972371014,0
1.99440337042908e-07,0.242854823856788,0
2.11902046767936e-07,0.240418726006253,0
2.38890951705764e-07,0.271537355836389,0
2.30327529531783e-07,0.269612361568213,0
2.1553226403554e-07,0.267169784091022,0
2.2585020226082e-07,0.27282887178474,0
1.64891494266467e-07,0.243635134089546,0
7.32535657140521e-08,0.173127628431557,0
4.89176867377366e-08,0.166915852496703,0
5.16140072361767e-08,0.169635432289058,0
5.02918434783081e-08,0.159999596984208,0
4.1223318373503e-08,0.15103601603345,0
6.46294521115922e-08,0.161954155242853,0
6.6638595393772e-08,0.153922812384373,0
5.40954365855732e-08,0.149695837357647,0
3.82790921704625e-09,0.0978688040696613,0
1.11013914209178e-08,0.104400196391307,0
5.58163450054661e-08,0.151190099124983,0
6.90978832448308e-08,0.147514690411106,0
9.20364755224897e-08,0.166685383191517,0
1.0539412516239e-07,0.178921206293908,0
1.2150839134531e-07,0.182805306203575,0
2.96869058178379e-07,0.249590148161836,0
6.09302403536329e-07,0.345525789754196,0
5.99904128259855e-07,0.321364781194784,0
5.8105993394709e-07,0.317259443375485,0
5.5983276087575e-07,0.31053184963456,0
5.81609715258488e-07,0.30912399726316,0
5.62282361821287e-07,0.315151764277781,0
4.48169230920705e-07,0.278517061029284,0
4.577731058246e-07,0.27646891144054,0
5.80020271984974e-07,0.31239682533132,0
4.71891276394004e-07,0.305810539308025,0
1.90911115576181e-07,0.217974032137661,0
1.92527247262869e-07,0.222516407059543,0
1.70363014351174e-07,0.204169016058507,0
1.4086796857027e-07,0.182143273337246,0
2.03803596059043e-07,0.205046834414832,0
2.56358023898715e-07,0.206190418249554,0
4.10402160899298e-07,0.251954792705456,0
4.16530611332001e-07,0.253689977109587,0
3.43945046715114e-07,0.22887531258622,0
3.43473749107643e-07,0.231084163859543,0
4.03720173008156e-07,0.24215824938422,0
4.34652439261505e-07,0.243438485957997,0
3.88180004246415e-07,0.232785406232642,0
4.77066258554548e-07,0.262772447584549,0
3.05575411631806e-07,0.213888845426502,0
3.10119361089732e-07,0.236722866910591,0
3.0482991529046e-07,0.243737303550145,0
2.85933727994993e-07,0.250137711669699,0
2.92469226151596e-07,0.256727248759289,0
3.44193545495562e-07,0.277494804106546,0
3.29261477170305e-07,0.276161773792782,0
3.14232935173721e-07,0.274305170745657,0
3.65721210330054e-07,0.315336043783225,0
2.05139993637271e-07,0.235081454110878,0
2.41051329329266e-07,0.255517725184554,0
2.89657255862733e-07,0.268266877724791,0
2.67974402847931e-07,0.263061840372419,0
2.64154994384709e-07,0.261179013848636,0
2.54537083352404e-07,0.256755848053446,0
2.41054492400457e-07,0.250432909623348,0
2.02364398667105e-07,0.231401638771172,0
2.14168387276339e-07,0.241570184412996,0
1.85918010009122e-07,0.222857688195484,0
1.71943561486963e-07,0.22341622665297,0
1.52270840214086e-07,0.229826434644906,0
1.22443078882272e-07,0.214625456060271,0
1.42702549861092e-07,0.214492199881893,0
1.45742261275713e-07,0.208143859273598,0
1.46896979952403e-07,0.201260978767107,0
1.29300024148669e-07,0.190902094271139,0
1.04057727584162e-07,0.171783210456197,0
7.79702979357898e-08,0.155393020943597,0
6.02248754780236e-08,0.145993114377556,0
4.68282805240836e-08,0.132427393842744,0
3.40890113020382e-08,0.118983599719992,0
1.81012679667616e-08,0.108788740006543,0
4.60313842758826e-08,0.134309132037271,0
1.08328862151857e-07,0.179359562104373,0
1.09741766514519e-07,0.178610369260378,0
1.25653003065362e-07,0.179387239919461,0
1.48201746818721e-07,0.1836096436914,0
3.62951348426421e-07,0.2725185901819,0
4.82313002892739e-07,0.295911342488087,0
4.93996399412814e-07,0.297491180606566,0
5.02212674523575e-07,0.294451544192975,0
5.0993511514463e-07,0.283241669154323,0
4.88677695205025e-07,0.287151975622642,0
4.10718468018405e-07,0.273617250736222,0
4.10689011917938e-07,0.273607754662276,0
3.80826456803021e-07,0.278552922023749,0
3.44362572112334e-07,0.301162962509078,0
1.93814814929585e-07,0.228916492374286,0
7.52975027793333e-08,0.163800267350176,0
1.74261499594171e-07,0.221510772733067,0
2.55363238009123e-07,0.252848318794104,0
2.7493315946829e-07,0.249422708670553,0
2.55129368432933e-07,0.230400455001807,0
2.83150818422696e-07,0.229289418727941,0
5.53851393253432e-07,0.322007293209535,0
6.88406860186068e-07,0.348577428784122,0
6.74903511579429e-07,0.328961260674615,0
6.6654509595702e-07,0.330711036951707,0
6.62726675953546e-07,0.331981098430146,0
5.51355532391726e-07,0.310364432815645,0
2.04446292586679e-06,0.401901516244817,0
7.54536458117612e-06,0.628990594660605,0
7.24133512058895e-06,0.52488767989359,0
7.7792167604745e-06,0.407160259499721,0
2.88888431871353e-05,0.603172403047835,0
5.28226331467174e-05,0.816678219451234,0
5.88006251789991e-05,0.785666653215312,0
6.39263448780459e-05,0.544752124928629,0
9.85580379781944e-05,0.561370200745108,0
9.11332595554194e-05,0.512219115275374,0
8.30990033763489e-05,0.496023285523103,0
7.79289249646106e-05,0.454596897608749,0
5.74386138410334e-05,0.401225110316483,0
3.42714341183815e-05,0.312168729224894,0
4.76467726408417e-05,0.34319275345114,0
5.34110642226914e-05,0.289578981980812,0
5.22225463510963e-05,0.261237415928885,0
9.77118247055179e-05,0.332301841435753,0
0.000115261748803713,0.297533260636624,0
0.000116622256892095,0.298366835105307,0
0.000116975951314989,0.287911472125865,0
0.000106843316870832,0.263951983845026,0
9.74548757803823e-05,0.250710353216475,0
0.000114199713648295,0.272553703935406,0
0.00012474052720738,0.325401414989403,0
0.000139415676656677,0.377943708015744,0
0.00015902265685561,0.395372849315996,0
0.000225633429677493,0.192098399334167,0
0.000372717482556275,0.187405124461538,0
0.000378054068198583,0.174702939398724,0
0.000397544641051542,0.18477754467824,0
0.000404997061355764,0.177470693053334,1
0.000411352087124798,0.17609690395361,1
0.000399588321117289,0.176937184025358,1
0.000383656877286142,0.164527314796086,1
0.00036475734108905,0.158352986521649,1
0.000322553437236375,0.15069290689428,1
0.000238504162464382,0.247987062896096,1
9.11537865036058e-05,0.25125892277986,1
9.19951221228138e-05,0.259658426931696,1
0.000135588248226451,0.232633426322912,1
0.000150488655988313,0.184578804207049,1
0.000155775531792241,0.184881254997868,1
0.00017982187983785,0.194712243128978,1
0.000189960714494617,0.194366532844955,1
0.000194755695759939,0.192060546571448,1
0.000202081168376519,0.175283391868484,1
0.000216927095400185,0.181733638815831,1
0.000231043078508167,0.202971797682283,1
0.000223915608612775,0.187275552587224,1
0.00020746915175107,0.228439433366041,1
0.000194516084221078,0.269221623756853,1
0.000193366336508455,0.24567754230176,1
0.000181449948164446,0.221465242944712,1
0.000162998039324641,0.209113760559097,1
0.000166405581322693,0.231684660354187,1
0.000192705271828721,0.295782985382257,1
0.000212518956950763,0.318667565014817,1
0.000202588178046195,0.217681313341385,1
0.000206378058251387,0.220021818926936,1
0.000195080377110025,0.205757793370746,1
0.000162747914132525,0.196115071170061,1
0.000178980672125333,0.198718406115162,1
0.000212838093437051,0.207642450028573,1
0.000199071056982104,0.184293019323554,1
0.000205093291484211,0.154191669930303,1
0.000441795543624719,0.167718854341314,1
0.000466874858003808,0.103829677910956,1
0.000456308308906744,0.103510909596227,1
0.000547189751817728,0.108835663574636,1
0.000477622211610916,0.0951090227441482,1
0.000449005081181392,0.088987946153294,1
0.00181024080957725,0.0277510735688583,1
0.0104888158950361,0.0701636470686562,1
0.0175603991082095,0.0637741265230637,1
0.0390785009133258,0.0833516307834836,1
0.0489539661877001,0.084734779387007,1
0.0539028755731185,0.0726130903746877,1
0.0467017941466517,0.0636231817339471,1
0.0399716312031279,0.0590311589338798,1
0.0325575700913076,0.0497804776528905,1
0.0270904265702845,0.0416677877975973,1
0.0222337640477197,0.0381077281457158,1
0.0245133029476987,0.0391036299108241,1
0.0219282345970938,0.0261995550847328,1
0.0221618229193196,0.0252172967964293,1
0.0221052513989749,0.0265644577005924,1
0.0224535832009874,0.0307685700160607,1
0.0168375753274571,0.0223940099599473,1
0.0120718229591982,0.0154621129090786,1
0.0125547480725109,0.016704518673791,1
0.015147048450504,0.0194143600111566,1
0.0146337019868028,0.017770188082724,1
0.0133000470310976,0.0164732749885728,1
0.0110256005470388,0.0159057773681907,1
0.0154060540529625,0.0249425046749793,1
0.0155218721905357,0.0222268047591371,1
0.0204342204928534,0.0205420193563546,1
0.0367495965664028,0.031814510652669,1
0.037999839569015,0.0250109918494028,1
0.0360497207293504,0.0203168609506623,1
0.0289812506434624,0.0155478970011671,1
0.0278444805888764,0.0143205016047182,1
0.0271546001305269,0.0142856613742107,1
0.0239733284054173,0.0148370791906755,1
0.0250656615927649,0.0166209217872306,1
0.0154069137804569,0.00839035716362341,1
0.0127444110394043,0.00954157428129586,1
0.013639814197503,0.0114787174276909,1
0.00874996499493166,0.00844405135730313,1
0.00696037339652233,0.0126104335768253,1
0.00685458293043433,0.0138675766600762,1
0.00775699170723918,0.0196906739599907,1
0.00756309025578967,0.0182498533091482,1
0.00751880063089897,0.0155942190668821,1
0.0134035956376621,0.0229880766936459,1
0.0145489961312022,0.0124639644927132,1
0.0170913259991539,0.0170602879866304,1
0.0155507850700985,0.0162286568001361,1
0.0162901830339111,0.0216978011205891,1
0.0171592315247564,0.019407801071032,1
0.0188475690622155,0.0176616153046143,1
0.0206296502143726,0.0165764452517454,1
0.0207155974862567,0.0149500967303826,1
0.0211558347205199,0.016837168267988,1
0.0138433185907503,0.00960096521766626,1
0.0194114720196077,0.028290894795561,1
0.0181974577326808,0.0188411854058903,1
0.0174829001102535,0.0178570112797664,1
0.0170163405096245,0.0126763198049454,1
0.0200104581834879,0.0130906110547811,1
0.0195965059976765,0.0136837429865185,1
0.0160839627510345,0.0135269948877372,1
0.0151676529225999,0.0144165289038699,1
0.0171232364516969,0.0096664016647096,1
0.0218707834187432,0.0107233372056953,1
0.0202551377774814,0.0085274477893746,1
0.0196890849114406,0.00954697088839395,1
0.0216690502109323,0.00876995343020271,1
0.027714266513858,0.0159784209367461,1
0.0242364127865952,0.0171526480881249,1
0.0245631451501295,0.0170073442395302,1
0.0242606926798045,0.0159616873880928,1
0.0262609401217855,0.0172380773598553,1
0.023052611864683,0.0257422560088923,1
0.00867195376586619,0.0163713291341444,1
0.00942298572792298,0.023869292328242,1
0.0056865600647512,0.0182910687651398,1
0.00499168991774228,0.0342875013806987,1
0.00502894152280933,0.0341430699465305,1
0.0049902370655697,0.0305673386373464,1
0.00407532406123456,0.0362756447808815,1
0.00205567088669151,0.029250123186591,1
0.00218565913107916,0.0285927968329007,1
0.00229172801840339,0.0301794890563289,1
0.00182496969070995,0.0193772937505324,1
0.00337143325409795,0.0269723464030198,1
0.00341163133885858,0.0228949321623053,1
0.00334455609255763,0.0230752588028934,1
0.00315274086309754,0.0207831412598352,1
0.0031383187820781,0.0241278062467097,1
0.00336729841013943,0.0237134001077686,1
0.00408236382331736,0.0260504797721658,1
0.00399951462941909,0.0229942050404169,1
0.0155664466367418,0.0329542705465911,1
0.0304027694344032,0.0575703231711233,1
0.0550324788872918,0.0519398288144999,1
0.156143648227951,0.0777374159320194,1
0.201541751755119,0.0494649623440423,1
0.185598591654246,0.0482573914105064,1
0.164097475927518,0.0412299721375258,1
0.148057268646228,0.04030469408521,1
0.132741223481835,0.0415288662199105,1
0.0895043844440239,0.025116821973816,1
0.070362451279903,0.0186351171768893,1
0.0633022015506737,0.017471575371885,1
0.0797199606457753,0.0134022902569041,1
0.228139524860649,0.0334322426350056,1
0.244591150925583,0.0293447456958063,1
0.218833568004792,0.0257548317918463,1
0.21375954803221,0.0266727275827104,1
0.215440981249307,0.0233984143729149,1
0.217068427097726,0.0180261559854284,1
0.192255453109155,0.011698596504229,1
0.161707412723538,0.00928946193078246,1
0.166130953542526,0.00848595145665425,1
0.169175826809596,0.00997070956971243,1
0.124565700712695,0.00575135937373005,1
0.118649841418622,0.0076007998087213,1
0.116663750649102,0.0085569665239632,1
0.110242673859743,0.00807303123630077,1
0.101244871283275,0.00764210719087957,1
0.0805773971592826,0.0075501942330903,1
0.0716279774762564,0.00831811210088252,1
0.139475920512163,0.0198095994197385,1
0.148905487976808,0.0171931688377049,1
0.140566694437274,0.0252057918169877,1
0.139294500510375,0.0316281969264071,1
0.149067008916647,0.0348682884768971,1
0.160421763317162,0.0257617492634993,1
0.173295057027705,0.0267862213195478,1
0.185595051170343,0.0237004204435555,1
0.255328079730106,0.0310027711216269,1
0.280659273438782,0.0409316882215625,1
0.291482216425017,0.0427172332353903,1
0.321923106442977,0.051763729220894,1
0.357804202850764,0.0552666659823074,1
0.370098027915692,0.0591287928805035,1
0.28432495441136,0.0477859070065863,1
0.241762537864042,0.0540230024649805,1
0.208138011507401,0.055106250292555,1
0.158863705555268,0.0606967604180948,1
0.143000331503859,0.0568182392953244,1
0.0599601403991172,0.0278540512929498,1
0.0285477649731904,0.10826480061542,1
0.0167292121813697,0.104627926286786,1
0.00565419140675006,0.0697584764031585,1
0.00553967442757208,0.123994591882636,1
0.0104271095279504,0.176959828022593,1
0.0121629533215781,0.126197967870601,1
0.0113214675513807,0.0969472265154732,1
0.0102652764720616,0.0674792077056393,1
0.00869561196889903,0.0478425166413179,1
0.00754355026627549,0.0436206118205126,1
0.00775429573705087,0.0436179337890293,1
0.00863997577246172,0.0486402885868133,1
0.01002110479119,0.062321443605247,1
0.0097238205300994,0.0598383890275787,1
0.00635703336794735,0.0490225202991294,1
0.00478365345493927,0.0483905798560588,1
0.00458227402794262,0.050792502429123,1
0.00191264741953505,0.0290555531238557,1
0.00415855911541975,0.0500828617503872,1
0.00631942010839106,0.0537414828986433,1
0.00602065462079778,0.0502179627571984,1
0.00545753370251072,0.043337184978203,1
0.00540454409716197,0.0418097172436669,1
0.00641840767819164,0.0415156641097435,1
0.0176274057449263,0.0564092967758356,1
0.0228531833225349,0.0402085927087124,1
0.020273538366875,0.0423320602438068,1
0.015482635138532,0.034712158135391,1
0.0230240318914438,0.0385120539534371,1
0.0303302988814271,0.0474246587543019,1
0.0348537695188757,0.0527391136622082,1
0.0368028005322954,0.0414363074198207,1
0.07417728050328,0.0617956366771245,1
0.107693841773295,0.0700445103801272,1
0.169401033839287,0.0588880138950902,1
0.156627974661471,0.0508675046557761,1
0.171011818641769,0.0278674257468206,1
0.232116139224131,0.0306006410972718,1
0.208324608299638,0.0215369794541025,1
0.182056161600432,0.0139062276689608,1
0.187468244904466,0.0160096285574913,1
0.184422743136336,0.016963861288315,1
0.186594583763641,0.0102979621989491,1
0.190376212835293,0.00980272822903408,1
0.206738185340005,0.0106829023762018,1
0.220980710264766,0.01281937245266,1
0.211985845894979,0.0115190346106914,1
0.219277798856432,0.0122886045720628,1
0.197610653475834,0.0124208247383954,1
0.172661681840162,0.0122486028460397,1
0.205680977040713,0.0135960505015856,1
0.203252314575729,0.00659112893521019,1
0.209354611292674,0.010175415943947,1
0.195714703645989,0.00953002063537908,1
0.19111433205878,0.0100525638279227,1
0.182041570019126,0.00647672509097449,1
0.262524900804519,0.0150492380314059,1
0.296943236539718,0.00877319584154515,1
0.389705484908069,0.0131590144857529,1
0.411209645590583,0.00909582964105348,1
0.444075705078393,0.010641198109434,1
0.494212290568397,0.0159145157714488,1
0.522175071422443,0.0169098596417209,1
0.599652271329556,0.0199887303535949,1
0.580919886340802,0.0192541449513846,1
0.632161114800231,0.0255064748660579,1
0.673385985720771,0.0266740091803468,1
0.674653404604231,0.0532639947700155,1
0.294552305622477,0.0332921348205769,1
0.0739663198798092,0.098295607424994,1
0.027692459824036,0.0390774281203763,1
0.00512477284950109,0.0815543245197495,1
0.00253573518952388,0.0720227149986506,1
0.00139072463129482,0.0407502792027279,1
0.00132848191903114,0.0650382356263475,1
0.00128061504012763,0.0622218325251349,1
0.0012685991795208,0.0658141661639027,1
0.00157700603073773,0.0225327165335344,1
0.0128376824481004,0.0513218117882692,1
0.0139103199018437,0.0294058483246072,1
0.0131615124474927,0.0279352831592408,1
0.0124228874560394,0.026553042578126,1
0.0115900920916836,0.0252886598324693,1
0.0110630506464869,0.0249782097800016,1
0.0117603032912699,0.0266215237376322,1
0.0157904071164848,0.00880548222240684,1
0.0313908764517295,0.0144943921754149,1
0.0301353833185138,0.0133626176437137,1
0.0262889284615368,0.0133439257575984,1
0.0285038710342719,0.0122986641885467,1
0.038214660364436,0.0164703873337226,1
0.0367953423166517,0.0146209391615166,1
0.0342003977564465,0.0147392518857133,1
0.0584753748042677,0.0159175625432711,1
0.0883773522085452,0.0244807308841286,1
0.0896187643370803,0.0303539650819697,1
0.123923487695482,0.0391553991501022,1
0.134733238955721,0.0425623897242755,1
0.152864530769517,0.0451852177530839,1
0.14046066444683,0.0396436088140293,1
0.131417418131139,0.0403731466160731,1
0.092507131714476,0.0272860187106873,1
0.0588624498653095,0.0117156116920662,1
0.0514389562695978,0.0129546431077016,1
0.0587145234306258,0.0151269017739481,1
0.060484914608854,0.0175944584323523,1
0.0749646920585295,0.0253542139864251,1
0.0745959313251852,0.0255858549437914,1
0.0615849423859808,0.011126874356329,1
0.138302247692014,0.0232931167406997,1
0.197330471969932,0.0295865959042424,1
0.216464573470409,0.0352381313129979,1
0.240346817561634,0.0387596798372714,1
0.227500228887589,0.0375110426026693,1
0.212662079552524,0.0337874687193628,1
0.178069684254127,0.0276179866884362,1
0.125197084147916,0.0199569871166508,1
0.106092388788778,0.0178584211947647,1
0.0793488880764812,0.0215098228114785,1
0.0587326993707957,0.0221363487532617,1
0.0471241996613743,0.0146766133732221,1
0.152675584316732,0.0323102035766516,1
0.19349876710482,0.0142489464072956,1
0.201173407441481,0.0157530513447043,1
0.205055856567307,0.0167145600657089,1
0.208068991143915,0.0135453003852745,1
0.249588002663551,0.0149625382679511,1
0.296420197606849,0.0186715379080088,1
0.283013215925793,0.0166847624055057,1
0.275610955098231,0.0161123392257129,1
0.306506455687952,0.017717121328116,1
0.291693665236698,0.0139948993555611,1
0.388562126455333,0.0278233523792683,1
0.30084986877174,0.0215487774839191,1
0.288043866720677,0.0192836158787226,1
0.282192817652979,0.0211249852791209,1
0.554124598060193,0.0416202427224218,1
0.759722053440643,0.0500309965433463,1
0.867839937858395,0.0547528580059234,1
1,0.0623528077687515,1
0.983814944769949,0.0672411265943104,1
0.928191323243938,0.104770408182145,1
0.473312985945023,0.0988411266580936,1
0.241555228087587,0.055394961316608,1
0.126100014769392,0.0413142775016942,1
0.0367076232377877,0.0211791786690084,1
0.0303280688559413,0.0347182975328482,1
0.0276903855715034,0.0397687009174887,1
0.0116814272747846,0.0249254415605109,1
0.0118175008223486,0.0378472386815755,1
0.0182245687035013,0.0460700293426799,1
0.0179862115295482,0.0406888592613896,1
0.0176868344643148,0.0395041032772475,1
0.0187193780100356,0.0396141444905838,1
0.0245916480401145,0.019956622592542,1
0.079827880527369,0.0443471456801742,1
0.0901474580271428,0.0297861796251461,1
0.0823865688379473,0.0282178364776498,1
0.0802720031369336,0.0263451629908077,1
0.0714144602943668,0.0228861566567739,1
0.0767535948833601,0.0216580505713602,1
0.0592724917350033,0.0156851169209086,1
0.0472918442485225,0.0127327285975102,1
0.0494505832040493,0.00948791724418251,1
0.0495630931174898,0.00838384841663014,1
0.0510029307340154,0.00951175006461,1
0.0742612822347197,0.0186179401361966,1
0.080405574676207,0.0130776113495359,1
0.0933629802594918,0.015469546652924,1
0.0930613822958145,0.0139928296645651,1
0.085507900204844,0.0140959968750641,1
0.0978852360512457,0.0104047688769112,1
0.144200934041756,0.0128762283402931,1
0.136069895220982,0.0131983836967724,1
0.155369933958494,0.017073041434733,1
0.150736272421156,0.0187149375512698,1
0.139425892603253,0.0164486672166179,1
0.139416861544726,0.019639708162106,1
0.176663957042336,0.0249921205943465,1
0.161957675390637,0.0219694480730661,1
0.120634012780993,0.0139930146318641,1
0.113343197793115,0.0134324146315046,1
0.111896582558184,0.0175302434027512,1
0.0612696416918766,0.0082144934535505,1
0.131365502177127,0.018764185732312,1
0.202821957007315,0.0290479580761962,1
0.447426608973451,0.0413186750160601,1
0.737152282565219,0.0557529428748442,1
0.819361544756618,0.0518714032843189,1
0.767842051916676,0.0580362960025337,1
0.70986379760587,0.0300295098765856,1
0.802600186874623,0.0332558742655785,1
0.691974805297763,0.0204709167026405,1
0.592374440895407,0.0178892543329466,1
0.598774061086036,0.0168653574119507,1
0.687620032563414,0.0190261415935833,1
0.634193258164199,0.0227498571414916,1
0.436797187067493,0.0155483946043881,1
0.336702756951962,0.0114393106290523,1
0.250837009925418,0.0051629534453373,1
0.238251643340384,0.0166901742312792,1
0.248124876218946,0.0198903023217632,1
0.227334557253444,0.0301254704536706,1
0.152747576468436,0.0159118960167936,1
0.118999724920363,0.0106169570019926,1
0.126193643553337,0.00902519760502437,1
0.22981403351175,0.0131744753613902,1
0.35838288347037,0.0193763034401012,1
0.375222008342121,0.0199197497464597,1
0.360326115918355,0.0146334462108944,1
0.357875112113579,0.0123928446393004,1
0.446923181735142,0.0151913252863271,1
0.462697834956517,0.0168200222683948,1
0.475878234086276,0.0178515291406892,1
0.344961741752334,0.016857209422261,1
0.185628635870866,0.00882398718672092,1
0.181654588871052,0.0159107203544935,1
0.195244333960049,0.0190102619287676,1
0.193391237874182,0.0188310756944636,1
0.150785656098066,0.0293596752360532,1
0.0144269605201392,0.00505695780288287,1
0.0117930509043758,0.029291769969694,1
0.0115622815847369,0.0391203819877854,1
0.00626059370892646,0.0328557286103308,1
0.00488604058018084,0.0291871619442121,1
0.00432085212554971,0.0274838678212387,1
0.00431897467416658,0.0286329484040919,1
0.00327602330779644,0.0259260234422354,1
0.0159370830025055,0.0103262852367249,1
0.0420296206662739,0.0182705389702278,1
0.0396315621522196,0.0178218376380579,1
0.0406125952457012,0.0172179422622025,1
0.0390764441753115,0.0161464850008884,1
0.0372955769509652,0.0151345704810396,1
0.0375043821865574,0.0133261450018265,1
0.0357312248108435,0.0124242735711322,1
0.0424033192496923,0.0123887288336042,1
0.0411480276703382,0.0101926039045637,1
0.0367098558253611,0.0174447317785172,1
0.0254358369157957,0.0168100185227284,1
0.03354879286028,0.0204733580341363,1
0.065056501807766,0.0343163438923046,1
0.0788826647271237,0.0320079969658206,1
0.059931661007588,0.0203743616155999,1
0.0579291920794251,0.0194025783178213,1
0.054009690289895,0.0145903671462551,1
0.106555114834108,0.0250878278275575,1
0.24575159017013,0.0482696955656192,1
0.425399842748244,0.0677858286505228,1
0.617975884393428,0.0592370320668784,1
0.627906458702643,0.0658440603446762,1
0.639022919544497,0.0675840017319522,1
0.602468247343835,0.0562438764808873,1
0.516477974353657,0.0530535430513619,1
0.355572097048082,0.0396469311828827,1
0.261829511012162,0.030734411039488,1
0.256081450930984,0.0218161706254189,1
0.289621384035382,0.0248241808233243,1
0.267870989848158,0.0260217694350903,1
0.164162926342105,0.0171016056039657,1
0.148215106121659,0.0140803528596736,1
0.126546187257258,0.0106741176034717,1
0.11874659375494,0.0134117082226349,1
0.0906822990920954,0.00969399234159904,1
0.0890869356801096,0.0108030343774905,1
0.0728275572008825,0.0103019271974172,1
0.0748851143046182,0.0261375080280457,1
0.0665051735810434,0.0264946191287913,1
0.0614032097871585,0.0290760172946345,1
0.0437796200575108,0.0153560606266358,1
0.0481665964723702,0.0132755661059519,1
0.0535393716187581,0.0162022046231881,1
0.0570677827830978,0.01612514949923,1
0.0612565703349733,0.00511660761950494,1
0.215840386810741,0.0232781030188688,1
0.36064014842058,0.033249086929239,1
0.456026342074896,0.0411364664471589,1
0.491570920898257,0.0399784283582187,1
0.520454601566523,0.0427971654080198,1
0.558316349010239,0.0449720215445465,1
0.577620264452086,0.0523483509264727,1
0.459117743922879,0.0389162296376164,1
0.243135106776286,0.020959737382562,1
0.0609614305673535,0.0164439334921209,1
0.0593240397259783,0.0352539141842561,1
0.0615275724439968,0.0425511975489145,1
0.0546234965768595,0.0352822891133666,1
0.0280859157693493,0.0261805348741104,1
0.00729493766528003,0.0466307574800687,1
0.00699103249599378,0.0526599256719258,1
0.00715719783415183,0.0498595208811128,1
0.00479438205706959,0.0397318588195582,1
0.00516491480081882,0.0205771755342248,1
0.00873729494695263,0.0280907913579719,1
0.00826466938097851,0.0258983400615297,1
0.0069361549732524,0.0208431697519873,1
0.00663732896404803,0.016887276232051,1
0.0116621000209842,0.016305280663996,1
0.0384437917145446,0.0315163988281587,1
0.03768975025552,0.0170883802243114,1
0.0376174016808491,0.0168333219703596,1
0.0331845484064399,0.0150025701022222,1
0.0333254120210427,0.0149077866123489,1
0.0365358881885237,0.0182622500096636,1
0.038010756635823,0.0172056874065811,1
0.043669420649751,0.017326381971906,1
0.0399908170172347,0.0118681563523854,1
0.0453632515465221,0.0173526833224914,1
0.0338698194996586,0.0114868081857022,1
0.0323651119966886,0.0150867594236788,1
0.0303980415958477,0.0147176681362298,1
0.0282186740345849,0.0134520884907112,1
0.0272496420732645,0.0157550213141793,1
0.0268657993938158,0.0144265569532043,1
0.0247108338958286,0.0151124411995071,1
0.0276442463802721,0.00855271111647444,1
0.103887559436347,0.0396747911208454,1
0.292247237436135,0.0653369736710914,1
0.425572217267308,0.0500267242668145,1
0.449269439267682,0.0628186915730602,1
0.51708087400068,0.0585247189648683,1
0.573916727444353,0.0474953757793092,1
0.500241795807755,0.0451975445873543,1
0.437905751458975,0.0434777425744825,1
0.285580603758975,0.020412636459779,1
0.162750894953089,0.0118955220498253,1
0.125319754679294,0.00844552371228691,1
0.162852331181042,0.00974707805814709,1
0.220351216283795,0.015700884912855,1
0.259703448822284,0.017583365069147,1
0.316160601996943,0.0270596262069658,1
0.300170985522538,0.0284843838624684,1
0.298449194177186,0.0248237850104787,1
0.221193898182015,0.0220511947178689,1
0.134756300429163,0.0197091777491087,1
0.135457508376053,0.0188200585304862,1
0.0844603912166407,0.0108516499634452,1
0.0829415203489425,0.0231198814230247,1
0.101950654013241,0.027573171233751,1
0.113792742556713,0.0333704571408462,1
0.103542125985132,0.0223155808259384,1
0.0737034618274457,0.0131911866665756,1
0.0732216793158747,0.012417911466807,1
0.0799604230142141,0.00779005290079172,1
0.106343564394136,0.0119359087243512,1
0.125598924539346,0.0166452668503113,1
0.132284590497114,0.0125805446083722,1
0.188844042951806,0.0160339484614434,1
0.202961710939049,0.0162540507096943,1
0.217321358097876,0.0161253271758936,1
0.20246588955451,0.0157254119981801,1
0.208126989172003,0.0159367556447815,1
0.206686011940465,0.0174334704272268,1
0.221217716327918,0.0235977520412504,1
0.266675787439434,0.0265129330801948,1
0.359787847678419,0.0328188851697373,1
0.475822749887666,0.0554864371675334,1
0.394992857756016,0.0641967136265659,1
0.294701209728661,0.0526984446268858,1
0.28049913692835,0.0638793347334795,1
0.227420709901168,0.0779811162201567,1
0.176460085576258,0.0903487822126105,1
0.0812495885998506,0.112523532713998,1
0.0393343084392799,0.0378722682118869,1
0.0130964568780941,0.0229115254502017,1
0.00732528929288098,0.0274117879597198,1
0.00743442144760406,0.025860054257714,1
0.0132729828108647,0.026751415195213,1
0.020334160133653,0.0314771816561115,1
0.0268856161202308,0.0232504589939272,1
0.0657752079973339,0.0458778047811217,1
0.0658141234282589,0.0261382282628571,1
0.0610193185557532,0.0159596425909877,1
0.102874145199629,0.0232838721211735,1
0.100857606589592,0.0195773971032941,1
0.0858146518851565,0.0156703933779968,1
0.0741210351878973,0.00828405703936909,1
0.0799178338437435,0.00849618448171246,1
0.0851133007286369,0.00780435483100656,1
0.101163246033053,0.0117948235577221,1
0.102516199589285,0.012303968299316,1
0.108452072432668,0.0153251892072071,1
0.110907183452964,0.0208519171729393,1
0.0611014002523708,0.0126397039448915,1
0.0533788797034727,0.0127304603160142,1
0.0558583078617457,0.0142793208400601,1
0.0509717140782058,0.0250664591423547,1
0.0527307181368848,0.0218372065535912,1
0.0721092567748316,0.0345420696432625,1
0.0780310111103829,0.0347169934803954,1
0.111364877600624,0.0420889510259562,1
0.149991172735462,0.0580583226690394,1
0.194444449515792,0.0720290341452229,1
0.193431168761667,0.0578942340565734,1
0.165595900510683,0.0441186801412612,1
0.264641231752303,0.042974551746773,1
0.361212991350328,0.0445263243734067,1
0.340044480661549,0.024246358426405,1
0.308989990772918,0.0241800368855816,1
0.292612566840791,0.00994775696749535,1
0.462272377538321,0.0172307855323762,1
0.465548928297135,0.013764906519926,1
0.462716299397247,0.0137808974532935,1
0.458888090619369,0.0109492116815583,1
0.465740454313751,0.0122274069741454,1
0.474262539909466,0.0163773790364448,1
0.425241238783168,0.013757411860108,1
0.405419792023134,0.0179662371099538,1
0.355306608355602,0.015155702035755,1
0.347618801689442,0.0337937244141972,1
0.203135744375081,0.0235816507361468,1
0.185587664072006,0.0176625225568117,1
0.201879029472208,0.00634983579034594,1
0.309763710213007,0.0119637553500374,1
0.298764095255795,0.0102172020550307,1
0.30802336561441,0.00905988145364433,1
0.37501236036097,0.0127034034649288,1
0.396404421193361,0.00717499725013028,1
0.46247549109933,0.00927634934651276,1
0.484390603378094,0.00907819524993202,1
0.447179069765409,0.00873013489999207,1
0.364270758036523,0.00635516793469626,1
0.324681865413784,0.0120441579361895,1
0.279076139514114,0.0128031686756605,1
0.347163675841718,0.0157509615919427,1
0.456655916915433,0.0257699931754068,1
0.406169304310372,0.0194973602097839,1
0.418816588946286,0.0409879124468449,1
0.434509463271058,0.0417824320075029,1
0.449787070121789,0.0566201368157977,1
0.350013009872453,0.0768019836623474,1
0.184913747555869,0.0530109807403727,1
0.081140847418519,0.0377520434243274,1
0.0487950009759734,0.0289356507725208,1
0.0282862032243032,0.0251435340607904,1
0.0318213785910805,0.0416155033896922,1
0.034646375919057,0.0442905483878791,1
0.0330277104275023,0.172332780459556,1
0.0168271959787978,0.0801161149558402,1
0.0097019014919426,0.0660336150073135,1
0.00702745349635833,0.0451013634699843,1
0.0113034731849402,0.0556909402168325,1
0.0272488896527626,0.0695803466803012,1
0.0547999543314099,0.0862398873058767,1
0.0794675114503623,0.070320016743847,1
0.117333154855981,0.0747727790682291,1
0.103509294723224,0.046528846913011,1
0.0864560455249883,0.0392163735850808,1
0.078493081929074,0.03446280275233,1
0.0711068865458879,0.0242423929306064,1
0.071014491140862,0.0242893432415404,1
0.0732633221169934,0.00859504883031245,1
0.113666849579344,0.0131592160103664,1
0.119331852040198,0.010453286615373,1
0.121835540350163,0.0109505040726398,1
0.0983755516173327,0.00759537660643335,1
0.106996411779657,0.00948279519093769,1
0.108384817394238,0.00853348303339786,1
0.111308852051869,0.008594965637454,1
0.109548460875568,0.00856957547646798,1
0.100885145674388,0.00737165103540561,1
0.101250274215324,0.0198041002468882,1
0.0439921160112241,0,1
0.0826342407520482,0.0135881656217505,1
0.0838812835486181,0.0120749349298595,1
0.0845028098843288,0.0126050434574904,1
0.0736779621549415,0.0112889204801724,1
0.0715903444573898,0.0127795012721285,1
0.0695441762897947,0.0111928769686184,1
0.0734041566906488,0.0131577440229009,1
0.079167531499806,0.0108752961147874,1
0.0971297896210388,0.0139128458782112,1
0.117786002149194,0.041201441150954,1
0.0928058313358563,0.0340357249840417,1
0.0926422788512718,0.040784791005434,1
0.10151355296782,0.0454671970983923,1
0.0963465570861884,0.0440069185822821,1
0.0943317675361025,0.0446913989024915,1
0.0628264102899387,0.0512363164972992,1
0.00884260355057769,0.0135552756869769,1
0.000616286473424664,0.105714526440043,1
0.000630773647681526,0.106256217226726,1
0.00066850847513444,0.120422492145061,1
0.00116450895039169,0.15468192324715,1
0.00125069561833038,0.143535780442089,1
0.00120599508835046,0.121926238394468,1
0.00120796697243324,0.119591906626629,1
0.0010647099423208,0.10845594876886,1
0.000947249163954399,0.107558543713595,1
0.00060926830167505,0.0915737614284336,1
0.000681725789585573,0.113021284749961,1
0.00131464099402394,0.154244827320408,1
0.00141549792347847,0.130204870675177,1
0.00206076995039886,0.143702195509017,1
0.00254401888707861,0.173571564782897,1
0.0026242001462747,0.149292430102056,1
0.00759644012852346,0.091764333727807,1
0.0166651834945325,0.150033236373628,1
0.0396824626269373,0.0306399821149482,1
0.167853738348637,0.0554720958870426,1
0.457892845323735,0.090827785623493,1
0.617590960665208,0.0490324111361348,1
0.597048094096666,0.050153667658758,1
0.551406501394975,0.04646621447633,1
0.479762498045746,0.0347877714455127,1
0.434711979071709,0.0320430537538757,1
0.393562636589184,0.0230333248864979,1
0.346264741069166,0.0207555242345978,1
0.309170770756311,0.0188514645480126,1
0.321668140509444,0.0221707028625379,1
0.23349618932402,0.0175006834818766,1
0.167018882845373,0.0188237487308508,1
0.173316574428373,0.0196085986008834,1
0.17164433964846,0.0188956335098776,1
0.170597410648898,0.0208991796718645,1
0.121844209962963,0.0105287506045196,1
0.0934523482604154,0.00953979375770722,1
0.102397654026164,0.0104408487915236,1
0.110269246194729,0.0132789035384534,1
0.0948779933314971,0.0122687793320209,1
0.0837993121686553,0.0128404279542069,1
0.0773296472341656,0.0099839814920974,1
0.073840660190802,0.00723984789106495,1
0.0864477156811903,0.0106304889854987,1
0.0700456159516298,0.00893140773300163,1
0.0913047771783329,0.0092912858659577,1
0.209498123196341,0.0264252315192385,1
0.275578266524046,0.0327705415023248,1
0.362903946539345,0.0226831166380034,1
0.349010561261024,0.0190923695483441,1
0.353786256036823,0.0195960419052681,1
0.366008861955224,0.021249897070069,1
0.32734237902134,0.0144547973372244,1
0.38303911419303,0.01518846872159,1
0.358792508924311,0.0122614652837016,1
0.46294542673579,0.0152949527910649,1
0.466655577358072,0.0139176373310862,1
0.475658698315324,0.0124597705224225,1
0.470005221854194,0.0124749919722928,1
0.4562855681448,0.0115037331944881,1
0.48060669223677,0.00838147038474995,1
0.686334566077445,0.0135366703454333,1
0.816203181458367,0.0188870237497677,1
0.831010668925877,0.0201759656257388,1
0.980040241960291,0.0255371789389321,1
0.817093564672635,0.0274409260914504,1
0.678808903521814,0.0229240381865169,1
0.444232526543133,0.0191268695068092,1
0.435081634067157,0.0229608865320291,1
0.119772901933282,0.00346911219171256,1
0.047049185361011,0.0113112669026517,1
0.0563210579729073,0.0154900365751295,1
0.0598115212907879,0.02252279375359,1
0.0500112048807446,0.0213380587394029,1
0.0577114016292787,0.0294891489101078,1
0.0652944374931913,0.0321168010869952,1
0.0608506793195183,0.0616288509913952,1
0.040349510126737,0.064038212854527,1
0.0333521179914371,0.052620323080099,1
0.0158722482720159,0.0450306470436668,1
0.0144034783341105,0.0723824893647139,1
0.0142244617010288,0.0683936886891733,1
0.0257945051366723,0.0200589329374686,1
0.0925013228455342,0.0472353195895234,1
0.1171795988807,0.029652850989811,1
0.121010649977151,0.0274451565938231,1
0.134635554307332,0.024235094166304,1
0.117340600702831,0.0167080033660933,1
0.115273770277783,0.0170206605682574,1
0.117368541059583,0.0110807510544761,1
0.132916416946353,0.0129825392015327,1
0.105749813832082,0.00742780993606297,1
0.100915206194465,0.0096804209368966,1
0.0925387082467333,0.00982653436089404,1
0.097162399388886,0.0125237988724474,1
0.0965095327620067,0.0132177067016128,1
0.0738260041049851,0.0109365641065528,1
0.0717574144265938,0.0143883931464372,1
0.0653607306841764,0.0135212816585389,1
0.0657151784685858,0.016039588897885,1
0.0577091084831257,0.0165964028182254,1
0.063205110496284,0.0257439635919406,1
0.0873635466746165,0.031315378562262,1
0.123364875630005,0.045181461257303,1
0.149327716576215,0.0555296802258874,1
0.144321769393824,0.0463281905528125,1
0.153874502400999,0.0284328528281663,1
0.312364841552457,0.0380661771273225,1
0.395324298730982,0.0407754667917634,1
0.369236700062913,0.0242884273225665,1
0.363620754614174,0.0249500906035777,1
0.302730324857417,0.0208785048632445,1
0.30766693497184,0.0181748902981481,1
0.358704278244975,0.0213554197929709,1
0.418987906123006,0.0247772361746323,1
0.441537990939474,0.0227160830755828,1
0.449353925406868,0.0258774806377484,1
0.348162278085631,0.0279757051654823,1
0.213251157588055,0.0171981817516261,1
0.154908382890719,0.0206768448164926,1
0.155220373796552,0.0190514625874345,1
0.159145916465505,0.0187657000461664,1
0.158952365963723,0.0180766522564272,1
0.161062093864581,0.0181412030404076,1
0.144274057975916,0.0124185549970302,1
0.130855568012287,0.0165188029235412,1
0.100059078188155,0.0172591146001831,1
0.0928662703639063,0.0171015758717415,1
0.195607225083797,0.00204304994706616,1
0.461777495690308,0.0105219680601408,1
0.45550922647876,0.0101062907585185,1
0.452855594241903,0.0105586690924152,1
0.449066806174025,0.0120317927907691,1
0.409792627354927,0.0096166832177843,1
0.395550377007084,0.00803309007707057,1
0.439657074869111,0.00907930189363303,1
0.418261545107615,0.00790785396041784,1
0.355777350987998,0.00517100937586554,1
0.313468609780278,0.0184429485980013,1
0.12433689515022,0.0110227442181486,1
0.185167480266264,0.0119828837726003,1
0.219260438569522,0.00675215098946158,1
0.231831837969237,0.00442765366694275,1
0.433640912584159,0.012218355431083,1
0.45459617824723,0.0044947752630827,1
0.591107962210939,0.0077112717627397,1
0.731540551196361,0.0107819317532923,1
0.820875610189298,0.01244636262476,1
0.850158611315579,0.0128201675442387,1
0.901804776290634,0.0128760736141131,1
0.873362487665654,0.0148689643212187,1
0.835568755233691,0.0164796937183301,1
0.821889925633828,0.0185552117463264,1
0.274571928992501,0.00207868129207285,1
0.0546950609283247,0.0075684264612188,1
0.0645140807036575,0.0135534960952949,1
0.0775834851048158,0.0168045099371089,1
0.0898591043622747,0.0209044665821748,1
0.0738960614299621,0.0186918449179588,1
0.0648912546577748,0.0239122213239805,1
0.0675806200784439,0.0241920023165421,1
0.0664333899727979,0.0214271870831171,1
0.0461253983262486,0.0365621631404353,1
0.00940484365376786,0.0205484943778733,1
0.0115539306165656,0.0365545149207911,1
0.0117723162703188,0.037147369029761,1
0.0121334950860381,0.0346850406757862,1
0.0144610999579129,0.036675101162772,1
0.0224937336728282,0.0140233234453936,1
0.0838825816862803,0.0325846068173361,1
0.0809623099923043,0.014654681022087,1
0.0784863371605458,0.012713402244745,1
0.0750314635677562,0.0134469341666889,1
0.0817577753060437,0.0164594212039799,1
0.0775039518226971,0.0161147778311097,1
0.0660228845621379,0.0125865834608179,1
0.062604319188235,0.0113472571681693,1
0.065144383701568,0.00507593639970461,1
0.102218139645874,0.0141976257547558,1
0.0878364438416522,0.0081642945493789,1
0.0829084313554475,0.0105737567650475,1
0.105385988160762,0.0130558568129513,1
0.123278711190549,0.00679141216130229,1
0.136664942477151,0.0075729705677783,1
0.14714719447914,0.00799702126309342,1
0.151622440508567,0.00602173128516966,1
0.133573095571608,0.00441505845377479,1
0.121711795751504,0.0062214783795952,1
0.102562516138465,0.00379150412057799,1
0.102067854792889,0.00679273241290431,1
0.0948921055382934,0.00711781979296583,1
0.166561911850119,0.0116280682864859,1
0.226848957693061,0.0228913211375195,1
0.202410722149935,0.0223817594964464,1
0.221617520220442,0.0273155626878089,1
0.214606154708703,0.0419309429635603,1
0.153066391025245,0.0272948679983397,1
0.115147092404264,0.0213242659626457,1
0.0889189982160944,0.0151210024963304,1
0.086655241540877,0.0122945697313319,1
0.091349469166439,0.013235561101249,1
0.0924136266714571,0.0070878002006018,1
0.156292504725564,0.012232776727859,1
0.20997843152379,0.00771076758276026,1
0.294715911881249,0.0119309117244585,1
0.309240194628836,0.0108346008879531,1
0.300749099852764,0.0109685196186345,1
0.304343822749617,0.0112171807170007,1
0.303255320304017,0.0102534767636052,1
0.311026663221886,0.0114516935759109,1
0.305469184748088,0.0109984407449008,1
0.320874203825178,0.0100074387843869,1
0.344752663899544,0.0164769504479496,1
0.392105303911437,0.0317824402435592,1
0.315804501405432,0.0171144833135673,1
0.317147190727445,0.0179429849370532,1
0.321259026401149,0.0132138752381143,1
0.295012907553015,0.00854874222350788,1
0.3263498212843,0.00910629833311795,1
0.337131146316527,0.00885803509352432,1
0.3363593094688,0.00838342676998966,1
0.311440945618689,0.0122434293759235,1
0.235395781293737,0.00539809822690818,1
0.372533867809304,0.00975150328059422,1
0.378322220198982,0.0108078683844092,1
0.311049387526568,0.00642244307386229,1
0.365895796471459,0.00962960956877322,1
0.459735679969561,0.0152689119159713,1
0.585298978323292,0.0226979935138495,1
0.674662439975605,0.0268226710961329,1
0.752685214206434,0.0317628181535959,1
0.791128018954992,0.0336176197000239,1
0.803263418368237,0.0403964948853276,1
0.470883310160727,0.0328692074580662,1
0.317684343219323,0.0290648451350085,1
0.054741821816454,0.00475682429066272,1
0.0412109357302777,0.00864470218566133,1
0.0396005371352297,0.00617283269752925,1
0.0425578038757893,0.00340098479902091,1
0.0554024345455061,0.00788981686185448,1
0.0652371287793695,0.0106660670907394,1
0.072968705482601,0.0132773204123407,1
0.0726288235384244,0.0142052913934447,1
0.0787987566769565,0.0175075473365119,1
0.0512532289374278,0.012997177092265,1
0.0411736948385328,0.0191738919706504,1
0.0430160667468125,0.0205815380183243,1
0.0183538192730319,0.0188338436224439,1
0.0012522754869874,0.0744429313338341,1
0.00259548108409682,0.12256812290066,1
0.00308792373648297,0.0970395564116937,1
0.008404442022476,0.0187151340458757,1
0.0250453813546422,0.0311909158154052,1
0.0248435834974122,0.0285549233244224,1
0.0303721364949143,0.0294761569574989,1
0.0316273550539792,0.0252231084685534,1
0.0292907844953632,0.0175772773709551,1
0.0796385452570233,0.026566395319001,1
0.103990552145011,0.0164221437808033,1
0.0974685414119379,0.0136449469849345,1
0.0872008033158995,0.0120752912281823,1
0.0879258286875115,0.0150201740817621,1
0.09288973326212,0.0155510205195258,1
0.0874173599626818,0.0147445544022096,1
0.0873502281495972,0.0153433101483883,1
0.0864071573716486,0.0149398445658472,1
0.10184872233605,0.0144933045397854,1
0.123749304524403,0.023680075202098,1
0.115262241724866,0.0268384368211866,1
0.109987541464449,0.0307988446985546,1
0.10436482598986,0.024652492529145,1
0.111638386329498,0.0242261100855727,1
0.122584023340822,0.0270445964273941,1
0.141234002541126,0.0305479169916443,1
0.164149929537209,0.0336796395380701,1
0.185638424469127,0.0410829494961564,1
0.169761926290903,0.0728624495092557,1
0.0811555959132631,0.0447232091643805,1
0.0378577842398618,0.0592437871295137,1
0.0216322814901979,0.0441023138652609,1
0.00218026429550395,0.0172968890301542,1
0.00162070809716472,0.0748921553714238,1
0.00166896878297843,0.0604386828898011,1
0.00578617075937873,0.0761967357827334,1
0.00870698670403614,0.0932988483856699,1
0.0156303698294217,0.0472044251026701,1
0.108315586616138,0.0437051731938901,1
0.163399709045251,0.0197944996547353,1
0.155056024358784,0.0198432135881427,1
0.143917615350249,0.0179927744586626,1
0.131076563423165,0.016038224669635,1
0.118828868636922,0.0143651139381612,1
0.10130281547688,0.011859805629653,1
0.0943477501378656,0.0104423038976355,1
0.0971322473315057,0.0103984550816486,1
0.107452404621043,0.0130940020734212,1
0.0630720577117567,0.0143302767329534,1
0.0229254622732643,0.0314336701604831,1
0.0241009178311766,0.0344252663763629,1
0.0218782218307936,0.0413993084276041,1
0.0136284763823259,0.0337849797879259,1
0.0143980903934374,0.0432794031096879,1
0.00790224936544846,0.0395700239434445,1
0.00256042185863066,0.0218980636600098,1
0.00220807631795708,0.0330497496654178,1
0.00209917177684845,0.0392290529951811,1
0.00589282029009996,0.0283858829183941,1
0.0175958066352599,0.0620493235948629,1
0.0220721221994843,0.0560739244396817,1
0.047593072721597,0.0524710913739984,1
0.0868524191265088,0.081819040323287,1
0.0965159401091248,0.0683926988882034,1
0.0844130962455224,0.0476411489667052,1
0.077876458913573,0.0354240663743503,1
0.0808695063850335,0.0371044785531863,1
0.0835275827622182,0.0366213010449362,1
0.101663986006934,0.0555326335873273,1
0.115413396617748,0.0585305292272469,1
0.126834582509988,0.0660831508483298,1
0.117695461651157,0.145952833254201,1
0.0712169669428965,0.107636172849024,1
0.029040592570352,0.0749230580828238,1
0.00591386555593556,0.0416520462491121,1
0.00202918611045858,0.10443750782981,1
0.00149829736068538,0.103571306832394,1
0.000948461059887476,0.137380137252814,1
0.00141900344476974,0.252406601438263,1
0.00147889005172768,0.256193756088028,1
0.00135873770162116,0.131386057268099,1
0.00142815894464539,0.0748461221706269,1
0.00141873382438372,0.0754734684063677,1
0.00120469787904968,0.0647372685272566,1
0.00118023602503011,0.0634797543026406,1
0.00128310778773652,0.0698321747000656,1
0.00122977955090527,0.0677698642498721,1
0.00128821653498863,0.0688947428139116,1
