Activity,Complexity,Tag
4.81842373636615e-07,0.265868818615207,0
1.17365761482453e-06,0.379876536282154,0
1.22339518227758e-06,0.360902092138891,0
1.01657858225322e-06,0.333779258373072,0
9.68401165899931e-07,0.343694088212807,0
9.37868463196768e-07,0.341714114316244,0
9.47535075078399e-07,0.351367020541987,0
9.10037965761882e-07,0.337483813349177,0
8.26710177706165e-07,0.323718618630988,0
7.42497828623497e-07,0.313885403752373,0
6.42090075571911e-07,0.3295185408822,0
6.97328942913396e-08,0.204279777146226,0
1.12596898587362e-07,0.227346278254888,0
1.70280788101489e-07,0.24408664337417,0
2.04196091857594e-07,0.252305111540568,0
2.05774380644028e-07,0.24217091593044,0
3.10734227981524e-07,0.249267921778199,0
3.95955776553406e-07,0.24410130599069,0
6.31648503898178e-07,0.278507298898077,0
6.57276125028651e-07,0.264550727938404,0
8.16814131839275e-07,0.292069578799091,0
8.53113533743555e-07,0.296826870374144,0
8.5288487487311e-07,0.300622087771137,0
8.48151558743438e-07,0.294296780982415,0
9.27973657513583e-07,0.297099180986121,0
8.48217443502718e-07,0.290994056020407,0
9.38719849309635e-07,0.312500235756981,0
8.73781970287246e-07,0.315299463316225,0
4.14634958435717e-07,0.243453335618496,0
3.27809697311466e-07,0.243857099851064,0
3.05533982687257e-07,0.231800133424028,0
3.10948779762334e-07,0.221903310836257,0
4.34719733523665e-07,0.248918805706524,0
5.88965566422956e-07,0.287809005996291,0
1.97960913262253e-06,0.234549987464589,0
2.65643721881526e-05,0.466392167545081,0
3.16022408501331e-05,0.425899343869876,0
3.26052028354071e-05,0.415077314927363,0
0.000195815366774907,0.116689350713983,0
0.000985082663592224,0.244932665256347,0
0.00171095922140963,0.175835814710503,0
0.00163314865348056,0.127825048750588,1
0.00163142204011832,0.113093378961131,1
0.00183540380451333,0.111419139475142,1
0.00160298323366173,0.0869891371690302,1
0.00143200378264473,0.0817064966422431,1
0.00115004837406973,0.0711181661414371,1
0.000800142159377923,0.058051299170357,1
0.000658242566549276,0.0666647726900583,1
0.00060104901420209,0.0664720373101732,1
0.000388510228890301,0.0609783034120361,1
0.000333434891396921,0.0682309994947764,1
0.000329074713058854,0.0786454874407094,1
0.000142169565008687,0.0457862427123426,1
0.000284241349283454,0.0565444358866353,1
0.000346581090572728,0.0355476570838647,1
0.000559967063975545,0.0465971613338107,1
0.000713925984095442,0.0303716685475724,1
0.00092313756100441,0.0305069358067624,1
0.000863953772235417,0.0297880064961984,1
0.00085979271670772,0.0313369437696709,1
0.000868521904732012,0.0296649952663548,1
0.00108268920983578,0.0370801091851213,1
0.00116903016077584,0.0316965272990514,1
0.0011691689323716,0.0340553307805171,1
0.0011171327141874,0.0428268913460268,1
0.000689793082592593,0.027725077062928,1
0.000664320700217098,0.0406159418453191,1
0.000589005156652318,0.0448720842078723,1
0.000579104750299525,0.0428139509430378,1
0.000655595839658818,0.0365431666746957,1
0.000675373741365678,0.0354717849612189,1
0.000577115245276058,0.0325538658640131,1
0.000490381128352682,0.0422133113812128,1
0.000453451844586191,0.044788832642855,1
0.000487111231939288,0.0467299587982825,1
0.000493524275976218,0.0477523526063503,1
0.000676582891797931,0.0686659797708985,1
0.00086388421901274,0.086910668521612,1
0.000922620094353873,0.0919250332049199,1
0.000737807891019335,0.12790996143222,1
0.000570944273316423,0.149936950059799,1
0.000552290962441295,0.144160167525911,1
0.000567441605893468,0.152807189681729,1
0.00060893299269343,0.140448662280665,1
0.000427957858210569,0.0874052522823424,1
0.000300758605727261,0.0676420248250275,1
0.000659353643564254,0.0791457332474317,1
0.00073242003119938,0.0683519488893804,1
0.000751881984790944,0.0680178220376256,1
0.000728057616345026,0.064762843713855,1
0.00068000831143344,0.0595611107423759,1
0.000620540734682919,0.0573200056744101,1
0.000533087279586479,0.0491746537789491,1
0.000610695374348901,0.0522806238373893,1
0.000705008269390347,0.0739733384948093,1
0.000557305381554776,0.0662472702194097,1
0.000434634009390647,0.0918649631675231,1
0.000415740303011568,0.111135093417442,1
0.000448258879170267,0.0850256981498009,1
0.000558612042980993,0.0954528185201847,1
0.000568203307346658,0.0958082437197803,1
0.000620661162721506,0.0568154667825328,1
0.000916699296281627,0.045651951120281,1
0.0010272397617817,0.0407434758248738,1
0.00112803965844016,0.0448133742645451,1
0.00126853811946902,0.0520897743282644,1
0.0014220358499945,0.0565527841201047,1
0.00132638180665342,0.0538194350933915,1
0.0012457189848699,0.057674280677769,1
0.00124073714848278,0.0577735628469637,1
0.00123967590700977,0.057854684455127,1
0.00115964409689581,0.0840019544248179,1
0.000208903640535423,0.0639899291253441,1
0.00023961486024169,0.155569408586937,1
0.000410783540038492,0.172878495706292,1
0.000767791010654668,0.158857837525022,1
0.00115607163363924,0.198600791275954,1
0.002659554018736,0.0953598577455303,1
0.00553095150572889,0.0676971804812344,1
0.00523496354876126,0.0560955399820267,1
0.00559577351733324,0.0498950279833164,1
0.00859516507457803,0.0576912837348419,1
0.00904066124658309,0.0475059603698659,1
0.00738945487781591,0.0367965096661768,1
0.00612577909559301,0.0312443774227338,1
0.00526609798472208,0.0198253746279027,1
0.00585632161411253,0.0145325104531693,1
0.00571804069626563,0.0125190651615429,1
0.00712438362039155,0.016669952081486,1
0.00734980567089665,0.0178663970789265,1
0.00701639323969168,0.0143291255837303,1
0.00691386922414548,0.0116921757053705,1
0.00815878257591475,0.0139042918878049,1
0.00740566916358172,0.0132310441355048,1
0.00568715827493486,0.00939456227479628,1
0.00474790491642336,0.00929756246274905,1
0.00473641187607923,0.0119061409545139,1
0.00390048506063954,0.00764491477713478,1
0.0048732876943136,0.00926844788061733,1
0.00487552971624152,0.0075688311030572,1
0.00520395543140157,0.0119721767860178,1
0.00501596365299262,0.00994238119997131,1
0.00573824839216141,0.0140709253422139,1
0.00596422383139306,0.0131743652110842,1
0.00627868150631584,0.0119189127634809,1
0.00779446701324129,0.00585240181218347,1
0.0130407954884246,0.0135018961201857,1
0.014464868001738,0.0172578808025781,1
0.013372567284328,0.015516883832369,1
0.0142223247786531,0.0158674677444537,1
0.0141891789778808,0.0141760142632387,1
0.0138011379991589,0.0164961607605621,1
0.0132495528500672,0.0145966872869721,1
0.0124284748065145,0.013201256920405,1
0.0124762700602594,0.0144458630924908,1
0.0118371236017903,0.0307414319224866,1
0.00941903724302475,0.023306576499861,1
0.00856258427282208,0.0153133340234782,1
0.00838580286216595,0.0158693170191072,1
0.00738177496752248,0.016649464201128,1
0.00742695538322047,0.0121405822357447,1
0.0126360152459587,0.0154567094632877,1
0.0110717892883976,0.0121056557161742,1
0.0117760657367009,0.0139478150672361,1
0.0108648400121254,0.012961945721487,1
0.0101024149714282,0.0103322708341226,1
0.00737177589587474,0.00575858828312238,1
0.00732996874714206,0.00672848185071596,1
0.00764253444291754,0.00625149839857648,1
0.0121521372076612,0.00829966598799741,1
0.0126279996348341,0.00514918779475816,1
0.0136348334004615,0.00816200087854495,1
0.0139005323043169,0.00882704508112854,1
0.0165963022717556,0.00772093243527967,1
0.0224891402543459,0.00807945174941445,1
0.0251869269396939,0.00760449187356643,1
0.0291520864288369,0.00966204788285663,1
0.0306273226650547,0.00941870317234625,1
0.0328304526994268,0.00823765624210224,1
0.0277280208171458,0.00731957752288307,1
0.0268809233117706,0.0112225601152667,1
0.0259374595463262,0.00953959027646756,1
0.02757877093904,0.0103378639894835,1
0.0241311944543141,0.0118082389793463,1
0.0189195847131112,0.0121250867712405,1
0.0189648708248606,0.0117327244370578,1
0.0172256787640686,0.0109723542883574,1
0.015307693685198,0.0147067265361518,1
0.0144381799992019,0.0281736972231905,1
0.0145438766880451,0.02761647888542,1
0.0188663973522273,0.0347199887798743,1
0.0195047151255261,0.0280432207242265,1
0.0168783971048831,0.0263492803096461,1
0.0164862108674734,0.0253628708018042,1
0.0103189186114852,0.018543675374246,1
0.00659449450592316,0.0182999628898431,1
0.00991937357788258,0.0140177513622393,1
0.0150363100731665,0.0147446737905661,1
0.0153702462220129,0.0136517349306088,1
0.0149113517458236,0.0138380549694,1
0.0128868491690362,0.00873363303341596,1
0.0185587318216262,0.0183858823588882,1
0.0210857393318284,0.0199081711895479,1
0.0294323838699229,0.0256403984660046,1
0.0288346695697154,0.0236370012296747,1
0.0240270129127843,0.0173481941251824,1
0.0233688183920369,0.0200494795582287,1
0.0239775675792739,0.0212381975483185,1
0.0208723655618333,0.0178262028188227,1
0.0228792545697039,0.0195125959677398,1
0.0258237396266696,0.0274937793106776,1
0.0254291486574004,0.0267918469709135,1
0.0254188839346827,0.0251013497971206,1
0.0202349596253866,0.0193655434186164,1
0.0199071752166611,0.0202339028290527,1
0.0166949967345834,0.0143007438796058,1
0.0182357550930806,0.0190403516264554,1
0.0159640332779064,0.0225130818697547,1
0.0151665185204114,0.0245169569975622,1
0.0175705876864288,0.0210797099669768,1
0.0169151458720052,0.0174365632148726,1
0.0151256665275276,0.0155337005299363,1
0.0195444321576271,0.0192908847310837,1
0.0218194290634141,0.0129459216556121,1
0.0177297565339572,0.00868207714199391,1
0.0185783933500751,0.010431472562537,1
0.0236884051853932,0.0134773883835087,1
0.0238325742365788,0.0114563260984419,1
0.0260438216639521,0.00918384234525479,1
0.0274020920948317,0.0070687134184242,1
0.027910109772085,0.00741693309623553,1
0.0275839019423977,0.00693434031424487,1
0.0351886751021425,0.0110022872418129,1
0.0331022261625856,0.0163174256000874,1
0.0326736669237946,0.0073731898203703,1
0.121489626211172,0.0275998458414809,1
0.156633738064185,0.0192873698561048,1
0.143364136427766,0.0172205502284626,1
0.138272816443582,0.0175062246542852,1
0.132351367364029,0.017821761054762,1
0.118928825626154,0.00832787717549005,1
0.167495697588434,0.0113409283159021,1
0.174524353798852,0.012178021698748,1
0.173025894316035,0.0114417588023866,1
0.160952931286035,0.0131216174024361,1
0.142699868825549,0.0122747483912917,1
0.13478600926495,0.0161909828124762,1
0.112880746841818,0.0136232530897253,1
0.101268213139514,0.0114666002363312,1
0.0866828461428539,0.00912817359034831,1
0.0491795591426582,0.00819544747393923,1
0.0389862717156889,0.010445888284424,1
0.0496026651062795,0.0152838591436847,1
0.0729309420489824,0.0245378194647347,1
0.0862939558626129,0.0268160331186608,1
0.138772740074137,0.034025468969823,1
0.180383495822622,0.040662788694088,1
0.215599815221638,0.0516524232059996,1
0.233691257516165,0.0606700124468904,1
0.189263090444826,0.0774182118160402,1
0.14047330192185,0.0624534806368719,1
0.073854262826666,0.0488504895789193,1
0.0590457430496596,0.0435043101998387,1
0.053099385042254,0.0387548975809109,1
0.0240734670976013,0.0290444433127981,1
0.0210919796095941,0.0509283402667493,1
0.01663206615257,0.0488436297078618,1
0.0130105687055563,0.0440200124793104,1
0.00647710021587487,0.0255454493235077,1
0.0023719417509301,0.0158028665984434,1
0.00444156914132938,0.0140805342783875,1
0.00656062158498007,0.0131050434008934,1
0.00758080083102711,0.0135446722345986,1
0.00841828435605678,0.0153626628941289,1
0.00880074235515131,0.0106099386958086,1
0.0185607381103658,0.0177111317818114,1
0.0204854554323751,0.0119971784457281,1
0.020792344355445,0.012240527655719,1
0.0227703898185666,0.0134825627836934,1
0.0228934045721746,0.0116051433843238,1
0.0225965100477403,0.0144718712818423,1
0.0223925593961439,0.0178816953312486,1
0.0190318183308871,0.0184571362419786,1
0.0146870293947332,0.0148832811611566,1
0.0140131678595854,0.0187295913479725,1
0.00942221035922243,0.0132859390207285,1
0.00873356296205624,0.0169215766128872,1
0.00852123019482119,0.0163838883678636,1
0.00516564922577143,0.00969045779640578,1
0.00712033369121462,0.0127861770205858,1
0.00906796452704316,0.0127946324184847,1
0.0139717431317294,0.0120953897013868,1
0.0199039022269195,0.00915641576872616,1
0.0205319303504283,0.0070598860947616,1
0.0252277959037166,0.00894801912749063,1
0.0247079009102376,0.00854621331441862,1
0.0257453789814595,0.00822937862437711,1
0.0317651334490678,0.0114645576620328,1
0.0275306777517782,0.00895878930098941,1
0.0267431955201964,0.00907430311625003,1
0.0421271416060526,0.012511746822237,1
0.081985551597659,0.0279361879197371,1
0.152800089277651,0.0409261631848071,1
0.242913296874773,0.0322947852027993,1
0.238302103270401,0.0323085777039591,1
0.207926761783613,0.0321202953729488,1
0.18568935556605,0.0286443244810569,1
0.242000095977512,0.0319953312143508,1
0.238043366753985,0.0145312577502803,1
0.180546875344963,0.0100015590081548,1
0.17331059615607,0.00479334359044279,1
0.258313962450574,0.00859665892793344,1
0.254402033863305,0.00952342786027285,1
0.2572679151341,0.00846149257367224,1
0.334557453036202,0.0113932710181173,1
0.343376995153971,0.00959748971520214,1
0.340291375538934,0.00982603395345293,1
0.32965201446423,0.00950499328984872,1
0.405658499658287,0.0155966148422902,1
0.461098665001829,0.0171473648087727,1
0.484793512749337,0.0330130767021478,1
0.294734905150749,0.0167103021086671,1
0.214030676948513,0.0120943802267377,1
0.167945230024187,0.0133346215953886,1
0.20859084137429,0.0167490157730856,1
0.224004231848786,0.024921705980854,1
0.164528970267544,0.0193136584963784,1
0.096172301329279,0.0132083581947577,1
0.095729885153193,0.0172377949759317,1
0.0930233673693177,0.0192829898073653,1
0.0884146620075207,0.0199949687657086,1
0.0646514144142266,0.036499944781574,1
0.0191127577075907,0.0235648437483035,1
0.00616304808613909,0.00464095027499299,1
0.00428359782526222,0.0113306312698216,1
0.0158875570746271,0.0219884237861621,1
0.0196859074491955,0.0149147166793941,1
0.0203616228154399,0.00812936311100064,1
0.0452273376601072,0.0157961070866014,1
0.0439781399487857,0.0101488231982444,1
0.0440620206702655,0.00982999466416069,1
0.0432155019249851,0.00913080546103302,1
0.0429110330230695,0.00863953133586387,1
0.0359180818802342,0.00550595183376293,1
0.0336223768569857,0.00509723093448934,1
0.0358907089574132,0.00716958723858384,1
0.0347493979286761,0.00848554647066605,1
0.0333585697888813,0.0132285281688058,1
0.016561523358636,0.00902445604944296,1
0.0157304329936229,0.0153216345759513,1
0.0157504460846976,0.0136660495225848,1
0.0173081377104258,0.0134981776545497,1
0.0137704769157391,0.0112199489028971,1
0.0139232985227578,0.0124363155461429,1
0.0131450430647759,0.0106895953185375,1
0.0130866400663676,0.0103299576268937,1
0.017447486852445,0.0162171999105448,1
0.0337038266360985,0.0303358141446791,1
0.0628096937016166,0.0434623588523675,1
0.0653326191435913,0.0351317434151296,1
0.0788042858552181,0.0425291249310608,1
0.0787887939268525,0.0324627696347048,1
0.0776200322839864,0.0257527058930328,1
0.0807978168617744,0.0215508055028607,1
0.117412380511093,0.0294325020007232,1
0.119980581410864,0.0246509896975937,1
0.131082692748546,0.0239409006206926,1
0.123530202808948,0.0217223562972438,1
0.179367026596667,0.0130379927219135,1
0.297708225479199,0.0202525408859487,1
0.323856443347458,0.0240519293645508,1
0.305862634244211,0.0245808619529678,1
0.186722971359206,0.0151852101296885,1
0.170064791014932,0.0102904493987562,1
0.189938365979764,0.00919281841850407,1
0.205371916509739,0.00957748146281086,1
0.235939835445801,0.0115550287610101,1
0.213314528872707,0.00941824140259573,1
0.199848345602013,0.0166956973408359,1
0.196428819142275,0.0167244012353346,1
0.194382831345351,0.0134451187511801,1
0.191153551035079,0.0117279278315222,1
0.199707713754266,0.011198789223885,1
0.187649901739308,0.0160703953705836,1
0.140718310967314,0.0138393162940494,1
0.202137893542429,0.0224455383641162,1
0.24925472721449,0.0275838448767893,1
0.244105990789818,0.0338587997734784,1
0.183655844982518,0.029141415927736,1
0.183901084842446,0.030568836087733,1
0.146151104748235,0.0312374219120908,1
0.119577157156736,0.0329016527844454,1
0.0538494043185584,0.0249055691952066,1
0.0122529083760842,0.025700056774517,1
0.0061795292687394,0.022079252419783,1
0.00817550119478567,0.0304829890358985,1
0.00912551820424439,0.0266228301329413,1
0.00794623609588317,0.0274338267506409,1
0.00688301922648752,0.0199740399113985,1
0.00669463379268777,0.016825866856148,1
0.0110351028857733,0.0133495158815453,1
0.0136851596714922,0.00724310496078748,1
0.0137839158365598,0.00746446860675124,1
0.0167417328009096,0.0110556693769736,1
0.0179244765881572,0.00660749062816805,1
0.0355563353466321,0.0120635091800513,1
0.0378227336016358,0.00659060266421959,1
0.0401173555873378,0.00759861101553548,1
0.0430825801726727,0.00440086174744575,1
0.0613324456344332,0.00907041498310856,1
0.0705529152808998,0.0124568695643855,1
0.0717819856000807,0.0150295803513261,1
0.0660335534988069,0.0129987354009565,1
0.0595487171730939,0.0112178774628507,1
0.0605075967580702,0.0134724078049704,1
0.0519216083891707,0.0150934400770212,1
0.0597219000017596,0.0319858184537028,1
0.0503208648688349,0.0126736237176947,1
0.0529994992986459,0.0206714899857793,1
0.0528649985656797,0.0143042344967391,1
0.0512861930691071,0.0120527124669013,1
0.0513902082196849,0.0126624700090986,1
0.0494129777375486,0.0124266825450744,1
0.0450679091449302,0.00811409207228078,1
0.047376169584609,0.00922568013227762,1
0.051597305563815,0.00995276060735233,1
0.063571649530126,0.0134434449707915,1
0.0729345240633587,0.027875414487584,1
0.0646706233469341,0.0264945515538242,1
0.078256413474621,0.0419470949142675,1
0.121053137122595,0.0263384831857656,1
0.278874028912102,0.0562931799535367,1
0.619450480529525,0.0662814879774353,1
0.652446886767608,0.0496628374987897,1
0.628899203867258,0.041483518559122,1
0.544114408303106,0.0379936641224246,1
0.501957735899234,0.0306390875065134,1
0.469247583078895,0.0239676734857916,1
0.427688452866257,0.0161840221496701,1
0.361758003313204,0.0125742903558294,1
0.327555768312611,0.0143985181645318,1
0.352472860766915,0.0151361827648802,1
0.268369065157956,0.0138042019126436,1
0.279022347577965,0.0169280814735763,1
0.302299667194561,0.0204622198328524,1
0.319474048902955,0.0184816194521706,1
0.278527929772574,0.0178227709440131,1
0.160370295312152,0.0101569474329505,1
0.151556779650216,0.0159959738136589,1
0.136486648525859,0.0154250310055533,1
0.159066072438225,0.0173147501792962,1
0.176720890157671,0.0180057466357751,1
0.215355957733716,0.0222590777391447,1
0.239649168935438,0.0235615148641497,1
0.240944843324788,0.0228398809205289,1
0.187485442534272,0.0223394718166467,1
0.123172490721605,0.0329418916173431,1
0.118291933131807,0.0363052860340276,1
0.0625149516003333,0.0258126167802618,1
0.00884741835550507,0.00779957356563568,1
0.0051528873708422,0.0105298379946617,1
0.00497921908172195,0.0131659440334755,1
0.00870409272225201,0.0162076380726075,1
0.0175794281759798,0.0329776995846651,1
0.0209104237304126,0.0280199109132921,1
0.0203151741513006,0.0333714961207643,1
0.0145667296283468,0.0264349837951945,1
0.0140982177405337,0.0269967244479784,1
0.0131236829058498,0.0218087877431357,1
0.0142093176022102,0.0163011597319629,1
0.0159467541431282,0.021354897364776,1
0.0155206390831849,0.0125620399967097,1
0.0207182077224482,0.0186564555633508,1
0.0238758415734191,0.0206700603727352,1
0.0249068744496167,0.0113073131210129,1
0.0356087366172302,0.0178561161121969,1
0.043013483778639,0.0212163908387907,1
0.0432289171310129,0.0183509148120576,1
0.0431659425985942,0.0182860975289936,1
0.0424179782378573,0.0184037128442434,1
0.0412570271732099,0.0155906860324777,1
0.0433884635549503,0.0183088037447108,1
0.0409961391423874,0.0182863272015885,1
0.0263096283292299,0.0112084549319839,1
0.0210119602999118,0.0127050407333403,1
0.0525575035910324,0.0244499475480304,1
0.120101929390439,0.05207183849938,1
0.129249354640518,0.0242658225761004,1
0.135327594419077,0.020157323604503,1
0.131102851830481,0.0175578434784505,1
0.115076271089041,0.0112162528850402,1
0.149577819297375,0.0137235534121598,1
0.137276390954416,0.0113100855897694,1
0.115824059655443,0.00739641879888526,1
0.130959926928487,0.00974012257291823,1
0.160108195799662,0.0110614052408133,1
0.17371041685228,0.00889053479806682,1
0.16102444528581,0.00926614396641218,1
0.147492714495425,0.00895885071767782,1
0.262150596880782,0.0153174981388167,1
0.293323067382201,0.013313519687339,1
0.295493977428903,0.0158470303396876,1
0.257830602811545,0.0150196854315322,1
0.263519194430501,0.0156146513640286,1
0.325706423450382,0.0177923650615584,1
0.324239456207222,0.0159157016754337,1
0.306469366443643,0.0124686546147987,1
0.320190781476876,0.0132367304333856,1
0.319712909791964,0.0132641117114029,1
0.20771171776521,0.0104568343304672,1
0.168560296574823,0.00988395583910618,1
0.149937506489969,0.00660478564699188,1
0.143410384864866,0.00521399455131294,1
0.143638492496752,0.00635373883412488,1
0.179278425546262,0.00929986615665064,1
0.188734200856104,0.0145355768317065,1
0.188716764779798,0.0237952861083026,1
0.209745856061523,0.0346732768656987,1
0.17407721142033,0.0340397338141835,1
0.104429203883925,0.0302555143780172,1
0.103757100541092,0.0389123700521302,1
0.0694356694066154,0.0370005031497005,1
0.0446414810333207,0.0266080220112222,1
0.0128757611826113,0.00645375203918453,1
0.0092351866992175,0.0120369356332444,1
0.0103660128327885,0.0141668719372537,1
0.00829059816171947,0.0165851038564053,1
0.00728405027827881,0.0258886065037848,1
0.00997892998356602,0.0299274683800574,1
0.0102121434092855,0.0298912156882921,1
0.0152064384946234,0.0228900001329163,1
0.0206137493508325,0.0161078983151514,1
0.0224093318720075,0.0110543315258109,1
0.0502979923060366,0.0224256211169897,1
0.065606114991706,0.0239239271002181,1
0.0588782890966074,0.0196788368692221,1
0.0510379590282361,0.0120270972473519,1
0.0679384722106769,0.0126230091344393,1
0.0653591219164749,0.0122428229148612,1
0.0614217595126677,0.0109927723709003,1
0.069290581473404,0.0135755122603186,1
0.0882951289834691,0.0178467582673835,1
0.0834818743735527,0.0173939257145414,1
0.103663684305535,0.0189392824035234,1
0.109075911631924,0.0163297997722945,1
0.109358935244828,0.0156955642605294,1
0.113611305771499,0.0214432398130618,1
0.091348095071293,0.0149053626450206,1
0.109538729406628,0.0169091200070304,1
0.119882845895747,0.0199480357222328,1
0.112533455429673,0.0199716992976159,1
0.084108535439154,0.0136487955543511,1
0.0886986518432083,0.0134606465809164,1
0.0790760575103441,0.0136687068941022,1
0.0944190658126786,0.0217872094645,1
0.0904548156198716,0.0198425706763351,1
0.154489003965375,0.0220902730579486,1
0.186113076235561,0.0277393927714813,1
0.189309225247614,0.0231736156945627,1
0.216532849356983,0.0222825769137875,1
0.300122895593828,0.0315702944422043,1
0.272583398529255,0.0223956420164489,1
0.268361145850662,0.0201775674099048,1
0.312527903481984,0.0246410487102946,1
0.297005860746326,0.00846793316421444,1
0.31877759625416,0.00979647638701149,1
0.391443938649135,0.0156814476095902,1
0.474094939565649,0.0183569103663006,1
0.560325972674288,0.0224228439001243,1
0.585663054935328,0.0227795833549904,1
0.63964126034702,0.0112223088923404,1
0.901081162236022,0.0182283994192806,1
0.927341742391891,0.0156491369900172,1
0.809445075189258,0.00948700636643742,1
0.823118681505157,0.01740685116391,1
0.797559278171269,0.0164957203528477,1
0.789035349449099,0.0171220961832657,1
0.823880051697373,0.0167978648217118,1
0.874899208634081,0.0167758891887809,1
1,0.0208862702603855,1
0.893518212859128,0.0569725873614281,1
0.417294678497533,0.0343002596069842,1
0.186219740547355,0.0264672289843052,1
0.131276264984204,0.0351867412759461,1
0.131390456141268,0.0406625522705201,1
0.07784264787318,0.0413163698068191,1
0.0257371189600463,0.0132243031847861,1
0.0142299386128889,0.0121470207786365,1
0.0129762878675749,0.0113599001443744,1
0.0141218168435619,0.0143511402310241,1
0.0149587995472216,0.0130165835530711,1
0.0124686859761704,0.0126562077068313,1
0.0252422467536708,0.0181907292287838,1
0.0300133815288874,0.00803294105127633,1
0.0321390476614009,0.00705685934780588,1
0.0345891428569492,0.0090557048370281,1
0.0478153441006291,0.0121640544305476,1
0.0646338228686471,0.0142931604248238,1
0.0616159010738776,0.0139900003136626,1
0.0521420903638395,0.0112017150433016,1
0.0473294631034852,0.00966927903813429,1
0.0447267955869891,0.00857052720173581,1
0.0546325770815186,0.0148868331507731,1
0.0582724160268397,0.028998783119518,1
0.0539242233370597,0.0348017217336586,1
0.0657800591547305,0.0372486242577396,1
0.065203416259462,0.0166478081500491,1
0.0704563011195798,0.0207734403117719,1
0.0695433059350004,0.0159312001283168,1
0.0624610922490097,0.0139515771904243,1
0.0594440916335513,0.0143007816890544,1
0.0625667374923975,0.0130750733228773,1
0.0607133147140762,0.0125548796117368,1
0.0564285522608217,0.0111778922762786,1
0.0614674284840088,0.0134591301655858,1
0.0844098369228959,0.0177503833320236,1
0.100420986354754,0.0351616602527384,1
0.139346361537131,0.0479696745268857,1
0.148442232463488,0.0393106350177103,1
0.126233037833054,0.0305212235430661,1
0.119636969809176,0.0289457834908183,1
0.160130750097527,0.03418603365155,1
0.228638195146594,0.0403607188811575,1
0.183077121505615,0.0221363602294767,1
0.160746131494375,0.0185770355845522,1
0.158981911475999,0.0203484473204737,1
0.178071147481202,0.0216274671936253,1
0.434968703895706,0.0283824232412158,1
0.67434027661186,0.03914246755954,1
0.613341096655679,0.0349095309506052,1
0.593453767831575,0.0218349932633558,1
0.69850913127732,0.0230804756393725,1
0.770007678461494,0.0240820325673788,1
0.805764003314056,0.0280297857529451,1
0.831531734254309,0.0289657342774172,1
0.836467490604062,0.0276630064778011,1
0.849933554366624,0.0267872028900317,1
0.733736910794144,0.0394596080018316,1
0.38906007422102,0.0206273424704926,1
0.214283242389879,0.0101185955426183,1
0.0833794818726673,0.00457130565829505,1
0.113580823306932,0.013484777966761,1
0.123394293615937,0.0152529808320826,1
0.164920228298917,0.0168737189051705,1
0.237758144570694,0.0259360972249143,1
0.266563385369248,0.0323985789985511,1
0.254474736234854,0.0323423018399346,1
0.269668672420504,0.0341943671469307,1
0.190363149574917,0.0418639540355121,1
0.0860287477560326,0.0298808185232494,1
0.0601042839177055,0.0251265899407493,1
0.0541755000694339,0.0203030967954547,1
0.0328142114477266,0.0118429350978016,1
0.0375619707847208,0.0644197792247474,1
0.0374802016607846,0.0456017855226715,1
0.0369680625603991,0.0314466521398972,1
0.0493618084090138,0.0279953788129654,1
0.045890105915106,0.0131229952326939,1
0.0426670178904358,0.0104627316044071,1
0.0351793117523821,0.00824504239429288,1
0.0277804885733722,0.00483169610960592,1
0.0515586864868103,0.00925476116408031,1
0.0668702757193972,0.00655807893970096,1
0.0692875406503924,0.0085915605895729,1
0.066966217744556,0.00820963521764045,1
0.0656777035108646,0.00947766779452865,1
0.0617184577645438,0.00863389885996908,1
0.0632147718664377,0.0125174655448155,1
0.0588021060155523,0.0122054916174867,1
0.0677512353254226,0.0136410397336993,1
0.0728761864099198,0.0165793709961538,1
0.0464515372106531,0.0176061285423666,1
0.0208752071589442,0.0291831940696357,1
0.022511310686675,0.025244771452189,1
0.0203671688431737,0.0140051102411814,1
0.0193421031398577,0.0117732518139076,1
0.0245302395211883,0.0185318793862832,1
0.053561262965906,0.0289523166601513,1
0.0597524063100981,0.0279693939691828,1
0.0652031115657037,0.0244081529856902,1
0.0881961156990203,0.0265130280827885,1
0.0896317863520458,0.018495533609793,1
0.132376760392165,0.019083074442742,1
0.102148564119806,0.0128959660665691,1
0.0756629935713067,0.00980494124613144,1
0.0751927580609894,0.0105603057152528,1
0.0946426637279759,0.0145987296287408,1
0.107505828764044,0.00958023343336534,1
0.115908759534537,0.00151668761856884,1
0.288727940951454,0.0116366262722664,1
0.352523062273915,0.0170608952827916,1
0.336074135256869,0.0116554081324566,1
0.348939334329082,0.0135676906086565,1
0.338807088987104,0.0131553990435552,1
0.354832527949696,0.0136351394299172,1
0.349942635900682,0.0127057600757068,1
0.348244566886859,0.012242197512459,1
0.345866798277432,0.0153203420146948,1
0.325418763552081,0.0267232203516336,1
0.205965974302696,0.0193766694837445,1
0.149288951751434,0.00962375806793794,1
0.126702565300482,0.0146246544517662,1
0.121169785361533,0.0134830127239821,1
0.104170522011243,0.0115649021362621,1
0.0870955288870399,0.00908609445731872,1
0.0924784798151125,0.0101922878091615,1
0.122985030698003,0.0143033286677674,1
0.142147752431831,0.0176685861889147,1
0.225666678883769,0.0332319770899272,1
0.235122655625954,0.0383916410897322,1
0.245876499406308,0.0493206322926211,1
0.253272124580649,0.0837340762014993,1
0.210587824325841,0.0645966443791752,1
0.183061735122929,0.0584586354043109,1
0.123390893981116,0.0528516801162641,1
0.043689713641604,0.028736725815604,1
0.0120967434147111,0.0145652531014631,1
0.00729789767018987,0.0133633926854344,1
0.00905001308263307,0.022796626063498,1
0.00987641006000596,0.0319768799570675,1
0.00895900127322997,0.0284858577356874,1
0.0152530487641557,0.0577675603461119,1
0.025544912451889,0.0798938998779612,1
0.0230275585739608,0.0371561236485314,1
0.0206052807993504,0.0317665160263757,1
0.0245463013530317,0.00846698400288228,1
0.0377821959297464,0.0136439341776748,1
0.0352876051553826,0.0100873796131986,1
0.0524629595590785,0.00582943598329514,1
0.079241025141091,0.00782242524105436,1
0.0736690981301029,0.00530825853055532,1
0.0756761436708603,0.00429348003373447,1
0.0830644181026058,0.00497157930187887,1
0.0859098800339549,0.00528470691968345,1
0.0902718460174601,0.00584744706910813,1
0.0950476548257001,0.00912599860555866,1
0.089463611436955,0.00701306100901061,1
0.0909787687116176,0.00892356399638632,1
0.0891450054560581,0.0179230103336095,1
0.0673778700511069,0.0122826470850573,1
0.0678728659631714,0.0152291667186667,1
0.0654606632493648,0.0214679851846061,1
0.0539537172922768,0.0183535866344809,1
0.0642519254549101,0.0242719331513552,1
0.0711614265199804,0.0289269969053496,1
0.0764104300123497,0.0314502544492331,1
0.0790793480717835,0.0359101553890058,1
0.100465022357455,0.0219630036834912,1
0.226453598248521,0.0357114003942471,1
0.265316797871173,0.0528263327010166,1
0.240797069230565,0.0457875964945561,1
0.204157845240156,0.0413034569255149,1
0.155493836374474,0.0341503832484927,1
0.226892450772545,0.0338487240504944,1
0.216341571011146,0.0152040009522095,1
0.211400871207451,0.00907520802508504,1
0.178339982350932,0.00643384572329721,1
0.129824204027225,0.004315128167656,1
0.191686866417934,0.00783160227200308,1
0.209961087468583,0.00568140690222782,1
0.20695563701447,0.00552658657876397,1
0.229733098422372,0.00585581154380864,1
0.248231524063863,0.00406486076474644,1
0.229350264503753,0.00335551668473653,1
0.207599594058249,0.0049901356000966,1
0.195016539684626,0.00841851945062933,1
0.194452205706719,0.00638227720620273,1
0.208572241303572,0.00446131329761545,1
0.181439546958632,0.000978311068599991,1
0.293907214292818,0.00944549935424733,1
0.332010438349361,0.00821139441784731,1
0.274134188019699,0.00681847335104045,1
0.283876797860319,0.00963953212267716,1
0.346325418159587,0.0129467076119758,1
0.381885909170203,0.0147104621167048,1
0.307356666639538,0.0106395764505083,1
0.283183071115151,0.0107619871144263,1
0.245922994290389,0.013853015326852,1
0.163123222438282,0.0173076257065387,1
0.180982870489609,0.0175344107301922,1
0.147033524284875,0.0217802847838964,1
0.0531466655095404,0.00944952852056131,1
0.0464938255137675,0.0135298034159444,1
0.0466163742334686,0.0131324967426171,1
0.0476533831320336,0.0133041164444991,1
0.0514937066004405,0.00998920021247447,1
0.0572552949766076,0.0101879272647328,1
0.0499029569564679,0.010865667764668,1
0.0370483976847219,0.00695334571169711,1
0.0248357271903003,0.00277089548846027,1
0.0526038152471172,0.00756958378177714,1
0.0958697488995188,0.00898000840419544,1
0.0985547901871754,0.00764795484626099,1
0.107848217899757,0.00801521712886794,1
0.100831409234024,0.00624354750964641,1
0.10379111624392,0.00802823967023276,1
0.103488820678993,0.00906381156085079,1
0.0962643966009916,0.00721216234688685,1
0.0945278156869946,0.00769172869844682,1
0.105885273773639,0.00866229037533238,1
0.0933245252994704,0.0144942402217377,1
0.0642091339672557,0.0189171231210678,1
0.062919256100114,0.0217291544730794,1
0.0557454030264993,0.0228021580711758,1
0.0517826811170315,0.0333179142752826,1
0.0398488478496996,0.0216260624036108,1
0.030283019559567,0.0166210683488498,1
0.0234234878422076,0.0130059265475544,1
0.025138243741546,0.0121284279229224,1
0.057627897474386,0.0152221804876579,1
0.11201526094834,0.0260674791621893,1
0.100907569906045,0.0217602310236302,1
0.0973783735443456,0.0196816562460231,1
0.110017912348932,0.0216756060878869,1
0.116794947744363,0.024925009956217,1
0.180784184976539,0.031696478405314,1
0.160164912287754,0.0189532819198274,1
0.136880243807441,0.0154367502546971,1
0.117555788296905,0.0131491261045753,1
0.103989593674317,0.0127611643373519,1
0.130100499543855,0.0139933122996014,1
0.0962955695708553,0.0094321638817361,1
0.176038736778461,0.0122379089782691,1
0.252074345302246,0.0158788298815564,1
0.255123333268614,0.013731404711658,1
0.26126712950983,0.0135877665117389,1
0.237303187178591,0.0115130447972809,1
0.241369266525037,0.0106009068451744,1
0.290093446521049,0.0128649491287041,1
0.357170677749882,0.0160707003396773,1
0.366291257507117,0.0152806439733125,1
0.365788900328568,0.0141948355775244,1
0.320764883918301,0.0184113287449571,1
0.234051297323371,0.011500314378422,1
0.238497450895691,0.0112213292500022,1
0.230716030218158,0.00587978100314276,1
0.248641762456196,0.00743314092010859,1
0.317609771100362,0.0105098349062998,1
0.33135102474896,0.0111549673117555,1
0.340779674766562,0.0111201456425672,1
0.40268677142683,0.0169954858632506,1
0.364340231555076,0.0148807476114595,1
0.403966791312753,0.0181986762104085,1
0.424058414949353,0.0227714591662882,1
0.217634057116542,0.0107547837291792,1
0.0657096114222726,0.0105362614490383,1
0.0673756575298938,0.0206638643155833,1
0.0703113634388098,0.031876341750371,1
0.0417357675071272,0.0191458420301595,1
0.017896586794439,0.00820818689622654,1
0.0161233754245199,0.00855301867101746,1
0.0158442310620604,0.00839798943540099,1
0.0156515295248112,0.00801079699568089,1
0.0320133619376363,0.0108313606711886,1
0.0533898298499542,0.0212986727723894,1
0.0565058151857953,0.0322499548925628,1
0.105131469734626,0.0226819035043338,1
0.160167045835154,0.0302203946032834,1
0.183429195136504,0.0342225908390581,1
0.18303792211379,0.0231260388349284,1
0.160888972148365,0.0220284928188259,1
0.12455495169292,0.0172106618773796,1
0.106852239499297,0.0129435243244463,1
0.109197044194069,0.00668076371187919,1
0.158212713445462,0.0115589415427584,1
0.186779686009035,0.0129614917857797,1
0.204724405939224,0.0229324925667519,1
0.186084523240585,0.0172815676245782,1
0.148022932950908,0.00950871679387892,1
0.140316425764575,0.00995902325882871,1
0.143669665537306,0.0102673193051626,1
0.141369390034049,0.00926399340589114,1
0.0832784825371067,0.00386038349438305,1
0.0591740587686863,0.00644483690266091,1
0.0870207271511187,0.0110651426694471,1
0.0871756950276518,0.00522583130132436,1
0.088500773663066,0.00519319436104537,1
0.0819768071642115,0.00457458676143718,1
0.0669795279336881,0.00485160363191237,1
0.057554177646359,0.00708402302187898,1
0.0576449488036951,0.0071366273952905,1
0.0625294932442915,0.00255242768426507,1
0.132043179017555,0.0101664394005784,1
0.134248770071075,0.00713996861217489,1
0.116964751985675,0.00503297938345733,1
0.121714723230766,0.0095534440224594,1
0.111116020001288,0.00613529450252535,1
0.107168592267933,0.00581909296574794,1
0.104918840610612,0.0050630328455028,1
0.119957969404926,0.00620748542487721,1
0.117234026736783,0.00571555131821553,1
0.108959440374641,0.00964626114569312,1
0.0523859618794798,0.00346510608981022,1
0.0467300349430345,0.0114161852935291,1
0.047151646516607,0.0122314428086681,1
0.0429619834244555,0.00971458232692017,1
0.0367127845250557,0.0126061263397085,1
0.0458796158648063,0.00819356328256476,1
0.0605399133383779,0.0109361350456925,1
0.0452850686307153,0.00919743616598921,1
0.0413375752434307,0.00727349942390794,1
0.0449716684703585,0.0079600753510198,1
0.0470965214100765,0.00841286952643156,1
0.04716778274211,0.00639246842952815,1
0.063501692612926,0.00836170341390001,1
0.0666592949581151,0.00570943705262488,1
0.0648703018127764,0.00473569283627186,1
0.0646941190859213,0.00636920558640144,1
0.0635329099280384,0.0048481836820114,1
0.0739956329681739,0.00593966713247216,1
0.0938177274395898,0.0102776201228299,1
0.090213777085786,0.00907793742147585,1
0.0882053566304024,0.00862468834613275,1
0.0886141165192844,0.00964928077705216,1
0.0622826112887452,0.00647999322455945,1
0.0723808892076262,0.0155905812980555,1
0.0765592250240928,0.0148637532367444,1
0.0446902592281452,0.0121154485570696,1
0.0306463860287196,0.0131564757498074,1
0.0315008990564453,0.0117000604598166,1
0.0315810150897599,0.0128178753177061,1
0.0301277379529872,0.00970627134565263,1
0.0417432975373444,0.0125385975200212,1
0.0392417063307359,0.0119801863906268,1
0.0381071572382359,0.0141004630845232,1
0.0289401946051973,0.00570452220181879,1
0.0508283646225851,0.0127563483120278,1
0.0538618231523171,0.00754661006118816,1
0.0534841135983533,0.00858928686543857,1
0.0520687743675307,0.00944289226579731,1
0.0616658416821914,0.0116101595506148,1
0.0659892156938369,0.014518457253805,1
0.0596402299268002,0.0141980615940799,1
0.065594208515041,0.0164893030048174,1
0.0650296933104851,0.0161317363531868,1
0.0632745184741351,0.0258313914087701,1
0.0139048790911514,0.00607857323724657,1
0.00263212114217931,0.0137699361420935,1
0.00322127578623468,0.00880437538131994,1
0.00395462890467903,0.00677848918805697,1
0.00676299228439363,0.0113471991859426,1
0.00930909758064455,0.0211415882915384,1
0.011735328030466,0.026835306850681,1
0.0169753418557722,0.0357247466420099,1
0.019194389361969,0.0422847677105752,1
0.0199451731729263,0.0439946527156141,1
0.0192904573897922,0.0414087409911062,1
0.0180504609200986,0.0386218929213324,1
0.0128422788748884,0.0589537930839033,1
0.00244410414215438,0.0309799961999407,1
0.00133757863609586,0.0752585549166515,1
0.000779098005925591,0.07048350766349,1
0.000442809683584858,0.104533027232813,1
0.000431894083935009,0.11493148096621,1
0.000443453284359205,0.104651635049696,1
0.000449787285752823,0.105094966393676,1
0.000393598505904096,0.14194976380501,1
0.000166402835198801,0.126346314658844,1
0.000207642291856226,0.124130588825119,1
0.000240514772417554,0.0983539505014246,1
0.000258790404568445,0.0921675224923144,1
0.000309894873975932,0.101024743749452,1
0.000484213500083336,0.138605097760829,1
0.000545358131370117,0.158460988653663,1
0.000521218085944065,0.199494647595521,1
0.000706298734017389,0.0645328953954993,1
0.00187684275092048,0.0788518500942747,1
0.00196476316866648,0.0612966649894826,1
0.00193781515619102,0.0657100154375026,1
0.00188539555505764,0.0669648806986764,1
0.00189131938816946,0.0699621830168732,1
0.00191948407403151,0.0679433448771095,1
0.00196247335920496,0.0699716658552661,1
0.00204508259474399,0.0705998326379561,1
0.00215487638005092,0.0712318716356729,1
0.00210710231406952,0.169144439192277,1
0.000584969384327386,0.186854495281834,1
0.000233534454867369,0.728155044014473,0
0.000151007728750174,0.640904479616993,0
0.00011434273929268,0.588816709518041,0
4.69157500320404e-05,0.439536963263716,0
2.43329623571675e-06,0.290863165429886,0
1.40222114614627e-06,0.293213840170367,0
1.64565990588391e-06,0.306522929137059,0
1.64144824202477e-06,0.309391039569791,0
1.64771551037346e-06,0.313624898970893,0
1.65662188964447e-06,0.311197655989455,0
1.31342507809324e-06,0.289406590579755,0
1.44214498492579e-06,0.346145259425614,0
1.25948096253883e-06,0.341413499967132,0
1.35526345046596e-06,0.33359506606521,0
1.49692095369972e-06,0.356083635763503,0
1.4189027021272e-06,0.356856777352294,0
1.38770727625715e-06,0.369145774197547,0
1.53571327987221e-06,0.381781371500768,0
1.60101127723768e-06,0.393454403934992,0
1.69280114875242e-06,0.407939750971573,0
1.89981617816944e-06,0.469216805115579,0
1.12089043360532e-06,0.361823064267579,0
4.52731386527242e-07,0.251658611717008,0
1.29291476497182e-07,0.191186211934916,0
1.37863161191052e-07,0.184769002634504,0
1.89664859396619e-07,0.19155868654915,0
4.48377256565099e-07,0.242112015829399,0
5.36613226652766e-07,0.240147441444192,0
6.27919736568829e-07,0.239367229343761,0
7.04114142981509e-07,0.247217043092117,0
7.84065065833916e-07,0.252884085143037,0
8.25148166330847e-07,0.262085411513895,0
8.22745310404148e-07,0.267270632792727,0
6.65480715346109e-07,0.249304680320011,0
5.78173487829849e-07,0.240161385019981,0
3.20990392191493e-07,0.207088874923121,0
2.80300739974689e-07,0.202803594657776,0
2.68402882586414e-07,0.212621174416129,0
8.08454053489917e-07,0.291607684141128,0
2.46474465906243e-06,0.461917189224715,0
3.55973401103053e-06,0.563602775544574,0
3.53143983991327e-06,0.488436692055585,0
3.72915178629692e-06,0.391422016505423,0
1.50457572407426e-05,0.573100720551977,0
2.04925634572222e-05,0.540175109467272,0
1.93135482487959e-05,0.516281777765124,0
1.69008992114769e-05,0.476317451309901,0
1.51352992792937e-05,0.439812707498286,0
1.53910735262441e-05,0.447002917516586,0
1.53232905107816e-05,0.442142284701133,0
1.50997208891903e-05,0.438306120822754,0
1.38673807269239e-05,0.42593740500187,0
1.19640937396357e-05,0.418931772488639,0
8.02481142743401e-06,0.431006148921459,0
4.95109548857182e-06,0.394136486607308,0
4.29414460171956e-06,0.379196385068773,0
4.30302261178835e-06,0.373839834694439,0
3.93466495324827e-06,0.377842571677645,0
3.89730813971328e-06,0.375941806289309,0
3.83074996068148e-06,0.383643478347131,0
2.92043155837951e-06,0.324351878431864,0
3.01715364048546e-06,0.342505584781705,0
2.16957721693481e-06,0.333613726664946,0
2.05215910419775e-06,0.381546972730606,0
1.84559922220013e-06,0.342143671465033,0
1.27649860830357e-06,0.29081716735437,0
1.31617208499782e-06,0.301504056538545,0
1.577048447707e-06,0.312442418278485,0
1.59777641306849e-06,0.320049158051093,0
1.60235145075292e-06,0.336443244153437,0
1.64954168087775e-06,0.355346117540232,0
1.57847713933413e-06,0.33661863407445,0
2.84118878042215e-06,0.424227951227227,0
3.04684224315503e-06,0.444158590840308,0
2.95061096374997e-06,0.45637173104658,0
2.9737148110426e-06,0.4695819611896,0
2.78754587448488e-06,0.46535848367085,0
2.83580777835301e-06,0.497029302922792,0
2.57286263420242e-06,0.49952743141578,0
1.94609316801915e-06,0.439051196627881,0
1.30659988210067e-06,0.366945503542085,0
9.34534229308287e-07,0.317929581526487,0
7.72458186547215e-07,0.307091518490097,0
8.09240795027207e-07,0.306328606427833,0
7.73230976017837e-07,0.301493589042081,0
3.90593222216865e-07,0.236551640028621,0
2.59636799096925e-07,0.210110599185374,0
2.96284227553168e-07,0.228807738038367,0
3.37947423977693e-07,0.22903559470651,0
4.16879690940144e-07,0.234528080660741,0
4.01011540446145e-07,0.230179360065855,0
3.1129231064837e-07,0.222353401860082,0
2.36233757485687e-07,0.21457671132826,0
5.88259436826431e-07,0.284305740451603,0
1.85191485771327e-06,0.443404189795568,0
1.95015600983379e-06,0.421552241947597,0
1.84617699278328e-06,0.39935683881363,0
1.76824214356485e-06,0.37119705013781,0
1.58410214754705e-06,0.356617169114156,0
1.56824314340787e-06,0.357845853882465,0
1.62398459519545e-06,0.360985212342869,0
1.63961943613011e-06,0.344332467865895,0
1.63123532922148e-06,0.335721890496161,0
1.58975040920442e-06,0.342385581700066,0
9.54256250662784e-07,0.277608243563301,0
1.00977741481992e-06,0.269932402328141,0
1.53890907825472e-06,0.316167578152276,0
1.47521773887792e-06,0.316389808264637,0
1.42258604772838e-06,0.30890526772064,0
1.42931156395573e-06,0.302425212164269,0
1.4509101382775e-06,0.300608306519628,0
1.41289401208082e-06,0.303541756810196,0
1.35273022022737e-06,0.305745284651605,0
1.60196203306984e-06,0.311132619654828,0
1.80061884441305e-06,0.325471467560219,0
1.48199828825714e-06,0.318382604876902,0
1.33482444790753e-06,0.309540196923729,0
1.43299816503914e-06,0.325480245320076,0
1.23392511704023e-06,0.307839348498941,0
1.29617613806768e-06,0.314339773974364,0
1.44448149102432e-06,0.337028848814562,0
1.43836195955939e-06,0.335950049464669,0
1.45447504633494e-06,0.341132908496047,0
1.35321637223938e-06,0.369287651581806,0
8.38372710236586e-07,0.330795450119539,0
9.81383408914482e-07,0.353614750469254,0
1.13402382400881e-06,0.347582419521814,0
1.29975949385772e-06,0.353936192455478,0
1.29325736572007e-06,0.356413058922232,0
1.47247445252444e-06,0.369131729132614,0
1.60483104304632e-06,0.370867512877055,0
1.53432117366436e-06,0.365189928508126,0
1.62574674121601e-06,0.360987811545622,0
1.66465874511595e-06,0.352351772490638,0
1.75191186961811e-06,0.345032421634157,0
1.37605559533414e-06,0.292948901956555,0
1.31495437962336e-06,0.312132610180173,0
1.8279997752552e-06,0.35610355874914,0
1.98474395822641e-06,0.341994679296796,0
2.00933680107877e-06,0.35929249816678,0
1.98654299971217e-06,0.376977822872039,0
2.30017243655093e-06,0.39173413645917,0
2.0400239066531e-06,0.378932630976784,0
2.12308970590132e-06,0.392833893789178,0
2.14291466250326e-06,0.402189725577393,0
1.87771253903417e-06,0.399807175830735,0
1.79899807933476e-06,0.395835210208435,0
1.3956562337086e-06,0.360491353730026,0
1.27146857822269e-06,0.383586962451126,0
1.27958170499197e-06,0.365812314072043,0
1.26198365325371e-06,0.342681138867167,0
8.1812438592266e-07,0.290932557602298,0
1.20856878609503e-06,0.333229136853956,0
1.12735783659926e-06,0.318845343917508,0
1.24378008182193e-06,0.332298989510784,0
1.36770915900553e-06,0.33582550280941,0
1.37828188010597e-06,0.336416871994894,0
1.44355522882032e-06,0.353482064260299,0
1.70159637655895e-06,0.359504525580483,0
2.06806213485842e-06,0.406752380368641,0
2.33345881214609e-06,0.432534881852189,0
2.3271140323159e-06,0.439729940722285,0
1.91518468965364e-06,0.418331645104311,0
1.92341687405851e-06,0.42710093305686,0
1.66179392075947e-06,0.410937986038067,0
1.52731460080506e-06,0.402988442434982,0
1.56690746555855e-06,0.406004758714957,0
1.54981773411601e-06,0.411154983494883,0
1.59072534861881e-06,0.450916393041853,0
1.06500512050807e-06,0.362434980230095,0
3.47912300040161e-07,0.255844340495723,0
3.95837959101517e-07,0.260336895499577,0
4.04940907489633e-07,0.253167573385206,0
2.98822108480652e-07,0.23890048011046,0
1.93285730743711e-07,0.217457741833219,0
2.01560701486374e-07,0.223776938027321,0
2.35613665633635e-07,0.224147701110495,0
1.62649937770144e-07,0.207855650037725,0
1.66112530672e-07,0.22043572836099,0
0,0.188815875517684,0
4.74715968026906e-08,0.205836630797493,0
5.42243970715314e-08,0.206882041096898,0
2.94999862304606e-07,0.278012860307134,0
3.7859708027004e-07,0.253345439768244,0
1.77536761903678e-06,0.429180311386573,0
2.29224626747504e-06,0.438488396877725,0
2.28169230415312e-06,0.44777675020661,0
2.21980465695098e-06,0.431224389701669,0
2.09024592086556e-06,0.407600346587458,0
2.39397357598779e-06,0.41999967514953,0
2.50539555553848e-06,0.4336225481476,0
2.65930421349322e-06,0.429590589253085,0
3.28252179354794e-06,0.469861838686062,0
3.34258885107246e-06,0.485080018720613,0
3.49139988893445e-06,0.476180507843096,0
3.31763216932591e-06,0.466722656004703,0
3.25257151211682e-06,0.46046747448059,0
3.61075377341065e-06,0.462931892328749,0
3.41666626390224e-06,0.447661147996015,0
2.23264055828844e-06,0.369386728787093,0
1.70559596900468e-06,0.324675547625156,0
2.67433198450472e-06,0.425840515833516,0
2.51078105327355e-06,0.406417053950337,0
2.48616526702266e-06,0.413795703790784,0
1.74884008960601e-06,0.358506205400981,0
1.82947993450605e-06,0.380449158955582,0
1.89041434550863e-06,0.389001794936323,0
1.2739942123361e-06,0.345482766271993,0
9.61127333452405e-07,0.3005199826234,0
1.11012377877815e-06,0.325356669482044,0
1.4011903984652e-06,0.352540405989071,0
9.51899901624988e-07,0.291207139308682,0
8.47903522002617e-07,0.273796918256118,0
6.73311700322703e-07,0.249715296585242,0
6.30679920425274e-07,0.260973704658838,0
5.70515508479977e-07,0.257960998390457,0
4.19957051778912e-07,0.234606345468397,0
1.68762338178778e-07,0.180161219715319,0
1.36491518014314e-07,0.175656031634464,0
1.66132373611265e-07,0.175427298129003,0
1.81633429728848e-07,0.172504406260485,0
7.99016255501693e-07,0.27872480938915,0
1.03463178141088e-06,0.325541665619122,0
1.33058131438691e-06,0.379593041740269,0
1.27160995916496e-06,0.36990078100321,0
1.23358592679716e-06,0.362089276553476,0
1.23569237881858e-06,0.362354564252852,0
1.14647666360467e-06,0.357373685891176,0
9.98742105197848e-07,0.335811298286561,0
8.77959374071554e-07,0.316495845131479,0
8.1334332272038e-07,0.307145990329365,0
6.5797016283406e-07,0.277014436005919,0
7.28948821656171e-07,0.258133269531359,0
1.93923247176805e-06,0.338923898244299,0
2.07802313534681e-06,0.321126905929214,0
2.06531264758642e-06,0.31579502032093,0
2.05027293980676e-06,0.310764651260797,0
2.09127341306441e-06,0.316077407770042,0
2.11327923271001e-06,0.317305470543465,0
2.18402365183501e-06,0.330102908672022,0
1.76905988969475e-06,0.304436528444798,0
1.68825944100503e-06,0.304855714260387,0
1.43631860188391e-06,0.301029294732962,0
9.27276519248913e-07,0.280932507303469,0
7.9145547554963e-07,0.300142514708047,0
8.01559097163994e-07,0.313940898830033,0
6.74228196080035e-07,0.2893642086229,0
8.73067624473683e-07,0.29172180030136,0
1.49011529060049e-06,0.354003641495396,0
1.43113478902373e-06,0.300782724948604,0
1.6164740426834e-06,0.31079161364406,0
1.62457244227119e-06,0.312245299740523,0
1.59964474981872e-06,0.321124574057554,0
1.57272718261302e-06,0.314784539548189,0
1.61766198364896e-06,0.307257226956145,0
2.06032462872852e-06,0.330421232611848,0
2.4223886650162e-06,0.358686606102856,0
2.07547579801858e-06,0.341976360064897,0
1.89217664655216e-06,0.329038582703569,0
2.26865068734374e-06,0.389977733373189,0
2.06802105377322e-06,0.385006026170686,0
1.96460337487178e-06,0.363385413736194,0
1.83954200996633e-06,0.349408790959589,0
1.81035800704138e-06,0.359908854550037,0
1.70758770403347e-06,0.35738669388677,0
1.68881085768446e-06,0.379032997341699,0
1.57048307020044e-06,0.382147650582236,0
1.32154347564326e-06,0.371680637485693,0
7.14923119077581e-07,0.308931950154282,0
4.91294898806323e-07,0.305392753459503,0
1.07704993966529e-07,0.207200605748077,0
1.47136014746631e-07,0.228152125091601,0
1.73634244837384e-07,0.246667807289243,0
4.87891834722265e-07,0.289849051339378,0
1.24782757636323e-06,0.40714641135656,0
1.34009724394849e-06,0.412833366140343,0
1.25609216056737e-06,0.405098641367098,0
1.13464391586086e-06,0.384494451360411,0
1.15528134781195e-06,0.381527189994311,0
1.17969730946351e-06,0.384923475958339,0
9.61161593527232e-07,0.329676327541216,0
1.92201546647288e-06,0.375456635798768,0
1.91313823151891e-06,0.344660728443983,0
1.94068519195445e-06,0.342279762394458,0
1.91912599346528e-06,0.331421298294872,0
1.86180408256979e-06,0.331535694994353,0
1.96057773856826e-06,0.333535288343753,0
2.02446781738364e-06,0.337140245206013,0
2.12561596010658e-06,0.345389957743774,0
1.88085252915e-06,0.311661008125331,0
2.00325695549237e-06,0.339114999434747,0
1.21587114276775e-06,0.316433178956286,0
1.29048167956733e-06,0.352583377264273,0
1.29385637444916e-06,0.410285497711408,0
1.07484473801642e-06,0.41041140466648,0
1.15431570977534e-06,0.400184512512636,0
1.31089634352057e-06,0.410649716742639,0
1.40264389376641e-06,0.383992855977164,0
1.01478961726005e-06,0.334263340614769,0
8.41042980774483e-07,0.334774916340736,0
8.34575422757586e-07,0.331250358515759,0
8.49454991816451e-07,0.321133889478266,0
9.83614499398162e-07,0.331663283884825,0
1.3587806114508e-06,0.358645607688403,0
1.37139513999708e-06,0.343857115072207,0
1.35022272380064e-06,0.339466282410142,0
1.44520467314678e-06,0.351687653472241,0
1.47157454422415e-06,0.352538933030438,0
1.53590287295598e-06,0.361372746669271,0
1.5515961575477e-06,0.369193902201714,0
1.5907526326603e-06,0.369061732597865,0
1.82198844981846e-06,0.372429617495721,0
1.87859539480853e-06,0.348381994847305,0
1.44714990128666e-06,0.310011364625311,0
1.45334012322273e-06,0.319948771052157,0
1.47107800567363e-06,0.31747747118702,0
1.15886098305088e-06,0.29373830394622,0
8.48616627632478e-07,0.269581274200259,0
9.9238616371432e-07,0.276957043709574,0
1.2373026023354e-06,0.293978979150854,0
1.17434979235439e-06,0.291064072144722,0
1.00743594798657e-06,0.287110414770632,0
8.59364059612234e-07,0.286757609927336,0
7.13807573835741e-07,0.273339437168217,0
6.16694988885957e-07,0.260901867791247,0
6.17458787024721e-07,0.267322112292166,0
6.65838353321778e-07,0.267854880387327,0
5.2831810292491e-07,0.251105618720804,0
5.06025800843659e-07,0.246717847535277,0
5.32889575081197e-07,0.24532960639513,0
5.58811739841395e-07,0.2407619132672,0
4.97468533285348e-07,0.23600401148252,0
4.55881453135663e-07,0.229898715397036,0
5.21716605067971e-07,0.242386432279604,0
5.18654591502539e-07,0.24314217245255,0
5.82325157802298e-07,0.242643528935201,0
1.11778733895469e-06,0.301063345194389,0
1.11681875548179e-06,0.296871129619881,0
1.07875209179916e-06,0.298422204445936,0
9.83095947586884e-07,0.291582848203556,0
9.59725925866768e-07,0.300312727216068,0
1.08445120098841e-06,0.302070854991117,0
1.47989943236091e-06,0.351549523991856,0
1.22984413753892e-06,0.315826308650059,0
1.01224538039108e-06,0.286303685956515,0
6.0471729467173e-07,0.241751995698273,0
4.96677296082131e-07,0.242362470215491,0
1.23770767733775e-06,0.347608865958913,0
1.32474252950799e-06,0.343355340269503,0
1.17203793490698e-06,0.340981657262868,0
9.91857845456372e-07,0.313956354941794,0
8.80658168834645e-07,0.316982344772519,0
1.15690908892359e-06,0.335957820294622,0
2.1130521240692e-06,0.446216180741443,0
2.48540255404464e-06,0.487227802183578,0
2.72078058477449e-06,0.519170165121764,0
2.74614311663821e-06,0.503513547419163,0
1.66311719677175e-06,0.417710810744819,0
1.5306196903765e-06,0.342889839923475,0
4.71570784641825e-06,0.563853407517331,0
7.97846204186057e-06,0.70007410117311,0
8.39697365953236e-06,0.621038199336748,0
9.04360296248424e-06,0.588895669938663,0
9.61269722043931e-06,0.59950285988719,0
8.51411769167081e-06,0.51656712533893,0
6.83103462242374e-06,0.450691067104244,0
5.48082879612606e-06,0.401025599622295,0
4.88375971435755e-06,0.375789905800523,0
6.86529857282366e-06,0.490597633233816,0
8.22280474049554e-06,0.531223549781281,0
6.996902991929e-06,0.485251434497734,0
6.8128250050964e-06,0.522539262706963,0
6.34742994774361e-06,0.609105357391519,0
4.16414312005178e-06,0.478476480114477,0
2.48201049659095e-06,0.403538604899993,0
2.40119640588049e-06,0.415366558773187,0
1.48585293423245e-06,0.342434603836477,0
1.5160227281792e-06,0.365470827712315,0
1.39256507582612e-06,0.361463613401842,0
1.51398510635336e-06,0.304782268493141,0
3.23152497456634e-06,0.420312152375933,0
3.34076159540743e-06,0.418112079160982,0
3.34024490387171e-06,0.422970928243281,0
3.20015576795475e-06,0.421014386112319,0
3.19903836243736e-06,0.424008373929967,0
3.24461557863203e-06,0.433443888690094,0
3.22742291194205e-06,0.439234561820937,0
2.67152544878234e-06,0.380761353395942,0
2.19819461092995e-06,0.347045266322386,0
1.72024377873384e-06,0.38354980957238,0
6.43597053795359e-07,0.262114877259313,0
6.57772198510292e-07,0.250238724555034,0
2.1003689203503e-06,0.398739483898634,0
2.60763118434695e-06,0.440785418187934,0
3.06534082328542e-06,0.469665807355398,0
2.85255630425396e-06,0.415062541847435,0
4.01821504423295e-06,0.475126369986769,0
4.67252046422139e-06,0.518465894586559,0
5.3325617338413e-06,0.544106255255971,0
5.28896493599911e-06,0.540096913554362,0
5.37941153353934e-06,0.55455758410393,0
5.46282628947732e-06,0.601454513124737,0
4.58181761372329e-06,0.570672446753731,0
3.97218423084851e-06,0.528433427491111,0
3.96441820049341e-06,0.450797752177316,0
1.12395009082172e-05,0.634581036341296,0
1.39744667141992e-05,0.667229636378626,0
2.06170344946845e-05,0.814353734597719,0
3.18341513272263e-05,1,0
3.33672702978125e-05,0.814376562808343,0
3.09378085550858e-05,0.707303868690212,0
2.68011337988273e-05,0.560737479615976,0
2.03698832450286e-05,0.456666440454186,0
2.409686610505e-05,0.347167617472026,0
3.63484907006323e-05,0.402123355881065,0
3.77694939639083e-05,0.357646273461615,0
3.87179380936418e-05,0.290485904960513,0
5.70229743800649e-05,0.280277931557666,0
6.09644271687716e-05,0.256570166147411,0
5.93598719115765e-05,0.269742060200577,0
4.40560649968323e-05,0.232820027876153,0
5.19106886499426e-05,0.197566798300731,0
0.000100487434699552,0.274005635014609,0
0.000120719683752306,0.325066131119636,0
0.000132358915866318,0.345844582110435,0
0.000210996913279641,0.263743409952225,0
0.000386350899156291,0.272467907316869,0
0.00042329785057983,0.273207086614887,0
0.000382291420099763,0.245697551557654,0
0.000313621857456045,0.214441470931634,0
0.00022394849755782,0.158008229017084,0
0.000243795817927425,0.172273358811619,0
0.000286631930957011,0.187357763597862,0
0.000377390427257722,0.206320207894752,0
0.000506065985121017,0.242024944831266,0
0.000502740148516396,0.397757186113018,0
0.000308410633435538,0.408315338389777,0
0.000216080024308217,0.314792753893812,0
0.000175967288187989,0.321122529073973,0
0.000104144038994641,0.255082766979263,0
4.78647373622363e-05,0.206926486957115,0
4.70645336308379e-05,0.263218842310805,0
4.20699864459173e-05,0.249117232052685,0
5.40391444757087e-05,0.310403588763066,0
3.93163701373012e-05,0.191979071484784,0
3.97931370591287e-05,0.217133060989693,0
3.88345852771838e-05,0.225548131357329,0
3.86577809677758e-05,0.261571466563385,0
3.92508574331319e-05,0.243687226405867,0
4.19048344375242e-05,0.202401198226884,0
4.89372341224549e-05,0.175831122845431,0
7.24095292969831e-05,0.182904977116847,0
0.00010015369878441,0.22666839079287,0
0.000107051036263046,0.270397564413032,0
0.000103705547242381,0.314432815588638,0
0.000111506575581604,0.343255918307633,0
0.000111189646636021,0.386585265933823,0
9.97289073415299e-05,0.352418724179581,0
9.10336606648519e-05,0.331955469640217,0
6.66199166167732e-05,0.366317373304824,0
2.3158437078819e-05,0.31178614738497,0
2.34401429469304e-05,0.577157842602012,0
2.36323973099012e-05,0.566454861379868,0
2.32214049260274e-05,0.486226201814254,0
2.69023389900007e-05,0.549023538681427,0
3.09386121941261e-05,0.597075108169015,0
3.03954125068438e-05,0.589341633010418,0
3.12237516658453e-05,0.633026756010697,0
3.22161998387448e-05,0.846624719468957,0
3.10722915955914e-05,0.743379735609026,0
2.31566078078554e-05,0.567102045182569,0
1.72974099702379e-05,0.46516268137903,0
8.697740531084e-06,0.337529934214804,0
7.13543647241212e-06,0.356047853884845,0
7.42571464530927e-06,0.359130860390731,0
7.02708239729946e-06,0.346219207573187,0
8.44928476319438e-06,0.383611633510815,0
8.31515005928676e-06,0.380785062977869,0
8.31121867694475e-06,0.38224209867976,0
8.24793706325917e-06,0.478240018094535,0
1.94178663010665e-06,0.313599959822849,0
1.80101570319837e-06,0.335977154705612,0
1.63555039339695e-06,0.324176846764184,0
1.41072756617271e-06,0.309653523619022,0
1.49949107940351e-06,0.322862172412949,0
1.40113598540518e-06,0.31373704605645,0
1.03158294479731e-06,0.291473239964039,0
1.28074143177827e-06,0.322283293738117,0
1.42728091816323e-06,0.30936165443987,0
1.26067277907847e-06,0.286295833250455,0
1.23848589261207e-06,0.305710377703448,0
1.12804381321059e-06,0.292320180894333,0
1.42284772648995e-06,0.318072570158421,0
1.68935467823872e-06,0.336102920803002,0
1.62654433436071e-06,0.324645904046213,0
2.06479425079811e-06,0.373607111543245,0
1.94903162828306e-06,0.360626161077764,0
1.33468554733267e-06,0.311878887159904,0
2.08260933468458e-06,0.397670758610491,0
2.54757296313132e-06,0.43012872617059,0
1.71968445588329e-06,0.347396606555382,0
1.7195612126277e-06,0.349170997407062,0
2.26940595921954e-06,0.401293704440888,0
2.83482865331862e-06,0.458045876865442,0
2.82684109514938e-06,0.453966980316773,0
2.87356501620146e-06,0.454119018725599,0
3.02045935014875e-06,0.451325236673408,0
4.26855852674319e-06,0.529785876072259,0
3.48420666842769e-06,0.425784719144045,0
2.67321581917103e-06,0.39468839295798,0
3.22949029817679e-06,0.439335879799308,0
3.33477693392032e-06,0.454333283956287,0
3.17297016604601e-06,0.447047274637892,0
2.72020033382393e-06,0.414762075144586,0
2.93912112680034e-06,0.448732267705014,0
2.72794962169902e-06,0.409546859894912,0
3.13967991487677e-06,0.44714748444233,0
1.74862538280224e-06,0.348366333338218,0
1.2996858579503e-06,0.358456626627688,0
1.65747823649215e-06,0.374439269356286,0
1.31932292672106e-06,0.334931029726324,0
1.28856761104301e-06,0.333506819266869,0
1.25823581809991e-06,0.310730818788819,0
1.85860502870506e-06,0.366930873331074,0
1.90260736661848e-06,0.357809010688518,0
1.8078565565102e-06,0.373085676149501,0
1.58547007017267e-06,0.34928301333736,0
1.67206140164574e-06,0.349405554402248,0
2.19512825672155e-06,0.406580526211273,0
1.80344537809767e-06,0.372249384235539,0
2.27483920402721e-06,0.401741014707149,0
2.69518582851218e-06,0.403012916429844,0
2.63107809745672e-06,0.399383298146213,0
2.22885799799093e-06,0.369702267826233,0
2.17880046314222e-06,0.372117086358595,0
2.48538627663352e-06,0.339584248493695,0
3.39096609202508e-06,0.371605459107663,0
3.31771588172594e-06,0.359374946781641,0
3.04568267139169e-06,0.339053473758037,0
2.86704040973417e-06,0.325068274285198,0
2.81385265121631e-06,0.33432477604795,0
2.48816630342923e-06,0.328699595267962,0
2.37538957820477e-06,0.324054573022202,0
2.45157886885967e-06,0.330073943922433,0
1.99786773720619e-06,0.30255758783063,0
1.9408228523456e-06,0.345270577238283,0
9.42628753322003e-07,0.283425418754636,0
1.01229684801481e-06,0.322466181485089,0
3.16535652326356e-07,0.214844160035402,0
3.17682357183761e-07,0.224859100229726,0
3.41778351439667e-07,0.227329553635053,0
3.40486235042955e-07,0.221665352905051,0
5.14184504364064e-07,0.264923786923979,0
8.94223298190124e-07,0.322220030590352,0
2.14200250738889e-06,0.480871099321758,0
2.21561903694963e-06,0.382606647942182,0
2.65895386159681e-06,0.40933907128417,0
2.52938566911065e-06,0.38482491709126,0
2.99225555741893e-06,0.412419416000914,0
2.99191574708401e-06,0.407438603830721,0
3.09656244803622e-06,0.402144816554882,0
3.13217680346694e-06,0.404357050455481,0
3.12438674455258e-06,0.403874152520964,0
2.93776932656287e-06,0.3973307511938,0
1.5653611115025e-06,0.300062360632059,0
1.13255172595204e-06,0.289797308699526,0
1.7103881938603e-06,0.302881848452688,0
1.9192810164283e-06,0.306744574021697,0
2.04593477720981e-06,0.33121230458664,0
2.11394335108356e-06,0.347294660428707,0
2.04225391197604e-06,0.343160896062964,0
2.19277314786746e-06,0.358246140425698,0
2.1733636528064e-06,0.341554028513177,0
2.13697418256061e-06,0.336535500436861,0
2.15451658105514e-06,0.336006779748383,0
2.45150445783743e-06,0.384014445617019,0
2.01560841007042e-06,0.396918753505865,0
1.87586776577432e-06,0.414535818420774,0
1.45448124725346e-06,0.372258235360823,0
1.25518496618782e-06,0.335460171591339,0
1.38385712594776e-06,0.349098011095104,0
1.28504858978262e-06,0.342314856207293,0
1.17711772735898e-06,0.357317391242757,0
8.34521939835347e-07,0.304326911849648,0
1.10712873513274e-06,0.328593168373904,0
1.15185472023751e-06,0.304979866148717,0
1.06485257791247e-06,0.28269483576382,0
9.65293885629301e-07,0.267429178807229,0
9.28575146610071e-07,0.255602320088776,0
9.45216551643578e-07,0.261795700369467,0
8.04079305473693e-07,0.248827413899138,0
8.71653815051005e-07,0.25022082009864,0
1.02651059344753e-06,0.274646430787085,0
1.45116732137314e-06,0.315265907738888,0
2.09085175060501e-06,0.385066166661472,0
1.89091165917398e-06,0.392840284633376,0
1.64208616151757e-06,0.384534791292664,0
2.67743631933906e-06,0.474370745639141,0
2.58361254654959e-06,0.461086428742732,0
2.60304141948103e-06,0.458940008302997,0
2.46419045196966e-06,0.446175380640819,0
2.50746898766878e-06,0.472836524843121,0
2.47095751435109e-06,0.458177188648059,0
1.9316640956908e-06,0.420135506182503,0
1.17696657997004e-06,0.323542473764802,0
1.16438801675118e-06,0.332698547095513,0
1.52610418150986e-06,0.392237234467326,0
7.68470995938526e-07,0.318593462300432,0
6.99131859973238e-07,0.300008655497043,0
7.83788039799012e-07,0.295450131744078,0
7.49859714114015e-07,0.297510921408798,0
5.31838519391969e-07,0.260154711947132,0
4.9082750457284e-07,0.254665186406101,0
3.8794310466416e-07,0.237168979065826,0
3.61539593603808e-07,0.238006162599418,0
3.66164083613444e-07,0.241793519094257,0
5.14614072994572e-07,0.251486621798548,0
9.13186792186599e-07,0.276884136365743,0
9.04764239583147e-07,0.277077855488388,0
8.53509927459978e-07,0.275906494884251,0
1.42444136254972e-06,0.297540406042315,0
1.71900312996085e-06,0.294646626413732,0
1.78797517154973e-06,0.29903850029504,0
1.76177830609907e-06,0.299616328606588,0
1.91953897463875e-06,0.314086929436155,0
1.94024012102764e-06,0.315777219785885,0
1.58842542793955e-06,0.290512648152976,0
2.14428382531259e-06,0.363386358483827,0
2.34418407584213e-06,0.380553601737256,0
2.13219327438129e-06,0.362605754412173,0
1.80931873309734e-06,0.402826413079156,0
1.77022705758327e-06,0.452783577604185,0
2.28119002975296e-06,0.514037823397035,0
2.42555438894389e-06,0.515050007204004,0
2.31225167080593e-06,0.507567270627234,0
2.75311294905527e-06,0.50535628049056,0
3.02064165715326e-06,0.499119073222894,0
2.40280368396101e-06,0.460070120104699,0
1.95074199663398e-06,0.391788704111473,0
1.96626289569083e-06,0.39962820310571,0
1.97201734807787e-06,0.380087691650724,0
2.59468134113167e-06,0.413894555542507,0
2.43116296472273e-06,0.382645602794541,0
2.05129485117895e-06,0.354964457970355,0
1.89927917862556e-06,0.338051017539961,0
1.65330486330489e-06,0.331772420813677,0
1.53404507776723e-06,0.330810844042713,0
1.17906249042998e-06,0.294276883514212,0
1.2348854842961e-06,0.303829177157741,0
1.7309019174869e-06,0.357989352470261,0
1.83136811419555e-06,0.379668860500346,0
1.34916469207808e-06,0.362992472714569,0
8.89358677610779e-07,0.300902662319695,0
1.03341779658753e-06,0.315987126777707,0
1.34807953133699e-06,0.326717172657587,0
1.36970538970024e-06,0.322380852174466,0
1.41933676642363e-06,0.336777571147711,0
2.27795764595118e-06,0.408011482757998,0
2.11435555714221e-06,0.389282849719471,0
1.58479168968653e-06,0.337301448522769,0
1.42205044339117e-06,0.308134970045901,0
1.42081336014633e-06,0.301614100546377,0
1.51463868316543e-06,0.307706353509496,0
1.56182348748654e-06,0.317731876527677,0
1.68220377900086e-06,0.337313669975986,0
3.12403949311543e-06,0.457285841851508,0
3.63732300401847e-06,0.488488388479767,0
2.82688326139532e-06,0.44302937231626,0
2.64830424910671e-06,0.463922428097868,0
3.06548964532992e-06,0.470883434533829,0
4.80106348985314e-06,0.570020152468184,0
4.50869142179457e-06,0.506824363379803,0
6.39265402162853e-06,0.567407227662225,0
6.59363121668212e-06,0.559040144608848,0
6.43970969182147e-06,0.574503842900555,0
4.58619050146396e-06,0.499975389768108,0
3.51781192625777e-06,0.441359306837568,0
3.02300358701773e-06,0.416240890366002,0
2.99554328441851e-06,0.396689916213209,0
2.89758690948105e-06,0.41121558829903,0
2.30815162348016e-06,0.381128103592173,0
2.31598090320416e-06,0.416087702563692,0
8.57657566835387e-07,0.296847147627861,0
7.39509761011423e-07,0.280606264833887,0
8.19064290147406e-07,0.286818046727249,0
8.68737523070809e-07,0.276044766565412,0
9.84410542313234e-07,0.274876348299608,0
9.40850329890321e-07,0.260709508768315,0
7.45434118565923e-07,0.245356119697849,0
7.6131761633326e-07,0.247055339064832,0
6.90975791843205e-07,0.249454775443425,0
7.25957498561875e-07,0.262752196561027,0
6.50305827542703e-07,0.250293415857328,0
6.32124734440553e-07,0.259589258120979,0
5.11697160922521e-07,0.237185973800756,0
9.43370538200021e-07,0.310281315589807,0
9.90570069702624e-07,0.310719854762271,0
1.79163123310942e-06,0.399774499066933,0
2.40257300979204e-06,0.442192178664302,0
2.38707443404187e-06,0.432401141153705,0
2.39821267891138e-06,0.42992650956628,0
2.35619385980971e-06,0.425659929997761,0
2.59768072542004e-06,0.437389717878771,0
2.79342930597714e-06,0.428908511173415,0
2.89547906225296e-06,0.43476195626545,0
2.12512732772716e-06,0.375642243145985,0
1.91410929535922e-06,0.376127773159168,0
1.26199357472335e-06,0.319638841586564,0
1.0703907732661e-06,0.300253857306397,0
1.18082851202462e-06,0.300539619530452,0
1.27188279957986e-06,0.299047939966975,0
1.43571416735113e-06,0.313570751589154,0
9.29303754536232e-07,0.27283122180312,0
7.94595000596565e-07,0.278806996059929,0
6.6446314461689e-07,0.270372777816804,0
6.90491500106753e-07,0.275234117332351,0
6.25393482363572e-07,0.263569859660809,0
6.65567528205395e-07,0.260985065814147,0
7.25926493969272e-07,0.255367048739295,0
7.85164023618715e-07,0.264901809357499,0
7.64507368820212e-07,0.264239119946477,0
7.30682133405618e-07,0.26317222691972,0
7.26353117163484e-07,0.262808005392429,0
7.11342088631984e-07,0.252659649926004,0
7.08289841513224e-07,0.250915041836373,0
5.30731655436059e-07,0.234439298720851,0
5.15334774749619e-07,0.236607009321924,0
4.22557717006415e-07,0.233750214966805,0
2.27687651580712e-07,0.217707327997312,0
2.3971014743125e-07,0.206208914323411,0
9.43762436250517e-07,0.305906062227941,0
1.04842882511903e-06,0.316552894415937,0
1.00147547008169e-06,0.28695764323589,0
1.97658432456823e-06,0.364538976225041,0
2.07576600100534e-06,0.358310489901343,0
1.96785761691134e-06,0.345258336182569,0
2.19388187209893e-06,0.338215196911493,0
2.75501043012255e-06,0.356133044320999,0
2.63274257901059e-06,0.334648656948503,0
2.61471774905516e-06,0.28793847300011,0
7.80059861556924e-06,0.473740229225612,0
1.05141844296073e-05,0.450046223936135,0
1.00938743905416e-05,0.407573122516244,0
1.63222065517439e-05,0.376358113696368,0
4.1559885246399e-05,0.601011878810358,0
7.77805739311627e-05,0.760186173746541,0
0.000112026451288986,0.54989191681594,0
0.000167681862851723,0.277380973123523,0
0.00027639425416552,0.251722306036721,1
0.000246417148956082,0.225667290581536,1
0.000229352692457433,0.219078321820797,1
0.000205906525783229,0.204134415295463,1
0.000150141345715865,0.168256749874654,1
0.000125489045821338,0.135582492353595,1
0.000180830803763653,0.162647286563647,1
0.000202457034957138,0.105016984629807,1
0.000317884044383986,0.114146247146444,1
0.000308436942692637,0.117960851939902,1
0.000291169270932417,0.102283471763685,1
0.000364072268085079,0.114534180995326,1
0.000513151532878587,0.125792183267836,1
0.000513167469239185,0.100512576698403,1
0.000526940175582321,0.0999834368282491,1
0.000483436276955974,0.0956162281875534,1
0.000345141168927138,0.0685395733987136,1
0.000551215884393719,0.0984584498709775,1
0.000837569613001584,0.0902814213089881,1
0.000745837641478371,0.0783524560363839,1
0.0007213499579879,0.0860878729501195,1
0.000726449793048747,0.0813401364817293,1
0.00072876930490998,0.0801916554434638,1
0.000760788284690203,0.0936496063595329,1
0.000659503514184068,0.0874009656559371,1
0.00068041893269234,0.0804502897194628,1
0.000677942255450745,0.0751339609160193,1
0.000556030215523862,0.0637177400144998,1
0.000461859605983673,0.0783575533179389,1
0.000498708999751336,0.0811688884308853,1
0.000713114267738718,0.0791252041120704,1
0.000758048340166741,0.0622875236357479,1
0.00113562611779102,0.0654209812513202,1
0.000880897245093181,0.0397265921755094,1
0.000918096307261008,0.0398589994336479,1
0.00105634561453054,0.0486086872902515,1
0.00112358551091776,0.0523340588274388,1
0.00140249049978469,0.0665017635700241,1
0.00151623927169504,0.0715305909289147,1
0.00158315034996058,0.0846548902503339,1
0.00131943727289876,0.0860014654259808,1
0.0012180675079527,0.12323755936406,1
0.00025405860766381,0.0866689081814179,1
7.06748285417876e-05,0.121277036384563,1
9.53793166067673e-05,0.153425374222147,1
0.000115558864673107,0.125618793065375,1
0.000155203020324138,0.151875017538668,1
0.0001260865415263,0.129624391657448,1
0.000139653322961496,0.129206861484357,1
0.000244453105834199,0.179386802081736,1
0.000344368255438148,0.191175993144382,1
0.000341106230005655,0.161221133502806,1
0.000337642695804368,0.161043789969229,1
0.000449102318185958,0.131317317059429,1
0.00121589395718718,0.170710521122388,1
0.00148433473606704,0.123883975303445,1
0.00144625260047261,0.129288753648939,1
0.00147618083887858,0.135080646799402,1
0.00146544126532286,0.1376657471889,1
0.00160892538909257,0.0685664602434497,1
0.00265200727254771,0.0511446259110799,1
0.00313692008803821,0.0266019287569321,1
0.00848413004955057,0.0510369048614145,1
0.0112764997735755,0.0528820818014617,1
0.0191645957591462,0.027392141995839,1
0.0377071032206843,0.035996818733793,1
0.036574277227331,0.0322055341976386,1
0.0389085291594342,0.0322620306887686,1
0.0321420208313062,0.0193991973992732,1
0.0258031765524129,0.0156918139510836,1
0.0218737455848967,0.0139682607386284,1
0.0158187812522685,0.00974599500379189,1
0.0160805884002867,0.00886606264994716,1
0.0156376375462807,0.00849886572791955,1
0.0150196533864344,0.0124946533766693,1
0.012449374814035,0.0104969768131996,1
0.0126014343765347,0.00993086929996635,1
0.0110111300580366,0.00719976650728234,1
0.0155453174709638,0.0182022172684023,1
0.0206261445090192,0.018618535037185,1
0.0209239186032062,0.0124707831673605,1
0.0236111036564463,0.0110078443779297,1
0.0235400385022519,0.0100894955544448,1
0.0246501356212661,0.00790225662479486,1
0.0245807115711628,0.00927278293842343,1
0.0241667549795712,0.00998348173463597,1
0.0257543796035304,0.0118542273763445,1
0.0250627208172526,0.0127362750545568,1
0.0203171324342343,0.0115387715216079,1
0.00988855608125388,0.00396273098654693,1
0.00934634905917663,0.00636020052136215,1
0.0093812323945239,0.0122451898875671,1
0.00730173304619079,0.0174408344936378,1
0.00694144747379578,0.0157284686896227,1
0.00636557938887725,0.0140060453094142,1
0.00789164228327639,0.0111244539187062,1
0.0114134834622134,0.0157920447882834,1
0.0127120559553198,0.0190089380178789,1
0.0122780707911303,0.0161114984022339,1
0.0143525255211016,0.0175922251714189,1
0.0177759411836039,0.0236781625997938,1
0.027526031513132,0.0330683000379055,1
0.0298993171452616,0.0319843322547617,1
0.0305773685801297,0.04339838563954,1
0.0319178771094555,0.0451155929642316,1
0.0308072424449066,0.0470305574831578,1
0.0643337095515842,0.0196015908331639,1
0.118473336665117,0.0213862150170653,1
0.127808525933712,0.0283072041753375,1
0.135546117584199,0.0318060571905897,1
0.157315410147323,0.0364866043281404,1
0.141027223646955,0.029512334119699,1
0.114004423325636,0.0234568742360519,1
0.0931617576806686,0.0154253418271336,1
0.0790990738360124,0.00911407654589953,1
0.117555006171332,0.0159843859553431,1
0.157964284154255,0.0329734717747982,1
0.168931635796987,0.0431467955935142,1
0.191321025496274,0.0464046726796215,1
0.192953003283949,0.0442180706001954,1
0.154155861724313,0.0417422873928869,1
0.134044355226159,0.0110461526729534,1
0.197396271501756,0.020413698701473,1
0.209972439253709,0.0261731969451546,1
0.220816151314099,0.0333547891277845,1
0.209428731745925,0.0330383374773746,1
0.18920142039173,0.0298419866056415,1
0.166338514490998,0.0270239532651798,1
0.140395555421656,0.0228029479667223,1
0.137010978703522,0.0210161558407618,1
0.128578755972732,0.0182761038507581,1
0.120629387376357,0.0711255400691233,1
0.0732560714116652,0.0531236972806441,1
0.028997867204079,0.0261946084223386,1
0.0172177800050679,0.0249173296591687,1
0.01189040376004,0.0139997879183228,1
0.00993215584933604,0.0128221471702104,1
0.00992355800529227,0.00955592956954737,1
0.0096973057431058,0.0111881613527327,1
0.0111522775442483,0.0193302396065235,1
0.0138216373110757,0.0395871039355874,1
0.0107094345640563,0.0232198022705377,1
0.0109812187227144,0.021684340643635,1
0.0107667361559371,0.0212969421213435,1
0.0117676712827846,0.0122375546813755,1
0.0158044338300697,0.0179281401632836,1
0.0146824392235521,0.0133205604458705,1
0.014371830641062,0.016001536200825,1
0.0134359179855472,0.0136788811304381,1
0.0117537423579413,0.0123684430738917,1
0.00954716194802713,0.0075282186942733,1
0.0104251196359139,0.00944256759437428,1
0.0104324757111438,0.00959343592135145,1
0.0136355311533922,0.00982977176918095,1
0.0165265527031943,0.0124818083247134,1
0.0163714142418731,0.0137301432132748,1
0.0161957493189984,0.0118139130314992,1
0.0378447742158755,0.0163928678203291,1
0.0386491606306752,0.0126970010670355,1
0.0393164391570898,0.0114637363990561,1
0.0368366102676527,0.0110311268613846,1
0.0362376545527038,0.0112021619630137,1
0.0365407791413709,0.0110907489087999,1
0.0424368019143181,0.0146973976949952,1
0.0401900575397054,0.0157596264883673,1
0.0372617069974093,0.0110602781038801,1
0.0885671113920033,0.0229987700257984,1
0.116241131448514,0.0268990479935416,1
0.104995652250719,0.0294246777322869,1
0.10679529172082,0.0321686607902383,1
0.124440095661435,0.0199989129676905,1
0.294963533048845,0.0371740254917674,1
0.403252507854386,0.0516321116015005,1
0.388092385905892,0.0387373820426356,1
0.34128472298454,0.0330190726162842,1
0.272758244214524,0.0252578063929023,1
0.268607896986205,0.0230924688420544,1
0.297825124665744,0.0248736153092969,1
0.279955590590475,0.0236200001610981,1
0.250743142037747,0.0182276908739394,1
0.244906661077086,0.0207207082769492,1
0.19887942296863,0.0193424877124334,1
0.159557180830145,0.0130587707389688,1
0.251748920085214,0.0216584561218194,1
0.255734536234651,0.0233370092198018,1
0.245354640972592,0.023466550375614,1
0.225868505381272,0.0233483071656943,1
0.289911362377093,0.0299421225127212,1
0.340533189826529,0.0328763217141834,1
0.293989375477424,0.0524848926799667,1
0.189847888358564,0.0423238851791724,1
0.127565333180535,0.0274903608070063,1
0.0708806844874535,0.0248970562417214,1
0.0709249731236353,0.0313021968168792,1
0.0635360811583817,0.0352226966122701,1
0.0280835797079289,0.0175543192749399,1
0.00637769474208743,0.0132935168519186,1
0.00498732443920539,0.0143202572124664,1
0.00486406448469161,0.015452124750343,1
0.00468072802710416,0.0253812987170064,1
0.0024615886170939,0.00973640470504051,1
0.00407389552471406,0.0177154962568606,1
0.00409744962519612,0.0136487441119938,1
0.00562407392037361,0.0122210869911538,1
0.00637598541626593,0.00874539575803075,1
0.0073306867990896,0.0109250474731086,1
0.00852022153837741,0.00673698910523858,1
0.00949209503339639,0.00774572634552224,1
0.00971634325793173,0.00798800952535701,1
0.00970070924667996,0.00854067324502867,1
0.00917157815496985,0.00848987683305006,1
0.00856321374681887,0.00897071088263356,1
0.00860744170515267,0.00781901964884681,1
0.013104985263833,0.01852267891268,1
0.0135997472020648,0.0195752092293889,1
0.0121137042036338,0.0170312466272873,1
0.0162806417364573,0.0292952970743455,1
0.0184668985804223,0.0350183216171615,1
0.0204299595690507,0.0364273068988755,1
0.021373217684598,0.0322668917075252,1
0.0461043050806842,0.0188561761859273,1
0.109097463365902,0.0274864656990785,1
0.108161449634485,0.0246060719826391,1
0.104270841959289,0.0216093759893695,1
0.0865790854934744,0.0162401571665675,1
0.102176564627824,0.0190792182145716,1
0.103248122998082,0.0116769767785817,1
0.0958388287007972,0.00723423045432957,1
0.109177623128869,0.00951427635932646,1
0.179808692482385,0.0142688916380229,1
0.252736559802819,0.0122403381148505,1
0.262881998445994,0.0106448845741946,1
0.466912682720773,0.0179997181806524,1
0.571442958000978,0.0119750900892435,1
0.507465065765471,0.00947817996830422,1
0.584386971437128,0.0109934202415644,1
0.516489265047496,0.0108073127149849,1
0.348138278200821,0.0055556743139416,1
0.310557988761666,0.00381156733434557,1
0.300453381207613,0.00373704226858757,1
0.36568422746346,0.00703624304772057,1
0.417830389506664,0.0113667183956375,1
0.3947097362095,0.0131301011458292,1
0.335463139552813,0.0205518592930978,1
0.353267257148991,0.0284623629514768,1
0.231793766916836,0.0220151476174442,1
0.242444463291523,0.0159028474865098,1
0.321378252945324,0.0205625281190154,1
0.336107425415025,0.0270591437111999,1
0.271712965447332,0.0249901394029109,1
0.305805333660134,0.0331840912207357,1
0.338844649175264,0.0337751085326134,1
0.335939595026687,0.0417535227823118,1
0.271430017657554,0.0312184903993111,1
0.200904466568117,0.0270178361747678,1
0.0349553471504188,0.00024569747296172,1
0.0104792218376851,0.0284701671846158,1
0.0080499114260496,0.0339222027062334,1
0.00365695381110171,0.0278450619448129,1
0.00374092235355515,0.0296511324824644,1
0.0039807133311995,0.0288034447301412,1
0.00362627985767557,0.0227612225164249,1
0.00625544577277237,0.0240399948691095,1
0.00613701374536765,0.0145118093029957,1
0.00818722261976463,0.0119090585157886,1
0.0144710300882464,0.0240135047184005,1
0.0306295027810427,0.0294594986887467,1
0.0538825463752161,0.034345038888391,1
0.0481246156162641,0.0273431224553077,1
0.0434085610890482,0.0261020790746723,1
0.0383100576182492,0.0219597078590783,1
0.0309407806861823,0.0187087052220544,1
0.0296832555592296,0.0201951897998121,1
0.0223765809747159,0.0167644851903559,1
0.0228227594165782,0.0135359561872716,1
0.0277704622072965,0.0106280487030182,1
0.0269710319077839,0.0131117377091821,1
0.0156903377327763,0.00797613100027351,1
0.0256929210189638,0.0137393165424117,1
0.0344319273085212,0.0168879664684578,1
0.0597732677448049,0.025821699372386,1
0.0583515073760415,0.0236806545824989,1
0.0549308531656386,0.0195848755248794,1
0.055398977258859,0.0179259256326832,1
0.091001680485459,0.0121333383926045,1
0.165863689332237,0.0173005331057186,1
0.16786254992021,0.0182801593726356,1
0.149570804814469,0.0147145100866865,1
0.14464277834511,0.0129361959421824,1
0.210096130020447,0.015265756829254,1
0.253968708579471,0.0122806482833211,1
0.240127285102569,0.0119606721759315,1
0.203977568084627,0.00990431397425188,1
0.14258207426559,0.00427588667053085,1
0.197900329095096,0.0124458391812906,1
0.346720633887519,0.0268708468213006,1
0.364556067725938,0.0180237651443559,1
0.340851607676054,0.0156531061197813,1
0.322206470733747,0.0139192795073947,1
0.319837979687473,0.014539540200859,1
0.317733962797142,0.0151991513673455,1
0.372130595414952,0.0162966975705156,1
0.463355076387353,0.0187082099703272,1
0.478472567369045,0.0219605651052674,1
0.44710665737162,0.0227945294057067,1
0.253445722639406,0.00641700699983474,1
0.207231846932846,0.00686591867388906,1
0.27452895368388,0.0134614887387446,1
0.2777185992794,0.0102470093060164,1
0.249936719186892,0.0113089962540933,1
0.246662621459436,0.016606641759211,1
0.23731474252561,0.0173097748151559,1
0.296162335462217,0.0192839382521147,1
0.409056774784599,0.0282397695052869,1
0.507270142418498,0.0336307634730269,1
0.590267492149409,0.0680877722770962,1
0.533068672139922,0.084505031161259,1
0.349827732638662,0.0612538104245497,1
0.199798149557402,0.0632918862584518,1
0.130079285387415,0.0414954059899576,1
0.0742131657576252,0.0286436515560993,1
0.00863066493500901,0.00255183685842217,1
0.00654688429378786,0.0207277529738037,1
0.00662004810994474,0.0148660876721742,1
0.0101783430731941,0.0190720938872002,1
0.00914547104657459,0.013498402696575,1
0.0113712503939357,0.0134687183080204,1
0.0245708913744661,0.0253941425050578,1
0.0240641948604171,0.0218252513382108,1
0.0270743560321874,0.0274827936265487,1
0.0239549958638041,0.0249061881467305,1
0.0195427171471136,0.017166393824179,1
0.0213718516583683,0.0143647810760029,1
0.0154450536999847,0.0105799152160149,1
0.0146803564449323,0.0115698709333106,1
0.0267373023904676,0.0123504600249844,1
0.0442016778488031,0.0154273082623122,1
0.0461280096545153,0.0117132223571662,1
0.0507926576303924,0.00994136967840254,1
0.0527524058465114,0.00866303263181316,1
0.0556379204295607,0.00884909095119986,1
0.0540237489852681,0.00909123862458538,1
0.0586434708699194,0.00914740771501467,1
0.0596425196407676,0.00750582464224274,1
0.0585528057946418,0.00680112339242077,1
0.053580887411622,0.00957620334566331,1
0.0331883022957041,0.00269359809005766,1
0.0396889866460549,0.00603252709002043,1
0.0439183834481429,0.00980943831132918,1
0.0501135190390176,0.0139134672350887,1
0.0628535435082511,0.0170945957891572,1
0.0673613480335978,0.0186959100232108,1
0.0765386016488489,0.0277505078101734,1
0.0689281234282731,0.0238774465243437,1
0.0690600626944983,0.0195973804680763,1
0.0702366831875636,0.0208637168475176,1
0.0441293611788811,0.0114104104479219,1
0.090471743799559,0.0241279037911742,1
0.119131532506505,0.0309559015619787,1
0.219514260600046,0.0362889039217462,1
0.325926231995534,0.0276047355454588,1
0.295685706069786,0.0211411568520484,1
0.281888757692081,0.0207785816314987,1
0.249709414032769,0.00979052677430141,1
0.374811790347416,0.0154762721094226,1
0.36778220041943,0.00935228727282567,1
0.32267895044546,0.00820683074411373,1
0.323465614415926,0.00789811090497107,1
0.315266586667309,0.00725920061145406,1
0.344862136237795,0.00952397044809875,1
0.397251445708097,0.0138193466103074,1
0.403220751876179,0.0132393535733444,1
0.388436593749924,0.0121085082091331,1
0.389733937588384,0.021466917568593,1
0.186258154320473,0.0119793454637309,1
0.181567605234435,0.0189015603674233,1
0.198689759799604,0.0231289180728119,1
0.21595015070003,0.0243416681457201,1
0.174543470558471,0.02154990844753,1
0.193648754735359,0.0273227237622543,1
0.231920688933228,0.030759409045715,1
0.243639576535856,0.05846372390273,1
0.147392854950698,0.049482447758963,1
0.0967330516579368,0.0477194314544733,1
0.041736446560413,0.0222951109185621,1
0.0246138148778155,0.039651687124573,1
0.022793846896067,0.0350530881391771,1
0.0181551286266623,0.0451043280737927,1
0.00628256998946334,0.0243663580649416,1
0.00456169927042801,0.0247469622193101,1
0.0087869217264046,0,1
0.0448013295233771,0.0159673457776897,1
0.0498401352339044,0.0143182070240715,1
0.0903083194667455,0.0218183355591433,1
0.0986494638136757,0.0184672217675198,1
0.0902846736058462,0.0173819641448588,1
0.10323412285569,0.0172086608554614,1
0.102449585390241,0.0106133794443296,1
0.0941556062936555,0.00924773545606035,1
0.0718723594918513,0.00502284481420045,1
0.051573414211652,0.00347324272448365,1
0.0509229254965438,0.00388911054252323,1
0.0480377386084748,0.00370077863887358,1
0.0417245433144265,0.00375947111818776,1
0.0471678146723448,0.00709445311987627,1
0.05986977740127,0.0040454681180834,1
0.0630930964735595,0.00170282494710105,1
0.0669895909682754,0.00522063037851537,1
0.0603461295214894,0.00421975953137508,1
0.0598939153224164,0.00559351882524886,1
0.0639943770220806,0.00600153123571863,1
0.0625066997019682,0.00629013052324408,1
0.0577070107548413,0.0061747420072349,1
0.061408125386467,0.00584702204801793,1
0.0731753771369627,0.00767692214223335,1
0.0516771073570573,0.0105166017318641,1
0.0282720736976437,0.0108287684899666,1
0.0389424657763673,0.0129101041415912,1
0.0396277113581594,0.0110779399968297,1
0.0403704532141648,0.0111944820605032,1
0.047937117616997,0.0128725327297326,1
0.0486184652440485,0.0137825272120259,1
0.1405708806979,0.00484994135205609,1
0.345746946423698,0.0244189080217391,1
0.387629075494411,0.0274035621977659,1
0.356273637898851,0.0246286287479925,1
0.372945342449519,0.0262185661533033,1
0.367025567967854,0.0264940655079319,1
0.430611874382288,0.0222085780384259,1
0.450606520670545,0.0179146423605986,1
0.373056919309412,0.013373610058174,1
0.238423685046772,0.00691243552463335,1
0.190837717309987,0.0116825877276061,1
0.192763500248062,0.0110149111431377,1
0.207670560815649,0.011402722228454,1
0.237769259316563,0.0135096371217828,1
0.315284642675482,0.0179623776184342,1
0.434472292359365,0.0247558556961115,1
0.415710898402906,0.0470157089629204,1
0.254842216010757,0.0399561282774492,1
0.251575352552183,0.0452017546638825,1
0.174869258513269,0.0386264954250739,1
0.0991615538449528,0.0269789130130434,1
0.110870840935165,0.00728517847550821,1
0.217733266086477,0.0133330803341084,1
0.223301407700867,0.00910090556835648,1
0.249095283064627,0.011002393105818,1
0.245081510970608,0.00914130037256877,1
0.235964552555836,0.00936608776023478,1
0.270217096576349,0.0101425207118938,1
0.295178240843525,0.0111398867989591,1
0.333189937260281,0.0128505180452668,1
0.383380093925199,0.0146774625009154,1
0.33438971345396,0.024817560830124,1
0.0944683788875731,0.00657499768481784,1
0.0635010190764424,0.00866085810264165,1
0.0630901716154755,0.00942531091289633,1
0.0573150734123796,0.0137773462166574,1
0.0263303251145128,0.00435641100467079,1
0.027674251839869,0.0102975498828291,1
0.0289816549943807,0.011612457468465,1
0.0290441076433896,0.0152175553635131,1
0.0207595498993362,0.0114262951352327,1
0.0131891447730287,0.0135830362904451,1
0.0152157875028996,0.0110714171221526,1
0.0203803070107648,0.00048013164675603,1
0.104386417611708,0.0126401553160391,1
0.123146275209992,0.00753933337261901,1
0.122792231325142,0.00764537803983674,1
0.124100769791873,0.00781202483484653,1
0.123067915682342,0.00760366978078217,1
0.13314931294181,0.00760711972960828,1
0.138585405830742,0.00697820870469605,1
0.138614607351727,0.00680505096646276,1
0.143538616182881,0.00717267008165452,1
0.157914891035889,0.0136868223296264,1
0.0853629279228391,0.0120491793227713,1
0.0404641617559055,0.0154875662141676,1
0.0360033996732624,0.0122465179011455,1
0.0348991632437169,0.0112598211068821,1
0.0281948915531208,0.00835199352724035,1
0.0267390875468566,0.0117576687188142,1
0.0263969810417237,0.0197172397017157,1
0.0165987186518856,0.011429809774681,1
0.0155107942221799,0.0288622690887697,1
0.012594443186449,0.015952507253544,1
0.0132375797592599,0.0203647260491408,1
0.0142108435887293,0.0101328569279382,1
0.0272841419091805,0.017507856295165,1
0.0256115480160586,0.0105945124435904,1
0.0258171257666615,0.0107299866421368,1
0.0265894740543298,0.00677056829554299,1
0.0341764579391862,0.0120883824130139,1
0.0420713433960176,0.0170079595328728,1
0.0441164945760209,0.0151071118711482,1
0.0407806278494284,0.0162415895300836,1
0.0368544820770768,0.0141648535751504,1
0.0359578061264838,0.0172520828195558,1
0.0582575651655533,0.0178734376118616,1
0.120816734327915,0.0460251507357099,1
0.272103499801284,0.061938451441905,1
0.301003048320058,0.0511886249686048,1
0.341869583027451,0.056539184801152,1
0.370180203495048,0.0577714565096938,1
0.415482181437761,0.0656712909233568,1
0.335075769824762,0.0315933552925438,1
0.271414006660686,0.0201740402811825,1
0.198983930568097,0.0158820574212623,1
0.133522151241297,0.0067846013014363,1
0.155216855856947,0.00565792341529351,1
0.185723827939088,0.00327560663260829,1
0.245844410604185,0.00690399557941325,1
0.249461986270979,0.00404113626443856,1
0.367451603579149,0.00827964733083549,1
0.412119914536203,0.00947521427801184,1
0.471413564028022,0.01284385190601,1
0.520743941716693,0.0177384173387962,1
0.499432831550226,0.0147210512932587,1
0.436199891009575,0.0142042819353871,1
0.431929867807275,0.0127993351525767,1
0.401516696918519,0.024853974281744,1
0.231099203578622,0.00950980734357304,1
0.202213619383875,0.0144280658386661,1
0.22296181739484,0.0174402943821702,1
0.269436411387969,0.0205818255862863,1
0.266485779670985,0.0199355318926183,1
0.259398851018468,0.0172024254370662,1
0.335117658250173,0.0215512873413696,1
0.397897404369929,0.0244546072148595,1
0.426944699717642,0.037862867592662,1
0.283164699550915,0.0273101285561101,1
0.176215630011366,0.0248868314274715,1
0.154370675623529,0.0215345858513906,1
0.144476470956775,0.0217586122675219,1
0.140097339537293,0.0242418336593202,1
0.0943819576869809,0.0212712457318506,1
0.028332689609008,0.00824240004576793,1
0.025099275589724,0.0311953858564599,1
0.0335870180178437,0.0337166170027464,1
0.0487476949406395,0.0531585666400563,1
0.0371284624779866,0.0258525326842127,1
0.0204146738933117,0.0160249439897776,1
0.0175292924810335,0.0182256896174428,1
0.0180445399158458,0.0144429008623234,1
0.0206179485640224,0.0153592651049142,1
0.0211212307478486,0.00542081210877397,1
0.0599096422680742,0.0164237372857006,1
0.0790071931632076,0.0136776147394792,1
0.0779613899829412,0.0151851084122504,1
0.0964633999364042,0.0153671746556831,1
0.105954330831681,0.0187520702094478,1
0.103238110951633,0.0100179508650798,1
0.127266968036343,0.0134108026026788,1
0.152077179088261,0.0167596172212665,1
0.159642466171751,0.0178619889872601,1
0.189527386064697,0.0284653883650888,1
0.187582126605988,0.0377025645764785,1
0.160740156538411,0.0366594933991133,1
0.159974295981123,0.0361910922044912,1
0.105398242381471,0.0406586965953498,1
0.032568789916853,0.00934694268239044,1
0.0198166909356739,0.0363041110667848,1
0.0216612863189239,0.0165555184469248,1
0.0232760112823172,0.0182511345711769,1
0.0234516827321237,0.0171897046513152,1
0.0220985502434297,0.0178647193035683,1
0.0186718832815338,0.0145883259085687,1
0.0183102096778646,0.0154311314997827,1
0.0185164984012914,0.0135830594420973,1
0.0180649657203693,0.0134502313222775,1
0.0196772892807111,0.0188910257870341,1
0.0343511133591917,0.00564443764663254,1
0.138803749547638,0.0418354911599703,1
0.16559188550194,0.0371031715600323,1
0.173891696368925,0.0382642402227472,1
0.205987799984419,0.0407620223778052,1
0.187311461602281,0.0359549205441233,1
0.15689713119974,0.0316402415232425,1
0.126543373521802,0.0265798523199717,1
0.099913844833803,0.0199473484050055,1
0.0698645715129492,0.0115813118657919,1
0.0416690775218364,0.00939427902786837,1
0.120685175533463,0.0164491003792575,1
0.177845718223524,0.015677474473869,1
0.182500038746331,0.0140629057063197,1
0.237203570551126,0.0203820875871793,1
0.216175754966231,0.0157959968543575,1
0.20300466835139,0.0134946312850207,1
0.181595535200029,0.00915399393132484,1
0.180881089139471,0.0095151709508392,1
0.171686539718117,0.00741297182753323,1
0.135335260672777,0.00450384409263907,1
0.178670414307394,0.0108781418042946,1
0.294939305161828,0.0222735098714061,1
0.397911092087723,0.0372011081736731,1
0.476129458403496,0.0392238389633645,1
0.481460392315148,0.0276990951635467,1
0.49551824630948,0.0228271275395624,1
0.441607434027709,0.0241509950790384,1
0.318149900683896,0.0172172620580934,1
0.209398852507177,0.0122462641144783,1
0.175689510077008,0.00938567536185935,1
0.166250495742651,0.0124590666743583,1
0.169089820903982,0.0121475999233739,1
0.171379126281673,0.0120008504299555,1
0.166019972640465,0.0112464699411092,1
0.148736872271939,0.0166478681390156,1
0.0987828695805434,0.0167912723288341,1
0.0721184383360555,0.0134157869890203,1
0.0863149703042091,0.0168788539287839,1
0.0844557832878313,0.0161243477685476,1
0.0901193715389454,0.00936309148421907,1
0.0989557898150369,0.0120714530126784,1
0.104645030075649,0.0086586672042017,1
0.112084392308113,0.0100076907893284,1
0.10552924997085,0.00850648104444768,1
0.109250490485778,0.00735810523941931,1
0.104677883241434,0.0075283480817723,1
0.0977139311558737,0.00898269860116582,1
0.0998331956875252,0.00984432814081982,1
0.090240363241801,0.00801945995584448,1
0.0772337958449496,0.0117112427694659,1
0.0684925437552447,0.00963548109326666,1
0.0594709525576917,0.00831586065797128,1
0.060079589019671,0.00521817299022946,1
0.166659301116046,0.0126668217645698,1
0.214871754403759,0.00999920620461722,1
0.204433209358206,0.00962744062630834,1
0.192345133656698,0.00861681224507582,1
0.179925308280598,0.00776580576510473,1
0.171865623189545,0.00752820372208336,1
0.171501210627763,0.00727642484265378,1
0.179336820054837,0.00783692123564205,1
0.186204599856997,0.00857816908856004,1
0.176586139243686,0.00918115243522058,1
0.104798093813034,0.00817275378032606,1
0.0675790615561054,0.0132529929349672,1
0.0677732880271127,0.0121110129032413,1
0.0775049929048278,0.0126925052521734,1
0.0896482530300776,0.015306258045766,1
0.0924636104581913,0.01686330529711,1
0.109163787783328,0.0206944725881074,1
0.124201400978281,0.0239366050871334,1
0.136495831035908,0.0459524066253762,1
0.123180656175445,0.0387990469670482,1
0.0776112363833801,0.0366126356328798,1
0.042067878955242,0.0318366982599815,1
0.0174780372141239,0.017994944084576,1
0.014289809781072,0.0149529623286699,1
0.0160084458489012,0.0141360221639942,1
0.0138849840492879,0.00991312931696375,1
0.0134995690065518,0.00803075078530941,1
0.0135037879470338,0.00812307086983925,1
0.0103512475975055,0.00590941135944005,1
0.00961911732639231,0.00925832022630477,1
0.00939642983460289,0.00730694260477451,1
0.0132034213422923,0.0105253984665047,1
0.0178958590081345,0.0161407997947234,1
0.0188025150287456,0.0209363473094971,1
0.0184296425558418,0.0207863356405494,1
0.0324600289436679,0.0312870115434173,1
0.0417999215063362,0.0170360597272349,1
0.0417344892882291,0.0138757920226493,1
0.0457885652939266,0.0146649530613571,1
0.0420451418245349,0.011381260209213,1
0.0377781627177807,0.0106744112695296,1
0.0400850978362292,0.0105255699493758,1
0.0495772133402528,0.0138167434825915,1
0.0526366240519964,0.00738190166148121,1
0.0622740759654624,0.0107411694507427,1
0.0532297009204123,0.0110205385673031,1
0.04268011159,0.0130210845277836,1
0.0399127325041064,0.0171798107315886,1
0.0319547528140305,0.0149105655799166,1
0.0314666544677934,0.0180259585685536,1
0.0437756756550333,0.0193380062085183,1
0.0651837498603466,0.0275388515153826,1
0.058845141789632,0.0226225274690713,1
0.0722066531927907,0.0385712833106986,1
0.141950834196817,0.0481619362987718,1
0.179252026859516,0.0339463086372349,1
0.159601487524021,0.0335874934681485,1
0.186209912107002,0.033544030468708,1
0.172818786819141,0.0185448638236142,1
0.13361555711636,0.0137097498169039,1
0.120352463655369,0.013157809900672,1
0.132744084818781,0.0118575168362664,1
0.141226336196201,0.0131700428946043,1
0.12148654204126,0.0107438878239498,1
0.163716260585683,0.0154899252035561,1
0.213775265775883,0.0237925906342348,1
0.186035764929006,0.0165203923092271,1
0.18174618739555,0.0167047630641864,1
0.182750558358956,0.0217119629569916,1
0.165005882737486,0.0100489522830319,1
0.165989213954743,0.00402695745508352,1
0.158881804463775,0.00594417740361089,1
0.172700359732629,0.00705905727675234,1
0.171244591342115,0.00673291059607245,1
0.202360993538076,0.00799436283178846,1
0.242682239396031,0.00979772494903254,1
0.245030011951018,0.00923707733817687,1
0.261952348560062,0.00957088939376,1
0.270473773991888,0.0095968347767028,1
0.187118131341966,0.0108283683021964,1
0.125594112248202,0.0118273618777198,1
0.122669832528768,0.00824376537480399,1
0.123388441112301,0.0061785448333251,1
0.159530010353981,0.00845115432254788,1
0.228382388514881,0.017259996209649,1
0.239185967278766,0.0176401634995919,1
0.246204088252481,0.0217808385111086,1
0.268867487649848,0.0262797109925115,1
0.281082360870977,0.0291982160868087,1
0.252455365758057,0.0325843026061177,1
0.132857664345922,0.0200525729550159,1
0.0817772249910377,0.014512665732885,1
0.0234152789410116,0.00278948389159809,1
0.0289674304954701,0.0152633216458919,1
0.031768598177566,0.00465849154365414,1
0.0518489536716798,0.0099673223923331,1
0.0510703672961002,0.00670388451822388,1
0.0511206869363337,0.0066615479884802,1
0.0504065100083518,0.0064719773534596,1
0.0504494952866467,0.00687206563489575,1
0.0540075489564992,0.00650362935343045,1
0.0600855820888285,0.00357505454882805,1
0.076480095065647,0.00650192438609803,1
0.0656639295556565,0.00467720224222331,1
0.0594245943618532,0.00686810001373264,1
0.0478911622664655,0.00138231614565321,1
0.0649549269608806,0.00659963377024413,1
0.063139049239083,0.00669996559937235,1
0.0638434403899618,0.00665209903099721,1
0.064643865195267,0.00652823000360565,1
0.0550575790176787,0.0040958154723386,1
0.041904674553041,0.00442547435454977,1
0.0370789583751158,0.00435321385538552,1
0.0475327851411522,0.00740835363909874,1
0.0590677632306325,0.0115098278162062,1
0.068420853134087,0.0286820724216974,1
0.0479818698433037,0.0234729789724288,1
0.050876451856965,0.0229069499751142,1
0.0485824167629323,0.0127002905128779,1
0.0494375561336561,0.0132464402124862,1
0.0352341294000097,0.0108077555655348,1
0.0387606097491659,0.0102340667492337,1
0.0363560032992924,0.00878323917092526,1
0.0362211293442021,0.00847817242926866,1
0.0344285641574243,0.00787165520980009,1
0.0330250415705602,0.00667648464772556,1
0.0332249306350978,0.00575631158706979,1
0.021982872307634,0.0013536046003486,1
0.0182326947498876,0.00878945168469365,1
0.0349242240798114,0.0146701852141675,1
0.0457484466100404,0.00909085714728315,1
0.0451615799001337,0.0108723598442504,1
0.0453448828998902,0.0114428436220803,1
0.0468694580085288,0.0119392176852835,1
0.0459435533750676,0.0124224326480574,1
0.0465892314912234,0.0120054904816367,1
0.0483556201825679,0.0108160558302143,1
0.0580458669713303,0.0139400123771861,1
0.069841249868315,0.0158403070124189,1
0.0515591369564118,0.0191103385794385,1
0.0271014585641113,0.0251578057334426,1
0.0317805050813193,0.00691302885225323,1
0.0491307085731931,0.0167658520473038,1
0.0609714423956328,0.0203896587667892,1
0.0832817533710989,0.0273010326829544,1
0.143461855030963,0.0228829080229215,1
0.334348168081963,0.0528824849582899,1
0.441645653549459,0.0690209619315942,1
0.451884310527582,0.0615716342711131,1
0.583550681731225,0.0387549508904159,1
0.724580974266239,0.0378692579992977,1
0.64036019741367,0.0316385106163503,1
0.535077551248725,0.0270916640096587,1
0.445862687045153,0.0194198842224346,1
0.470614684569744,0.0201794474178338,1
0.514069821731964,0.0207625797421761,1
0.542459721173211,0.0162788338316672,1
0.565561996996973,0.0155390133527396,1
0.561657727093323,0.0164227897085171,1
0.533470394163475,0.0221730732474909,1
0.451178259788914,0.0180243687494737,1
0.405174520231097,0.0111175066304916,1
0.397242383877379,0.00996859416690175,1
0.40217720185376,0.0119870904779971,1
0.362917091660373,0.0105384181577938,1
0.366134235191867,0.013239806139495,1
0.371656679784131,0.0218456751571336,1
0.283242184585504,0.0157089273409443,1
0.210029522393431,0.00928400234682502,1
0.18053657494278,0.0126759021000106,1
0.179096233160776,0.0111733672147201,1
0.155884124845884,0.0196750302796521,1
0.105614605440504,0.0166350860035435,1
0.0974334823654038,0.0177654612598136,1
0.0515055463959933,0.0034743977755086,1
0.0560147367723712,0.00762030994503299,1
0.048361131532905,0.0070250520652889,1
0.0448581983299009,0.00570126748599904,1
0.050146295109558,0.00609786161894655,1
0.0653490358174161,0.0143408297564653,1
0.0758436861232666,0.0200864163286202,1
0.0901922379681964,0.0256799797969069,1
0.104465878884766,0.0340345629113941,1
0.116722146065878,0.034958757451931,1
0.101000545677338,0.08307847766028,1
0.05466399398234,0.0624734336506275,1
0.0319658311991082,0.0421635367172284,1
0.0157601940509249,0.0387907573486895,1
0.014115697495024,0.0510223842532805,1
0.0150852010292139,0.0671114823792309,1
0.0155207751164551,0.0620683538302676,1
0.0193602149873027,0.0487891456917548,1
0.022852315505619,0.0581404720246427,1
0.0264798301963811,0.0576444208456423,1
0.0239312792491844,0.0402652054739235,1
0.0239861711619577,0.0330702127623214,1
0.02897888745701,0.0342222327723513,1
0.0317348577149085,0.0354484236636248,1
0.0283848848206034,0.0268232469071718,1
0.0251748937162544,0.0194144935972734,1
0.0177596396955611,0.00840874525925322,1
0.0144598347006726,0.00124455406075544,1
0.113553883374719,0.0117588891741916,1
0.230711526095263,0.0203316058353265,1
0.231122957231328,0.0180327917610299,1
0.213880188700937,0.0166574335082771,1
0.207225201333901,0.0165186316535376,1
0.195241290966272,0.0122720723840548,1
0.185000572542859,0.00907129880051097,1
0.178299389714411,0.00707373375207299,1
0.191730435498756,0.00796040595196623,1
0.174583677955953,0.00751577789768131,1
0.143994389045531,0.0102582568970976,1
0.0881075467893705,0.00474242735976838,1
0.0815783958324502,0.00458882390885988,1
0.0858520915981947,0.00586372840208327,1
0.0954197473928041,0.00764855970279827,1
0.101780365142771,0.00777550047698331,1
0.106661578584033,0.010939337141586,1
0.092937269437025,0.0140966499180619,1
0.0695292085374019,0.011364504916774,1
0.0588521703900142,0.00632454110581207,1
0.065517777842626,0.00551844086558755,1
0.0749077750117805,0.00661577000401213,1
0.074492522933438,0.00694995726591164,1
0.0724507387287931,0.00540467057742319,1
0.0733664958544142,0.00556398116671343,1
0.0689042339749865,0.00948692581468181,1
0.0538286786821069,0.00861143507006006,1
0.0623197147315092,0.00568674153067911,1
0.116114196333302,0.0112351572744998,1
0.140037597602608,0.0136117023522416,1
0.129705894376187,0.0175921756805816,1
0.196410213924949,0.0182137537142393,1
0.216094881211058,0.00994132887740755,1
0.223538067613223,0.0111819943075339,1
0.226846149255737,0.0113812102962887,1
0.226249569116394,0.010941112466747,1
0.255337073640633,0.0116191343197983,1
0.274536502479937,0.0145169004628033,1
0.284795028367858,0.0170417380230253,1
0.306219419479953,0.0213244200551348,1
0.310600880877981,0.0208937624663177,1
0.150920103864329,0.0153631026373036,1
0.0701678037393303,0.0319158568329134,1
0.0546860291554286,0.0262594310091875,1
0.040231487314954,0.015312721207825,1
0.0127430295799152,0.000388432775289857,1
0.00937095198549763,0.00659956636187519,1
0.0100449967546873,0.00583324564325723,1
0.0106716588536716,0.00451754274764702,1
0.0119578066281927,0.00743476260869449,1
0.00909600940139295,0.00559572327920976,1
0.00917843503021495,0.00726558200992201,1
0.0106695264342187,0.00440286997505924,1
0.0150634434346621,0.00853550760458941,1
0.0136260528094581,0.0115442469402368,1
0.0107711989556011,0.0120331709017892,1
0.0131608181140591,0.0101579921499088,1
0.0194978941746824,0.0133050183392013,1
0.0200910204031848,0.0117438063765379,1
0.0239462206406258,0.0139948553252304,1
0.0334508234270922,0.0207486967715109,1
0.0408279784508084,0.0255420389951828,1
0.0468983052930518,0.0380986036694379,1
0.0506173897540358,0.0423499349356408,1
0.0518353094206193,0.0459789477944189,1
0.0502793462569022,0.045550248533287,1
0.0398277427768734,0.0653845139396425,1
0.00933652870745705,0.0418271448759964,1
0.00278807977341447,0.080653090912294,1
0.00105218954810686,0.0579955138030337,1
0.000911768403850664,0.0896797900001046,1
0.000974728282878785,0.0939367014493851,1
0.000897502250889994,0.0684521752872453,1
0.000972492280802567,0.0556918484361053,1
0.00137485284347469,0.0503770618279871,1
0.00140834148109522,0.039594734323996,1
0.00155160701659621,0.0423110550178644,1
0.0016107922818039,0.0389778886379141,1
0.0025528889312072,0.0324823905735801,1
0.00306251894959108,0.0236808646995327,1
0.00321780168194769,0.0240932001316337,1
0.00361079072824965,0.0262393983434456,1
0.00396449030911461,0.0298946200669021,1
0.00423215868918172,0.0364629111825652,1
0.00384374799355993,0.0410126350162584,1
0.00365668269066658,0.0527709196713753,1
0.00372632237275072,0.05522670054136,1
0.00385156494415267,0.0624428201296375,1
0.00216272312466193,0.114155239543818,1
0.000143230393345503,0.204552606840942,1
1.66534991499654e-05,0.49305994547427,0
7.02160993168213e-06,0.46984464951048,0
5.9025301662848e-06,0.430623371377315,0
5.52094052273676e-06,0.383411372846933,0
8.94222414559234e-06,0.372045107574472,0
1.01343556918962e-05,0.327753262341884,0
1.01253186282673e-05,0.32109781779087,0
1.04228782297372e-05,0.305505376530147,0
9.67985208285576e-06,0.264475479579166,0
9.38486927307708e-06,0.263123394699878,0
8.92543701897361e-06,0.265150496098092,0
8.76020114315745e-06,0.262131504976788,0
9.24668939997259e-06,0.262813071234716,0
9.48424271291944e-06,0.274110398334879,0
6.74836971255786e-06,0.258300872379881,0
6.14390091969585e-06,0.287083543296279,0
6.72709730655028e-06,0.269615977818781,0
7.23893367809359e-06,0.299886283904046,0
7.49758019050279e-06,0.328278946366972,0
9.28572480215108e-06,0.395527592871442,0
1.26590926874149e-05,0.464211297799521,0
1.45114930770484e-05,0.496437066540645,0
1.49085440908355e-05,0.537709963273806,0
1.60006368387397e-05,0.584143007846837,0
1.38458306747896e-05,0.60821856369784,0
1.39062256058809e-05,0.663803348729395,0
9.96658875616288e-06,0.728738524690086,0
4.51860917087628e-06,0.507595971926875,0
3.45921712181298e-06,0.501185534971802,0
3.51182431933436e-06,0.507988703164198,0
3.50702232803207e-06,0.507159824588506,0
3.74235710735525e-06,0.495885052017355,0
4.09699461357683e-06,0.50676117371672,0
3.51194105162551e-06,0.47408750850438,0
2.55870485205935e-06,0.408656577553632,0
2.51887743756282e-06,0.418522678817116,0
2.08747705572319e-06,0.35417656673843,0
1.96423085469166e-06,0.324149213104324,0
2.15915099253441e-06,0.348315231444024,0
4.41394758771962e-06,0.323050384717621,0
1.17387511204164e-05,0.443454599819695,0
1.1844817056595e-05,0.41196569728114,0
1.15376806015391e-05,0.401136212150121,0
1.07995542654496e-05,0.385889160562839,0
1.0611226169063e-05,0.379533355684464,0
9.89435735677667e-06,0.359859312327513,0
1.13943155203677e-05,0.395507837154662,0
1.12823492551939e-05,0.40406555635506,0
9.86862152961801e-06,0.377619818224111,0
9.08253620453011e-06,0.521874096006376,0
4.70451270812132e-06,0.452028032700699,0
4.60322457966278e-06,0.523286835425353,0
4.60082962990719e-06,0.534677209948834,0
3.46828224459812e-06,0.424087755944672,0
2.51198279128282e-06,0.358822385578554,0
2.27478029530127e-06,0.365584448560025,0
1.82179575627543e-06,0.333198639389118,0
1.74018298725952e-06,0.344596947456564,0
2.05736911593868e-06,0.2933521934661,0
1.07939176305144e-05,0.486581988628344,0
1.14224985400205e-05,0.403783122142624,0
1.20016638647677e-05,0.412058606299352,0
1.19716210346277e-05,0.411880980055933,0
1.25137958651015e-05,0.434523490684455,0
1.34606536448545e-05,0.444709208546128,0
1.25566713410968e-05,0.42437385613163,0
1.26080199071815e-05,0.425201510818489,0
1.20772274827439e-05,0.415006223881816,0
1.32698414605086e-05,0.498597308823687,0
6.0844626353093e-06,0.426653870717697,0
4.50007834596957e-06,0.439344844953282,0
3.35718705345346e-06,0.402286550975965,0
2.18153336295717e-06,0.313714461938422,0
2.08125148855156e-06,0.328621435524027,0
2.3459110316501e-06,0.359116248295383,0
2.47592258981047e-06,0.362886498409087,0
2.54067366616243e-06,0.368011216160682,0
3.04682116003205e-06,0.380512218964615,0
3.65104191615326e-06,0.427221938230288,0
3.48180644789136e-06,0.441081415529851,0
3.43920117692061e-06,0.455128284892685,0
2.93328249694439e-06,0.439233908307149,0
3.24072636253597e-06,0.482995575119616,0
4.00281382290356e-06,0.503899753625037,0
2.91445092748944e-06,0.428956999427674,0
1.81998322779188e-06,0.355475973853803,0
1.1675125045707e-06,0.303950222995114,0
1.10680566727783e-06,0.319850269542235,0
1.55010933230944e-06,0.36792551383115,0
2.74172728753679e-06,0.463337359792112,0
3.70734687641138e-06,0.527003015902547,0
4.07795035261663e-06,0.518366332187892,0
3.84320512562179e-06,0.518098048202641,0
2.9205171310551e-06,0.477854334800035,0
3.00899555705691e-06,0.487504768432148,0
2.5737617673879e-06,0.45216083856583,0
1.70442477051912e-06,0.325685171732866,0
1.4809095619879e-06,0.288550047006749,0
1.60909618982769e-06,0.305344843288964,0
1.49100155688004e-06,0.289672756190624,0
2.26352748846209e-06,0.345842173907706,0
3.188595240534e-06,0.41951378927259,0
3.26220091848732e-06,0.393875091155563,0
3.34591331851428e-06,0.389461394626387,0
4.00912682302632e-06,0.426804375776351,0
3.57821274822166e-06,0.406646065284337,0
3.35126285092192e-06,0.440218780445474,0
4.31820416557917e-06,0.489563570539938,0
5.19400453484483e-06,0.499768778901255,0
5.05671325336434e-06,0.494090624272675,0
4.66672570586397e-06,0.478891428084745,0
4.09692438817459e-06,0.444253160960573,0
3.947730288571e-06,0.447470468250504,0
4.08578877869545e-06,0.414349557342217,0
4.79451656007918e-06,0.428045306451257,0
4.61996705966817e-06,0.40815552915213,0
3.98346990255584e-06,0.375528023214035,0
3.94110770759109e-06,0.406240171172145,0
4.17508200539086e-06,0.426403963891289,0
4.3272768844895e-06,0.435955959729411,0
4.28554764828273e-06,0.424921494804916,0
5.34266535545567e-06,0.452435255354492,0
5.2863349714316e-06,0.437382884217417,0
4.84804784948308e-06,0.437925573919219,0
5.22268998392074e-06,0.446892622447404,0
5.35948302159811e-06,0.434399179452211,0
5.25355893143068e-06,0.429275702331731,0
5.35703241859881e-06,0.416824988197194,0
5.79865873517062e-06,0.417425448368934,0
5.83380988198786e-06,0.411933723441053,0
5.76680198134037e-06,0.41719032250204,0
4.23821355684823e-06,0.377491107007213,0
4.15042963372071e-06,0.388588009981512,0
3.76328520736199e-06,0.387075094324777,0
2.70919060299076e-06,0.370290853464144,0
2.23174142510297e-06,0.35341213149097,0
2.86106101902781e-06,0.395202129837771,0
2.69937377385797e-06,0.383415707127289,0
4.70652630138789e-06,0.401819068537706,0
4.90835875812843e-06,0.340211421739227,0
5.31285707505866e-06,0.35369981757888,0
5.68769639870526e-06,0.366493260625976,0
5.63114696723447e-06,0.365794773723156,0
6.42607123660447e-06,0.390568059369827,0
7.85960345575119e-06,0.401196522739601,0
7.34194070116601e-06,0.38588236715269,0
6.50087989275079e-06,0.363372849286265,0
7.60325608890644e-06,0.305962364005991,0
1.90199099531754e-05,0.515006507862566,0
2.18074212575396e-05,0.486472787161919,0
2.09319941835688e-05,0.451272346326335,0
1.91498711288729e-05,0.432872961033928,0
1.91360815262669e-05,0.425760787382558,0
2.00905741869483e-05,0.432995978414393,0
2.12283570077643e-05,0.465372348555569,0
2.0998253323305e-05,0.467570950738123,0
2.26960637290612e-05,0.492534342834409,0
2.40694760278531e-05,0.679933431346022,0
9.12593953371445e-06,0.495847451805006,0
1.95259793154717e-06,0.335020512785283,0
2.06884701612015e-06,0.386575829306606,0
3.29225351507404e-06,0.450004407346168,0
4.72252777163008e-06,0.479249970450538,0
4.74271672214917e-06,0.484147482058721,0
4.7165333436963e-06,0.463646484848031,0
6.88869572356231e-06,0.566411893351908,0
8.36903557616113e-06,0.638551478439001,0
8.15132675270956e-06,0.546237072235736,0
8.75503779332837e-06,0.544698830829536,0
9.25473059608703e-06,0.548867392768323,0
9.48611911086375e-06,0.54165509632636,0
8.48419903492413e-06,0.542671930421941,0
6.94741346121676e-06,0.515796885634317,0
6.95030882509696e-06,0.518937024397889,0
6.8843997272113e-06,0.537980366659089,0
4.93865939145596e-06,0.467091851164324,0
2.60920621765116e-06,0.338405969353098,0
2.8919532199822e-06,0.407921813585872,0
2.92798923787231e-06,0.414455804138535,0
3.03362808578781e-06,0.426599149699575,0
3.25120591483564e-06,0.463806755382047,0
3.29705922692744e-06,0.459631391461798,0
3.61896378953181e-06,0.4779053471239,0
4.36184623012655e-06,0.522136673441698,0
4.78458888952784e-06,0.562873639509459,0
4.82167658319904e-06,0.553729184403636,0
5.55014064804987e-06,0.585851904046654,0
4.46967400227978e-06,0.52649274541213,0
3.26714305054817e-06,0.463996095128274,0
3.30998814204271e-06,0.474727192713396,0
5.57455753983921e-06,0.504031339110935,0
6.47263098833872e-06,0.44433590688596,0
6.31414341712547e-06,0.442985387607735,0
5.50209717153663e-06,0.402666987991811,0
6.04696025521205e-06,0.388102499740939,0
6.45911050559659e-06,0.344132884204503,0
7.56521345378308e-06,0.366596177439503,0
7.29230110822558e-06,0.348648234492014,0
6.92951016926434e-06,0.343231456060338,0
6.96230186658452e-06,0.349630056287993,0
5.63607375202198e-06,0.3545856604359,0
4.74231180216978e-06,0.375388935921657,0
4.78062293706508e-06,0.3735836037648,0
4.70510319058745e-06,0.373653846173838,0
4.99972619206896e-06,0.410158905328996,0
4.34151419341259e-06,0.399900776082368,0
4.06709378447091e-06,0.409124961880289,0
4.29700322515752e-06,0.428353497167762,0
4.38006576892353e-06,0.42572657759903,0
4.43412165603426e-06,0.424719220627072,0
4.30321422017063e-06,0.409426141384985,0
4.45158592295545e-06,0.401717140430557,0
5.22366848886328e-06,0.440415401009409,0
5.30078311158441e-06,0.454083076269138,0
2.39946216399326e-06,0.327814968217177,0
1.67892953899906e-06,0.325007264871114,0
2.6026270431009e-06,0.355142159432615,0
3.41874124626217e-06,0.370546194738987,0
3.41636861981326e-06,0.361260116151073,0
4.2855825284494e-06,0.383575599056619,0
8.94452112083531e-06,0.54183084377061,0
1.01951192675935e-05,0.504958794468264,0
8.66912825284664e-06,0.453885793669563,0
8.25902430557387e-06,0.436844115308748,0
7.85053337223124e-06,0.417628143474416,0
6.67972616462762e-06,0.360263711330295,0
6.80091009518219e-06,0.36639429055892,0
7.81852097534612e-06,0.410127829411837,0
7.89550785914572e-06,0.424782444041704,0
7.98125245519481e-06,0.446149691809447,0
5.09878090469936e-06,0.372566997622175,0
4.10386461120571e-06,0.383275428349827,0
6.82686403964981e-06,0.477402832355732,0
7.48531089809514e-06,0.448360604171627,0
7.35133152719645e-06,0.44707954966475,0
1.02549151899557e-05,0.50577684534377,0
1.36014355783932e-05,0.625341441728759,0
1.22199118580847e-05,0.492390891005169,0
1.04809622335189e-05,0.454192738476066,0
1.13411077638876e-05,0.476245958658458,0
1.21847340473178e-05,0.48896928209859,0
1.21645488173498e-05,0.490526136752958,0
1.09343250285745e-05,0.497067638791424,0
1.0570331886535e-05,0.537343475715414,0
1.08424312916745e-05,0.502789643332692,0
9.1311817902317e-06,0.474036627025909,0
6.21028934858315e-06,0.392537306685927,0
6.30191412064228e-06,0.308784231273602,0
1.20616403888818e-05,0.381128276163597,0
1.07608916934971e-05,0.341661948645365,0
1.07177822878507e-05,0.34087744441683,0
1.36562975849116e-05,0.386597096030935,0
1.7351510658985e-05,0.441263878547451,0
1.93979611975927e-05,0.466173039470327,0
1.89671717612503e-05,0.494660232957899,0
1.69924142272782e-05,0.506765627634745,0
1.67232894027531e-05,0.504372540445959,0
1.4922846509403e-05,0.774883529126704,0
4.68771814040035e-06,0.555467666232064,0
3.0320798714562e-06,0.498558725694743,0
2.96465418392338e-06,0.528432509080023,0
3.14348479848095e-06,0.484964321108234,0
3.55052177145348e-06,0.525016893308086,0
3.46251461525923e-06,0.466905659157859,0
3.32929919752226e-06,0.438864031766861,0
3.49857745212194e-06,0.437858887673813,0
3.6702188767698e-06,0.421328717634581,0
3.86991263671261e-06,0.435424003900422,0
3.73260011708618e-06,0.43337294096011,0
3.37562486458236e-06,0.425815790422331,0
2.45643000244123e-06,0.346568130606212,0
2.72722829985212e-06,0.388317965364833,0
2.27958290669541e-06,0.347735239440486,0
1.74212682019274e-06,0.334164122662638,0
3.09831978834493e-06,0.335625572659887,0
7.02910203646159e-06,0.433501386315553,0
6.82733143388329e-06,0.398192009669958,0
6.23055627565264e-06,0.375561666676733,0
8.29051768557882e-06,0.391253438285167,0
8.71299355046076e-06,0.338863030606267,0
8.63291860923794e-06,0.341811968436804,0
9.69438021485746e-06,0.355030376708057,0
9.39156517991849e-06,0.329246412100396,0
1.03030803594949e-05,0.346134660352509,0
1.05465220646689e-05,0.4174151069867,0
7.91107417993072e-06,0.39545112946673,0
8.02463950696803e-06,0.425393641653283,0
8.11091660689507e-06,0.435942763958245,0
4.16812162937455e-06,0.3548696755313,0
2.15142790354007e-06,0.283916344703022,0
4.17558303960732e-06,0.368393027815587,0
4.30175700431831e-06,0.379091332273458,0
5.86649182305024e-06,0.449611287350861,0
6.40824933170763e-06,0.427257302049367,0
5.77655866156351e-06,0.403600873863063,0
4.50551655151206e-06,0.358429193243869,0
4.17582689072814e-06,0.343382919505845,0
4.45725108211578e-06,0.346149431309039,0
4.29909060935449e-06,0.311579513384026,0
5.27702010665305e-06,0.357331543342676,0
6.0082595476107e-06,0.388292157253041,0
5.97725123445701e-06,0.395260643779506,0
5.07328133253634e-06,0.409347472053996,0
3.68681935574107e-06,0.385131510740681,0
3.8905530141e-06,0.390002259557059,0
4.45072849094702e-06,0.419172656261293,0
4.88119873500857e-06,0.446484265984652,0
3.76796085494942e-06,0.389314520217559,0
2.44138843438602e-06,0.354422560930951,0
2.21668885041738e-06,0.355277006368826,0
2.29046164312484e-06,0.383478837658792,0
2.44522370249096e-06,0.368596296189514,0
2.9644382369359e-06,0.384720805424766,0
3.09793781176406e-06,0.383579282152122,0
3.31247610557611e-06,0.35757955533212,0
5.89525974434246e-06,0.449934850680856,0
6.50840703271987e-06,0.429287541749645,0
6.324971461046e-06,0.446703176693509,0
6.00043104300151e-06,0.450228234692571,0
5.97126734808471e-06,0.449938404617417,0
4.96740436934967e-06,0.403350234210947,0
5.502707496942e-06,0.409935538274186,0
6.08196986606406e-06,0.403478495110736,0
6.73451500030748e-06,0.428641037951433,0
6.89587638720907e-06,0.489513562700475,0
5.34952853207417e-06,0.453149619751412,0
4.45601337877909e-06,0.447460276608865,0
4.59284904777129e-06,0.454800800844937,0
4.66128982566591e-06,0.456435518986883,0
4.40479890755742e-06,0.439088854823678,0
5.51081829836684e-06,0.40863879166104,0
1.29142187833571e-05,0.59843279620055,0
1.54220463391393e-05,0.697846172977347,0
1.44441095557615e-05,0.529564151260797,0
1.30682781236319e-05,0.487609194307006,0
1.38552490949075e-05,0.503176660568505,0
1.45140557616499e-05,0.512739151897239,0
1.55916465764332e-05,0.532106949634324,0
1.71376285773754e-05,0.558987858204162,0
1.83839344483337e-05,0.581806376508879,0
1.9486886089728e-05,0.731203971686749,0
1.21542552926058e-05,0.678681751349441,0
