Activity,Complexity,Tag
1.7878584827949e-06,0.372350156728321,0
1.19246158680479e-06,0.405113833004588,0
1.58795557662215e-06,0.422797349135983,0
2.54476055559303e-06,0.461503101353964,0
2.91377760235127e-06,0.436884364103681,0
2.58752408802064e-06,0.384574977756199,0
2.33269649695984e-06,0.358367783653931,0
3.91049354803684e-06,0.429743154315817,0
1.05669229197842e-05,0.650967770157171,0
1.53066071339449e-05,0.645626318292559,0
3.3468457109777e-05,0.84904331844706,0
3.58053651069503e-05,0.745130217638749,0
3.4357818757669e-05,0.702015230494708,0
3.43289883142185e-05,0.640570854534924,0
2.94135032480392e-05,0.588225350930803,0
2.4966303904327e-05,0.544934583251205,0
2.46691848558927e-05,0.539957041341164,0
2.63952132193504e-05,0.556106055328715,0
2.69835289895281e-05,0.575036926626162,0
3.00878222321289e-05,0.708348391333647,0
1.77683497010493e-05,0.586923837123994,0
1.11962870672845e-05,0.522006862787131,0
8.66360185547164e-06,0.497793346075547,0
3.03742358201656e-06,0.345850666177542,0
3.26223213936105e-06,0.387499688443227,0
2.83660682613002e-06,0.361623529224228,0
2.93620778767807e-06,0.367117239125381,0
2.66863951728343e-06,0.37078427224359,0
1.78165581379851e-06,0.318097014963174,0
1.89593158742656e-06,0.335460391688382,0
2.10948393014365e-06,0.341686706869366,0
5.56235673070976e-06,0.546721195056317,0
9.62151572703198e-06,0.66301504204752,0
1.88638553725102e-05,0.761291029739842,0
2.43583282706073e-05,0.410776415816464,0
8.6221021295833e-05,0.469144129345527,0
8.89170574622682e-05,0.338618340550872,0
8.42653197612716e-05,0.325121273978428,0
7.91139173510903e-05,0.306552219091933,0
7.38461700831979e-05,0.282588269748546,0
9.33052043925578e-05,0.282965268677002,0
0.000463029650781572,0.228341778557642,0
0.000826193091379945,0.179152642108667,0
0.00137428029349172,0.125816062663551,0
0.00344792441512786,0.167793669897869,0
0.00631272275276571,0.19423357342871,0
0.0069352755638193,0.201435279459718,0
0.00885491737801239,0.155370739148503,0
0.0109718932597032,0.162391590851664,0
0.0096234437477557,0.0617714109560229,0
0.00916169837308497,0.0543520591623892,0
0.00987083781763345,0.0605047811969656,0
0.0108767801776882,0.0669729406077698,0
0.0106413528598146,0.0566867275277903,0
0.0131100567118701,0.0527608584855114,0
0.0191216675806949,0.0700842004658724,0
0.0217372938304709,0.0421670882455673,0
0.0218867595921279,0.0473526530827635,0
0.0209978058972896,0.0292943648736011,0
0.0236466482645269,0.0332238840663299,0
0.0217996464536307,0.0283082222895646,0
0.0200357619607543,0.0262682549211334,0
0.0165656000608784,0.0210397122387245,0
0.0153770507897193,0.0208191501007233,0
0.0160322341488509,0.0254129389300714,0
0.0109307402151423,0.0139891583446645,0
0.0115360409796853,0.0236709681475388,0
0.0120018570580573,0.0128240589625823,0
0.0138187977996781,0.024822770108811,0
0.0110181154553623,0.0253692894796725,0
0.0111946112354713,0.0292724545207356,0
0.0120370165402093,0.0316086297770277,0
0.0126869859844159,0.0358642346458651,0
0.0126355864802733,0.0378019094393339,0
0.0127916125441916,0.0400459593318479,0
0.0117697789502421,0.046575020866621,0
0.00421756987239758,0.0197777604795344,0
0.00144317918244601,0.0603449369784515,0
0.00126414464966216,0.0546980646826172,0
0.0017630035183268,0.0663345413851205,0
0.00207920617969153,0.0764728556723867,0
0.00220640336890499,0.0549851524032592,0
0.00512753282345494,0.0650325095240629,0
0.00486482394827685,0.0399267649316897,0
0.00487869436687158,0.0286250468905485,0
0.00693263469957878,0.0347005820145301,0
0.00726753687868889,0.0340314764606582,0
0.0125972021632891,0.0387822278718762,0
0.0128602232297976,0.0256718332811537,0
0.0126728127370581,0.0229844010226587,0
0.0159543106107621,0.0247719137714723,0
0.0134855185728457,0.0170014483773121,0
0.013381055331178,0.0173295524795071,0
0.0107822850872424,0.0149394310582889,0
0.00940720361618124,0.0149715980215026,0
0.0094258615908126,0.0156386728460573,0
0.00946115358575628,0.0160679278841836,0
0.00937282309096994,0.0247738242877276,0
0.016004715538065,0.0149643385701104,0
0.0242123932280477,0.0134320406854257,0
0.0220415687117407,0.0127496697181691,0
0.0249149990308626,0.0172829909109661,0
0.0269228217885529,0.0176370367343672,0
0.0252495044209594,0.0161169844773733,0
0.0229288501787303,0.0127833487880071,0
0.0238623150655313,0.0132980144231556,0
0.023767856447594,0.0132340394690746,0
0.0221915985343386,0.00917867182177881,0
0.0177908750599153,0.0180248412093493,0
0.0124374362354923,0.0241200864186202,0
0.0253994619106592,0.00709380577080172,0
0.062375583918748,0.0172042383830765,0
0.0676300022037585,0.0167419569501595,0
0.103010173061584,0.0236343311129384,0
0.115715759863648,0.0267106710655516,0
0.128379163109571,0.0300655709596594,0
0.155940507350308,0.0387759068388865,0
0.135372858188468,0.0233393050967298,0
0.11640232670134,0.0190686458561218,0
0.0738416657803417,0.0106701492521567,0
0.052514143953079,0.0115489321581527,0
0.0539093033582667,0.0161237108468668,0
0.0506044329253927,0.0183124320458097,0
0.0728991379632951,0.0309114471170641,0
0.0783065516272969,0.0302742925582016,0
0.0854953054429711,0.0323706515699969,0
0.0649201183193258,0.0198843598007605,0
0.054041270046264,0.0261807595527958,0
0.0518985543320821,0.0231176935279028,0
0.0435245466609034,0.0146830072966807,0
0.0335531280420775,0.00969922629413156,0
0.0373249247070713,0.0113738119755509,0
0.0403262582937875,0.0119030172945799,0
0.0322907470309525,0.00732529732999054,0
0.0310063609138976,0.0066857382413834,0
0.0345487816650976,0.00979552341595707,0
0.037616509196204,0.0155836392414861,0
0.0460835026816822,0.0205924090128454,0
0.0458591702774685,0.0331914650810758,0
0.0356949032564574,0.0386123730081624,0
0.0406808476931125,0.0455456644342346,0
0.0303353966550473,0.0350586688116603,0
0.018274101769424,0.0230971833246442,0
0.0200076316002805,0.0281859699442745,0
0.010906287198648,0.0211696599996652,0
0.0114805659316717,0.0177780752899407,0
0.0127266352069016,0.0166678565347469,0
0.0134536594160308,0.0142699972531697,0
0.0171416710861728,0.0100275985367842,0
0.0381108931763115,0.0267368131861918,0
0.0547252433311077,0.0384155244014893,0
0.0691130734729725,0.0494824617252006,0
0.109952872999687,0.062569345442801,0
0.127006044403601,0.0365387321494858,0
0.112094435444187,0.0370700489099803,0
0.0855114689406789,0.0253710484658444,0
0.103151262083369,0.0268541770531383,0
0.142411075179556,0.0355920852868659,0
0.181652980654735,0.0510531199188713,0
0.206565979650767,0.0561288293258927,0
0.208685425064518,0.0525053234208613,0
0.20082458724477,0.0469735540058864,0
0.158204340919789,0.0522205196558084,0
0.105121802479911,0.0554710113230347,0
0.111346186796386,0.0511254794319774,0
0.124222066964951,0.0634018649216013,0
0.120457050383966,0.0784867881887805,0
0.11059129476086,0.0665324021468593,0
0.085419022503193,0.0505441366448493,0
0.0588219456220804,0.0284189076878358,0
0.0386975363736234,0.0164803496862908,0
0.0401240756541705,0.0195491143157969,0
0.0475634137936565,0.0243166326543077,0
0.0485660113504507,0.0274764800945809,0
0.0495104612809171,0.0289096333279545,0
0.0527977683577171,0.0334022752272575,0
0.0554253176556341,0.0338531641709034,0
0.0460141895147851,0.0419137980623986,0
0.0326865363859602,0.0343308579298749,0
0.00896031678830801,0.0178306776887419,0
0.0075285643959238,0.0219659649713124,0
0.00935972843453391,0.0209821360972748,0
0.0122022969546967,0.0313438490453317,0
0.0129513941018995,0.0275548099773317,0
0.0125902421669959,0.0306677709766481,0
0.0182868073015733,0.029390267480249,0
0.0262742951857317,0.031404131455828,0
0.0259654901956001,0.0258288423164166,0
0.0304974840292375,0.0292252642724868,0
0.0326652811226204,0.032588592392854,0
0.0355867478141957,0.0352409284048809,0
0.0308780793547896,0.0348571024765346,0
0.021690196572404,0.0204948783102355,0
0.0136653100489516,0.00634850849613422,0
0.0196609548885035,0.00867612780737374,0
0.0187977054545116,0.00946437011015907,0
0.0219696785752233,0.0116154633865497,0
0.0308514515880793,0.0223509371653042,0
0.0357641176257354,0.0230953007325366,0
0.0332739862047276,0.0176780806536577,0
0.0290328370030132,0.0142797142517614,0
0.0286746341090055,0.0130112375639987,0
0.0298366997659262,0.0134872284480896,0
0.024190321707727,0.0123253909908915,0
0.0327901050695896,0.0124946230581501,0
0.0550671615759906,0.0186522565772553,0
0.0539820200009371,0.0193073920764412,0
0.0543375647711921,0.0184443009105406,0
0.0540830923977673,0.0183759655677327,0
0.0513686914382258,0.0182815387542905,0
0.0588431716659095,0.0187354303951021,0
0.062115680917648,0.0146799905888678,0
0.0551421608260596,0.0127875797643282,0
0.0620888646684794,0.0147480800270462,0
0.0670621432066651,0.0260958197718387,0
0.0390533434732361,0.0182579508374178,0
0.0373738363104945,0.0184127197490522,0
0.036716530384028,0.0152218490922043,0
0.0417407915942685,0.0177409838675365,0
0.0352393135317003,0.0154772678776561,0
0.0346870630991767,0.0191492215833711,0
0.0318264820088968,0.0393726422939045,0
0.0202994440912247,0.0351462369429924,0
0.0198368354150277,0.043411267695268,0
0.0237790296238629,0.0325641989402514,0
0.0243579938589028,0.0213453286344635,0
0.0213785592495842,0.0198105128323454,0
0.0228515526276954,0.0218811383089057,0
0.0237906668837751,0.0256793312337613,0
0.0251856583853103,0.0276000744996923,0
0.0291377503827587,0.0314256042158073,0
0.0294055510319714,0.0295255296953686,0
0.0306899818563672,0.0286458393177148,0
0.0324030623917166,0.025952984493045,0
0.0240320943970434,0.0277443936430269,0
0.0109342017961235,0.0144575785556644,0
0.0079240092227145,0.0087144457966355,0
0.00882508802298342,0.00991647549145969,0
0.0411349897472633,0.028518148259544,0
0.042891410754922,0.0170909204064069,0
0.0397507254462769,0.0160443591781406,0
0.0417858279707473,0.0169852072516054,0
0.044545362908158,0.0148835505309361,0
0.0450234332696719,0.0148601014002279,0
0.0437491332118405,0.0163534242186067,0
0.0390932431325565,0.0145465930930891,0
0.0413743007805204,0.0155622972146319,0
0.0435397933348755,0.0206719000479489,0
0.0186864934329622,0.00761244730149441,0
0.0280612958615568,0.0170683845143815,0
0.0709548598414473,0.0352492412775359,0
0.078053741093014,0.0230542151315713,0
0.075293622297556,0.0248852765247484,0
0.0748356319237205,0.0269205846239335,0
0.0823607941416954,0.0268786339974494,0
0.0879142102699447,0.0270993022284293,0
0.087761543905623,0.0270300150090062,0
0.0862590078524088,0.0265786320543189,0
0.0828508455977396,0.0313902361168748,0
0.0816762303131114,0.0360356483839391,0
0.0451839618629821,0.0203159053932593,0
0.0312346238078827,0.0256891754155193,0
0.0311405945317675,0.0311083937744421,0
0.0348340771532989,0.0330260722551659,0
0.0464087805678686,0.0427746728344386,0
0.0810460930492625,0.0594987877912806,0
0.106673973080536,0.0385452543341192,0
0.0935073582409437,0.0340357054330895,0
0.0821532046047045,0.0270487644680165,0
0.0833656367295794,0.0212866361430567,0
0.133930323319977,0.0308881013276419,0
0.170504408363484,0.0392073512919546,0
0.146856577605436,0.0285874971463561,0
0.126756987245135,0.0256024792302654,0
0.122460802175946,0.0257144594865648,0
0.129140259581956,0.0236250678750393,0
0.129963240883461,0.0271930532015625,0
0.119500177980252,0.0242568843706082,0
0.0864043532727166,0.0194206175214421,0
0.0792793848071123,0.0166873934551513,1
0.108988667620411,0.0270059032790414,1
0.104337641863595,0.0234591705110964,1
0.100536705547518,0.0273336576371495,1
0.111029071019137,0.0300516863728972,1
0.101249841719519,0.0354708277353695,1
0.0981850355627562,0.0177760873089946,1
0.132009341108759,0.0253554589866912,1
0.128567913454692,0.0220160847544852,1
0.128261689325362,0.0215884145703603,1
0.146923742249273,0.0304544921112225,1
0.14558162141013,0.0278972677752049,1
0.144768650927896,0.0287193714673534,1
0.14314053285691,0.0311074108886118,1
0.143899160827959,0.0271186129204751,1
0.190473682903895,0.0280918241066154,1
0.245020336429766,0.0860084208856269,1
0.164413861671823,0.0281229969245024,1
0.193761969257618,0.0283346316014553,1
0.257131758157639,0.0277154364646314,1
0.255621431285063,0.0260867935811637,1
0.275279722412668,0.0265756237755994,1
0.270302292519788,0.0266992494089532,1
0.274167073013514,0.0247705100296677,1
0.271383068441243,0.0261240472897338,1
0.230853852119979,0.0225431531528096,1
0.165973320106279,0.0152856991342433,1
0.134594762369006,0.018120633303283,1
0.133756059080662,0.0224511915289969,1
0.114266975081989,0.0282694047490852,1
0.131090259602806,0.0303719140198438,1
0.145604125639182,0.0380343302041592,1
0.149851940153631,0.0275111640707248,1
0.138814500888763,0.024829591934594,1
0.138452063264579,0.0201597270351527,1
0.174161340897321,0.024600192077758,1
0.183387456137988,0.0262990239654768,1
0.183741463386528,0.0223587288329852,1
0.18142095341288,0.023392914934212,1
0.184818376404133,0.0233187477832098,1
0.143471891164515,0.0239098049208979,1
0.0797274549341403,0.0112189532392568,1
0.0724968961252695,0.0151899873809539,1
0.0961292840422994,0.0241928656325872,1
0.0965308552666463,0.0202551481429937,1
0.0946456791543652,0.0203590869672702,1
0.0959992306610014,0.0210921632730366,1
0.0984906798041539,0.028089567877416,1
0.0641501401443728,0.0185211366792601,1
0.0589251492284783,0.0146012095239437,1
0.0487901855827856,0.0109194479759375,1
0.0612746502384317,0.00660910339591688,1
0.0912720032005291,0.0114196732127183,1
0.0824334498003659,0.0112291502408279,1
0.142810312470946,0.0229059015223364,1
0.210276458791253,0.036465622701637,1
0.230515103585872,0.0276965505634042,1
0.233991852511684,0.0242006979608312,1
0.228565544737493,0.0223178328546793,1
0.213981567705991,0.0200762672989299,1
0.229629864686046,0.0209075547231271,1
0.231554569054509,0.0209624939893076,1
0.273444974919797,0.0225622610642825,1
0.295960552268452,0.0239633642239161,1
0.282963259699291,0.0304457920426026,1
0.242842246309678,0.0188260894354239,1
0.227260609712002,0.0202449892488155,1
0.206333368952917,0.022926454696233,1
0.198944785191874,0.0238585531151534,1
0.188469853161731,0.0200698673567085,1
0.127734243188427,0.0138775124991678,1
0.0973730913273849,0.0165839403706299,1
0.103336692282366,0.0150651783505506,1
0.11232387708463,0.00776341020660642,1
0.104958478674188,0.00528985144113699,1
0.102467766231148,0.00793049317558689,1
0.146911050619658,0.000986217101582916,1
0.509043664640641,0.0175237912416649,1
0.595726971015407,0.0180674150557758,1
0.677425976249836,0.0225463773940309,1
0.679517370406494,0.0200233340968153,1
0.642032301839389,0.0195235491559582,1
0.637596405245599,0.0193535299245891,1
0.519692121151174,0.0189546251108962,1
0.39461226076247,0.0123765628301743,1
0.286082846614067,0.00744949471379817,1
0.343412723233206,0.0262905351969193,1
0.287822959454657,0.0314956411242057,1
0.295396196239624,0.0372275512824423,1
0.242747934715621,0.0301672692041806,1
0.181897996784534,0.0279815553425377,1
0.142579505374289,0.0247352846622112,1
0.135198695949193,0.0321321361631868,1
0.105879321932923,0.0293492217983526,1
0.144103001989716,0.0448079580150559,1
0.148272557971279,0.0241841810450377,1
0.155729119541736,0.0247149803222332,1
0.167555624006464,0.0213248977338615,1
0.190361672154779,0.0195580552063016,1
0.184748825574945,0.019623706222168,1
0.151624578249955,0.014255047032209,1
0.144422085089591,0.0132353639410396,1
0.145629022398843,0.0127324871096622,1
0.145134613085059,0.0108075149271184,1
0.15187498180034,0.0063641003952526,1
0.179217639442918,0.00850421710363685,1
0.224000039351946,0.011227695286522,1
0.209105316758859,0.00755982203606485,1
0.212951438991756,0.0100089688894606,1
0.205498096637827,0.0104642853957725,1
0.19850102735181,0.0103811548849858,1
0.212795774228469,0.0106705818474421,1
0.214044979906957,0.0100458253004981,1
0.197391834016165,0.0144680629732649,1
0.125695114930878,0.00904144751803635,1
0.126241233705799,0.0177157252689554,1
0.0964463105479657,0.0113259221347783,1
0.0848401912474182,0.0217444528519408,1
0.061233755073399,0.0136582535761972,1
0.0640169703012956,0.00919815483305968,1
0.0716200375425452,0.0107592407228071,1
0.0689488495105128,0.0122463212883867,1
0.0677972376967126,0.014693632007192,1
0.0572051543709884,0.0116910209544789,1
0.0494300874894578,0.0082226600312344,1
0.0552887463984835,0.0124081355454854,1
0.10111946411356,0.0208014095453835,1
0.186831382284927,0.038603902048872,1
0.241657065941543,0.0337227819793662,1
0.230011778872936,0.0417078318153874,1
0.236891352831928,0.0314064339819301,1
0.269457754191533,0.0191093767105319,1
0.262561023037978,0.0167840278026059,1
0.197366464698935,0.0122515573883676,1
0.13353301583958,0.0073150518813614,1
0.133812863114419,0.00657447612790423,1
0.137369420166611,0.00738923330179676,1
0.123665882751626,0.00548537856884907,1
0.114274198008555,0.00682206496465136,1
0.107382765156524,0.00509612957270184,1
0.0877443885810273,0.00752537229096254,1
0.0460128914242406,0.00938757091983277,1
0.0449087199723513,0.0153769800195763,1
0.0677665379203286,0,1
0.16911771111549,0.0064211733567027,1
0.166136843145499,0.00624706129911086,1
0.174044757501664,0.00532103169730396,1
0.1889057755553,0.00410808250755505,1
0.231570877688051,0.00670798889812114,1
0.302154354075908,0.0104782549423887,1
0.305888156883714,0.00957534338786693,1
0.286681800646006,0.00873793434034591,1
0.220304989168277,0.00519622507288119,1
0.193194915333604,0.0099829999122339,1
0.169721092543301,0.0135855113049494,1
0.171551195648735,0.0131055743473602,1
0.16029582957523,0.0180443189526972,1
0.128668379418917,0.0215636927554305,1
0.122684477017803,0.0188576637089973,1
0.0893769278240818,0.0097954392744207,1
0.289371459571668,0.0343872606113867,1
0.318451183111074,0.0176093241301956,1
0.318812372341434,0.0178010839798247,1
0.334097789133308,0.0181280165956293,1
0.316979693280806,0.0169973670036135,1
0.290150127061544,0.0154941577596904,1
0.311856682971763,0.0150729610603885,1
0.290174300001307,0.0133751914091829,1
0.258716589681087,0.0119926343618354,1
0.255378046461539,0.0128470138126412,1
0.193193526810386,0.00668695225268971,1
0.223187929998267,0.00653734343672815,1
0.239113116002219,0.00372335648998866,1
0.22810163101261,0.000913786487046888,1
0.347162229964997,0.00586093734866733,1
0.50659803651567,0.0124375379219955,1
0.612099767542364,0.0156482778407836,1
0.625644639886171,0.0147388012656681,1
0.617952785363285,0.0137764851605759,1
0.645764935408186,0.0152574165015921,1
0.364426589215758,0.00665601519045027,1
0.336379560393757,0.0113942120708235,1
0.241751119616605,0.0170003307874489,1
0.0952857032088026,0.0100365523232978,1
0.101074462016248,0.0104605029136193,1
0.138176811976498,0.0138164526990252,1
0.122809986444486,0.01014236508496,1
0.105956433619811,0.011882288278224,1
0.0740772164417004,0.00889456743297585,1
0.0795422605789004,0.00972255914488194,1
0.0690088504864431,0.00576979808257044,1
0.0686107450688366,0.00538763571453255,1
0.0691126695470704,0.005230452516786,1
0.0538958432467353,0.00193148470804993,1
0.0497722016579649,0.0040348802351887,1
0.0358678900790087,0.00177000306246292,1
0.0402147637712203,0.00778295285785939,1
0.0363923883223892,0.010264742324345,1
0.0368637452223141,0.0132344407452596,1
0.0333027562325015,0.0126287763712546,1
0.0373538319105876,0.0223960953250381,1
0.0490216439655436,0.0382059559179624,1
0.111205029882621,0.0578037149083536,1
0.131224772900956,0.0549779394380679,1
0.202938635580767,0.0520589747734671,1
0.203587487025969,0.0400656411642,1
0.273143131413479,0.0420964322290657,1
0.293449149852089,0.0355843066721807,1
0.221012917792,0.0253883793619457,1
0.165530904197357,0.0160804543178399,1
0.164022998164872,0.0117971002514318,1
0.15138264275261,0.00927104296909186,1
0.161041966635643,0.00664421850107476,1
0.202746781786231,0.010286731167791,1
0.209062916137312,0.0123528701029512,1
0.219809960132237,0.0105936371923139,1
0.21929679425194,0.0115207853608183,1
0.203257727588194,0.0122269237452252,1
0.216248701689928,0.0136825269074945,1
0.204300562666439,0.0108195908746178,1
0.203066778846582,0.0151998505137173,1
0.168173251778406,0.00969129694036232,1
0.187416595445444,0.0175323012985105,1
0.213018047075909,0.0217519114149143,1
0.208124352831269,0.022180744767311,1
0.237014520229338,0.0327119731118761,1
0.254541649399878,0.0363914210285426,1
0.485806956027586,0.0464058319016837,1
0.5972782142941,0.0328415304538474,1
0.497072198078258,0.0353295194108724,1
0.370532592289402,0.0240015572788624,1
0.352853527758434,0.0262304548977949,1
0.41431398383189,0.0319575262094393,1
0.423351439875607,0.0271513698701525,1
0.428682547529518,0.0244276890699412,1
0.443776891123328,0.0229516740551259,1
0.463323867953329,0.0177316598038189,1
0.322275590409641,0.0120694866271469,1
0.302411287434645,0.013254739252239,1
0.474642017843959,0.0223338763097484,1
0.543265578120406,0.0261854074719464,1
0.480688595487482,0.0156189673722699,1
0.430437847312835,0.0119695065716987,1
0.441114791708637,0.0113986622562334,1
0.519969049980368,0.0110127519681435,1
0.528738618570352,0.00943492379018456,1
0.662040435194087,0.0130717001067912,1
0.630377033217365,0.00850275506596039,1
0.586307747188923,0.00874934377352577,1
0.439175229803984,0.00458046179366434,1
0.398555971604082,0.00199944696260529,1
0.497392942120486,0.00543417701594023,1
0.526631759419268,0.006986038066892,1
0.545408740341965,0.00848518179320863,1
0.603638158692891,0.0132387532542611,1
0.55701790088038,0.0148572437095715,1
0.584947058855437,0.0182728045854695,1
0.434382804002019,0.0322495692639765,1
0.244764283058907,0.0210964357853982,1
0.0990024665553738,0.00522282526749442,1
0.0793520383485745,0.0169203717147918,1
0.0769944258371988,0.0270476395770563,1
0.0658625854365342,0.015935538778988,1
0.149565636740629,0.0216834564105818,1
0.163445444019037,0.00986713210557665,1
0.140637283869058,0.0068742552682502,1
0.128308377587685,0.00706540707945996,1
0.131788419388248,0.00692757200445937,1
0.126066242451549,0.00549446682425549,1
0.137082467914202,0.00641756368005126,1
0.138661680636377,0.00544980418249742,1
0.137300803856844,0.00490324325496352,1
0.140422733711433,0.00584209908966335,1
0.120191337830934,0.00282667740896667,1
0.362707808034205,0.0394882396982941,1
0.465918133516799,0.0350986586093722,1
0.460954908641114,0.0297997903732205,1
0.42209828379897,0.0231263631034213,1
0.442071790219028,0.0264012275882815,1
0.352857375103159,0.0193913603997542,1
0.325429622586039,0.0175431198324027,1
0.274563856047044,0.0148493215834462,1
0.253196913183456,0.0131646550776459,1
0.26929248148073,0.0198831105536811,1
0.203919213453576,0.0202342498547272,1
0.140780532296582,0.0186683046588527,1
0.137980328725745,0.0202222456851647,1
0.203306892828836,0.0307434498202641,1
0.258573754694553,0.0206012983216775,1
0.237287765880835,0.0170792723987229,1
0.292508013664687,0.0191485686022155,1
0.319241747715008,0.0131503676286569,1
0.398128814317163,0.0161928324660255,1
0.397040135374494,0.0127823320753336,1
0.418365869163763,0.0146080603910914,1
0.374397197221115,0.0106849024703506,1
0.361337702062343,0.0114875848796593,1
0.330437006286326,0.0118821024415331,1
0.330469300532107,0.0118759309674454,1
0.417836869089428,0.0165748941332668,1
0.355043243110196,0.0157925730289612,1
0.350043863214308,0.0180342080396463,1
0.471949240020264,0.0187173053434968,1
0.60893980574299,0.0197776320616049,1
0.587224049014342,0.0224166566614204,1
0.583734984924512,0.0237709297968566,1
0.586306910723615,0.0236350423494232,1
0.581285626510332,0.0239196921102841,1
0.510449385643009,0.0280513811588304,1
0.405136258710089,0.0194483972369663,1
0.372953313386699,0.0179317665158087,1
0.404134581175377,0.0217070141852329,1
0.376625075497101,0.0234704018838387,1
0.357169876227705,0.0301331755183649,1
0.504850620656932,0.036291273804336,1
0.681003916303173,0.046672519792414,1
0.782446448917316,0.0476140673241408,1
0.775505004319466,0.0467102588762892,1
0.781944940807752,0.040574239447223,1
0.81340946096162,0.0510038167851778,1
0.770410681602026,0.0322879491547084,1
0.552442062929169,0.0252452910448588,1
0.488534967025011,0.0239620918872239,1
0.534203778129393,0.0256026020760457,1
0.518469384999023,0.0252061082725611,1
0.553394195237704,0.0241784650328865,1
0.606959708851548,0.0263818085434679,1
0.644639891359949,0.0295263700681901,1
0.667083154404503,0.0350742458312665,1
0.480641815100501,0.0302206333339231,1
0.2833434650827,0.0291586802761472,1
0.211051944063674,0.0254058017848828,1
0.0841959595926062,0.0106893941486983,1
0.0683522365756642,0.0108401886531552,1
0.0767301067631536,0.0085577735135873,1
0.114378227964766,0.0180056880081588,1
0.110790517652847,0.0246428279110286,1
0.10866725366345,0.0253903991680325,1
0.125640303154936,0.0260396504109045,1
0.121889587062341,0.0204304134365032,1
0.11913153699831,0.0203018061785124,1
0.10711028020076,0.0205773409294446,1
0.0717852624204835,0.0152273678101318,1
0.0586961154028285,0.0111619168668604,1
0.0603579217304951,0.014551364070871,1
0.0491261303006951,0.00922904376876628,1
0.0535510469685306,0.00939069923254789,1
0.120447956246351,0.00972232567281276,1
0.191144756712676,0.0127064253925834,1
0.180172962216981,0.0126364942227109,1
0.177787914563494,0.0102139458808066,1
0.187021638412482,0.0108536461524081,1
0.218797743047829,0.013129164745811,1
0.231994544521532,0.012874551407441,1
0.355063801605014,0.0196257331323842,1
0.320520800449303,0.0176651453087082,1
0.242968644168373,0.0130685610464415,1
0.234286511589488,0.0210558063290455,1
0.233365800658431,0.0295173944876747,1
0.192140635556746,0.0204785576983699,1
0.116664450780177,0.00805007642167541,1
0.130521972677315,0.00784781026627224,1
0.141297077992119,0.00705295524748766,1
0.167605253114063,0.0129348069209528,1
0.133837422463146,0.0018299396796662,1
0.296382463641702,0.0174942937836473,1
0.45224558734737,0.0204660569405947,1
0.453449498293956,0.0212214811940367,1
0.472588962950654,0.0205437289143293,1
0.480704659200389,0.0235313591032594,1
0.509564131754163,0.0292776343266319,1
0.524235016920097,0.0286223401633064,1
0.514480473284419,0.0266871734457732,1
0.634144422117578,0.0268892220965579,1
0.673000039889699,0.0219815706761277,1
0.597164226464867,0.0187870793029506,1
0.487947497790566,0.0168693116235889,1
0.630883769945693,0.0196652338399927,1
0.606628581967154,0.0167226284117496,1
0.543981378616282,0.01394998363744,1
0.464085419735484,0.0114555016800055,1
0.451101338585965,0.00720043581918623,1
0.472419753751365,0.00791766644311752,1
0.419961781200545,0.00668463665542865,1
0.41358694618721,0.0123017477988017,1
0.504066520294096,0.016134974336308,1
0.53912487727304,0.0163952677911251,1
0.495191044528207,0.0159421685079444,1
0.51640177913517,0.0186592445524625,1
0.639091481252053,0.0205219707023165,1
0.729971556099629,0.0222597547210398,1
0.554520363230187,0.0303446379959007,1
0.332468944401571,0.0136477174134146,1
0.371567572922805,0.0196328885068582,1
0.375639069312686,0.0145285685230804,1
0.377438489163345,0.0145124407916057,1
0.381702808841222,0.0131089145001003,1
0.373815752652561,0.014311551427345,1
0.380418542014783,0.0159318989405703,1
0.30608826584861,0.0164457173477983,1
0.234536373658073,0.0128974234232256,1
0.264196304691825,0.0137612085180675,1
0.277749301810919,0.0200545103644957,1
0.126960819792414,0.0089489877655725,1
0.115767241044923,0.0115891187661657,1
0.0833797551884769,0.00892143574780941,1
0.079803845316062,0.0118285908182931,1
0.126304745517403,0.021730422869527,1
0.150541957548816,0.0234719281653309,1
0.153827652922678,0.0243421145733672,1
0.181919643413117,0.0242470689810704,1
0.177452268459283,0.0285006971352567,1
0.205241029354911,0.0428666428436468,1
0.170207052464504,0.0179663902473942,1
0.161501560198515,0.0133820861388785,1
0.102075015507664,0.00374196179377978,1
0.176902270038398,0.0083232672962354,1
0.190170226207882,0.00736750924514006,1
0.207006885811722,0.00738408117583784,1
0.198045309406732,0.00829186177198283,1
0.172371886356522,0.00641925191883464,1
0.169907271116465,0.00628839012372211,1
0.127218181074965,0.00283277522745787,1
0.115395414387717,0.00454979458477475,1
0.130351999401126,0.0089572887836319,1
0.0933692041922694,0.00708406213345038,1
0.0733860632395362,0.0140391398098633,1
0.0741977018417028,0.0205290838667848,1
0.103855190455119,0.0314525409687145,1
0.0879771375118232,0.0198695974038236,1
0.0817854111910003,0.0147020193951069,1
0.16035541240317,0.0228642071518621,1
0.197875766053674,0.0272800711776252,1
0.254038531529403,0.034033856370713,1
0.265869939000272,0.024151098492206,1
0.274523846974272,0.0257821597617358,1
0.23456841210054,0.0222062343438792,1
0.177755714681544,0.0161313039093791,1
0.181807555839006,0.0162273891435869,1
0.272614694698592,0.0236741409932903,1
0.298351903414862,0.0237529139091376,1
0.253282616827043,0.0260873833986405,1
0.211129467685953,0.0223012688072932,1
0.140132975727027,0.0134138585608349,1
0.111718302438894,0.017089344522865,1
0.105925207780963,0.0175636283632051,1
0.119328854348902,0.0167253575540443,1
0.102978001408398,0.0165365676833111,1
0.108792624018961,0.0163008495460936,1
0.114264659547992,0.0182981500744755,1
0.131837238518177,0.0139644222778603,1
0.402414947132184,0.0337106454558719,1
0.450215488347671,0.0229776027170314,1
0.424315951958278,0.0196423134711088,1
0.451064969860646,0.0199265226870129,1
0.381260316303621,0.014092321643232,1
0.355230917620458,0.014101268727546,1
0.320218562462658,0.00921466704253976,1
0.324769186435304,0.0107918228788137,1
0.353145109787123,0.0135265888943261,1
0.385511693052123,0.0205770411932396,1
0.342385472297668,0.0168061095176539,1
0.340737764248072,0.0186089737204136,1
0.288912458919532,0.0179975211682239,1
0.2923327033124,0.0193745263056314,1
0.330062512773507,0.0191065143395444,1
0.372052478834091,0.0190848754523229,1
0.377703791921365,0.0256315041530328,1
0.488084507913793,0.0307367933597531,1
0.589742175389472,0.0351781565482486,1
0.464162102514431,0.0272274768079143,1
0.519714163511821,0.036300692125516,1
0.362467013542775,0.0122761055408998,1
0.687497739421243,0.0202793938721274,1
0.73601541198959,0.00888125846320018,1
0.748944380424232,0.00877752204189675,1
0.762387893973917,0.00545740096401873,1
0.790222543201453,0.00865466193482573,1
0.84711914046067,0.010887407606362,1
0.850333569472122,0.00857764029622803,1
0.803217171652476,0.00826562382934756,1
0.64580661220576,0.00298942754813668,1
0.82756869594454,0.0106539461189846,1
0.624711280536663,0.00543933942305009,1
0.537658494853084,0.00868976158123692,1
0.615623185130727,0.00927417064265983,1
0.72642945402379,0.0148953715699074,1
0.716239476881225,0.0140522650551066,1
0.6475503653854,0.015980903071188,1
0.473242326208627,0.0129903636935573,1
0.438963424950712,0.012770113486582,1
0.322597288280789,0.0131355404649495,1
0.321669004775965,0.0131039326115415,1
0.242815562733206,0.019030163001253,1
0.0880999361053081,0.00217954590707938,1
0.097687393841588,0.0111662855406716,1
0.100330959843259,0.0182345014745413,1
0.112848598988717,0.0234011916673107,1
0.115243274223357,0.0201626966350592,1
0.130323239488591,0.0227290027371441,1
0.141598429028926,0.0199559923456985,1
0.219979165133266,0.0214248596671386,1
0.213001333783399,0.0150175138264675,1
0.198004481317097,0.0138936771014214,1
0.15263854594806,0.011855247497073,1
0.158353504304898,0.0138968175283887,1
0.155498040982317,0.0124501509664648,1
0.156024321976654,0.0121803433659862,1
0.131026182975299,0.0101101604200294,1
0.130865064266528,0.00961233788986369,1
0.203735440083971,0.0107773651722806,1
0.365100174223206,0.0255137367667829,1
0.401224290039033,0.0311765689132817,1
0.344267749737985,0.0283351811549917,1
0.347422684159046,0.0244262729714965,1
0.379878770990458,0.0239881032607645,1
0.425732966712369,0.0098286237805242,1
0.560817391899975,0.0132172501887023,1
0.503651402209716,0.0131972155196468,1
0.43881198974591,0.0094138963121988,1
0.46535982648406,0.0174078867001178,1
0.402565110231704,0.00844197936134493,1
0.508024966079557,0.0156739880169406,1
0.503519461382214,0.0141137437898851,1
0.452131499175451,0.0118887252281733,1
0.368794830067102,0.00880600192745911,1
0.348287774297955,0.0169287093216127,1
0.293912069451074,0.0174049918790311,1
0.30498163289452,0.0136468250909878,1
0.312847956921778,0.0159912092541215,1
0.247783413377372,0.0106827321329475,1
0.309003490843517,0.0176025280312862,1
0.25384195200513,0.00647189369288858,1
0.257245409896933,0.00768137279666781,1
0.264220789948703,0.0100950486558074,1
0.246388324382663,0.00961336166063436,1
0.223646844648972,0.00965582838233671,1
0.270283724930724,0.00548541935880637,1
0.356580368449937,0.00198183693395523,1
0.386430095337812,0.00320076284990501,1
0.387494028775297,0.00353385507826178,1
0.374985161209314,0.00250920512997976,1
0.389615404532717,0.00519450904863247,1
0.387056891563797,0.00544858419005008,1
0.392966950663944,0.00521346064304434,1
0.408612115415321,0.00471522652698928,1
0.407623382109846,0.00312853025023526,1
0.401889614189831,0.00576767420501251,1
0.47833161080741,0.0174319954013126,1
0.473961501055232,0.0118677885627133,1
0.486701467794323,0.00884463197095296,1
0.57569408712464,0.0175810936284295,1
0.497760363483284,0.0127847249465774,1
0.42401620241394,0.00952915754364755,1
0.442149614942947,0.00968812383848117,1
0.31762475986299,0.0060607800842487,1
0.197094978012076,0.0026807095654707,1
0.190970523098912,0.00614281022143483,1
0.171438558377089,0.00391037639882272,1
0.126773320915715,0.00444403760950861,1
0.0837681942442447,0.00530522655178792,1
0.0879306763779472,0.00357453677415469,1
0.1084957857597,0.00779444667796389,1
0.12926146628005,0.0104391461488939,1
0.168245231054865,0.0148337391040708,1
0.154745552806183,0.0143527476404965,1
0.144711651348633,0.014970076572529,1
0.137767523870845,0.0142656059161535,1
0.131630923091387,0.0196497230236563,1
0.127696389548478,0.0156285756813948,1
0.25218714860687,0.0212288720278533,1
0.310484859142968,0.0290250719364791,1
0.387292829125037,0.0339982422228471,1
0.40357424946009,0.0338476109860389,1
0.474189064330932,0.0343696016416623,1
0.579844993621285,0.0321628966479131,1
0.52457837778586,0.0216304814357961,1
0.496697516003792,0.0202144116072669,1
0.371712549786428,0.00921583589179998,1
0.314786092594754,0.00842279252946113,1
0.319269660519923,0.0078220432018128,1
0.331245266777969,0.00890862204983142,1
0.329160261071192,0.00924136821632302,1
0.326676623345304,0.00950118942190704,1
0.301891930931923,0.0117865312955405,1
0.206314553827454,0.00478714620736518,1
0.244663266576235,0.00428605884996848,1
0.309004658956828,0.00596577585619492,1
0.303798333718485,0.00791918563567779,1
0.269613352485939,0.006578969564523,1
0.284515800878324,0.00514422564957764,1
0.295903491237698,0.00552865428027498,1
0.318661129197592,0.00399006153186942,1
0.384822247508136,0.00672743636376359,1
0.378419719157935,0.00586294443335693,1
0.385275324068265,0.00869621123241817,1
0.365566922661523,0.0110421220379108,1
0.282565878793144,0.00887571690929006,1
0.280793750636673,0.00973576288536106,1
0.276845475204605,0.00887189480854448,1
0.256929362428079,0.020331857292579,1
0.136500809502014,0.011883749766313,1
0.137499054889395,0.0233143010143531,1
0.218111759938326,0.0315672545560064,1
0.348778406644645,0.0400448269219207,1
0.376341503734687,0.0463889600413622,1
0.499328527911375,0.0696969895678313,1
0.539674068762336,0.0697832958889096,1
0.510691698443922,0.074315406279184,1
0.446630318300646,0.0494630075157494,1
0.391802100335583,0.0418741076064582,1
0.268781227881247,0.0136736092219742,1
0.343279778800875,0.0152125292771394,1
0.372647094540077,0.0180735587296956,1
0.430078638423323,0.0198964233110822,1
0.447248420142885,0.0171479167649106,1
0.466919072543051,0.0126489019736995,1
0.457845878113377,0.0122308565681117,1
0.484649853278905,0.0122206834024446,1
0.507024175535424,0.0115072788202092,1
0.391985359781725,0.00356189902428692,1
0.383499837981332,0.00559813515578529,1
0.499804379504857,0.0102358412842579,1
0.657409392332555,0.00502485545708171,1
0.786694564349566,0.00416455407635878,1
0.84619978603881,0.00478236247905368,1
0.879625651589995,0.00636521793555183,1
0.945636749886611,0.00738985222949177,1
1,0.00697123687613208,1
0.825700476225853,0.00604058776149752,1
0.716456242668627,0.00727667512702999,1
0.733673185859412,0.00751549197641067,1
0.760254617668053,0.00741101348984642,1
0.522395487160518,0.0153162760442988,1
0.159730669812395,0.00775436965615138,1
0.15252286936835,0.01093195372154,1
0.154859317251741,0.00924166975328169,1
0.188569164559723,0.0126502443354895,1
0.194307153295413,0.0145944045423691,1
0.203180651827645,0.012420145850948,1
0.178582648327806,0.0102485530369394,1
0.181239017497901,0.0107231768953895,1
0.172064836034738,0.0104803039542303,1
0.179958836414854,0.0183282318134169,1
0.203057725577834,0.0192913125938486,1
0.234625533759328,0.0202284835556208,1
0.22348016400793,0.021050351615536,1
0.223254731601619,0.0218547349178326,1
0.223516000510384,0.025330349128004,1
0.185061776521718,0.0246264722303141,1
0.119755583787376,0.0140098715415836,1
0.126624112010503,0.0127357502339373,1
0.2013347468508,0.0216387604880168,1
0.223472551162392,0.0286208955635956,1
0.186248932896472,0.0217408287213852,1
0.142799730575049,0.0153931165199874,1
0.14660762877139,0.0129752799175831,1
0.118942459244695,0.00990907084474251,1
0.0978928830922189,0.00899575920909275,1
0.096143177309174,0.0105609843921728,1
0.0829377750781616,0.012985144156269,1
0.0715977504415377,0.0160237079286226,1
0.0591630371204442,0.0128882703474327,1
0.0605933064966845,0.0111863697025424,1
0.060199945821421,0.0119984441192118,1
0.0964227131649608,0.0134936731532088,1
0.146816127947613,0.0215629453502591,1
0.306860150365501,0.0348825549941543,1
0.536807123846974,0.059085509837457,1
0.568432285226576,0.0448546633452996,1
0.501800377713605,0.0354366695557209,1
0.531924939049581,0.0357269938019605,1
0.53683442965096,0.017160960588862,1
0.540049391353532,0.0179575563163254,1
0.414364386051,0.0124762495849095,1
0.424354821736979,0.0147151052831237,1
0.425204694708899,0.0141772834123788,1
0.400270900826083,0.0132056013192394,1
0.328879756832111,0.00991693123258321,1
0.300221837629175,0.0089016659297044,1
0.302688982814677,0.0093377259719642,1
0.221253645773301,0.0061537633753634,1
0.173520439820116,0.0149578970563232,1
0.118888865813497,0.00969067276350853,1
0.121197182093589,0.0114040807364141,1
0.151314786197737,0.0150021262450444,1
0.162822524500896,0.0108422900296506,1
0.284808522364808,0.013413648744428,1
0.341173780327405,0.0135094906062552,1
0.349817749894221,0.0155133829897709,1
0.367892446967763,0.0143386577191058,1
0.425632855512547,0.0136147552535947,1
0.503083714868686,0.0115097802675395,1
0.5615692130804,0.00687715448587656,1
0.576681546614261,0.00498072854725148,1
0.560286671064962,0.00461576991174994,1
0.565356850976763,0.00558828953019026,1
0.467274379180723,0.00639796569705637,1
0.393782955426158,0.00511204685243728,1
0.362272260290247,0.00433948360550742,1
0.348142724289434,0.00536436770654491,1
0.301894777788685,0.00566224404045123,1
0.130261386675022,0.000373542827995256,1
0.0915388757657175,0.0111192364014383,1
0.0845516243198315,0.0189288581987195,1
0.0674160976288854,0.0129542364154828,1
0.069368572563553,0.0102095997310271,1
0.0777229734363471,0.00973701527256776,1
0.0813885474275437,0.00767886756816194,1
0.137331795983657,0.0142246171845337,1
0.195515408386646,0.0209100544824707,1
0.223827743201426,0.00821345739352796,1
0.267475087302107,0.00751871728170245,1
0.31261338797818,0.0103981163784305,1
0.279610919309678,0.00954066466604651,1
0.340672876591802,0.0130867666996628,1
0.405440175366344,0.0185973296963197,1
0.30870108928312,0.0119312546799386,1
0.275180303243302,0.0111198443821829,1
0.280840611677447,0.0107369555190124,1
0.341856166482676,0.0147949040625948,1
0.322159212991737,0.0194479665719983,1
0.226020013003758,0.0160047678495665,1
0.226019921530432,0.0163076017897283,1
0.226659554468141,0.0165224462378708,1
0.213952395993271,0.0157461192540468,1
0.186798179234065,0.0129745124067363,1
0.206060277139578,0.0160560737646118,1
0.205568330772739,0.015167906530485,1
0.200993059495941,0.0168418373979612,1
0.110187838245202,0.00519340849565508,1
0.0633676106242653,0.00892863784728628,1
0.0439305492390155,0.0102138352213241,1
0.0486548764241487,0.00638715452667183,1
0.0890911848818066,0.0201234569970122,1
0.179900270894397,0.0366476713464837,1
0.355075738628258,0.0511709669780504,1
0.515286276057082,0.0429433657267065,1
0.535605905514137,0.0492620346432359,1
0.503708245622273,0.0430660564866813,1
0.407720433533306,0.0360364880232363,1
0.341066842095278,0.030087422717227,1
0.251130158397338,0.0214538284960017,1
0.201408702809906,0.0227749624673764,1
0.212757358590043,0.0220019241976994,1
0.262727169334108,0.0179887568700489,1
0.241417087335341,0.0155832620876221,1
0.154628028490083,0.011409990263912,1
0.191603511550442,0.0128698408717045,1
0.192395782600792,0.0140540581147356,1
0.186641092936426,0.0152542338877784,1
0.203477155009357,0.0140818830986271,1
0.317647582775804,0.0248899254940283,1
0.271699116643928,0.0172705987931722,1
0.204375758696182,0.0115117335183649,1
0.283319765712896,0.0231142006222293,1
0.287513338198632,0.0162960036342078,1
0.307222357113155,0.0176507563720429,1
0.353726083259402,0.0216326654825653,1
0.467209173278645,0.028323722923407,1
0.53060136454925,0.023287647665741,1
0.524172604281531,0.0300957315986617,1
0.415652081618649,0.0230155077857166,1
0.399585256792254,0.0203875120581694,1
0.517903123011214,0.0257082480277923,1
0.399479865317097,0.00808288331184882,1
0.445335095531906,0.0168235916851442,1
0.467550007448744,0.0175298877178319,1
0.52892239061667,0.0178614163394767,1
0.601878221268939,0.0176808998953872,1
0.586876886495067,0.0197037405616947,1
0.591395827468734,0.0176930212919907,1
0.587077442928297,0.0160520944438319,1
0.569589485636994,0.0178229741169053,1
0.251019209001785,0.00560554968612163,1
0.132731946836189,0.0081918061545261,1
0.126478225946621,0.00735396651343382,1
0.134380446660811,0.00738278251116647,1
0.159016648310227,0.012473677434243,1
0.1570352516029,0.000819696586520823,1
0.506214633758243,0.0143181437034298,1
0.526544623724037,0.00862625943053319,1
0.528516655479771,0.00832537315265405,1
0.543708920670137,0.00857626158278455,1
0.554682395743603,0.00678228748315056,1
0.57863536493016,0.00611006126738791,1
0.577672897595518,0.00658791518348864,1
0.570419557448775,0.00843687346288129,1
0.444431429325441,0.00505775856941844,1
0.393538251041077,0.0115096218633683,1
0.198286197135786,0.00546002044446878,1
0.19092588558766,0.0113735057669646,1
0.177964424500508,0.00919279639597097,1
0.313521400245091,0.012815551610112,1
0.302055687417604,0.0119241477627575,1
0.28672323888501,0.00958964733695326,1
0.322801778497367,0.00365310082200822,1
0.419712201103103,0.00567391799740908,1
0.416392123744518,0.00521801742833838,1
0.448180665875998,0.00353560644523294,1
0.513859109528068,0.0049269504022183,1
0.503809640672727,0.00597469312280597,1
0.471388196723383,0.00567990137214637,1
0.406579280135949,0.00515809110296152,1
0.390442427048254,0.00581508401960565,1
0.324680835290162,0.0052144796068295,1
0.283418727031588,0.00872786010256634,1
0.252114191953501,0.00813435361449231,1
0.290035199663164,0.0109414648472403,1
0.274975945062094,0.0169455492025559,1
0.180201580604521,0.0124128825069931,1
0.184908289790511,0.0109750202039884,1
0.225179503507624,0.0092464294085874,1
0.34188196396867,0.020995825759176,1
0.420790644444171,0.0245233156646397,1
0.441385180163553,0.0244132623512784,1
0.459222496974513,0.0286991144806582,1
0.429706048842668,0.0295579574883458,1
0.291221894242846,0.0206489835065018,1
0.265660560324798,0.022496939940081,1
0.233096279922279,0.0203572884740623,1
0.0901271841411404,0.00496827426783934,1
0.0519444242734328,0.0122767253272673,1
0.0571853929629311,0.0130877079952065,1
0.0566525701320042,0.0121533767129907,1
0.0376643833136095,0.0136066468678942,1
0.0180556921107594,0.00641633379726304,0
0.0351733398461434,0.0111333960182011,0
0.0643346744213048,0.0233506615552246,0
0.070089871517975,0.025328713682801,0
0.0592034615247978,0.0260784447909865,0
0.0739221948249116,0.0340815509400156,0
0.0749019275025904,0.0165993122182863,0
0.0802320920860035,0.0147556071663682,0
0.0714933763527972,0.0135357490203527,0
0.0619665469448018,0.00865286557267975,0
0.0462015564164604,0.00329194324382262,0
0.0456675898406155,0.00617271473875271,0
0.0439835136421715,0.00252532474348887,0
0.0515636248250716,0.00335239027843314,0
0.0540005535313389,0.00352043082751495,0
0.0491266813057308,0.00193824484789858,0
0.0445741934236674,0.00550464900714632,0
0.0397964194739766,0.00665734053260888,0
0.0364404922560652,0.00434912338595259,0
0.0390690795324449,0.00642852527778269,0
0.0417387977272227,0.00760435116600077,0
0.0463483204806151,0.00345299184584298,0
0.0510986132489098,0.00593828830822189,0
0.0453411897749893,0.00597900677534923,0
0.0463526107659283,0.00666138233232365,0
0.0749706255674047,0.01605101486842,0
0.0783371450546433,0.00620969868422316,0
0.0720187145078364,0.00365017979124884,0
0.0770152494729463,0.00407335017729022,0
0.0871400742878411,0.00386679648728896,0
0.0823477667279458,0.00305614386905635,0
0.0791831428798253,0.00405040245194439,0
0.0996633817357409,0.00393315221399033,0
0.137408219702632,0.00802323531239045,0
0.140987294779212,0.00780357525025287,0
0.124584619545268,0.00556683018662242,0
0.132112939632421,0.0110268026734219,0
0.13985387193144,0.014130811526121,0
0.126816883311934,0.0154188556344513,0
0.0915109666643262,0.0113960986264042,0
0.0883863533535816,0.0123044027385459,0
0.034801139383919,0.00180444997620635,0
0.0267694264568305,0.0118815976122127,0
0.0267262078705317,0.0131077369267059,0
0.0137451850971902,0.0075182540342123,0
0.00989220892931188,0.0107383954484452,0
0.0112376213568381,0.00730636760333698,0
0.0178171485309873,0.0147948984981417,0
0.0171833694377675,0.0173020549876288,0
0.0124972391800114,0.0139636171301596,0
0.0127357278468114,0.0136186853470366,0
0.0163429858672717,0.0200387187943906,0
0.0214176925808629,0.0303390803550242,0
0.0268481177025203,0.0439213694617442,0
0.0321001330516638,0.0556254814717054,0
0.0355585822581586,0.0588364709747682,0
0.0348887475857941,0.10718759077547,0
0.0233642004519622,0.0596443838913881,0
0.0208175089222481,0.0600253183296292,0
0.0164647555517876,0.0525927333395978,0
0.0115265285155874,0.0663312418061437,0
0.0113871432175113,0.0804663811605531,0
0.0108140334991708,0.0784460988485386,0
0.00966244549384208,0.0725673512509879,0
0.00824181020009914,0.0636847974941527,0
0.007920636585104,0.0623589800058725,0
0.00820237914860203,0.0727786087374617,0
0.00658323462118879,0.0860056742748087,0
0.0076794571439666,0.0530201026357539,0
0.0086342082575458,0.029662796090114,0
0.00944438529242845,0.0321330096036959,0
0.0105351677997559,0.0355359472401849,0
0.0114517224228948,0.0371970975021731,0
0.0117563873797309,0.0357318880044479,0
0.0117509711167343,0.035745309053608,0
0.0116229437051135,0.0358981203269102,0
0.0116789719843506,0.0343600865174212,0
0.0123939317112452,0.0501845108368063,0
0.00575052283355396,0.0538274906542363,0
0.00122014920606183,0.0773057180352009,0
0.00144535867989363,0.122340240806668,0
0.00160044588405068,0.110665122549343,0
0.00146555535464601,0.0967778932349826,0
0.00153347612318496,0.142364055901213,0
0.00147161952996017,0.153868422023304,0
0.00146853090023916,0.156216537146012,0
0.00145186906976641,0.215730327740797,0
0.00140770022923024,0.195263943485904,0
0.0013375247945851,0.176826704853348,0
0.0013286456823194,0.27202796862439,0
0.000908125152177269,0.263893069061009,0
0.000331876050191111,0.185729809415048,0
0.00038202052446927,0.24217655175723,0
0.000728178812282698,0.376068527771234,0
0.00119836151946699,0.469299212171002,0
0.00155457803699195,0.3329075918001,0
0.00135158883550171,0.177083678902538,0
0.00123872770836012,0.167475069808801,0
0.00126913321902531,0.168445315942827,0
0.00105568827949404,0.125260709125265,0
0.00118732888610365,0.0795854506990618,0
0.00115750929136647,0.0588556602458337,0
0.00108218702254122,0.0570477756914855,0
0.00123951373420455,0.0623250545194788,0
0.0012835581338213,0.0650603355588919,0
0.00106608313894996,0.0614006173727211,0
0.00116221757113139,0.0771284040765865,0
0.001370159014358,0.0920949292951606,0
0.00144080862216865,0.0970820257137194,0
0.00145411904440395,0.115243569237149,0
0.000724875828913581,0.158497588913917,0
0.000378791005552487,0.16993194902446,0
0.000310747426459032,0.132837687040193,0
0.000393442834146682,0.13625108143542,0
0.00273557441767256,0.0715441822439852,0
0.00899686017401334,0.113250089777048,0
0.00995573507223788,0.0859297092746595,0
0.0091202305568222,0.0737014778645235,0
0.00882366329206734,0.070134886622225,0
0.00901347172645582,0.0706141600779019,0
0.00975742051783851,0.0750156485897539,0
0.0104092165719317,0.0796232452210673,0
0.0100944231190238,0.0771405922322672,0
0.0102671213287895,0.0757674409990893,0
0.00957589160208778,0.183683747747317,0
0.00344169615604786,0.119291224883351,0
0.00240398143020233,0.0691633643937363,0
0.00474005377610524,0.106534370953532,0
0.00570641928807636,0.120569396962945,0
0.0055906285313882,0.0812277205058696,0
0.00534096188685261,0.0775313078108611,0
0.00470270905114348,0.0660215229338416,0
0.00500181789236625,0.0704619535697556,0
0.00529382130635099,0.0797595916516209,0
0.00497069135096675,0.0769389458399568,0
0.00486806054348157,0.0815967140301662,0
0.00431078305932985,0.148689071928334,0
0.00220184574550251,0.108825688670453,0
0.000679584676023298,0.0519928635249576,0
0.000428355121860721,0.0881941344792919,0
0.000522839768855445,0.128966569328219,0
0.000405373618054703,0.175090928985318,0
0.00045916840403189,0.263252423897224,0
0.000610198341057579,0.104570527606966,0
0.00124550232658501,0.0933456115002877,0
0.00118370081565808,0.0746969686171306,0
0.00116806932998569,0.0783639485804089,0
0.00115879186454421,0.0769051178460105,0
0.00119293875436222,0.0764297542299592,0
0.00156233714278903,0.0836969995467601,0
0.00146314462673977,0.0684364052429802,0
0.00126196516418192,0.0599000633286181,0
0.00104267787979792,0.0530835450187242,0
0.000951937658800733,0.0818224798334091,0
0.000561052659447943,0.0975506525823968,0
0.000573300946676533,0.128082930652078,0
0.000624920091758825,0.135042376062952,0
0.00073547655561552,0.160913724000963,0
0.000762469069817838,0.207981149652403,0
0.000298763809611845,0.192928406055425,0
0.000210310928476521,0.400158935911577,0
0.000210443480480549,0.402540522751243,0
0.00016845086520402,0.35268152020572,0
0.00010031684019679,0.300327600732213,0
9.92104324943051e-05,0.398198511392987,0
9.31545653446258e-05,0.441466417581501,0
0.000106022161063737,0.589814516312907,0
0.000100784121932236,0.362626900518073,0
0.00023070207956357,0.418754625429508,0
0.000205316465304706,0.206244805434182,0
0.000232030745497756,0.219081428961328,0
0.000314455645522118,0.274905357022763,0
0.000351227777817583,0.289703584336419,0
0.000353553660545152,0.266015867809069,0
0.000425037817608502,0.256964487526886,0
0.000496976416424149,0.215847232462044,0
0.000519447270227528,0.208947463493191,0
0.000541432646017364,0.243297137503041,0
0.00039758257080392,0.230715813917105,0
0.000344573712131233,0.313196886800908,0
0.000321618517470292,0.327262734476384,0
0.000284562600336984,0.292583812663946,0
0.000295904122542344,0.308518431716719,0
0.000316707895999371,0.372248763054759,0
0.000206810040244893,0.306584683722607,0
6.76254214270352e-05,0.214700048725572,0
6.85754006692333e-05,0.244507945472796,0
7.85864053062135e-05,0.271131047668166,0
7.99740146742523e-05,0.280844324612846,0
9.31814993398545e-05,0.214768452577079,0
0.000135322828952701,0.225614890179224,0
0.000135518055922361,0.218682704634909,0
0.000142558944847816,0.226791792544829,0
0.000158604258794961,0.234009310613845,0
0.000160128472271889,0.299457987981033,0
0.000116671777070301,0.317140090410203,0
0.000124127814756612,0.347836758633563,0
0.000128652510287505,0.366269753192634,0
0.000127828115231721,0.344987670851315,0
0.000109575611822606,0.546669030103692,0
3.92898300154963e-05,0.455975349661452,0
3.53232537473252e-05,0.54402864517098,0
3.26902543688798e-05,0.530263910442217,0
2.76987863528695e-05,0.442720819913558,0
2.69383075603919e-05,0.402894888638195,0
3.50071549391623e-05,0.482264561103207,0
3.64916754085161e-05,0.526397092422539,0
3.63447640729858e-05,0.519076497288484,0
3.73681413103493e-05,0.654446890982696,0
2.81992223216761e-05,0.49242734244551,0
2.82328218944494e-05,0.488374740458797,0
2.66623842744891e-05,0.471741734428412,0
2.82962141391681e-05,0.49134705766624,0
2.76652287932483e-05,0.52929912341515,0
2.44166921775863e-05,0.60528878496153,0
2.17065161665408e-05,0.607052350563209,0
1.86776956049422e-05,0.549544246497993,0
1.6588190583671e-05,0.515640155105169,0
3.16695290526e-05,0.398259462027266,0
5.50139299895574e-05,0.35523773188573,0
5.70086744736493e-05,0.341909483886547,0
6.01839167265876e-05,0.35264277169535,0
5.63838917967258e-05,0.341418313386389,0
5.46438789100079e-05,0.334116231889466,0
5.89323321951898e-05,0.317389490749964,0
6.04161603387225e-05,0.2897321453027,0
6.41110118353209e-05,0.300829230172191,0
6.90194099193091e-05,0.320840498570349,0
5.32479219105907e-05,0.42120589792295,0
2.17321650685665e-05,0.433753858581456,0
2.120483202518e-05,0.475098985327627,0
2.14081392697962e-05,0.479365968990309,0
2.19575753051736e-05,0.488113463646454,0
2.32467173028947e-05,0.51465330843069,0
8.11962447436119e-06,0.418440495011277,0
1.29190799087825e-06,0.254127050515135,0
1.97290986702378e-06,0.26615613908203,0
1.66684364679986e-05,0.588738555511708,0
1.90362302429466e-05,0.471872128982091,0
1.95117376443167e-05,0.481992403343524,0
2.26827416613994e-05,0.520594253525732,0
2.49781684184713e-05,0.545995567083419,0
2.53616756740656e-05,0.548222557422448,0
2.5022386369836e-05,0.545495992896097,0
2.55220742499106e-05,0.549359380031485,0
2.55888104869089e-05,0.547633456355121,0
2.5084074917582e-05,0.617854265687722,0
6.88992675819011e-06,0.436127640827003,0
1.54781442875915e-06,0.351248325325203,0
4.77738197894936e-06,0.560106419711346,0
4.44086936213377e-06,0.485460397921477,0
3.80582605497442e-06,0.432941401253267,0
3.69961807966946e-06,0.430812504764621,0
5.88872100698676e-06,0.4929292024639,0
8.31166073609045e-06,0.515190553405019,0
8.1967636770621e-06,0.497515124426549,0
7.88402490256404e-06,0.485850244597873,0
1.76045340555026e-05,0.366948561220532,0
6.4998251946346e-05,0.489521103808558,0
6.71557319560386e-05,0.400306286755188,0
0.00014333475105667,0.168000887232366,0
0.00146649051648603,0.20123414174938,0
0.00208896720683757,0.115779162856318,0
0.00202417888722799,0.104294873736946,0
0.00202043476041501,0.10434671471457,0
0.00197010583184863,0.104106451089848,0
0.00194025713727458,0.108122490990399,0
0.00196116209851717,0.109188340480114,0
0.00198283450815224,0.112680283454695,0
0.00191534426697018,0.10925145026989,0
0.00188778108583168,0.129232561948883,0
0.000885458177669904,0.176246022986664,0
0.000148287485492724,0.236016497561824,0
0.000859209769862015,0.258827886293324,0
0.00143002478305311,0.171456084840931,0
0.00137095415552869,0.140499114972688,0
0.00135634878686043,0.135759525993214,0
0.00138641890475027,0.139353498197202,0
0.00146501269240387,0.146333652546173,0
0.00158863223892163,0.160635532959331,0
0.00169330715863621,0.163046299514413,0
0.00173529202006724,0.165356418059188,0
0.00176423137866779,0.184652222330768,0
0.00104360974373282,0.290101810613841,0
9.69376475160714e-05,0.244636049811194,0
2.89915384261666e-05,0.413693877452848,0
2.81590119157685e-05,0.409837419112628,0
3.35065477611938e-05,0.426295556837157,0
3.37217263948338e-05,0.389150982600177,0
3.02651706958948e-05,0.364930918508079,0
2.59099121702952e-05,0.337267481402622,0
2.64148002600954e-05,0.400018586261379,0
3.00489022665527e-05,0.453945157038854,0
2.42016390741523e-05,0.482414665660131,0
2.22144350596687e-05,0.637184707663648,0
2.15660038160085e-05,0.634974536688129,0
2.1555363539653e-05,0.79415058223408,0
9.35877107574522e-06,0.651223051163032,0
4.50849780570687e-06,0.534423342489121,0
1.42171477916296e-05,0.477782238810917,0
2.61107765410874e-05,0.461199511768079,0
2.57943693818508e-05,0.452300959340991,0
2.53555868225175e-05,0.450446504403258,0
2.41762058396406e-05,0.439520561652383,0
2.4237988089447e-05,0.344839826960271,0
9.99427140961152e-05,0.384802193834695,0
0.000139917786515239,0.320620284434144,0
0.000131925326685685,0.310506767524946,0
0.000124088794214096,0.30476171815289,0
0.00012219627918712,0.326878703561437,0
0.000154165203891747,0.31396714936833,0
0.000265871961625703,0.418533754705764,0
0.000305204520544604,0.340360994267141,0
0.000282696613432726,0.277403885679511,0
0.000264306748914109,0.275690290762306,0
0.000251461775113073,0.315093034900424,0
0.000245237801119957,0.314374115401165,0
0.000267132963214168,0.30771181623265,0
0.000248783049129166,0.270724835553468,0
0.000235849999720008,0.248967320238168,0
0.000234533033302859,0.260752656025755,0
0.000386364266044075,0.121732677640614,0
0.00187587856709924,0.233464493012353,0
0.00237889213114026,0.154656115628281,0
0.00233653285690062,0.149561937818083,0
0.00234811167015274,0.137409025183281,0
0.00230678746248249,0.123967538511634,0
0.00202329133087251,0.101508668152963,0
0.00182761013971095,0.088626021164788,0
0.0019399993771655,0.0911775977087174,0
0.0020511425320292,0.0933900988568997,0
0.00230745755570736,0.144597817392323,0
0.00153722405893576,0.152541248518738,0
0.00113887891301039,0.205170549365951,0
0.00106022835922272,0.226906822145153,0
0.000840276023192099,0.245303678629915,0
0.000621802424584108,0.392510080488061,0
0.00014835048612394,0.331830028459718,0
0.000113054505787187,0.232647231879094,0
0.000271622017842347,0.283443350876499,0
0.000253883148388167,0.212182253181275,0
0.000245953510952215,0.213872790699546,0
0.000262209089012708,0.225044398802102,0
0.000273361802330293,0.232134362836752,0
0.000283656821477014,0.248860666573734,0
0.000296362254322519,0.240580883521876,0
0.000298483563299906,0.238091677931018,0
0.00027540515704983,0.231869004805891,0
0.000257101903026141,0.406799936977769,0
8.55268334009417e-05,0.385001165719718,0
6.93194793095192e-05,0.29087794853014,0
0.000217960173954941,0.440410351928181,0
0.00263298298669588,0.0788814049725906,0
0.00738044465392441,0.0833887035647241,0
0.00725311435431393,0.0636178665227109,0
0.00691805560007945,0.0611544207153329,0
0.00697067919865691,0.061819821362116,0
0.00716956393824164,0.0609741052967061,0
0.00729980337771174,0.0624684277128015,0
0.00728314737586362,0.0632717613689686,0
0.00726855480974861,0.0630954526755493,0
0.00730020679156266,0.0598740420944672,0
0.00812161874855261,0.0635046876266802,0
0.00815286514252608,0.0617646839399793,0
0.00816656032808291,0.0690646614575886,0
0.00806720708346359,0.0667320108582435,0
0.00784654229603894,0.0667296254765796,0
0.00770818908414463,0.0662214129438035,0
0.00751810679148033,0.0626023569653069,0
0.00705687974121467,0.0588526271220042,0
0.00683819952879968,0.0555126924418314,0
0.00730709324523361,0.0613700402241513,0
0.00568371455978667,0.163372080843607,0
0.00116776578012411,0.223835377576249,0
0.000574427438193458,0.258787289798014,0
0.00036654419718685,0.230668261179482,0
0.000338493297842613,0.234882575756023,0
0.000362969314882548,0.267771257618641,0
0.000383075397057051,0.356336738149692,0
0.000173924034378516,0.342060176231509,0
4.18540408781212e-05,0.417221060096742,0
3.95020529602318e-05,0.509786542922804,0
4.04419261296685e-05,0.536251614251146,0
1.82502270601486e-05,0.551070968815721,0
3.5836139104278e-06,0.36236115221225,0
3.24418405310764e-06,0.365770632574616,0
3.63684788422653e-06,0.389163693771319,0
4.11677965244729e-06,0.432088128700567,0
3.63285536165414e-06,0.404103251749408,0
3.8073846156036e-06,0.403816357388861,0
3.86723273266384e-06,0.404511592152807,0
1.40456816784037e-06,0.283628101194958,0
1.05063333342463e-06,0.278124245175878,0
1.5827018956122e-06,0.301187609443017,0
3.14409599362075e-06,0.409639906483429,0
3.43825935315065e-06,0.429717165566078,0
3.89253127046372e-06,0.451320735631173,0
3.35586265006233e-06,0.423079741392221,0
3.36698467722827e-06,0.426547748932832,0
3.30729468239491e-06,0.408976179615418,0
2.84708898025869e-06,0.369906179526628,0
2.88095540020387e-06,0.355269363707518,0
2.42022135085224e-06,0.327802957752014,0
2.07236238210118e-06,0.346772874781538,0
2.57984586619855e-06,0.37504405616122,0
3.3983791960808e-06,0.413962899971887,0
2.97976014886392e-06,0.392703213311002,0
2.92870347484303e-06,0.374745335787464,0
3.40990836888406e-06,0.414989250696115,0
3.02745526146895e-06,0.416653055214318,0
3.22962967873023e-06,0.428295104380928,0
3.14277194276766e-06,0.429978663506597,0
2.84174185181353e-06,0.426481687219175,0
2.92082460839167e-06,0.418515506364895,0
2.39020104401011e-06,0.409127803586938,0
1.56113005171343e-06,0.329405536304787,0
1.99974939631653e-06,0.363566161587971,0
2.21687973183893e-06,0.402052233556653,0
1.98634007130188e-06,0.368806921354639,0
1.95418091308169e-06,0.362995010075245,0
1.51922104133639e-06,0.3321977982146,0
1.47473802517592e-06,0.328070703103134,0
1.56872017322875e-06,0.305987583997203,0
3.33837295679369e-06,0.401566415333635,0
3.40439420633128e-06,0.387440296007621,0
3.25075338234026e-06,0.391061877312183,0
2.93686166509937e-06,0.372275985554302,0
3.39336409884957e-06,0.391193077153691,0
3.25192262109361e-06,0.371033396885771,0
3.42538168547854e-06,0.373484239018854,0
4.20678964794086e-06,0.416501275845697,0
4.34641361127579e-06,0.430189042892925,0
4.09851055155148e-06,0.455400012406567,0
2.82835875319078e-06,0.405769729633637,0
3.06029172262553e-06,0.40664382753801,0
3.32821035724591e-06,0.421110620824825,0
3.36211624409153e-06,0.43233722716585,0
2.51653051827938e-06,0.404397155019076,0
1.46586153733178e-06,0.334651474483632,0
1.70250812780353e-06,0.356180087464874,0
1.65500653032318e-06,0.356443789618051,0
2.29417272813892e-06,0.408258271574885,0
2.66549235025571e-06,0.387968887502892,0
3.03775459472983e-06,0.425712944019862,0
2.01914088493549e-06,0.377446560688669,0
2.10727785772227e-06,0.383291971519725,0
2.06659283050885e-06,0.380029381369191,0
2.08545648116273e-06,0.384531511716385,0
2.08061860304568e-06,0.389722437238989,0
1.8744432605816e-06,0.383570547879876,0
1.74972581822596e-06,0.367689158317751,0
6.6203459304988e-07,0.264857693043534,0
3.57529123231548e-07,0.257118259909125,0
1.0836108569221e-07,0.212184625609839,0
2.88887526130662e-08,0.18561240491929,0
0,0.18570852502224,0
1.40295919142871e-08,0.182007949860283,0
6.0292692596672e-07,0.272318778346621,0
7.07608168788002e-07,0.269474096433822,0
7.15619949575005e-07,0.269859534177621,0
7.01832506191733e-07,0.270717842415545,0
8.05962740157999e-07,0.281293597648629,0
7.77507868824482e-07,0.272048739015826,0
7.96996115005788e-07,0.27441381981225,0
8.17194001519317e-07,0.284743974046608,0
7.56052134000522e-07,0.278731277046652,0
7.427375295469e-07,0.284204151281026,0
1.44830793314697e-07,0.207873985357922,0
4.89491415380017e-09,0.176568900509989,0
1.08317544789156e-07,0.198619290642789,0
6.23814082799347e-07,0.276143262863112,0
9.51854811156479e-07,0.31791829356554,0
1.53595093311548e-06,0.385327017127572,0
1.65588957039213e-06,0.382297560502782,0
1.49871633150018e-06,0.370517999111776,0
1.49984406635178e-06,0.369453706231495,0
1.42294115580311e-06,0.346034203494711,0
8.67797188123028e-07,0.280134625618515,0
6.0985171192837e-07,0.262731781773491,0
5.24614155884685e-07,0.246007169837833,0
5.3126420129432e-07,0.266576034580193,0
6.83538961280175e-07,0.282416352397761,0
4.0737581847285e-07,0.242130309375012,0
2.65141183330862e-07,0.228400823824565,0
3.50336471597314e-07,0.234612213390629,0
1.7499139862222e-07,0.19606372221176,0
1.90066481460118e-07,0.201055708170102,0
2.7745867564204e-07,0.210718763027948,0
6.83571553301175e-07,0.258399865142494,0
5.97522506859645e-07,0.247163965032021,0
8.34034655244777e-07,0.279199899577837,0
9.22377365164116e-07,0.302257954089632,0
8.65982983829131e-07,0.297249094916924,0
7.4314492980939e-07,0.260760853239441,0
7.20972170523448e-07,0.254801536773672,0
5.75264193518581e-07,0.2439477106702,0
5.58031162415313e-07,0.255434951298773,0
4.78389758227237e-07,0.249148737279966,0
4.91649618270585e-07,0.241448591338405,0
8.85193943206782e-07,0.280510702061632,0
8.7433672621146e-07,0.267486966453318,0
1.02942509426013e-06,0.270280178026333,0
9.16248028214975e-07,0.260632397248765,0
9.18869903529253e-07,0.279222976330217,0
9.62536846038929e-07,0.28325704358341,0
1.00533551673918e-06,0.277994487160878,0
1.07698194540108e-06,0.273676916836877,0
1.12723476777905e-06,0.277886022289824,0
1.01844973118869e-06,0.279698002413465,0
5.78716146867679e-07,0.238157992687822,0
4.76479814871658e-07,0.234777749911206,0
2.10197146930337e-07,0.198139998663848,0
1.87070816405007e-07,0.193706790029607,0
1.2003514021382e-07,0.175522063710127,0
6.95039106814736e-07,0.263718976730673,0
8.9938802297705e-07,0.298011946364386,0
8.46124258034125e-07,0.292677331648303,0
9.73070179825572e-07,0.29409409625596,0
1.22624932757428e-06,0.315380458377319,0
1.13152851192051e-06,0.301038282204133,0
1.01638828586049e-06,0.28585925870561,0
1.06661946509952e-06,0.294699864408655,0
1.1015031125751e-06,0.28831355425553,0
1.21711108506149e-06,0.304808531476857,0
2.16501131279503e-06,0.37707440867516,0
4.3309998769697e-06,0.473636769892415,0
4.22510203511456e-06,0.472862090965437,0
4.13228734343892e-06,0.468952839110643,0
4.90353958123289e-06,0.488101392625393,0
6.38856038903402e-06,0.539235647648769,0
6.51286839412585e-06,0.529236332805105,0
5.75707495929201e-06,0.485326420255019,0
5.36767033027303e-06,0.472939513209009,0
5.56194143706719e-06,0.464663164093033,0
5.75920769966614e-06,0.504929028170351,0
4.87457749657257e-06,0.488965520946522,0
4.73896744432382e-06,0.496334208488597,0
3.92769780649657e-06,0.458977109800925,0
4.13329845996538e-06,0.508183974265733,0
4.08987493911254e-06,0.547301878615115,0
3.53124769918818e-06,0.521885545162967,0
2.24855688462357e-06,0.419957930875999,0
1.36122001603609e-06,0.340118743374781,0
5.51532364353128e-07,0.256706402846065,0
1.51770322073346e-06,0.334860701578013,0
1.61523280657191e-06,0.319644962472821,0
2.36528724483311e-06,0.37780284825696,0
5.19254525343967e-06,0.53498035087248,0
5.64619563072729e-06,0.502221607104157,0
4.76992655414582e-06,0.460601476058687,0
4.39793064759329e-06,0.451702092314481,0
4.23512331769629e-06,0.453520510661306,0
3.81853694316406e-06,0.429950373996158,0
4.91646028055771e-06,0.469031767160619,0
4.69626858668788e-06,0.467202031049416,0
5.18163329203408e-06,0.508073735353165,0
4.89627283367591e-06,0.485470607095779,0
2.26132200797315e-06,0.358723372996185,0
1.02305208102899e-06,0.277494953915605,0
1.25373967878635e-06,0.27716737633109,0
1.72389282220672e-06,0.308669833335444,0
1.70365215866564e-06,0.305139901946677,0
1.81159973309142e-06,0.322813139570259,0
2.18603240246395e-06,0.356802816511135,0
2.51172726918464e-06,0.350722247206214,0
2.5559220496594e-06,0.35393101676914,0
2.72945419146642e-06,0.364146684525689,0
2.96543875651162e-06,0.375937760139835,0
2.58858332870311e-06,0.349725040450434,0
2.56984495362995e-06,0.359002329097767,0
2.24037832435411e-06,0.34232006535357,0
2.28375830430389e-06,0.346724819104666,0
2.2780628486343e-06,0.342422306034155,0
1.28280641438909e-06,0.270645847712173,0
1.23960976455743e-06,0.300336263483971,0
1.07216138179518e-06,0.286586997679889,0
9.94039071335861e-07,0.282468607289545,0
1.07041643554591e-06,0.283422559857329,0
1.04146249889085e-06,0.283672347250704,0
1.03658388074755e-06,0.282139246399669,0
1.0795829414519e-06,0.294450069026172,0
1.37487505433406e-06,0.320786727415991,0
1.48821380735838e-06,0.317267865325584,0
1.90237462257782e-06,0.330874909241497,0
1.99801794520095e-06,0.337554010126351,0
1.97208106211478e-06,0.349930183857432,0
2.15145634218654e-06,0.366679342128661,0
2.14781902171801e-06,0.357849583673857,0
2.15807557795132e-06,0.349842915077787,0
2.19577003261292e-06,0.361523042007988,0
2.27835413982198e-06,0.351281474851601,0
2.06022592828165e-06,0.334702268010083,0
1.85836750084896e-06,0.338194386973462,0
7.89342846449778e-07,0.261516131817484,0
8.11851710952271e-07,0.247061218835828,0
7.3664921271169e-06,0.493574784110494,0
1.05969381341231e-05,0.542184996630751,0
1.05388082276699e-05,0.534849597967846,0
1.08541235542031e-05,0.545319782712221,0
9.88102969423721e-06,0.521364982519177,0
9.67207409960681e-06,0.51471055700971,0
9.36940549572198e-06,0.494710184220957,0
8.56240744964692e-06,0.471842110644714,0
8.18832030662202e-06,0.462517378628762,0
6.99202202784523e-06,0.447424690905304,0
4.64039491381338e-06,0.447157897370869,0
4.42480073190573e-06,0.469052723130912,0
8.34958562652551e-06,0.568746026180854,0
7.15489046778163e-06,0.481134834741684,0
6.18350565191694e-06,0.451969147050858,0
6.14344420173029e-06,0.455460054014572,0
5.44854335637964e-06,0.441827215887035,0
5.64395110990615e-06,0.451271132750743,0
6.13194711169769e-06,0.459523900809514,0
6.04538601405126e-06,0.444984070806169,0
6.13500872467031e-06,0.459083102281792,0
5.38160749325274e-06,0.433539316989801,0
4.5666473182977e-06,0.438997450927099,0
5.81508340954194e-06,0.516972522502866,0
7.81484630099217e-06,0.524700485945939,0
8.35357407509527e-06,0.512343247539848,0
7.71241390761982e-06,0.487553828153774,0
7.5900835761772e-06,0.488156179657164,0
9.08003800115707e-06,0.538546927843643,0
1.10839889673057e-05,0.596122472141588,0
1.19466307597321e-05,0.628134492110396,0
1.43354232173346e-05,0.68745797639021,0
1.10514450704626e-05,0.579503214011989,0
9.92449319124082e-06,0.537168180287163,0
5.54199079158796e-06,0.434796523700527,0
5.52367000178385e-06,0.455931084862901,0
5.15293194354176e-06,0.449885298180982,0
5.13447034602193e-06,0.451855429357939,0
4.98527833289729e-06,0.460578070785024,0
5.07136837399023e-06,0.454726724909289,0
5.56610073912203e-06,0.444943689122378,0
4.42615406465268e-06,0.400657098356505,0
4.1830685130323e-06,0.407257276657892,0
3.49141617552467e-06,0.421225320185722,0
4.07896679708441e-06,0.431813871026724,0
3.98291276407165e-06,0.413734024616044,0
4.08551066380063e-06,0.422763331933239,0
4.3177807569526e-06,0.418002895867137,0
4.76123594267144e-06,0.434709150106499,0
4.89041518177683e-06,0.450737047289622,0
4.2516433983402e-06,0.433850023908497,0
5.20059573725161e-06,0.471848612826227,0
5.48412162130276e-06,0.470286261274709,0
5.00771793935516e-06,0.424209783419233,0
4.63813587935788e-06,0.434074759010514,0
5.04331071791264e-06,0.460315418258437,0
4.64780043208477e-06,0.409770030416667,0
6.39650393027705e-06,0.498462739520595,0
6.85827786879869e-06,0.481542824953746,0
7.02828192433256e-06,0.47250532702653,0
6.8713594912272e-06,0.474341291226734,0
5.28025776607798e-06,0.423208391044127,0
5.90839767578946e-06,0.404092761274922,0
0.000199570826834657,0.147115913575912,0
0.00113790449790045,0.203757380600628,0
0.00117722827250581,0.131134148694445,0
0.00116247741534744,0.128057732518762,0
0.00114305518837867,0.130098750273629,0
0.00110907234947985,0.124052611274716,0
0.00104651421402155,0.113904169136239,0
0.00104291304752544,0.112598899752395,0
0.0010380347275482,0.109386528788277,0
0.00105597323535301,0.10697983000631,0
0.0010274732077744,0.188705389838915,0
0.000229454080409107,0.161995667997422,0
0.000121508010308793,0.552784181301031,0
0.00012470494815346,0.575748937032807,0
0.00013873113012755,0.262490316138731,0
0.000341403533354307,0.241265074263006,0
0.000345592675186753,0.184367844999289,0
0.00034282099497658,0.182446125620414,0
0.000334879368260153,0.187660478138093,0
0.000325736901261273,0.190512902631875,0
0.000324311289342124,0.195646327401788,0
0.000324104527852532,0.194598338967511,0
0.000315678040079334,0.192185231242967,0
0.00030758665226254,0.186728753755514,0
0.000300605426087026,0.284797898112749,0
5.55010388772774e-05,0.253342392773441,0
1.61425794866881e-05,0.573836141692054,0
1.49310220310798e-05,0.591422435671331,0
2.13052004269725e-05,0.587819938999103,0
7.32775106118097e-05,1,0
0.000247312787668999,0.367400524378936,0
0.000740901554546855,0.257966269696213,0
0.000727020485745387,0.181358081107041,0
0.000716994995482823,0.177139898211496,0
0.000668120473376895,0.165013579582878,0
0.000579018110923735,0.15114748870981,0
0.000499411105322197,0.134369056002885,0
0.000473720532615348,0.107449098439987,0
0.000456814674223253,0.0871816235996176,0
0.000528426184608656,0.0943982314443126,0
0.000627577611795194,0.138101979850775,0
0.00036373124503846,0.143638544818672,0
0.000372962839502015,0.194002086120008,0
0.000372389938739269,0.148684233935395,0
0.00188658487081533,0.0801354778312301,0
0.00399165357642487,0.0838839153449083,0
0.00407987824924766,0.0817253310010487,0
0.00418617721027174,0.0819012321547636,0
0.00415699394775429,0.0844551585519456,0
0.00395458692938715,0.0805899177640414,0
0.0037463088579439,0.0778884431023181,0
0.00348675744428891,0.0754838421916559,0
0.0031979176076691,0.0731594283558513,0
0.00316946133971656,0.073866628548276,0
0.00258333622186027,0.209105440910852,0
0.00160073394964678,0.0504868221876111,0
0.00570282320899103,0.0857562598336305,0
0.00640584211745453,0.0671364644803764,0
0.00637750913136768,0.0692989665478794,0
0.00625027567360047,0.0671570416328069,0
0.00622302588384076,0.0650315874302131,0
0.00612981669834294,0.0568183724664302,0
0.00660061349140102,0.0560398162201783,0
0.00610973056172142,0.0475929463072556,0
0.00536794043944793,0.0436914832314171,0
0.00510576088415338,0.0775254511980615,0
0.00230835643422538,0.0602193320488559,0
0.00181136828365517,0.0703526075203075,0
0.00204014656978199,0.0743538995261798,0
0.0021647908695315,0.0780610965979289,0
0.00204989514881301,0.0686165353954283,0
0.0021711425999183,0.0694715332452584,0
0.00299481992236383,0.0872801652333073,0
0.00422659221259119,0.1034824326103,0
0.00427275971043635,0.0827114821519149,0
0.00454900932725952,0.0885691648591461,0
0.00468251903152902,0.0933392790152442,0
0.00473407429701402,0.105480234394429,0
0.00455952608876735,0.104708996837059,0
0.0045297494174672,0.103354738134323,0
0.00432479225271299,0.0821352601622548,0
0.00494334316615027,0.104598964427513,0
0.00402737233027302,0.109069472213476,0
0.00317768449809275,0.129168962765569,0
0.00317343667407187,0.15801504421025,0
0.00283245278845045,0.143911285360286,0
0.00250114954379227,0.120621884095475,0
0.00234600071168827,0.0970957617023138,0
0.00216251466213643,0.0422777966042411,0
0.00378970646788542,0.0346699288176116,0
0.00352628416355266,0.0292319000772071,0
0.00450203570702422,0.0281069841797664,0
0.0469977924549815,0.0127486752800605,0
0.117727506272896,0.01952308288236,0
0.114209712384794,0.0144527084583754,0
0.112485166083655,0.0138715085011754,0
0.114181918420574,0.0140136718280144,0
0.120691325048351,0.0150267333437117,0
0.12816970598994,0.0167808865907217,0
0.13530503488153,0.0177509798593623,0
0.140433405756861,0.0186122632757622,0
0.146877140799362,0.0195180499829149,0
0.109815762324983,0.0499780754302666,0
0.0123247711014875,0.0261300207217091,0
0.00173259408108696,0.121452487922321,0
0.000380109465091597,0.124002926585171,0
0.000339689284460189,0.161471590513703,0
0.000505321711107409,0.184576017684001,0
0.000918513504687125,0.161348144886672,0
0.0102453449610471,0.0544897682455716,0
0.0211874011327551,0.0442011125446223,0
0.0200210446140499,0.0329640240652389,0
0.0192385576234743,0.0301467297778114,0
0.0181667838158079,0.02836745176473,0
0.0172850884223552,0.0262156402071675,0
0.0161429666299911,0.0237027684098754,0
0.0153533499166082,0.0225299280603463,0
0.0155047583908609,0.0231832171489292,0
0.016567011262541,0.0252528170386356,0
0.0119188108105041,0.0501863031841132,0
0.00202955553156754,0.0307277549867359,0
0.00189446383911676,0.0624987741193193,0
0.00141685688750801,0.0686623462829311,0
0.000876691036056221,0.0518581765670786,0
0.000905675964922379,0.069815285783611,0
0.000924102259936343,0.0862511259811602,0
0.000890281939622486,0.0950863587372626,0
0.00112944196335202,0.108548781414816,0
0.00116920597060703,0.0728869392586503,0
0.00184901901331972,0.0943002984965198,0
0.00220625509430633,0.103466097075063,0
0.00269239348126902,0.113520210062766,0
0.00280884532228912,0.0981676048635707,0
0.00356149380762579,0.0948133635442556,0
0.00336972517604085,0.0864894341845985,0
0.00305149980572877,0.0676640478525617,0
0.00287796850724029,0.0670513101459898,0
0.00197406237664922,0.0508088689951084,0
0.00182981608685674,0.0280167179540441,0
0.0141423032709072,0.0412967008030677,0
0.0243927508171187,0.0485823308866799,0
0.0319560375587868,0.0563252741295389,0
0.0340898850492389,0.0466566436422034,0
0.0578494349433683,0.0526216777696546,0
0.060845845905838,0.0273656776469802,0
0.0587893071676364,0.0236881618089619,0
0.0593820931860823,0.0237654097415318,0
0.0625706578668325,0.0245750709825185,0
0.0706397966488257,0.0294664864474821,0
0.0782128033758827,0.0424933178504805,0
0.080858055424929,0.0427355678290737,0
0.0777266290236248,0.041650955662239,0
0.0741312320319995,0.0479335281274978,0
0.0296956021747318,0.034953557176095,0
0.00236987091129737,0.0413670422068382,0
0.000552350017698443,0.244019955272045,0
0.000257163999738025,0.168194623557492,0
0.000292171258564254,0.163157262255953,0
0.000398252925783456,0.158680128892696,0
0.000332563832735375,0.134398947790178,0
0.000275642989175065,0.126797661732218,0
0.000316248367600171,0.151999606807062,0
0.000259896162377361,0.147336761921541,0
0.000233420210573991,0.154661826054618,0
0.000201675405665641,0.145550323321887,0
0.000157092088833668,0.0981319267188755,0
0.000250077931396585,0.128071954699892,0
0.000319940974321323,0.142078433930864,0
0.000326323708122728,0.14493109585144,0
0.000339305772112092,0.120422675136042,0
0.000757208558742482,0.164483437028943,0
0.00115636635004544,0.19789130188672,0
0.00158391090070516,0.176023645448412,0
0.00159185929001132,0.135329154374147,0
0.00181565632419296,0.14408115103264,0
0.00214427002460788,0.171417556281864,0
0.00212572364301942,0.165022207826054,0
0.00204138617572717,0.185892186358435,0
0.00223210593471169,0.215127157299564,0
0.0023378004013373,0.267877824386754,0
0.00196264750635522,0.302637827032252,0
0.0013240419745631,0.223833594161502,0
0.000399342674379958,0.121399060464059,0
0.000455963875047207,0.184218867614606,0
0.000453784314961788,0.173553196929381,0
0.000734799166361202,0.0709469395311876,0
0.00203396931237697,0.0936797250090661,0
0.00206499925662799,0.0793862694569525,0
0.00197388809514555,0.0763970761383765,0
0.00186871082799106,0.0628805609378149,0
0.00170098314586786,0.0579352746684297,0
0.00138300107906654,0.051471395357379,0
0.00143868002887457,0.0518793411494789,0
0.00153701872385634,0.0547886662593706,0
0.00140124912144278,0.0499888382751267,0
0.00158336646830888,0.108989339050435,0
0.000756532734923673,0.101028396628336,0
0.000773427308073872,0.130287178802463,0
0.000735623779885377,0.145236637120994,0
0.000632547207509612,0.15920977108388,0
0.000610114287508548,0.181173828411538,0
0.00036713120596606,0.139528111788288,0
0.000281937755074792,0.170787413060687,0
0.000391671997610729,0.0808059625801954,0
0.00129402437693272,0.122251148264599,0
0.0012882053020191,0.0985476101467377,0
0.00124946280712676,0.0920717952356833,0
0.00173020530492537,0.0867349681809297,0
0.00215139385997216,0.0611585226644563,0
0.00207301824661726,0.0525777155327746,0
0.00233894626244507,0.0554139115886564,0
0.0025616701809098,0.0596994447224859,0
0.0026728787828433,0.0649359245248139,0
0.00276429735252242,0.0926147086038654,0
0.00234997494402587,0.102555463886978,0
0.00235304396328062,0.108567039797388,0
0.00297657351773664,0.0854242230270145,0
0.00403959320761195,0.118977120098921,0
0.00347128928767338,0.133782416882801,0
0.00346501738482176,0.147593591619959,0
0.00425511654134083,0.130094627699277,0
0.0197968352834185,0.027572772958016,0
0.0556089393508857,0.0443597143797653,0
0.0557465252536675,0.0284631311078454,0
0.0507434647968663,0.0258134261082057,0
0.0463546365576226,0.0232329611233826,0
0.0448839983092491,0.0227774042683358,0
0.0440148312947795,0.022724101532831,0
0.0420274388070042,0.0215270153467322,0
0.038051159720782,0.0183272960954157,0
0.0362835287162733,0.01749210428609,0
0.0322017998714487,0.0520446598622506,0
0.00616484586333591,0.0201617532549663,0
0.00227328664989849,0.0270921205853033,0
0.00479674420069734,0.0365920650071231,0
0.00729701179472562,0.0283172505511834,0
0.0278275569723125,0.0501734663959403,0
0.0359039377352368,0.0457359522417047,0
0.0335127827357579,0.0375700887284687,0
0.0321702317410113,0.039384694197346,0
0.0313898246387739,0.0374084750634516,0
0.0317527801361672,0.0364900663160204,0
0.0296054011148807,0.0202588164882492,0
0.0277601935120551,0.0105884966057308,0
0.0355742942155679,0.0150956236119377,0
0.041346480339102,0.0209708967803193,0
0.0280458777619569,0.0176211215029924,0
0.0207009880757716,0.0136425041508412,0
0.0195670158739535,0.0142450934141539,0
0.0192486271524322,0.0144311770628377,0
0.0188318052254338,0.0142110228950816,0
0.0190691491771938,0.0109820635886309,0
0.013765845957436,0.0204122355221608,0
0.00478178670783421,0.0239502426021605,0
0.00437900201939843,0.0282612230312103,0
0.0041282539980871,0.0275835248884764,0
0.00428360815635864,0.029163130402872,0
0.00391018253129233,0.030049593692793,0
0.0050234963669181,0.0283080386983851,0
0.00626897486593489,0.0232816031836319,0
0.0056763936150089,0.0229107331635947,0
0.00523988869711963,0.0326870967954744,0
0.00509276497746697,0.0238766861679386,0
0.00563628640969877,0.0219141849771184,0
0.00537952872933941,0.0216720223426958,0
0.005350060529296,0.0217693310068783,0
0.00609542793015121,0.0209563457457584,0
0.00651525835785921,0.0200866864505074,0
0.00512175892311944,0.0198539838611399,0
0.00432959124065561,0.0256303354262774,0
0.00752700614466419,0.0397499566097877,0
0.00941923755994672,0.0358426540027743,0
0.00827318925301921,0.0371346394250372,0
0.0078835846800994,0.040427152318791,0
0.00950292455695701,0.0455149573002393,0
0.00942853831569734,0.0373664369181908,0
0.00755947265582741,0.0368895415497457,0
0.0077342713846805,0.0368796217627756,0
0.00903615215739386,0.0289458842667019,0
0.00817170403342901,0.0254946169649104,0
0.00821234879549212,0.0231079570352988,0
0.00981028925526492,0.0306554607329051,0
0.00774330165517484,0.0224711740326086,0
0.00970619122628941,0.0209634747688973,0
0.00976141476982502,0.0164179514406271,0
0.012613642881598,0.0207684059657922,0
0.0142832359900162,0.0224991607310151,0
0.0144989768217593,0.0211034294408432,0
0.0153690476926689,0.0206697862667981,0
0.0133443532472836,0.0128391866896138,0
0.0110232937418612,0.0110820722383447,0
0.0123730245569161,0.0127602307873662,0
0.0119398825563217,0.012561345351785,0
0.0136889928210144,0.0149235893664419,0
0.0121045523957071,0.0116334239924905,0
0.0110446098298055,0.0103697231437707,0
0.0126335446797857,0.0108853348719602,0
0.0126722338480207,0.00925791146506273,0
0.012003380682077,0.011045409477019,0
0.0129452961604877,0.0126800802589025,0
0.0225550720948917,0.0188426211467197,0
0.022286580248102,0.0169533067667219,0
0.0229333622081871,0.0140528615681477,0
0.0316262153169513,0.0148020722906803,0
0.0573235325634097,0.0120829512870664,0
0.07385748946931,0.00991035865871021,0
0.0660144374293743,0.00902372972151754,0
0.0651236193639923,0.00907819586114499,0
0.0677551792509009,0.00973517451732133,0
0.072216399971301,0.0120613140364346,0
0.0660835768125599,0.0101235829355474,0
0.07311925766521,0.0115506020750216,0
0.08062333214487,0.0140466969476275,0
0.074122224334026,0.0134165604369229,0
0.0449164460555562,0.0224793138683013,0
0.0173467479491982,0.0202802515665506,0
0.0139164178046947,0.0146517847810162,0
0.0124585800626383,0.0152707611326353,0
0.0117287960747337,0.0129064417873136,0
0.0154503313986101,0.0148495446420908,0
0.0165771397952788,0.0151289641286174,0
0.0189904069764255,0.0198522158542212,0
0.0179169624785917,0.0170108335099163,0
0.0152352680101018,0.018443130838003,0
0.0224863940609298,0.037064246010499,0
0.0361192339344075,0.0508866413937083,0
0.0357883723717254,0.0256937926653749,0
0.0330255059637369,0.0229603354419643,0
0.027916318930967,0.0142548602053745,0
0.0344990317867463,0.0147625508990704,0
0.0336441847315985,0.0131892571226938,0
0.0365349387436597,0.0160202506002629,0
0.0378356554106084,0.0168748861215761,0
0.0334612740025124,0.0157963688507354,0
0.0323835927392832,0.020378197904855,0
0.0233737046817369,0.014284612715753,0
0.0200107404999469,0.020402234429076,0
0.0176174415662625,0.0186333600140259,0
0.0158494610619805,0.0253000278825017,0
0.00674708037361485,0.0218679050682186,0
0.0100489897961732,0.0347779587705227,0
0.0091657350728687,0.0176322990604483,0
0.0142845368923864,0.0162939087100783,0
0.0194140861958933,0.0188382918078197,0
0.0185612468387756,0.0177737712049488,0
0.0184611976715002,0.0148550797220235,0
0.0174031020180225,0.0109231225605488,0
0.0159018115190519,0.00927213077765365,0
0.0205820952133256,0.014841333375633,0
0.0286821603942099,0.0207579536776069,0
0.0299750377825546,0.0172236299237666,0
0.045752856862647,0.013794452816874,0
0.0806143026089693,0.0231729227560814,0
0.0841278596677649,0.0271819619763068,0
0.0874024227118176,0.0220057249353759,0
0.0877120858294921,0.0244773859552657,0
0.0887291260828306,0.0263715423384139,0
0.0924608047563377,0.0274029259236423,0
0.0870035671809544,0.0246487197084878,0
0.0863289093131783,0.0232678736731398,0
0.0820016596210635,0.0232669413724353,0
0.0737472122668751,0.0377337156600581,0
0.0378502915713523,0.0294314456496567,0
0.029762777629953,0.0260000293740133,0
0.0174560728359503,0.0170991111151258,0
0.0226740003795174,0.0182066559134619,0
0.0315037890916349,0.0227996126009965,0
0.0344469732561523,0.0231881923243243,0
0.0485093151405202,0.0343740590772819,0
0.048654163755814,0.0368813965048453,0
0.0482692969014021,0.0403561703473679,0
0.0548269071065942,0.0385846787579993,0
0.0635154698630788,0.0407691953497831,0
0.0425347304745814,0.025382628334071,0
0.0268692496348517,0.0162587757448974,0
0.0309799860920799,0.0168997802440487,0
0.0491702300787388,0.0128861122555025,0
0.0772527804644585,0.0251207439715758,0
0.129425703323877,0.0372599484646824,0
0.157640408187727,0.037847948213635,0
0.139994844320386,0.0273421625202235,0
0.133184591101862,0.0327216222760918,0
0.133702939022342,0.0361258433323374,0
0.135692588970226,0.0321750235990899,0
0.112018571763584,0.0231507751565292,0
0.0815312854487417,0.0128688560900594,0
0.0824120898028212,0.0151220282347437,0
0.0782768993167092,0.0132058912468094,0
0.0565207378858388,0.010239965801444,0
0.0330979979078481,0.00309208002563704,0
0.0314062921281179,0.00474831381073649,0
0.0317951783749319,0.0046237639320625,0
0.0401193580232964,0.00639399395720918,0
0.0325484627048811,0.00540126507072463,0
0.0354929336474561,0.00943007589024108,0
0.0408499976614956,0.00819214700700117,0
0.0509373447688534,0.0154202791028049,0
0.0530696871730163,0.0109842396920956,0
0.104470196467855,0.0225778118957046,0
0.179256362494378,0.0378426494211454,0
0.223495175891529,0.0375228694337708,0
0.218222757890898,0.0346662184252164,0
0.222455292608715,0.0332247718759764,0
0.219915076225951,0.0323731533825818,1
0.219184296311693,0.0365082508225221,1
0.178964314540342,0.0493154113522934,1
0.127918122052293,0.0349509476462719,1
0.13305010299658,0.0145774319700791,1
0.20165598262489,0.0274786708562771,1
0.251947695205808,0.035318752113941,1
0.272204312815918,0.0276114979040811,1
0.275569023298563,0.0293312753569622,1
0.27704589217072,0.0296605192755396,1
0.299959271582163,0.0189332021198915,1
0.393465498887363,0.026228473894432,1
0.449929743673181,0.0293843455844869,1
0.520865300249555,0.0354069090544561,1
0.493793154567065,0.0453843674086884,1
0.510040555467982,0.0359213899848754,1
0.514635365322208,0.0345502839041937,1
0.513172831485219,0.0400080862665106,1
0.426824766850044,0.0295172922864856,1
0.266804079410689,0.0184349700150071,1
0.251159586629379,0.0261046917110865,1
0.32542651223781,0.0318438528711549,1
0.393382201067092,0.0358918711855404,1
0.271001597286352,0.0181727165618732,1
0.196744148321096,0.0109452012659611,1
0.185856254200336,0.013020750639692,1
0.194746887539722,0.0133466340053071,1
0.207973071306758,0.0137451799278743,1
0.193664884707678,0.0148850487816795,1
0.236664940169406,0.0121760936020713,1
0.24119158660495,0.0116988495782079,1
0.221924994822972,0.0110796310840241,1
0.174109697811362,0.00629436079851449,1
0.172786133514371,0.00696139397418882,1
0.205257532930752,0.0110859527596465,1
0.243149370825416,0.014605767921684,1
0.239840356006684,0.0149208994876195,1
0.318322393651151,0.021422789077363,1
0.422299020073953,0.029120716277414,1
0.367449172780814,0.041031528027238,1
0.330123682276258,0.0400336816675739,1
0.313519529105337,0.0357027093557893,1
0.245747020223639,0.0424329882807657,1
0.0830785340288366,0.0393882774974364,1
0.105997698108713,0.0269184937560157,1
0.0973274827172612,0.018166281258476,1
0.0797088077477226,0.013961579133109,1
0.0821419737632201,0.0182552181507648,1
0.0886621760016891,0.0194113100731709,1
0.0945036551359924,0.0198767310550817,1
0.0923297844021141,0.0204273876263323,1
0.0938659264283597,0.0188634471824436,1
0.094725533680834,0.017302416265407,1
0.0934187242500217,0.0206890651936902,1
0.0438191334152301,0.0162853915372759,1
0.0423898872657437,0.0257042547241749,1
0.0430025181502277,0.0233664370167821,1
0.045205564731684,0.0251315387271127,1
0.0381304891187522,0.0231872404806289,1
0.026815331887582,0.0140257902178743,1
0.0301255713728916,0.00861558066945072,1
0.0349691694507391,0.0135533951073115,1
0.0367047968467764,0.0114318242819317,1
0.0949928016951982,0.0194138185920216,1
0.104887373649156,0.0201813975690114,1
0.117712785312552,0.025571573167888,1
0.117901219520671,0.0233473150463239,1
0.114276495584858,0.0231004988655787,1
0.109732796844277,0.0218157486860109,1
0.0839089397255033,0.0157967837367107,1
0.0502493790655791,0.00589026585973531,1
0.0661054886419081,0.0104197302288503,1
0.0834863228709687,0.0181136953672028,1
0.0661786290849932,0.022844782237973,1
0.0650431720765071,0.0252080027589973,1
0.0561226957746683,0.0125684584632978,1
0.0965236184283796,0.0220156093266514,1
0.143044226540012,0.0314998613498889,1
0.17905993365957,0.0399158167698508,1
0.215607053819779,0.0500861472344713,1
0.221233546744498,0.066368544958378,1
0.191884496061471,0.0500202961039116,1
0.146737457663176,0.0277559207164786,1
0.195932281003913,0.0256143298864822,1
0.164090619022397,0.014616505345374,1
0.168845601605295,0.0122108285414871,1
0.297215444315802,0.0247960135976061,1
0.3124875425107,0.0247782726917878,1
0.30944844195895,0.023368473764471,1
0.354277818365732,0.0258187471598467,1
0.404413941344638,0.0283358577466547,1
0.341104600647495,0.0119690827378856,1
0.339045889819147,0.0105515537255405,1
0.341036760507288,0.011668985013288,1
0.31173783403445,0.011810937717414,1
0.314544588763195,0.0145776171971858,1
0.279508096352622,0.0114835082879764,1
0.280613597957457,0.0114433933986806,1
0.268635230369968,0.011680674605757,1
0.251981596433013,0.0111389866631701,1
0.203976652084537,0.00759433345648266,1
0.165054143555628,0.0150955378253044,1
0.161633990307621,0.0213063854379242,1
0.155989728005024,0.0175950757011501,1
0.190934279985278,0.0164200961576157,1
0.218521976332722,0.0196040440375163,1
0.331437365390271,0.0296646502984101,1
0.302798517532935,0.0228445122062527,1
0.252469451562924,0.0155285040195516,1
0.245534819862373,0.0132415088777103,1
0.241995581777786,0.0121537312352459,1
0.273433237934157,0.0140659092516236,1
0.276426175881703,0.0127546668760063,1
0.138280059878253,0.00447432005802351,1
0.146743955981779,0.000367657117811333,1
0.450902897229507,0.0131376916798646,1
0.426853129877317,0.00920298941165092,1
0.431319586544593,0.010172560747997,1
0.461853517158433,0.0116962046347514,1
0.458390479447596,0.0116581212695364,1
0.483023338490403,0.0124431398951954,1
0.460365361964005,0.0121189976116998,1
0.458407565326743,0.0145071278019132,1
0.474549431787602,0.0158669170933494,1
0.439140473005673,0.0304894111990567,1
0.0896617427447158,0.0111721848212572,1
0.0581177999035639,0.0154317778700227,1
0.0509263694006895,0.00916870619671241,1
0.0611119780638264,0.0117091473918742,1
0.0568062530422247,0.0133101348052646,1
0.0589933050771537,0.0166705375552777,1
0.124308744274796,0.0317654544569259,1
0.187107049024773,0.0363823203844503,1
0.184305811874632,0.0291706090911856,1
0.190276156110101,0.0285163527745116,1
0.170361675288125,0.0337140065110136,1
0.114669065625562,0.0188325466282188,1
0.0923855320846751,0.017318480945502,1
0.150876114618054,0.0238187799138167,1
0.185227697277498,0.0212133358914582,1
0.185081839815152,0.0204937595765407,1
0.174797185482372,0.0191692988451823,1
0.139481226683614,0.0144442651912254,1
0.153282233269015,0.0201257550631233,1
0.165886911447626,0.0236359026043947,1
0.178307663030847,0.0243819440455748,1
0.178983819622339,0.024235787002762,1
0.183202701359484,0.0276422495482151,1
0.132125035660167,0.0274670808364432,1
0.0776114410438885,0.0194121872247679,1
0.138035195163854,0.0193867619956804,1
0.151092227429917,0.0150985815567356,1
0.144451985768439,0.0154350232516102,1
0.143848335218126,0.0142850595027664,1
0.150704016943011,0.0127137606262621,1
0.167977371710478,0.0122246498382716,1
0.173467531511903,0.01173094141306,1
0.174068674643713,0.00921037044270759,1
0.153635715034872,0.0058881830551391,1
0.139389492380004,0.00463039544951804,1
0.127026365513416,0.00357832329779608,1
0.135575518114807,0.00227830611808417,1
0.162665700559605,0.00468776267647628,1
0.17161553312852,0.00564157708600456,1
0.162972147951917,0.00559448521522239,1
0.151427665505115,0.00517155741307585,1
0.150772093750688,0.00593452259809815,1
0.135076298867254,0.00747771346717826,1
0.112051553666635,0.00575432461137121,1
0.189410168167192,0.00617339365962809,1
0.260559444595776,0.0112080451964362,1
0.271738426534333,0.021382083049861,1
0.247918092866312,0.0191319957768698,1
0.22351656372928,0.0180901557356878,1
0.311033484436546,0.0246378366700583,1
0.289207676182037,0.0176911257314074,1
0.221691952079945,0.0108315035378177,1
0.215785727224313,0.0103590807574567,1
0.19506094353068,0.00806560309573212,1
0.225766408902907,0.0135350934130694,1
0.222498121197872,0.0104649671092013,1
0.31348073815655,0.0113204062776953,1
0.326142785199081,0.00784217825676506,1
0.326601543291976,0.0075188653978082,1
0.253982163865632,0.00410912393213675,1
0.289830545378352,0.00183950050131456,1
0.417613951684356,0.00631715480798349,1
0.436196981543721,0.00425225362736311,1
0.447141124304992,0.00342818281417098,1
0.473851985808925,0.0058854122112588,1
0.374583190167188,0.00356815119919989,1
0.410211135590695,0.00682370725438634,1
0.449030950473684,0.00963380690336735,1
0.435689987494257,0.00902463385340993,1
0.406039295083896,0.00792757272042449,1
0.387438310342292,0.0153032601530524,1
0.252452588422486,0.0055295681384161,1
0.294594421492429,0.0122845372242118,1
0.334438147201201,0.0154993961537609,1
0.309713174784628,0.0146466075738384,1
0.344034860322847,0.0180968874172714,1
0.292039411944244,0.0199631298142686,1
0.188116721898107,0.0132761609284166,1
0.154113423139892,0.0101936831908337,1
0.164144293098732,0.0117731135406788,1
0.130998548597909,0.0169589392582714,1
0.13135783290765,0.0263497802443533,1
0.167658344228122,0.0356102645451663,1
0.182582967277005,0.0755237766729544,1
0.123499693569743,0.0841328381754872,1
0.104943666368848,0.0620346146510584,1
0.0878439105680345,0.0534737459930938,1
0.0678596918870495,0.0492223192745813,1
0.0410546985376196,0.033691186889536,1
0.0258217558386118,0.0216654880960977,1
0.0243817929926286,0.0444975161086605,1
0.0190931110693615,0.0361174248886212,1
0.0232473178849776,0.0129872699772378,1
0.0863407202990021,0.0336124412743186,1
0.110489602566913,0.0247151062697403,1
0.293714582548641,0.0336748728393463,1
0.315965098581986,0.0219547018188373,1
0.311339617694228,0.0204534937340284,1
0.331531980809695,0.0216269236244941,1
0.300365289837292,0.0200295925965061,1
0.266045091698843,0.0172817478694469,1
0.230896985556822,0.0124070421388293,1
0.295380162995928,0.0138488094736316,1
0.296218821138976,0.00900099933925211,1
0.286975407985658,0.00994616815436449,1
0.311830817940079,0.0118852495508233,1
0.304402011579893,0.0138134751526679,1
0.273799598024619,0.011500206968477,1
0.278018494801709,0.0119641557178007,1
0.282773339777019,0.0102065548569274,1
0.32374786543873,0.0122890969044336,1
0.317393759231092,0.0122694116061117,1
0.19680796667186,0.00660248861787282,1
0.221424586590739,0.0138313762397692,1
0.197118849015282,0.00679164674075781,1
0.142016292993367,0.00459759003498545,1
0.146474648744498,0.00830799237819847,1
0.15214508243792,0.0106340904944778,1
0.172370730323903,0.0128925836734299,1
0.194357369897616,0.0206367459229461,1
0.157505371805973,0.0180323125417886,1
0.138500914010042,0.0176113782953233,1
0.189680374961313,0.0191734770199633,1
0.150219612356845,0.00808321566359735,1
0.154442108945061,0.0145131293492065,1
0.1774613325468,0.0173485020743839,1
0.188716035246892,0.0105044545951758,1
0.233738105879559,0.0144344380987862,1
0.297131422254483,0.0182111620361559,1
0.283674152497047,0.0172840897990947,1
0.278506311388244,0.0135873826278643,1
0.302342472065036,0.0138548149068277,1
0.281480750488391,0.0158141657395689,1
0.279779944309813,0.0259397105642411,1
0.209681833442102,0.0185734338734484,1
0.129379117760031,0.00933253399105939,1
0.103594737200891,0.00849075190654077,1
0.115263088204381,0.0108084671066696,1
0.10939006779241,0.0122064751377267,1
0.109505090972375,0.0104666433432997,1
0.108020998615513,0.0187525790614361,1
0.0909482531009745,0.0269677751666677,1
0.0886494878869195,0.0300066256550439,1
0.089675587480798,0.0337881335898319,1
0.184392862662556,0.0362882651961547,1
0.230163394000972,0.0253686441237335,1
0.2280279455245,0.0291147176681689,1
0.237089360027273,0.0301931178120032,1
0.248342052653938,0.0243291489282595,1
0.241619370758653,0.0239375691324746,1
0.266048444140859,0.0209985583634315,1
0.297710213343902,0.0198172395079833,1
0.29738212432741,0.0183812584881432,1
0.310210540476331,0.0179832860609524,1
0.251384619966763,0.0187454477048028,1
0.340790590364556,0.0284273573852506,1
0.476098331950028,0.0280186951962694,1
0.45502425463806,0.0262640573610044,1
0.432965932482476,0.0288593743043956,1
0.445183971616552,0.0292572463872951,1
0.451408728590195,0.0362011176499122,1
0.558115298125518,0.0442348618943798,1
0.589097848477604,0.0232353136092757,1
0.606492055285958,0.0177837071045508,1
0.659853841929793,0.0198832297389222,1
0.502974104248704,0.0159612104818114,1
0.328683564561903,0.00966204335752269,1
0.312131097030408,0.00719245802697114,1
0.323086638380985,0.00543129093991206,1
0.332871210504356,0.00595092918785165,1
0.326498331780485,0.0053964498953208,1
0.267454692243033,0.000757521825515345,1
0.249993905125803,0.00747878067921386,1
0.244623191853711,0.0128838457930538,1
0.25119164714963,0.0133946792685719,1
0.291835143932681,0.0186652110860743,1
0.292364318418124,0.0203479469803728,1
0.360004105921173,0.0276610018029991,1
0.409234291617424,0.0343226606699897,1
0.35183966703269,0.0334705972483302,1
0.28265012540534,0.0332558498649022,1
0.116307602491023,0.0246678388347518,1
0.131096783289714,0.0316547729763718,1
0.130026192131654,0.0303867727495033,1
0.0926713903759689,0.0242485141577617,1
0.0799586884800776,0.0308442695310371,1
0.0654345409866555,0.0210293284802906,1
0.0637951802521936,0.029081823216524,1
0.0645537435950464,0.0471798371656889,1
0.0427529785822366,0.0227491309374633,1
0.0360481689453632,0.00709628058462894,1
0.0696990767679653,0.0210490735668921,1
0.0691377218427305,0.0155417460366644,1
0.128518182540568,0.0225936678475583,1
0.125461624755675,0.010136342182855,1
0.107633927149719,0.00608505697914261,1
0.102199236432732,0.00568180398830984,1
0.102180250720885,0.00452211506098172,1
0.111243479285362,0.006144945763467,1
0.109512843027346,0.00297418368833935,1
0.161958301395554,0.00931824240294358,1
0.244439144332247,0.0139988455115148,1
0.247087803378533,0.0145587435836572,1
0.2906315630157,0.0188671728182883,1
0.288246017263194,0.033384143781804,1
0.32503190438023,0.0358954786202618,1
0.331203829596169,0.0266112671270016,1
0.283402752315268,0.0240637565110331,1
0.191231367542945,0.00748709723428928,1
0.210785001898989,0.00852268619696528,1
0.232306899957846,0.00641187853617595,1
0.245839977181523,0.00635303923792413,1
0.236105107366921,0.00381061196909965,1
0.249988104705747,0.00414881362968238,1
0.25275908018578,0.0037072040158951,1
0.231075135399311,0.0032357285975713,1
0.266597025930964,0.0059448432951779,1
0.321159183953809,0.00843951031050449,1
0.314049008431337,0.0127255632223477,1
0.186655037512054,0.00606957419424547,1
0.186349815148906,0.00668902749614567,1
0.175580069232679,0.010153113925755,1
0.177867384573119,0.0149112735249455,1
0.197661000886486,0.00942427888096073,1
0.268479801353936,0.0163931844130063,1
0.29341921081065,0.0184067504837077,1
0.309531650079359,0.0179192854940382,1
0.297108592286514,0.0135039861411226,1
0.304534069432866,0.00948879706193955,1
0.319134723439946,0.010989368001365,1
0.326805344019766,0.0165707857470271,1
0.266546090501298,0.0123063827333859,1
0.209496969826617,0.00698788571216829,1
0.212451096922599,0.00763590294799306,1
0.306989817686417,0.0112926444479118,1
0.309937762541215,0.0113223269608375,1
0.319391096972413,0.010519455272399,1
0.274354382413698,0.00965463986309204,1
0.276915057407432,0.0154286855011326,1
0.292668317535249,0.0162216586752415,1
0.321750423173525,0.0180107767886456,1
0.337734509967726,0.0210169608627324,1
0.378733293050773,0.0240991969395092,1
0.400237751567079,0.0343798380048933,1
0.213606407083644,0.0102783475355497,1
0.337741968682287,0.0160337437031283,1
0.311052772414689,0.0140678123383003,1
0.301381926410187,0.0134471142338782,1
0.301828454985802,0.0138883162093907,1
0.301558140583013,0.0149472332461456,1
0.301855526860557,0.0150041622242204,1
0.314813114631217,0.0153369988132994,1
0.289094938916798,0.0157200967910397,1
0.26028715647443,0.0137641779076473,1
0.253461421293514,0.0262328454892357,1
0.0863388026071482,0.00853626703788573,1
0.052480969461485,0.0107554098954209,1
0.0531812453910868,0.010393501324388,1
0.0731489955051541,0.0138285185192987,1
0.0709378480286866,0.0110469696357908,1
0.095757344829822,0.00355347494833699,1
0.222232526694922,0.0138914323730961,1
0.219628120758899,0.0128206724362908,1
0.22784571405489,0.0127548586302753,1
0.271863856429355,0.0136008322895259,1
0.277535743517867,0.0113818581513199,1
0.281017645909571,0.0119601634939544,1
0.311243897067405,0.0134722919972001,1
0.278176447632577,0.0107866059668367,1
0.2423005345102,0.00854698774709992,1
0.223543106060081,0.0151593645887666,1
0.145300907743889,0.0106047476573489,1
0.160107617447105,0.00986057196667726,1
0.170178111727618,0.0117375400244066,1
0.0968746776191308,0.009753586071649,1
0.073068166728827,0.0063818245492963,1
0.163861648170643,0.0170168980785107,1
0.168852986831214,0.0092450206316014,1
0.167036357110411,0.00866111298514739,1
0.204867279326182,0.0111220541039258,1
0.214432066173857,0.0133662646381895,1
0.214342767128487,0.0133874894855536,1
0.22097484882981,0.0162957804823197,1
0.231375745561172,0.0196439062745489,1
0.190220752080101,0.0104212880745967,1
0.225139120361968,0.0177678640361478,1
0.215136792313745,0.0182193952911894,1
0.192643583315205,0.0315323068922993,1
0.166675770199441,0.0378588727471367,1
0.267912279399079,0.0484632026481308,1
0.347762106418351,0.0443019423458796,1
0.308088206928024,0.0404201874454181,1
0.30346773647913,0.0385543111543156,1
0.198201247405991,0.0221345276039162,1
0.234528745873422,0.00890763160347643,1
0.556817513430668,0.0186999568155789,1
0.562837956828084,0.01474362749803,1
0.628267288750679,0.0145303876339161,1
0.66214568381918,0.00809686386588179,1
0.710844589782257,0.00908021858868196,1
0.670154573235594,0.00834520838000009,1
0.654885772107341,0.00868215765305903,1
0.593937467949417,0.00702099589934661,1
0.564753429957031,0.00644728183370289,1
0.525373804486075,0.0107228781542269,1
0.282324430697251,0.00191036418993697,1
0.335743598265837,0.00572884071071456,1
0.271773239630268,0.00494964519391924,1
0.241266561527112,0.0148861016992618,1
0.221941674409731,0.0197275130813496,1
0.23160441589234,0.0276752235105202,1
0.254346274207818,0.028216431745371,1
0.289379871384884,0.03187144304329,1
0.281359953206427,0.0314135346553364,1
0.144629213584437,0.0207286824324181,1
0.0575221118324952,0.050106435858699,1
0.0543271581796272,0.042538001174477,1
0.0538836954142264,0.0412136773107426,1
0.0407728109762941,0.0225282338169343,1
0.0291200663022742,0.0111196647311622,1
0.0313536366688029,0.00960288657783178,1
0.0291253626077912,0.00702485612375827,1
0.0233552474596959,0.00166284993934777,1
0.0577770443861596,0.0116763502224181,1
0.155622465158612,0.0294331306091661,1
0.241467308466052,0.0222201975197948,1
0.240351931032752,0.0175617475142198,1
0.272745229863293,0.0161289812724402,1
0.252357895690206,0.0139822308552665,1
0.234853220595453,0.0150738672307164,1
0.21513559664108,0.0112878012384532,1
0.197714563550817,0.00966707548998277,1
0.148114473431981,0.0059729073972893,1
0.157448636573208,0.00667132271718318,1
0.153186223188634,0.00496181032122612,1
0.133349420707589,0.00555511564000517,1
0.123635224732241,0.00538534607448518,1
0.129281870314915,0.00893264650398621,1
0.118331271884501,0.00708444800829391,1
0.110604705772766,0.0053691850247679,1
0.106254208355796,0.00979674803639506,1
0.100560864521854,0.00702707384252457,1
0.118541513687593,0.0091769838523499,1
0.187708861605098,0.0197894819590443,1
0.192888760885761,0.0216564157535027,1
0.187606449769398,0.0250397749762858,1
0.18734871032952,0.0307563577308406,1
0.195027239628046,0.0376946812290575,1
0.183642922805619,0.0515122221212065,1
0.14822165791516,0.0391155038660381,1
0.0923858535020936,0.0275464646004949,1
0.0491230029875553,0.0169716238025628,1
0.0569667415285068,0.00826210342465207,1
0.0807365791857296,0.0149700589851074,1
0.104252316349834,0.0185661283396011,1
0.156553374885456,0.0160953913805063,1
0.180586180894649,0.0157456910335854,1
0.185578770522285,0.0107938515145027,1
0.193290674060499,0.0115641562543399,1
0.189011926772873,0.00627080772125283,1
0.227955518802116,0.00780807326433478,1
0.22054111303493,0.00867151712655078,1
0.225750937568315,0.00810490064703552,1
0.237295701894595,0.00719303860242327,1
0.231406534796543,0.00646011568465166,1
0.223370997362315,0.00746309015435869,1
0.189785733318648,0.00520998496081443,1
0.314265386443202,0.0132006363711711,1
0.429527604360416,0.016079031618071,1
0.418178262508052,0.0200828477592542,1
0.323205654623328,0.0152106460386393,1
0.247188239901469,0.00953304630482066,1
0.207995203510621,0.00976937904141948,1
0.186358274278861,0.0111973481261834,1
0.138551834505433,0.00869240390639065,1
0.1346652690771,0.0107696468058634,1
0.109301890910948,0.0137020524481602,1
0.098127293474108,0.0184252648620633,1
0.0566462359987625,0.00738361704336307,1
0.168428414072972,0.0205052408692113,1
0.170765363455901,0.00815873536829695,1
0.185539831751113,0.00898872729419657,1
0.178215266443112,0.00853063278527364,1
0.195363451812631,0.00895008628152974,1
0.189529814174971,0.00618669099015638,1
0.192980026714716,0.0060214802830349,1
0.193753049842008,0.00570923197419115,1
0.20448740931085,0.00665189947542795,1
0.207227253042143,0.00802117645617734,1
0.104516093974672,0.00218968451417984,1
0.0751173206905231,0.00779017352222757,1
0.117101523250173,0.00586589264217464,1
0.21634524012007,0.016264505156079,1
0.342493970140499,0.030257873985668,1
0.44103312009017,0.0276017017697397,1
0.443294140173809,0.0284236749512592,1
0.443799275209278,0.030868310571786,1
0.385798150736401,0.0267334056526887,1
0.367214121926246,0.0218405013420193,1
0.405958586522475,0.0252471844816307,1
0.477825619829337,0.0277395148342469,1
0.69557663885481,0.074603343449839,1
0.814776760876584,0.08003963204289,1
0.746485119688601,0.0987452452766007,1
0.565661923806446,0.121206734060856,1
0.516624128362011,0.131961647067407,1
0.347964344757987,0.100965232643176,1
0.153508522549349,0.0566600280969375,1
0.0585692361762794,0.0665072974489355,1
0.0161021164427112,0.0209346863955695,0
0.000452196410564824,0.0705884490646943,0
0.000430456534427789,0.171852965081338,0
0.000601704047621693,0.136351596784376,0
0.00411659299794303,0.0585637021241239,0
0.0208458149995477,0.102402215631228,0
0.045033923098203,0.137354647493793,0
0.0501822563910989,0.0795533003994343,0
0.048812648556704,0.0758739899726883,0
0.0457536265132925,0.0737199828989659,0
0.0411825240263927,0.0693473288777136,0
0.0332076101299314,0.0515438523206468,0
0.0252571594853866,0.0394295054807841,0
0.0191687829762215,0.0174846396178602,0
0.0337181827405235,0.0264835704894078,0
0.0352850625383201,0.0148535999898065,0
0.030097347727688,0.0102398365664682,0
0.0565424827424441,0.0071239037307458,0
0.111028453875215,0.0129895729284079,0
0.107381991820434,0.0106882422564624,0
0.111738996844478,0.0087035258046141,0
0.116056463724736,0.00954740150092953,0
0.0944108228802729,0.00549756349271983,0
0.0865294767953579,0.00498159442767802,0
0.0959529246384098,0.004682081208135,0
0.0924247160405288,0.00566097458431323,0
0.0704351115917993,0.00240447994033612,0
0.0641981774994247,0.00742900621288206,0
0.0588042711218677,0.0106766135006938,0
0.0420815023778508,0.00743503191384086,0
0.0398222942488928,0.0116173971142264,0
0.0427077368928306,0.00868525533923755,0
0.0429372958698955,0.0081830740758572,0
0.0324970378472016,0.00400338276524637,0
0.0341350448855665,0.00759930480794946,0
0.0302098980532434,0.00695320680596841,0
0.030716054895422,0.00730170918676803,0
0.0335718989521356,0.00645336244317043,0
0.0407255678017121,0.00838209127798368,0
0.0535322261580513,0.00878340107872831,0
0.0530598897059538,0.00922741104936759,0
0.0495872142152072,0.010303605585635,0
0.0520997805947451,0.012190923278109,0
0.047147625979911,0.0114258543843044,0
0.0456675662378812,0.011838018201421,0
0.0471110235155658,0.0121500423079326,0
0.0451835372136471,0.00733058650280881,0
0.0465440280239534,0.00897822867697044,0
0.0386469624078036,0.00862208251114891,0
0.029629808704718,0.00993039643638757,0
0.0258728194710292,0.00558543038693828,0
0.103413370177602,0.0178381813171212,0
0.13810590949127,0.0109805077429975,0
0.131388279012696,0.0110173905843944,0
0.131610587049079,0.0110692543501356,0
0.129268557633391,0.00812622995043143,0
0.143159331280745,0.0126252445096956,0
0.175595809981065,0.0162113127179742,0
0.201950388884604,0.0173134645545085,0
0.213337500303506,0.0174340863582508,0
0.265767538076533,0.0231959478587324,0
0.209572915352914,0.0324510333775617,0
0.156266354591093,0.0506907585032917,0
0.150301140192046,0.0512802586337512,0
0.10248223500029,0.0377325615705453,0
0.0744629266884969,0.0469831402664627,0
0.063962116129245,0.0402702093813462,0
0.0543849548390313,0.0420676179519409,0
0.0396249000430053,0.0640436778831836,0
0.00592643744700351,0.0298894898487149,0
0.00152249601390046,0.129390746012588,0
0.00215365867772901,0.0360762590912875,0
0.010182583858778,0.0545165007788258,0
0.0110682958427374,0.0294788162528602,0
0.0110087700263905,0.0310720956669858,0
0.0107313591622248,0.030061652704209,0
0.0109186594478461,0.0279817766400489,0
0.0130705971752013,0.0316732165782291,0
0.0130003522571683,0.0304518202998426,0
0.0113351198417405,0.0244279761419945,0
0.0107559830907679,0.0187300561191502,0
0.0223995131683363,0.0304652543092671,0
0.036438323772429,0.0279473338168159,0
0.0359088347016694,0.0256183794090847,0
0.0344225969230817,0.0241232433249337,0
0.0328653094082609,0.0235899593809454,0
0.0337689103891805,0.025345753071707,0
0.0343840838207635,0.0245652748509725,0
0.0344838832751036,0.0238254808008059,0
0.0357975976061616,0.0239298904644538,0
0.0362359481595296,0.0282633042450504,0
0.0252502203271076,0.0339716814723298,0
0.00553510903829753,0.00745432671175465,0
0.00724248262699827,0.013817354158161,0
0.00843700376472002,0.0148993873960963,0
0.00970712325445753,0.0170052268896827,0
0.0101342552374917,0.0183477367704346,0
0.0101647834667917,0.0211592791455731,0
0.00940953588287092,0.0214243727333478,0
0.00962980777475555,0.0237218730152693,0
0.00950206441049119,0.0246457505866163,0
0.0114410434231443,0.0156798177990671,0
0.0273366074367639,0.0375277443583537,0
0.0298397172228213,0.0299493642632464,0
0.0283869669707312,0.0299304313956305,0
0.0277779755781591,0.0284237526397272,0
0.0293530759735666,0.0292791409195872,0
0.0294144111283206,0.0290622483245585,0
0.0299682743617259,0.0207968944443584,0
0.0353782848034033,0.0226236946400778,0
0.0340529877027274,0.0167802121363425,0
0.0353269317495109,0.0255885184368452,0
0.0235484519426963,0.0219262183690379,0
0.0207950356632555,0.0350851821134741,0
0.0214454485529721,0.0355405286997311,0
0.021095248437988,0.0372902520807822,0
0.0205325627777349,0.0357063690719968,0
0.0220201857223076,0.040562274973918,0
0.0210050958096255,0.101660519883822,0
0.00649098020799726,0.0791496884582942,0
0.00235982799448858,0.166039616104715,0
0.00205330569374481,0.184606741307002,0
0.00171611755636898,0.19003280924244,0
0.00172308649840808,0.240862279447262,0
0.00146546265784578,0.335291887475191,0
0.000511986701995673,0.20520807434767,0
0.000228952366985853,0.273836036595356,0
0.000205637860316281,0.258094640728351,0
0.000204724502538303,0.283109721859154,0
0.000194891980720195,0.267339844328718,0
0.000200487662028501,0.269698894008732,0
0.000226275435345476,0.347105808735083,0
0.000174002875241188,0.382969805203369,0
0.000127646777300885,0.416863159882119,0
0.000134001549185274,0.429558310697353,0
0.00012613977317492,0.61811383223898,0
4.47694519008998e-05,0.529275434689414,0
2.95081382550126e-05,0.478673055665103,0
3.03654512520057e-05,0.465612923670012,0
0.000238423135449258,0.0725344198991125,0
0.00440102978620407,0.091381497199335,0
0.0128893346121404,0.130391692869216,0
0.0141552105593792,0.070670867012194,0
0.0138423289842143,0.0625850182772151,0
0.0135827361267491,0.0628683487339841,0
0.0132341290460951,0.0624264201278984,0
0.0130174559358873,0.0628407057854894,0
0.0126951629937635,0.0635649609381367,0
0.0122181142902578,0.0612610596288014,0
0.0123104962961191,0.0734673673748036,0
0.0106186986135099,0.143160584572091,0
0.00281035846797404,0.0828077893816745,0
0.000185219385912127,0.0625672806033194,0
0.000169077864392996,0.163430671817685,0
0.000200337607090695,0.201276520678109,0
0.000235203102847586,0.230730422814523,0
0.000235679557454566,0.169513820534739,0
0.000369782801129487,0.184115147527515,0
0.000407035957789752,0.180209582320756,0
0.000412063639615095,0.167652040011751,0
0.000450501922875063,0.192054702595357,0
0.000411466468236336,0.224511169179348,0
0.000445030536076715,0.300090562577798,0
0.000482384176229346,0.32657176746271,0
0.000509743759850542,0.344668092107871,0
0.000538039216734473,0.349340937702867,0
0.00053157135562972,0.482104357675783,0
0.0002931284518466,0.5637351106298,0
0.000158990787942003,0.488822170490925,0
0.00010899775961892,0.563932260378052,0
0.000129462866075618,0.747938516566546,0
0.000126124927509355,0.660778838581857,0
0.000115941499623157,0.57809942344374,0
0.000108849172595185,0.552597186855569,0
0.000105650422583225,0.532330907615735,0
9.97196280780056e-05,0.513792559950267,0
0.000105762976072244,0.958805158136787,0
8.25066502341582e-05,0.73439964621083,0
0.000290478233441435,0.131013075504128,0
0.00331719080423187,0.145897320348602,0
0.0053127700629197,0.0887765939091402,0
0.00531161964605848,0.0883601437891125,0
0.00510007114099934,0.0824411686344844,0
0.00481945208430206,0.0775123901697918,0
0.00441705727104261,0.0738314460712299,0
0.0039581677559159,0.0682928180659965,0
0.00349276638427548,0.061429806052719,0
0.00310813028697399,0.056096751627503,0
0.00308094384413573,0.0617666543056451,0
0.0037564906152344,0.0244942042353607,0
0.0196524411702231,0.0740754996652851,0
0.0304662955319338,0.0718026403851541,0
0.0302274224834954,0.057108328524079,0
0.0300187746392779,0.0495615931655284,0
0.0314376051366175,0.0507111776697413,0
0.0306950805997472,0.0470785550538942,0
0.0289964410086118,0.0433039555733208,0
0.0266468543037956,0.0365315041784803,0
0.0252571428519978,0.0346057768886366,0
0.0250783125555858,0.0522496712035136,0
0.0156213851186287,0.0559165013236704,0
0.00678336747654631,0.0349102464485177,0
0.00567195007386492,0.0402408318333024,0
0.00652009593348156,0.0588289812938296,0
0.00671972226172711,0.0614626746048259,0
0.00755467838787146,0.0832310484480411,0
0.00668060791937468,0.119683841910835,0
0.00450727062725208,0.138236874441454,0
0.00462769788843617,0.184140902785495,0
0.00387153400963616,0.386179631006451,0
0.0013428343732027,0.218386574588234,0
0.000285763249905189,0.248320680532398,0
0.000178479650316206,0.269170747215145,0
0.000176094383907875,0.28387190992585,0
0.000175385634763727,0.290429348959202,0
0.000192195211742537,0.213311955058685,0
0.000203279851022512,0.182905534133517,0
0.000206060250871428,0.200719028551375,0
0.00022107465347723,0.221620724929559,0
0.000322905408326938,0.120905654756682,0
0.000484433499362728,0.090343772429044,0
0.000505719160873112,0.0892020586356577,0
0.000478664185844926,0.0870160492600283,0
0.000465915018581244,0.0889528041512601,0
0.000436549464816348,0.0828809985945502,0
0.000449320754168909,0.0973961006708256,0
0.000449039348803224,0.0917365269003751,0
0.00043410532423221,0.0854925643293321,0
0.000696561980199426,0.0511952336189109,0
0.00303040201303005,0.100416008340696,0
0.00329327614121274,0.0691332573138054,0
0.00315221068778806,0.0663132466918318,0
0.00320036225241106,0.06378225707902,0
0.00402035895817979,0.0664355808283706,0
0.00698459799603281,0.0878985200178787,0
0.011536083784467,0.101127347341457,0
0.0212504871767097,0.124883182025784,0
0.0213263208354783,0.0620905997950392,0
0.0201190644103652,0.0567434205322793,0
0.0226177155267245,0.0642243107223526,0
0.0236616487918436,0.0768726298871521,0
0.0227852630371001,0.0741941267815942,0
0.0225481157708026,0.0739865211477334,0
0.0236330247984761,0.0808424589052563,0
0.023037537713489,0.0819198956883561,0
0.019959226480683,0.0922662178618548,0
0.00779860497990385,0.0620907709257903,0
