Activity,Complexity,Tag
0.00302144645060025,0.00214637008409005,1
1.94094843826447e-05,0.315628477517444,1
3.82052901758169e-06,0.691837792330917,1
1.47983154539989e-06,0.523111186229026,1
7.62760735985981e-07,0.419380530947438,1
4.63341641565629e-07,0.345257561346543,1
2.97801503425341e-07,0.27581753635867,1
2.65824618920842e-07,0.254867584978853,1
2.16077204865166e-07,0.231086380267617,1
1.9808409042763e-07,0.219428887589422,1
1.8871387400165e-07,0.223244232748952,1
9.1915060219654e-08,0.173825828908083,1
1.27843288525289e-08,0.111410601934243,1
1.41736141159426e-08,0.115653179290477,1
2.05562291313057e-08,0.114138553519971,1
1.7639830240683e-08,0.110736477712745,0
9.38482658459375e-10,0.0946410507687238,0
0,0.0975902988250217,0
7.06603598909805e-09,0.105850733269934,0
6.58689319695211e-09,0.107595098030033,0
8.03453108181932e-09,0.10491244955713,0
1.72314499035123e-08,0.112254447826632,0
1.95789327382144e-08,0.11279962585251,0
1.09012906383548e-08,0.108804929208008,0
2.17955402364136e-08,0.134838573737323,0
1.89439189165147e-08,0.124469602752767,0
1.87802147296315e-08,0.121495865129348,0
1.86981866101826e-08,0.127117770288876,0
1.94128522002313e-08,0.12805265072904,0
1.87910403290867e-08,0.125799862541917,0
3.98470072954043e-08,0.156335218949003,0
5.56325795741234e-08,0.171206468367746,0
5.68782276154978e-08,0.170512460960282,0
6.14330765830107e-08,0.159013371664104,0
3.67514139292472e-08,0.136862946226459,0
3.01944451535535e-08,0.135255488085691,0
2.93333259253468e-08,0.128614664625754,0
5.01286863877071e-08,0.144541249364828,0
8.49972381287876e-08,0.162144642419521,0
9.169045103421e-08,0.166976497515341,0
8.57060068475885e-08,0.157802169786317,0
1.11662361833947e-07,0.172792291297582,0
4.35187601876866e-07,0.254815691430086,0
1.47213894483745e-06,0.409304799958186,0
2.09010359156434e-06,0.345391088515405,0
1.28160542838819e-05,0.529729462256626,0
2.03444148362748e-05,0.454038725521653,0
1.96705506665335e-05,0.437109355198829,0
1.85291752391764e-05,0.42253287889629,0
1.77676158806909e-05,0.408754198914552,0
1.65526674791113e-05,0.392079179287566,0
1.35386692964379e-05,0.351137520868179,0
1.09369260473972e-05,0.316029344584016,0
9.68411726804169e-06,0.298639130976221,0
7.47674471028168e-06,0.273506936882739,0
5.68308968624977e-06,0.323700894498797,0
5.85100133477477e-06,0.254482146507884,0
1.74349183654673e-05,0.392513612213737,0
1.8092859134566e-05,0.392241908656816,0
1.88578055854859e-05,0.402273314451231,0
3.74573996768711e-05,0.284143271183382,0
6.57698986816004e-05,0.24122539418134,0
6.53834007535007e-05,0.204970521855063,1
7.12315874324171e-05,0.20483433830451,1
6.41702949921665e-05,0.184799004762418,1
4.75673797450736e-05,0.128081002215467,1
4.63784213194477e-05,0.126464032792187,1
4.72145771553757e-05,0.126986135620882,1
4.50291499359843e-05,0.0928852357158158,1
8.78901888590035e-05,0.107714209858254,1
8.93670322749147e-05,0.0861751296516042,1
0.000101441022256657,0.103022046209697,1
0.000114603456117253,0.119404192726171,1
0.000120116522018915,0.123576686378634,1
0.000124469053382509,0.11526060015199,1
0.000173325851179866,0.104122912472951,1
0.000202460896129696,0.0964105696116646,1
0.000204579197943477,0.0922899243128612,1
0.000218070252292926,0.103530403667355,1
0.000175381873936072,0.0911556064838614,1
0.000199088700776289,0.128232129795307,1
0.000189253626068664,0.112161670502414,1
0.000160167325800739,0.0956628211474368,1
0.000146389502025826,0.0785718752928066,1
0.000124596244142625,0.0619472882863239,1
0.00011120755771778,0.0721969819525183,1
9.57313025638903e-05,0.0718545896964302,1
0.000133426004661599,0.0777295104247148,1
0.000163241585518903,0.0615429911108239,1
0.000171338014121926,0.0562184919178785,1
0.000232748087186224,0.0501683710869711,1
0.000278815631790417,0.0498326923882631,1
0.000275358006879007,0.0510212055730496,1
0.000276767428813563,0.0533529472281949,1
0.000286851715421621,0.0567279658593325,1
0.00025611310206058,0.0418549823378183,1
0.000253833088586307,0.0271576347096155,1
0.000310022738106117,0.0337779183446753,1
0.000332559012680172,0.0422664413300968,1
0.000284625888825323,0.0409339013557731,1
0.000276160498445123,0.0446506633108241,1
0.000304152463683792,0.0366473164777553,1
0.000540978636300912,0.0381355479644014,1
0.000602009311358106,0.0370575216443951,1
0.000737846900309237,0.0383686958209631,1
0.000716034005668753,0.041046583103537,1
0.000766884962322081,0.0491797791774248,1
0.000691628982671806,0.0366917681251537,1
0.000682825608011276,0.0353619295544953,1
0.00067437193075366,0.0354455432088191,1
0.000631855860822944,0.0349953333496079,1
0.00049722152211302,0.0364820964590893,1
0.000413010414373026,0.0450655418261585,1
0.000404343161680175,0.0510275132615289,1
0.000354749148657117,0.0576460569984889,1
0.000357950011208532,0.0654853228924139,1
0.000302905386311238,0.0648436538991124,1
0.000436267062708497,0.137525253959351,1
0.000466832939900203,0.133431707805639,1
0.000387709883267,0.108474410293215,1
0.000381867780751004,0.111006033722535,1
0.000429717814433488,0.097535476996616,1
0.00043849646307281,0.0800180569684539,1
0.000435206001435355,0.0787491791781779,1
0.000394472658130028,0.0520112574315127,1
0.000970218195025318,0.0503841410146381,1
0.000941848605153557,0.0291937563270342,1
0.00101259216241674,0.022723851984662,1
0.0012639996704456,0.0250373287702211,1
0.00135822586298526,0.0234977690204604,1
0.00137173977079125,0.0190430869079914,1
0.00163359568270558,0.0114226013418656,1
0.00294122075517494,0.0140520201023874,1
0.00281664106337388,0.00943363347141902,1
0.00393097851929859,0.0116836939549063,1
0.00397906994827062,0.0113262617892383,1
0.00363044453106747,0.0112977742285211,1
0.00317615618659179,0.00820083976234508,1
0.00352616387486202,0.00994527693156723,1
0.00502211336475979,0.0119737500261639,1
0.00620673186045989,0.0108550208983285,1
0.00554582577484308,0.0124532372577104,1
0.00553131905755998,0.0137213454517164,1
0.00534015996756379,0.0154235433579582,1
0.00551593088185961,0.0179070696893377,1
0.00580224288622827,0.0199840639838407,1
0.00626935932631091,0.021290446983341,1
0.00604635238758695,0.0231348341069302,1
0.00588321092812542,0.0211337598978234,1
0.00417233749679426,0.0249786067608708,1
0.00157105091413687,0.0204250116726457,1
0.00129105421472668,0.017286928626956,1
0.00122207958338586,0.0207808971815771,1
0.000817227373855142,0.0186099991021918,1
0.00125969745004333,0.00514488237928201,1
0.00448282363683085,0.0163169165783111,1
0.00428882710572987,0.0120390129458192,1
0.00427946058232952,0.0130127067187691,1
0.00448072575535413,0.0124112673656378,1
0.00454177844704022,0.0088420165504166,1
0.00538603302173652,0.00893881328002385,1
0.00542134727370469,0.00878775261151682,1
0.00540424493535708,0.00685924315672888,1
0.00601417960945966,0.0082265070925115,1
0.00575972061023663,0.00930141111286584,1
0.00511759325096154,0.00874723147087046,1
0.0053244463120306,0.00838488645317825,1
0.00576122766041951,0.00759525371448923,1
0.00539194669598706,0.00798155157320954,1
0.00499416124142366,0.0103334129387574,1
0.00437956723327616,0.0109016520404602,1
0.00413935879758616,0.0109786271768633,1
0.00408182999122528,0.0143275927905703,1
0.00314463977274467,0.0091675121742797,1
0.00331955262485595,0.0120983143510366,1
0.00211739122842826,0.00581958460466748,1
0.00215410534376673,0.00822007788181464,1
0.00401597584262397,0.0134881338936814,1
0.00707410365663568,0.0205546679001152,1
0.00696915212306978,0.017283586312204,1
0.00671707141968199,0.0162197687873424,1
0.00678691650147768,0.0143932930281378,1
0.00661058974660182,0.0141010301461496,1
0.00616816231790669,0.0147228357991272,1
0.00576190281635611,0.0163947852838157,1
0.005174361127873,0.0176144330979481,1
0.00511311427835657,0.0176220626954111,1
0.00439848589096439,0.0275901505769148,1
0.00239122410610925,0.0148159911854734,1
0.0032716777591846,0.0292133174078153,1
0.00334112918653883,0.0212400412250648,1
0.00344265102673613,0.0201343129137394,1
0.00407581565122163,0.0177420697706959,1
0.00388129663206834,0.0147647920171779,1
0.00393506812668783,0.0157554790563623,1
0.00359380170758219,0.0151791709150507,1
0.00405230413016535,0.00602832091520006,1
0.0227598278814871,0.0197526560119492,1
0.0254101129534604,0.0116491207419865,1
0.0298902796470466,0.0108859292653495,1
0.0348321140546958,0.0136556084162674,1
0.0361258722630988,0.0149427555888327,1
0.0418004621099746,0.0178589032144159,1
0.0398084492222657,0.0167713293409678,1
0.0312526338194672,0.0125691849108572,1
0.0254658298511644,0.00946154124043313,1
0.0165032840832303,0.00687924359921424,1
0.0199323911704514,0.0101694054125599,1
0.0281986704364838,0.0238039523004539,1
0.0246250556896184,0.0166753403177763,1
0.02434874955588,0.0133892234839231,1
0.0272301811551731,0.00775713915022909,1
0.0394024224133669,0.0104136577052409,1
0.039598814288774,0.010019098613366,1
0.0429844614823368,0.0104281701080167,1
0.0438074809987424,0.009497269147083,1
0.0458140848476692,0.00882231003382974,1
0.0433010079037567,0.00904231922618464,1
0.0260298312244329,0.0042211996437903,1
0.0256215504722156,0.00543990738734047,1
0.0208626031614924,0.00434965836065465,1
0.0197977824040957,0.0100915853769981,1
0.0122578690338029,0.00708822900037212,1
0.0143561939376455,0.00906423089323229,1
0.0105245520223131,0.00741788908199215,1
0.00894936464468812,0.00982080648246916,1
0.00814852157973352,0.0141427706069976,1
0.00831375050961357,0.0138147607927756,1
0.0109883093841483,0.0104837043389869,1
0.0201035821588506,0.0198158915008855,1
0.0296122822854415,0.0284218165561191,1
0.0349670960329766,0.0320820017625234,1
0.0413352889164817,0.034638886025293,1
0.046599560235592,0.0402984336587395,1
0.0537437843149603,0.0499666265948011,1
0.0547650665552743,0.0584182579091906,1
0.0422681352235043,0.0421053419387558,1
0.0215374055036463,0.030799130467635,1
0.00732107464460383,0.0414852815257536,1
0.00495752476684442,0.0322068987811817,1
0.00339993273592779,0.0210963996999204,1
0.00292317218022325,0.0240183975815394,1
0.00298199077165063,0.019513545099254,1
0.00365796772875091,0.0232523188616479,1
0.0028996989124348,0.0245251448027647,1
0.00116460372767231,0.0108632897759043,1
0.00136652741495875,0.0105681488279426,1
0.00354109337105764,0.0194959707277791,1
0.00356489900015165,0.0150183301567375,1
0.005365737763483,0.0140667812321,1
0.00639163609608502,0.0103711140806782,1
0.00651801358515411,0.00982663120587793,1
0.00965301451812838,0.00962442195515207,1
0.0124179928032003,0.00867225589224088,1
0.0129382972511177,0.00518871737297686,1
0.0189400181069638,0.00645853180962042,1
0.0190298188384527,0.0053803977433639,1
0.019936080116948,0.00597224441197472,1
0.0190133927117577,0.0058343341111789,1
0.0193365182246379,0.00586677705245922,1
0.0231136254603042,0.00810703889807772,1
0.0206463083782726,0.00542552620785378,1
0.0198300809761287,0.00686540900452688,1
0.0190996751390899,0.00744987501600029,1
0.0195491746635575,0.012284963625327,1
0.0115660852511318,0.00945062830649447,1
0.0107489541054141,0.014161580199215,1
0.00993866291386654,0.0129758116503356,1
0.00929637916270095,0.0118049536829419,1
0.00932264529388796,0.00755986370445234,1
0.0172145395833989,0.0141206399186369,1
0.0217352221070653,0.0244869514657596,1
0.0293786704948773,0.0271634709662125,1
0.0566658874567638,0.0437559275110893,1
0.0586596383724619,0.0390202452592331,1
0.0787430443692632,0.0329907627846817,1
0.0986954753493782,0.0358100630334243,1
0.0993674621247392,0.0356365738974492,1
0.0850120140035661,0.0206644518355019,1
0.0591158602316656,0.0156950148590697,1
0.0618156890098373,0.0175159342386095,1
0.0680298034362527,0.0188453218788828,1
0.0694047288588361,0.0186072382421353,1
0.071974529293206,0.0206452364247934,1
0.0795739482628699,0.0117614250673139,1
0.126959082033998,0.0206178056639577,1
0.1377310015668,0.017714647306722,1
0.147946846320821,0.018629025337089,1
0.149885374904478,0.0195256226330385,1
0.141683897494157,0.0188273775595208,1
0.132312614626933,0.0181199231723113,1
0.103176032392694,0.0125132644735097,1
0.0980720997181919,0.0126627914859476,1
0.08706018691729,0.0104538266165816,1
0.0835650392737983,0.0182581394471732,1
0.0582319437527264,0.014422839890052,1
0.0494367020288573,0.0162800372461761,1
0.0459161807148375,0.0193597133110516,1
0.0398162234235565,0.0241588443719217,1
0.0382634621315694,0.0191440575457257,1
0.0273320452098197,0.0136462286951079,1
0.0265174907785652,0.012368526952678,1
0.0255124919321458,0.0104799851210249,1
0.0270660357664956,0.00851834123151294,1
0.037643032924998,0.0129073298764386,1
0.0494542293454744,0.016486515219445,1
0.0677683026947419,0.0210204222466801,1
0.0699205988740091,0.0202150254066799,1
0.0814550461881311,0.0194720021307978,1
0.0956315382729666,0.0281640265965228,1
0.0693462516189785,0.0236233592085821,1
0.0612424410914388,0.0273557944222586,1
0.0454340129615211,0.0266013113786335,1
0.0268761696944595,0.0250687381096807,1
0.0265367467113249,0.0229161353424021,1
0.0239483599179071,0.0215488192936144,1
0.0243708513557575,0.0260704896489565,1
0.00971110988945382,0.0199873825006623,1
0.0043808217076136,0.0306344374089276,1
0.00387123155007371,0.028059937140404,1
0.00262960668378532,0.0255953672906651,1
0.00162412145981691,0.0200370746234034,1
0.00170689826012158,0.0247709567390872,1
0.00315353285096268,0.0336450543396255,1
0.0033736353847681,0.0325568522938021,1
0.00318145366464088,0.0339460340097807,1
0.0031937221457582,0.036913461850249,1
0.00306026841594428,0.0379494611119989,1
0.0031385931911134,0.0410718744642856,1
0.00605330819890663,0.0387055721910029,1
0.00703451030844977,0.0218565405054026,1
0.00762418480725026,0.0162938732969078,1
0.0112260833983747,0.0251880904967545,1
0.0127767759425975,0.0148912529807963,1
0.0204756630154881,0.0148080648960895,1
0.02095781411472,0.0105788322750954,1
0.0210651603012498,0.0105892776885642,1
0.0293910554970263,0.0130740721971527,1
0.0323487729899689,0.0100190712879103,1
0.0317771812373448,0.00991772028257992,1
0.0331613618325327,0.0119479143073895,1
0.029988418357771,0.00991061732603768,1
0.0222351718929685,0.00674014445957293,1
0.0169111463164525,0.00417965121179599,1
0.0170570082481151,0.0050060501709883,1
0.0168094104902393,0.00627162257570064,1
0.016476956690152,0.00613724806937047,1
0.0128428507743882,0.00591123540489826,1
0.0107887482299202,0.00863050949716217,1
0.0111231813400136,0.00911105054789878,1
0.0110705480750607,0.00812031112808389,1
0.010785689583973,0.00853368871090897,1
0.0141110184850993,0.00997031513116235,1
0.0133719882611329,0.0102463235143927,1
0.0119574957988587,0.00784468350516983,1
0.0222148197695133,0.0124650910925374,1
0.0384003553698741,0.0213574373431156,1
0.0404773112679957,0.0201901184407809,1
0.0365568058367096,0.0154779545348513,1
0.0340840949970038,0.0150519591118218,1
0.0360122105496416,0.0153294422769873,1
0.0359849778356204,0.0148693809665067,1
0.0636763041154133,0.0245378689266715,1
0.0825113721128616,0.0342473634870152,1
0.116581010561667,0.0495480077741113,1
0.135342972749731,0.0546248266923072,1
0.147333842090503,0.0633500953933696,1
0.154839420474687,0.0730900916398737,1
0.123685688890369,0.0633372451289023,1
0.0922831125746583,0.0359112158988097,1
0.0766557920870127,0.0110479249703692,1
0.125521979939631,0.0189001142262359,1
0.16448166120776,0.022563875285582,1
0.180523964691279,0.0276850610769917,1
0.175713444394,0.0256525184386662,1
0.170096374593991,0.0235213812059654,1
0.179072504656899,0.0237269968317911,1
0.152626139048187,0.0178626607236157,1
0.126352774425153,0.0145586021271018,1
0.0373784902157401,0.00150970063149989,1
0.0232786773353928,0.0111111903569321,1
0.0211996810455365,0.0057841312789557,1
0.0284121524159909,0.0111656970597415,1
0.0311664439290951,0.0104982533101958,1
0.0298528098297911,0.0105123611458414,1
0.0272969120146822,0.0120294007578001,1
0.0262100949923926,0.0124248501818822,1
0.0275078209210003,0.0174641793313632,1
0.0303732292222513,0.0207182015126383,1
0.0299140038982612,0.0204441593586842,1
0.0126800888687168,0.00935617202650315,1
0.0134827558637604,0.0173556739307881,1
0.015978393182284,0.0112504804940702,1
0.0171594399324196,0.0090310433954656,1
0.0172711829303594,0.00481306438856071,1
0.0243483691292649,0.00797753341995745,1
0.0260293307971921,0.00851743222023079,1
0.0286713388653388,0.0105689221650662,1
0.0287514471336386,0.010235941379157,1
0.0326190331957486,0.010010719922799,1
0.0366707985037043,0.0113192793355737,1
0.0269311448958437,0.00918225762112525,1
0.0274694633985165,0.012506223881063,1
0.020495083249515,0.0152178119346332,1
0.00990502972769562,0.0177474210363534,1
0.0100080765902432,0.0174447371650422,1
0.0108272934175151,0.0183460507833142,1
0.0110578906958127,0.016702494300083,1
0.0060884581211795,0.010135397154812,1
0.00479926394440477,0.0282720194463879,1
0.00511007532443875,0.026983140746538,1
0.00456630422783883,0.0221159158053349,1
0.00457345084219718,0.0167775224401003,1
0.00472910910489116,0.0158480008276615,1
0.00463828722981086,0.0155635202426124,1
0.00441903841228388,0.015596989658653,1
0.00314827269438774,0.0113245226553878,1
0.00247281598312047,0.0114039306865327,1
0.00239399944840712,0.012354345145544,1
0.00377153602837439,0.019951174492372,1
0.00451996717711979,0.0184731219249644,1
0.0158601817035784,0.0264899749571205,1
0.0172430390952503,0.0275819822221618,1
0.0162152440306669,0.0245974075433732,1
0.0185605879264421,0.0225907701618129,1
0.0208504041381253,0.0230138947198367,1
0.0179449519601559,0.0184138957372881,1
0.0151747494801823,0.0148103711547139,1
0.0140815682556377,0.0133385092476955,1
0.0173590204875302,0.0168723658838441,1
0.0187017836424991,0.018523276678296,1
0.0154870232069223,0.0192423416021749,1
0.0165388120797947,0.0203711323145621,1
0.0168214393021781,0.0181307668281485,1
0.0154213975207158,0.0123908205073988,1
0.0181628791632417,0.0167948392183009,1
0.0262052321610175,0.0199022687085644,1
0.0621542036519507,0.0334873351757281,1
0.103499596137986,0.0511328923592257,1
0.130147145431914,0.0628993030551383,1
0.123358569457574,0.0432439990172874,1
0.136012338876914,0.0403948388235833,1
0.135633948570119,0.0202899937946121,1
0.107423518148615,0.0174700598539201,1
0.0920157654979982,0.0164904219145591,1
0.0875166057209917,0.0162344772102935,1
0.0913705364044257,0.0199539582373016,1
0.0939569853468909,0.0148759819835464,1
0.110744399042927,0.0162311634744114,1
0.124209525730333,0.0127669931317031,1
0.133960553207966,0.0122831707768741,1
0.121428999704801,0.00971067591813713,1
0.111523670870897,0.0140040806371852,1
0.118715986273974,0.0143629097261555,1
0.155691604721773,0.0171624183180759,1
0.161807671498094,0.0107553887995375,1
0.131869576815032,0.00730533437507192,1
0.188169540442723,0.0116097432287185,1
0.22450604851087,0.0119473374779284,1
0.233974720914826,0.016006728814886,1
0.171559396746077,0.0104431994801804,1
0.18618772707388,0.0106082815916067,1
0.212162901471736,0.0102753317252649,1
0.211913759552906,0.0105518252984692,1
0.201735564350049,0.0111731231950117,1
0.198289895432403,0.0141184919339255,1
0.229901202006502,0.0178254611954985,1
0.173275114970342,0.0186701142802047,1
0.122468211511524,0.0160010763255099,1
0.0970888280515169,0.0124490091060777,1
0.0615349505750295,0.00986389635553109,1
0.0599849748506031,0.0142957921031844,1
0.0560579338411337,0.0189592117965211,1
0.0442535217431279,0.0161080159965947,1
0.0314473819203628,0.0113480568152136,1
0.0271400336604588,0.0107024420882875,1
0.0467962488404162,0.0250703166893967,1
0.0437315274245043,0.0197970372311864,1
0.0421802254977828,0.0160398218811822,1
0.056528016481385,0.0234440608915655,1
0.0575285036651455,0.0281391383604028,1
0.0602991079135674,0.0334934404792913,1
0.0420619938215011,0.0288827368652036,1
0.0252890490249686,0.0205913784982592,1
0.0191499704213318,0.0147677683861943,1
0.0160006525214775,0.0129252282919712,1
0.0158245697774617,0.0126540328964804,1
0.00929383678818349,0.0178228547403334,1
0.00192126681855452,0.0477357991991714,1
0.00214939210237314,0.0459630890710138,1
0.00679326438761794,0.0409924496386582,1
0.0106100530967784,0.0321129069883482,1
0.0102746771311005,0.0297998056197262,1
0.00906287643265813,0.0270162784965488,1
0.00790138045673235,0.0254175300111469,1
0.00760490562259907,0.0216459030866357,1
0.00760351846478598,0.0195921113986947,1
0.00769051658693236,0.0173420622606261,1
0.00788273300037743,0.0166451767313969,1
0.00819437209492016,0.0141868101202862,1
0.00794097332779976,0.0210091294126775,1
0.01048787740281,0.00787598958168046,1
0.0162047443817381,0.00550891138276029,1
0.0161316764229624,0.00605585484517228,1
0.0149470435607237,0.00543653851348282,1
0.0149583197163474,0.00593425382845893,1
0.0155404597765055,0.00624473168989755,1
0.0159094055891801,0.00527567306571498,1
0.0167293110877535,0.00554984980266164,1
0.0163439091423745,0.00614473771164763,1
0.0141724760175916,0.00468696740244376,1
0.0116068287482333,0.00682991835258494,1
0.00910943712213124,0.012550359158989,1
0.0172583452388706,0.0218069184987061,1
0.0203767547053293,0.0179949718545499,1
0.0195682753258884,0.0147887788459884,1
0.0190088834293225,0.015878093271644,1
0.0188560988569451,0.0184684926796338,1
0.0198462698055957,0.0199182497317796,1
0.0154507179221075,0.0156677571012565,1
0.00751811813264506,0.0088403150141232,1
0.0274129434908499,0.0109124064220085,1
0.0465350790549953,0.00927963524347482,1
0.0491915820202788,0.0093450203814382,1
0.0561394918749446,0.0122284747092767,1
0.0545457562065362,0.0122559964733929,1
0.070167531659669,0.0148271102647523,1
0.0886175094993882,0.0158078106550973,1
0.0794201427391214,0.0126259493436776,1
0.0902822753601774,0.0111576947418536,1
0.078112718062052,0.00757113490648226,1
0.0699071125522949,0.00950548179300025,1
0.065366548307218,0.0136412312444042,1
0.0502512424850551,0.0111486583324748,1
0.0493961869941506,0.0113384699261908,1
0.041069541375741,0.00747526903377816,1
0.040532008996768,0.00860231526628,1
0.0412812718133902,0.00974411040073038,1
0.0343592178221353,0.00994492204487923,1
0.0275956585077434,0.0154804716213823,1
0.0279926671458942,0.0110292062469635,1
0.0726785503292766,0.0184603488337745,1
0.0772017689976361,0.0156313589910355,1
0.0851087625108755,0.0150175022482694,1
0.083932893014346,0.0141254515455032,1
0.0831311494552577,0.0150921158873018,1
0.078866350230467,0.0133445204172395,1
0.0735263222904179,0.013145027997646,1
0.0517493468070039,0.00866877270270501,1
0.0607917941033324,0.0115535858086668,1
0.101914514224508,0.0243625205421878,1
0.0990471611791256,0.0261397851948017,1
0.0900795872286422,0.0262896913301192,1
0.070877198492732,0.0225691948862465,1
0.077866347918001,0.0260108114211234,1
0.0722202765617487,0.0148620137987703,1
0.074115429237012,0.012801431714396,1
0.057378603222923,0.0098766026972682,1
0.0494634609209125,0.00832278397596835,1
0.0548222853544884,0.00596756414552787,1
0.0736909415203363,0.00923638307168234,1
0.0732165636226555,0.0107367002815457,1
0.0762766309680521,0.0126221526892461,1
0.103314117429075,0.0162029326600601,1
0.136959564408575,0.0201301267623997,1
0.130431984987884,0.02975051533065,1
0.106689888201622,0.030738500695194,1
0.100054312523755,0.0283186376263257,1
0.0730582459992637,0.0227123316781386,1
0.0433777948981226,0.0296209236684798,1
0.0422370218204971,0.0402971430010416,1
0.0247311444599762,0.0273286908202957,1
0.00584112340477539,0.00558723178154609,1
0.00373318977938826,0.0223609424217048,1
0.00422630554354984,0.0253156748969433,1
0.0051433798961057,0.0234982499623096,1
0.00805726842104416,0.0259788179580623,1
0.00850302587313389,0.0284949814204258,1
0.0136044569931091,0.0161456530143154,1
0.0469946144065511,0.0293356105545685,1
0.0499197742530871,0.0265138499989651,1
0.0426900790447098,0.0212876305240677,1
0.0336759834057796,0.0178732054860581,1
0.0327847866262743,0.0159716453770164,1
0.0333522277912595,0.0122380583404634,1
0.0325746255428612,0.00979755956429918,1
0.0410603819213266,0.01260441399154,1
0.0429965981749826,0.0109521461571028,1
0.0426786186061387,0.0135165212051279,1
0.0213007503006015,0.0071387239516287,1
0.0172292531190069,0.00552634947178812,1
0.0161526588807639,0.00475817484757384,1
0.0165824525933872,0.00455582078078223,1
0.0164831230801007,0.00429845999275291,1
0.0160900909190085,0.00677586609554846,1
0.0174951906680289,0.00937241502391115,1
0.0149440462554394,0.00374373966608998,1
0.0152341186262167,0.0069941908331771,1
0.0122022427373891,0.00553470666409861,1
0.0119817979107148,0.00655569864147888,1
0.013814797699709,0.00669381430081978,1
0.0155708027301368,0.00722289942674544,1
0.0159337837460316,0.00623420557938718,1
0.0206284739659789,0.0100735637683103,1
0.0184895710322981,0.0077486829904208,1
0.017328733515362,0.00931314071432983,1
0.0171785331059882,0.0123827839340789,1
0.0180103362341744,0.0131825587072745,1
0.0171057120633817,0.00871393264334417,1
0.0147838794572766,0.00634476068904662,1
0.0190350858239566,0.00767705800569049,1
0.0257880143292731,0.0127393519292924,1
0.028585082437928,0.0154676795896038,1
0.0281739334616177,0.0163104203723782,1
0.0331144173685178,0.013941387929022,1
0.0317735732674763,0.0118001601770953,1
0.0383682935468362,0.0144145900937213,1
0.0516831730254497,0.0184080735040414,1
0.0489635954747904,0.0167617463408717,1
0.0347349705559395,0.00975855025070111,1
0.0764590463687902,0.0116175250649091,1
0.0869286916111162,0.00904077932878797,1
0.103554136256943,0.00688023691254499,1
0.139350938353038,0.00964255403692241,1
0.133666046882795,0.0084595526415921,1
0.132348948312048,0.008161843070243,1
0.131782734025803,0.0092640967141685,1
0.14943478744555,0.00716867799146893,1
0.157931885504265,0.00573811038287363,1
0.130224666489672,0.00394676138748101,1
0.1263594397896,0.00438868615166501,1
0.139141676775813,0.00367344645475551,1
0.172858458374991,0.00850350441622511,1
0.129188622682238,0.0058274506139663,1
0.124350819983813,0.00638191475927903,1
0.123495591123045,0.00616068776640839,1
0.128462999985024,0.00615896191528397,1
0.137151408129899,0.0112239668728198,1
0.109352278113895,0.0108467768975441,1
0.104745526913125,0.011552636063403,1
0.0976840255369568,0.0132974941343371,1
0.0894453234269161,0.0230648178484533,1
0.0652526810717795,0.014451275337024,1
0.0666406089733025,0.0138075862556578,1
0.0804961721518008,0.0139086424785793,1
0.0978605483911419,0.0175952002776862,1
0.118544547531786,0.0195678146615819,1
0.0995103312132887,0.0177394888724843,1
0.107684183846686,0.0202240528754784,1
0.0919033660352675,0.016343988043438,1
0.0921027815784059,0.0139637603051312,1
0.0645929022524895,0.0102688986684031,1
0.0536842642329615,0.00985449991890998,1
0.0462374116607682,0.00720210211997808,1
0.0431911264766914,0.00704875890794148,1
0.0362425770986816,0.00530885362594023,1
0.036947425315198,0.00701696284369517,1
0.0397748464531249,0.00785767495312719,1
0.0398058480549738,0.00915597098252071,1
0.019606076512543,0.00300561153002332,1
0.0188093367740046,0.00615052095759045,1
0.0185646789151955,0.00668613203385556,1
0.00753755956451587,0.00121961554292733,1
0.00617747426127498,0.00735214003885091,1
0.00620620314381533,0.0104276620165086,1
0.00640903209580436,0.0121746397046844,1
0.0064209662986929,0.0119666017180853,1
0.00641719675164778,0.0122427383359928,1
0.00595451704646559,0.0163371051991159,1
0.00320196151478431,0.018702626109786,1
0.00302654305481075,0.0279697444486863,1
0.00299560744440789,0.0288369322712209,1
0.00361164619701276,0.0361938081707495,1
0.00331717903727633,0.028191423849427,1
0.010083259272752,0.0259922193699646,1
0.0137455426776852,0.0303872505051788,1
0.0169446901207535,0.0272996576914685,1
0.0154126015105433,0.0190922647745213,1
0.0184163410746755,0.0117577825515417,1
0.0225093073323362,0.00869082197696785,1
0.0245457796145451,0.00855520132039771,1
0.0249502653939047,0.00526939628923175,1
0.0256263876521128,0.00422803167271352,1
0.0259525134197692,0.00427120104903471,1
0.0243198630719745,0.00465691709121844,1
0.0233604570631345,0.00394203004472004,1
0.0237545948020371,0.00371711859047091,1
0.0234069502203179,0.00311651711242611,1
0.0203378198377843,0.00458364254189974,1
0.0146761323669382,0.00416234580772832,1
0.0113366415561052,0.00289391099555188,1
0.00955804032648173,0.00635302305323675,1
0.00727709120189647,0.00819504657934827,1
0.00651953203970997,0.00776368098903082,1
0.00663257063870351,0.0086411296236146,1
0.0068890592172638,0.0119658527082892,1
0.00324279173153845,0.0117727298773818,1
0.00461787952367946,0.0241816333107063,1
0.00520270872355918,0.0175557724058568,1
0.0143698936567447,0.0229235370683055,1
0.0157055960616975,0.0193267516741581,1
0.0384337119098752,0.00693719039508747,1
0.146135535702979,0.0247594314672734,1
0.175491401237537,0.0203789360768724,1
0.17373251039661,0.0195679275273424,1
0.163915022475988,0.017077801757416,1
0.142852713644676,0.013549405789606,1
0.128613344602824,0.0127698809017145,1
0.113671255568503,0.00985352223809178,1
0.148507676597448,0.0125211976106421,1
0.120084490413469,0.0073537064430133,1
0.109666756358843,0.0114299791261858,1
0.0902811499140476,0.00724869100201126,1
0.0949551304027919,0.00945764500242669,1
0.0947861705479971,0.0100345743025016,1
0.108006020803689,0.00799157335783013,1
0.212969378634994,0.0171130032005198,1
0.258259435025013,0.0136648846575323,1
0.250819859604545,0.0133111775560079,1
0.24895037244028,0.01377186548132,1
0.227210921483269,0.0165697105873105,1
0.223398575901041,0.0154113983433284,1
0.191030224837869,0.0141597096973668,1
0.189242778487785,0.0150691122621566,1
0.149879771486891,0.0117866042009684,1
0.16705783402889,0.0139843192279685,1
0.214326166021192,0.0185005508834006,1
0.237215397324318,0.0252189119040356,1
0.329916170292317,0.0341745359890059,1
0.391090088333143,0.036943146336689,1
0.409222250586766,0.0343600467172959,1
0.358934437235809,0.0338461803926658,1
0.302802388119793,0.0273602784045526,1
0.218582842454229,0.0216881186793861,1
0.120985593624665,0.0121801892486778,1
0.106225651418609,0.0200065615765083,1
0.113773112893147,0.02169708399793,1
0.11893061878763,0.025377895980603,1
0.109348190685356,0.0215138854145188,1
0.103009237365147,0.0212368403476486,1
0.104333706048273,0.0240355133756917,1
0.0657135761723149,0.0176588348326349,1
0.0637066236277492,0.0184933383091787,1
0.0695167451613558,0.00773440733816016,1
0.0783463076458792,0.00531912628300508,1
0.103677713889629,0.00793650832162594,1
0.126482293409714,0.0100502082412488,1
0.152583579222679,0.012055817974816,1
0.171975585501442,0.0152350095215441,1
0.16127318664885,0.0126211978066029,1
0.125132932443095,0.00986813073282299,1
0.0899364639557216,0.00751224590124611,1
0.0901725532081326,0.00835112340959111,1
0.0667320008581763,0.0156017013483726,1
0.00730629354194097,0.00432640502209794,1
0.00713140458113558,0.0101811254423504,1
0.00721964860981753,0.0115994199130837,1
0.00708358385974391,0.0126110539034025,1
0.00665172933751321,0.0113748928574407,1
0.00609092113340338,0.0209562521915051,1
0.00453944818456579,0.011030322813945,1
0.00870077589181125,0.0227289783562659,1
0.0101798215184936,0.0260466668698327,1
0.0120732705254282,0.0326616829896164,1
0.0161181927019445,0.0433162197023433,1
0.0152315407865954,0.0316487326664674,1
0.0125984599425436,0.0247025001955463,1
0.0103205321742922,0.0180951447156114,1
0.00942752540322911,0.0091312388134904,1
0.0223389866477622,0.0135084086613765,1
0.0227777280527846,0.00736469464017166,1
0.0255193504495786,0.00863702910438817,1
0.0272199767254462,0.00940996880657318,1
0.0303862823646443,0.0105539670465692,1
0.0308203992848106,0.010046697847671,1
0.0319943083356891,0.0101344742184634,1
0.032595597890433,0.00902656628209467,1
0.033899773297887,0.00949007559054557,1
0.0360822472888182,0.013711992894927,1
0.0131751783243983,0.00536761911020617,1
0.0109150713503645,0.00383008146753001,1
0.0361513588733215,0.0137271187278539,1
0.0381595637378423,0.00716414212131215,1
0.0368666378942031,0.00705847224193642,1
0.0372470951371027,0.00729482536426516,1
0.0358359367687365,0.00646683765742014,1
0.0361807114183824,0.00804279646253752,1
0.0377957270392825,0.00923848907002866,1
0.0347332322251855,0.00664013762219625,1
0.0319345750890117,0.00495000661172213,1
0.0328614449531098,0.00808028885431364,1
0.0249549078024329,0.00707410273804961,1
0.0247228783955499,0.0208124786853464,1
0.0215909151335279,0.0154252932154224,1
0.0925205587417662,0.0141133860225449,1
0.121245591616308,0.00598469771484223,1
0.121360722410346,0.00571707997700677,1
0.135348639933531,0.00608130282153367,1
0.151762259368515,0.0078104304670367,1
0.152612397954879,0.00803422591861795,1
0.160039124588675,0.00820154043917191,1
0.159314278917521,0.00850971716395406,1
0.143417105872692,0.00549126508485272,1
0.119569383805575,0.00341347637832336,1
0.105733439994398,0.00254057402461752,1
0.16487663680291,0.0149817263113658,1
0.226003097851484,0.0193783267925935,1
0.259750046615041,0.0167634820965442,1
0.261036903173039,0.0189175344716542,1
0.261908095821856,0.0186996515993041,1
0.28375771092852,0.0136734551054685,1
0.366112563646786,0.0169040709576936,1
0.363982974634213,0.019163156370619,1
0.33152303961715,0.0171152673387095,1
0.323453490297498,0.0208751814217401,1
0.319377956213253,0.0266604752450228,1
0.221097826947449,0.012841324193894,1
0.18546355031502,0.0129175517775163,1
0.201891353428934,0.0128469405538272,1
0.184015858397209,0.0117189070315659,1
0.187558781427299,0.0178692069651753,1
0.125146286862449,0.0130277440397201,1
0.124074075141688,0.0153846918134569,1
0.113968666061838,0.0166171678222715,1
0.116332486625174,0.0192290441640938,1
0.0907847401739016,0.0150897542781071,1
0.0819203763074893,0.0331881632562449,1
0.0743386837390649,0.0183259524142417,1
0.110243709259531,0.0247977910085714,1
0.11786472516712,0.0218009124008467,1
0.096330988488966,0.016898739880594,1
0.119052111186307,0.0166426893298811,1
0.136008096559306,0.0102091103013843,1
0.156780240212329,0.0125605609906902,1
0.196477987999527,0.0148664304662377,1
0.208747865410762,0.0160252869234107,1
0.170495687498919,0.0119513635956771,1
0.176640568449774,0.016158282250848,1
0.172166001539982,0.0163139198637069,1
0.186883964436524,0.0193482288422807,1
0.210671404775151,0.0233491712009897,1
0.13388191196444,0.0220776503102818,1
0.0455981328666495,0.0235570125164499,1
0.0461630360383166,0.0210441037663885,1
0.0450568220353876,0.020729575249721,1
0.0396820005300606,0.0262069453652082,1
0.0230316744381342,0.0186795275449809,1
0.0228107644906354,0.0215519967550893,1
0.0114325947075028,0.0101845352562003,1
0.00623800499747546,0.00765392920515167,1
0.00820480938417148,0.012797312341676,1
0.0108686846494858,0.0169899161956508,1
0.0132326253737198,0.0191377622841571,1
0.0132925875924752,0.0206807181705501,1
0.0126287625401884,0.0209072329415692,1
0.00858397961362204,0.0133018384242169,1
0.00628752737856308,0.0102900897217165,1
0.00634021969144017,0.0097313902419304,1
0.00431875606608271,0.0091837802164195,1
0.00358654011981281,0.0216638727647755,1
0.0100738570719604,0.0282004418175782,1
0.0164707501433903,0.0378277689340731,1
0.020474215274188,0.0277928964018903,1
0.0555460836554083,0.0418261490719275,1
0.0667105924629396,0.0297400815269486,1
0.0605521073208914,0.0244325165821606,1
0.0562195117277572,0.0214879245281767,1
0.0438866802524576,0.0173670033316518,1
0.0351134793628265,0.0135320150134125,1
0.0292619752917897,0.0110165635962689,1
0.0291633969447581,0.0122741383621331,1
0.0322398724346489,0.0130818140441246,1
0.0353422405799386,0.017889748745834,1
0.0241132037831508,0.017288982105908,1
0.0160797261197314,0.0113066754924513,1
0.0162300517239064,0.0116576022065947,1
0.0161986736158056,0.0153439494419269,1
0.0126575655327583,0.00856153061986425,1
0.0100940237632824,0.00629236294133886,1
0.0103617759624784,0.00450426624240021,1
0.0119342416543172,0.00548182668491621,1
0.0111642603146091,0.00499192296268679,1
0.0109685204920772,0.00473444030792653,1
0.0104667477260093,0.00554230221103912,1
0.00973173418432166,0.00864880293041989,1
0.00679097573962794,0.00845158152853763,1
0.0054075701905592,0.009656701177449,1
0.00516099535660181,0.015568905298186,1
0.0030779839052434,0.00795875242248214,1
0.0059895536019168,0.0199158035265677,1
0.0140021856951275,0.032236827587179,1
0.0147487579385603,0.0230936902347664,1
0.0143407256536534,0.0206265826515468,1
0.014633966932981,0.0223091183711627,1
0.0187913248891218,0.0237613431467222,1
0.0300821703056182,0.0319143493166157,1
0.0276078461813056,0.0230244321159323,1
0.0215969176004013,0.0185259784428902,1
0.0165464007032028,0.00625752534803559,1
0.0704797861270515,0.0165624878448177,1
0.0912781747384132,0.0112473992160164,1
0.0908348442342509,0.00925505982211757,1
0.115668095196447,0.0128232503552859,1
0.123283371055678,0.0135856842090899,1
0.114826902560704,0.0119930579650773,1
0.141629148768274,0.0124605688290655,1
0.134644246946234,0.0108535286388565,1
0.0969231863717181,0.00703478184255312,1
0.060082212554958,0.00377338068305448,1
0.081897682803405,0.00361708289694039,1
0.129070397100504,0.0121904390654036,1
0.132527908897602,0.0151276783596905,1
0.141949158039497,0.00871997685404597,1
0.169798670595684,0.0103007359657789,1
0.158796846096191,0.00532228228633157,1
0.228541169218948,0.00870485516467461,1
0.27555423188968,0.00781050936188547,1
0.271117880274326,0.00777022051418219,1
0.233089901738611,0.00538644253764225,1
0.228140482701056,0.00546515413412973,1
0.252544370961133,0.00628180946350013,1
0.248445739075918,0.00598368224426348,1
0.245227971755898,0.00783968396139995,1
0.195913077159727,0.00540342352196059,1
0.198206211102557,0.00903667285110584,1
0.153990720952245,0.00805935811696903,1
0.0920279280463123,0.00649573041200553,1
0.0912770002642876,0.00930047696089056,1
0.0546401236614431,0.00782433624617304,1
0.0486327975932489,0.00694190163432867,1
0.0930869889218848,0.0155497309259391,1
0.125121146755989,0.0213756776757279,1
0.116818137742013,0.017705565722528,1
0.0865414162966317,0.0154689653168534,1
0.0836285004740715,0.0148319292525349,1
0.0830055943134003,0.0142805548628157,1
0.0808141343570873,0.013520106420481,1
0.0920996872470582,0.0137187110999681,1
0.0584803683409323,0.00586182854880457,1
0.0474489018188811,0.0121473962969171,1
0.0470732101657494,0.010685565415626,1
0.0505402568889205,0.0112417298647385,1
0.0518331917010848,0.0207588763033022,1
0.049225604691011,0.0201773418301493,1
0.0482288970541571,0.0193447653873648,1
0.0584895868405425,0.0222047172181216,1
0.0586594946282161,0.02183594721276,1
0.0616194829391223,0.026359213038427,1
0.0565204035097075,0.0522510060533436,1
0.0275087187511564,0.0317702433596587,1
0.0212990962408023,0.0338318214321556,1
0.0184148062682717,0.030055572829415,1
0.013454241129972,0.0127112372440674,1
0.0101947382720786,0.0056229476844764,1
0.00940779244254165,0.00581055530000476,1
0.0107424424188888,0.00731452390949198,1
0.0114068148544101,0.00650012296290531,1
0.0108995165939483,0.00485658907027094,1
0.0118650487620809,0.00676434219672698,1
0.0120628247667736,0.007288934083437,1
0.0115677709711447,0.00769237649685694,1
0.0112274531602416,0.006305703390313,1
0.0101826076317349,0.00926549142136396,1
0.00811473307428658,0.0149571333032019,1
0.0100137629489084,0.0171279277771991,1
0.00866068433378409,0.014025778760249,1
0.0109092425730173,0.0182895038043227,1
0.021334920874282,0.036868180459221,1
0.0396307744853089,0.0585891694372538,1
0.0456957416404291,0.0421718283932122,1
0.0400146728813982,0.032764541471042,1
0.0336770092237416,0.0317276614805698,1
0.0316822944490358,0.0277831891368454,1
0.0272727892814249,0.0263677917086038,1
0.0316585663256891,0.0265127063345266,1
0.031737239693962,0.0234737024377436,1
0.0318861269158756,0.0259480253581951,1
0.0326032363226002,0.0345929359721369,1
0.0221954260939384,0.028070759754955,1
0.011028807957343,0.019840815069909,1
0.00929251220576776,0.0164349722492854,1
0.00804558536150141,0.0106763619803124,1
0.00730160970912442,0.00963218377471804,1
0.00849457142461832,0.00881169637764751,1
0.00804006648920587,0.0105163204544161,1
0.00730326926058299,0.0125915899025889,1
0.00702495631875976,0.011797135840846,1
0.00782627200016624,0.0126027963524991,1
0.00822978989216289,0.00775487073119703,1
0.0104018467569178,0.00935248062022345,1
0.00993092121709825,0.0069948474020586,1
0.0142912570633852,0.0112192933178543,1
0.0151527830053147,0.0125981869002295,1
0.0150288417205007,0.0148890372106753,1
0.0153720458049395,0.0162389525386615,1
0.0151801879632485,0.0157013146879462,1
0.0177111210430003,0.0160853853860451,1
0.0198367470894783,0.0125015060334374,1
0.0226327592221634,0.013928001801786,1
0.0178499159743153,0.00296967666794546,1
0.0493411139550471,0.00843763581718854,1
0.0669141695127862,0.00505771513221806,1
0.0684389292181291,0.00485300403441174,1
0.0820181830708334,0.00676442231501125,1
0.0972232011610309,0.00872473796354824,1
0.101647818324817,0.00822489292928628,1
0.100855998037475,0.00806426106114074,1
0.156563915742939,0.0115468386850818,1
0.167422948423931,0.014180011196509,1
0.14839717299757,0.00974840221463655,1
0.145847347591772,0.010533704215329,1
0.187822831040711,0.0155299718602511,1
0.203620993903497,0.0149947415003992,1
0.192715193350774,0.0132585152942368,1
0.176909453163953,0.0121028677089003,1
0.151073510530329,0.0113343469648713,1
0.0924001564828023,0.00509741767019429,1
0.0913116363750941,0.00747564987658955,1
0.0952355236536796,0.00747452439050664,1
0.0932308951292661,0.0098665498971557,1
0.079078795548458,0.010528266198223,1
0.0653723999976066,0.0178876905548497,1
0.0277460937224332,0.00888653156408382,1
0.0242245077538333,0.00902234169846185,1
0.0305917222545129,0.00732012511239411,1
0.0696196725860327,0.018784315633366,1
0.0810851724231139,0.018995376916322,1
0.0848419791957897,0.0202625960388508,1
0.0974040856587418,0.0246914008280098,1
0.100033603505458,0.020673115926887,1
0.0910376322508638,0.0178837037671394,1
0.0976848011660741,0.018839636723444,1
0.0997004139711395,0.0159413496251747,1
0.0992266206519568,0.0142580044023925,1
0.100477123215575,0.0189755309281576,1
0.0752954887016307,0.0146587029200314,1
0.0478163329865547,0.0107750745902783,1
0.0602454814862052,0.0130239756706957,1
0.0720327795308045,0.0145906885284812,1
0.0949181030048147,0.0187099861672447,1
0.0919853389515523,0.0106060561083519,1
0.105462855416781,0.0084272240951572,1
0.0871045429408692,0.00741731557082912,1
0.0900143147057907,0.00733612772480853,1
0.0792236083333438,0.00523835379683724,1
0.0892983896289759,0.00546575662833764,1
0.104912504746409,0.00752008555570722,1
0.13309380198215,0.0104596864754844,1
0.155573754292388,0.012049310526298,1
0.159577744075037,0.0145445521974616,1
0.0795651175731976,0.0111672079634785,1
0.0758815569781489,0.0177101788150612,1
0.0632381191860728,0.0165382782306699,1
0.0651705065353058,0.0186973192989764,1
0.0279465183776094,0.0116757293482613,1
0.0105505613523264,0.0154423131258293,1
0.00930531061670088,0.0126014922852082,1
0.00903868551387855,0.0144803654010729,1
0.010007668149353,0.0247539776230182,1
0.00372801833464027,0.0137374683189848,1
0.00193593483550924,0.0163592505774639,1
0.00227153177200304,0.0223462232516671,1
0.00257409855600664,0.0211654333778937,1
0.00259308915781243,0.0196369931098966,1
0.0022351890858863,0.0165612351236033,1
0.0016867008487407,0.0140692616680793,1
0.00162696466638955,0.0140376145784776,1
0.0011010528026305,0.00869464589509806,1
0.00293044613769222,0.012391525454656,1
0.00508704511455099,0.0187579919670812,1
0.00642988061832127,0.0202356826244155,1
0.0147373565878713,0.0319383398557291,1
0.0171977295707377,0.0262409801301394,1
0.0172678970085207,0.0263370705704122,1
0.0169913436207311,0.0257728839889569,1
0.0149790597645095,0.0181762590242038,1
0.014047133338069,0.0157623040902702,1
0.0104217702598614,0.00938077664036086,1
0.00987884837626661,0.00842399176427512,1
0.0100174943280583,0.00873629869504346,1
0.0103980307559933,0.00634272547463683,1
0.0105770634909989,0.00516699624454261,1
0.0119174713862161,0.00599295906961302,1
0.0123335507136934,0.00526897412397338,1
0.0120797218856405,0.00534832111362929,1
0.0123117292361128,0.0069580292869171,1
0.0104559217012753,0.00615857602057641,1
0.0103230948053545,0.00702024456108684,1
0.0103543190424332,0.0082865604492403,1
0.0102289869975219,0.00735274235596356,1
0.00945851664277904,0.00901570247653694,1
0.00840500884628397,0.0134282702434375,1
0.00814676920210412,0.00735703934004941,1
0.0101636515384196,0.00748603908605431,1
0.010997934451996,0.00750657448158006,1
0.0140259637111097,0.0100962674780683,1
0.0160165133942497,0.0119330816178759,1
0.0165322281442748,0.0131227971589341,1
0.0183891206378522,0.0141373095334638,1
0.0169990978105932,0.0147209049928076,1
0.0169399387218502,0.0166272424190288,1
0.0187117544363389,0.016591523241662,1
0.0146591038052269,0.0444248350316466,1
0.00495895278275819,0.0462291606475988,1
0.00324600906880396,0.0404145928262526,1
0.00342735672966609,0.0403967640865333,1
0.00346685634532326,0.040952741609501,1
0.0034505876370144,0.0436913431955948,1
0.00340756265855773,0.059040121382332,1
0.00177323545867631,0.037483896940666,1
0.00116962059641409,0.031011274405737,1
0.00155611994812408,0.0379621699745595,1
0.00150729310713677,0.0373162268201634,1
0.00115606590311814,0.0309554495300076,1
0.0015845330382469,0.0447423295735482,1
0.00149282342783794,0.0517425435819485,1
0.00143085566592051,0.0498156151625253,1
0.00139829838423979,0.0508135409603247,1
0.000833805013879885,0.0321554573645287,1
0.00152294420117867,0.0136944650382247,1
0.0100427083370129,0.0314972146216558,1
0.0219125332624799,0.0500145547785047,1
0.0224703468053921,0.0376330429218038,1
0.0209318049170782,0.0373734002957953,1
0.0219430435668529,0.0412081253175333,1
0.0197027792589873,0.0249044343643051,1
0.0176235911838671,0.022458945258,1
0.0156847620283213,0.0160974673144572,1
0.0119781595158951,0.0139816466166705,1
0.0109269802347283,0.0145590142516475,1
0.0141989347493948,0.0225842087491455,1
0.013704967179013,0.0126537395461172,1
0.0164877466204012,0.0168562958505735,1
0.016876940439612,0.0142335930109667,1
0.0166478775581057,0.0130791781384954,1
0.0169116911010151,0.0156252426088884,1
0.0197762988157414,0.0169924497901296,1
0.0241673773907894,0.0234374869827481,1
0.0249986490433876,0.0223256565172611,1
0.0232370738476538,0.0260709568010991,1
0.0126994679099295,0.013730179058165,1
0.0102582353399391,0.0220154464835634,1
0.0109806291332185,0.0233136012842587,1
0.00795966389530024,0.0268723435232404,1
0.00343230073341025,0.0139205375505231,1
0.00175560169561204,0.00900070603887912,1
0.0016066844375886,0.0109483546548492,1
0.00151068736426975,0.0126642610944396,1
0.00132700115028426,0.0139337908383188,1
0.00111133897953934,0.0140255025647522,1
0.0011070979251822,0.0199866803845118,1
0.00111971405590388,0.0181536680458682,1
0.00142335203561395,0.0217658674883185,1
0.00190794962799701,0.0369430687259067,1
0.00191010087923899,0.0428843238674113,1
0.00229437910459914,0.039042409625874,1
0.00258832430981809,0.0307108162635618,1
0.00297000070567645,0.0346610120110594,1
0.00333000794084266,0.0337297603204556,1
0.00327101009324263,0.0299579109982187,1
0.00286372573553612,0.0263285431745007,1
0.00258072652381626,0.0322008990208351,1
0.00265604370102032,0.0310913395109836,1
0.00317695123269785,0.0336122829776324,1
0.00324643869548023,0.0285795816316406,1
0.00314185560467882,0.0272057138434821,1
0.00314716702037917,0.0295505301048093,1
0.00297592225251415,0.0294780829560076,1
0.0019842041113017,0.0237435867691861,1
0.00200004251717045,0.0248458592942347,1
0.00181548718999966,0.0219861240442061,1
0.00180525551663958,0.0220432827307038,1
0.00185943024855637,0.0235426040995372,1
0.00197813839590746,0.0263053040544832,1
0.00195673887625409,0.0360533128965678,1
0.000957025201817656,0.0283774547145766,1
0.000898606910341585,0.0486799685230285,1
0.000808122842283434,0.0452690859144959,1
0.000991748769385688,0.0515451668626548,1
0.00111923122316655,0.0711288564332308,1
0.000903978150328823,0.0730029377358009,1
0.00107965451304687,0.0898234412898999,1
0.00121762458129847,0.12203262878933,1
0.00143958220285246,0.142366209325879,1
0.00166525330699219,0.194989086022432,1
0.00132684084243118,0.241173762655757,1
0.000789050243778834,0.195563118558492,1
0.000426823087160793,0.139921861874423,1
0.000271605776216336,0.15923946729685,1
0.000258034473810438,0.183795190130759,1
0.000119789678248567,0.207865383948407,1
6.16355908959926e-05,0.332836719430604,1
3.41017133626331e-05,0.272989472616729,1
2.22292845130429e-05,0.319631163961293,1
2.15021277654569e-05,0.37398609215346,1
0.00010210099374979,0.153176331150404,1
0.000362947558455606,0.16720941401124,1
0.0012386751174224,0.156309424806504,1
0.00140668471113055,0.101982396950451,1
0.00138650900718889,0.099989864728231,1
0.00132248012436202,0.0927808764289799,1
0.0012285679428567,0.0763105058217162,1
0.00140884532862837,0.0732219046546569,1
0.00112673198002457,0.0465894601091597,1
0.000888640385748569,0.0313049375761259,1
0.00082859669722816,0.027995893667137,1
0.000763704131794347,0.0289065301143865,1
0.000806449055249597,0.0356808742979223,1
0.000927823222978512,0.0461183532057248,1
0.000976676454488959,0.047891504993199,1
0.000965515252561363,0.0424207059332048,1
0.00101892620578376,0.0440391169596858,1
0.000987533958657973,0.0427568885730838,1
0.00116106595486325,0.0578273772995054,1
0.00120173408123694,0.0975986114534135,1
0.000911188950106408,0.0925034254856295,1
0.000847176981266533,0.0921001793817064,1
0.000935607613622708,0.10862149476227,1
0.000993040884420445,0.1118094410781,1
0.00106683658681442,0.120950673505406,1
0.00091249292744579,0.177489712442809,1
0.000193645751666207,0.0890616407272673,1
7.65515736630419e-05,0.0923517337967831,1
8.45151119598552e-05,0.0963546169589542,1
0.000105261396811417,0.105145860592787,1
0.000101769996645798,0.0955187556322438,1
9.57580197912937e-05,0.0870611093205268,1
0.000114266524032382,0.099941691276226,1
0.00012669403971866,0.105953293097821,1
0.000134873323675354,0.118570797762564,1
0.00014076405293583,0.150842455214465,1
7.69694966341128e-05,0.190824645760856,1
4.61967194414509e-05,0.261871833372353,1
4.52396133194215e-05,0.265743185164992,1
4.77608597872646e-05,0.276785551066904,1
2.4024896242173e-05,0.24077747994939,1
1.23465394102367e-05,0.272475666043163,1
1.36830989875626e-05,0.236316610952982,1
2.25893660421858e-05,0.305912841506409,1
4.40291584217458e-05,0.232275949676433,1
0.000126500414278987,0.245031709171613,1
0.000118444089681231,0.16103867956663,1
0.000108354149117815,0.140535685271579,1
0.000169998857896952,0.104213650694114,1
0.00109120501778899,0.0689657542045737,1
0.0028926093227577,0.0672392574707587,1
0.00303617383769477,0.0611333245941915,1
0.00368134327631744,0.0671972896562475,1
0.00401080293686011,0.0603270652855849,1
0.0036152871992177,0.0543793952006228,1
0.00358607416312888,0.0507057805896751,1
0.00293586495398874,0.0370301177536295,1
0.00188117383603689,0.0260808207852542,1
0.00165250561100007,0.0232062624010081,1
0.0026251898546979,0.0502802652757727,1
0.00288517103682561,0.0708115751715053,1
0.00354784264569405,0.0957069467514415,1
0.00353315252620973,0.108205281210486,1
0.00293520983588469,0.104574339538336,1
0.00287946077426863,0.108145406028056,1
0.00198753563276564,0.144908188895011,1
0.000571737638666378,0.141655937307382,1
0.000240361416636559,0.104744128029406,1
9.18766829415073e-05,0.123739886049033,1
9.70309025765333e-05,0.144403506543627,1
0.000100906329881199,0.13403879390356,1
0.000103662435264858,0.125556804829896,1
0.00010406781515072,0.138261321459495,1
7.10332793488951e-05,0.129219273970516,1
5.91353334172199e-05,0.169257834584567,1
5.84505095162058e-05,0.180164157430991,1
5.72463471962427e-05,0.201977887443028,1
4.72363685590009e-05,0.187461753942805,1
3.4904211001647e-05,0.161199486660951,1
3.62087798764267e-05,0.173144959426336,1
2.40327751662643e-05,0.150519549511725,1
3.08161217487114e-05,0.228934756819392,1
4.67913176918513e-05,0.28854646300144,1
5.78838415764388e-05,0.326819882374248,1
6.09473733015688e-05,0.336650754769402,1
6.58380130013203e-05,0.353496865947965,1
6.96854472420812e-05,0.355777773708244,1
7.15137621390224e-05,0.366010054560935,1
6.88811844142653e-05,0.372274139504217,1
3.50896741153569e-05,0.367767523693036,1
6.78208033936286e-06,0.303248448161215,1
6.26230546392843e-06,0.419932271643501,1
6.04910980480443e-06,0.413836881912909,1
7.02948726911631e-06,0.2940252629642,1
1.44638583828053e-05,0.357464857985551,1
1.43751100304588e-05,0.34401927424435,1
1.24995207968529e-05,0.321064801385667,1
1.42197336339859e-05,0.257506632104823,1
4.63235920345584e-05,0.352258043952698,1
8.74579900907192e-05,0.444628015205985,1
9.19661196435557e-05,0.422272565775307,1
9.43734341582385e-05,0.284812277654562,1
0.000109349424367237,0.195028415106698,1
9.24197421851487e-05,0.166413868230095,1
8.9939293265041e-05,0.165572240046115,1
7.26569127006512e-05,0.14164381555487,1
5.77049357835565e-05,0.118699083357615,1
6.68268478991968e-05,0.13746208583506,1
9.48403192033331e-05,0.190088184747707,1
0.000103097701586873,0.198174951661964,1
0.0001098015542963,0.213819540315517,1
0.00010866989576859,0.334746898199785,1
6.83051811112217e-05,0.524248532016004,1
6.56566607989872e-05,0.843043062429585,1
3.98819575232128e-05,0.334076697344636,1
7.13677534065984e-05,0.226626805623438,1
9.38535490905235e-05,0.185478496063383,1
9.48188105854888e-05,0.186848586316019,1
0.000142392951225468,0.140262447740142,1
0.000177263087200615,0.100780786847019,1
0.000170452936697956,0.0965984657587397,1
0.000159201030417019,0.0913106271365064,1
0.000144285862738397,0.0808687898128329,1
0.000122252482057654,0.0704314545687547,1
0.000107744010147312,0.0669273170680334,1
9.3318884175123e-05,0.0714097693497085,1
8.85782632562702e-05,0.0772327043927781,1
9.77415350587004e-05,0.0787521054758477,0
6.99099141985112e-05,0.0870449695780819,0
3.64827264233421e-05,0.0861644184160096,0
4.41598933775076e-05,0.0961214724838594,0
4.3889601570571e-05,0.101845443790447,0
5.10368537591588e-05,0.141974638203862,0
4.52765209564323e-05,0.159821868914254,0
4.81623164054733e-05,0.175188004271398,0
4.1457831850693e-05,0.170959107705743,0
3.4570934712911e-05,0.182205911667638,0
3.4076048154663e-05,0.206593555678541,0
1.98564887864245e-05,0.241997255343212,0
1.0721085773538e-05,0.332839259513366,0
1.17197284004818e-05,0.389196821890266,0
1.12719151571981e-05,0.43494946461776,0
1.0104616291718e-05,0.514277335685612,0
9.15181523775156e-06,0.423565637090975,0
1.22724113379999e-05,0.50960563773839,0
1.30350918941395e-05,0.611653556367083,0
9.4929241557388e-06,0.521036378820914,0
7.76893283234398e-06,0.49295184925336,0
8.24255008010466e-06,0.532741668141791,0
8.3380843230495e-06,0.538944856067087,0
8.74900858807917e-06,0.559120575079961,0
8.26924416008804e-06,0.587488764807449,0
4.02435789278686e-06,0.447601765732788,0
2.08729879316241e-06,0.413957697707755,0
2.58332952045848e-06,0.51581338852758,0
2.74940152118014e-06,0.536163873280152,0
2.74666229246596e-06,0.51594750942327,0
2.38039617756596e-06,0.473273401211424,0
2.20105938500458e-06,0.442123874396244,0
1.89826648811337e-06,0.380569508830534,0
1.30103418453819e-06,0.287132938879497,0
1.83144217498868e-06,0.365125927998387,0
2.48537588805493e-06,0.43126768643445,0
2.75924533557903e-06,0.48718699818822,0
2.55529341819468e-06,0.431534472575174,0
2.48652436974022e-06,0.403660141560079,0
2.74552190797701e-06,0.432156770908801,0
2.84473720678861e-06,0.431753433358344,0
2.28008247646818e-06,0.386591413880068,0
1.42614009262238e-06,0.314032498514017,0
1.37986426348467e-06,0.325519059763432,0
3.64235329256512e-06,0.319710481747875,0
1.50799076025327e-05,0.442494583571259,0
0.000114286879943917,0.354543736017278,0
0.000152942971404493,0.153343145816552,0
0.000149690335995768,0.12905514068196,0
0.000184557280267349,0.125904261066244,0
0.000184893499094838,0.119135074008341,0
0.000169746583672067,0.105998694096362,0
0.000162335996928459,0.100971004510432,0
0.00015788449951888,0.0973649363435965,0
0.000162117902377536,0.0981928112708935,0
0.000180923880273611,0.104715412749099,0
0.000147517213258333,0.127149613152699,0
0.000128743103550703,0.213052981476175,0
0.000134742461364776,0.29451740208216,0
8.04139348212175e-05,0.536709453393242,0
3.43182225353205e-05,0.443207467885154,0
2.79612454438965e-06,0.262968677371261,0
9.92689867438566e-07,0.370006496614461,0
1.20406497758103e-06,0.407721998318488,0
8.48185541286748e-07,0.344838166253497,0
7.14484283261154e-07,0.317730702482261,0
6.66466852806217e-07,0.304324878623762,0
6.37362712742506e-07,0.297667974442335,0
6.71639112994689e-07,0.306536386871354,0
4.17848776108839e-07,0.250286486595832,0
2.92782649902317e-07,0.217240186698584,0
3.49617135054977e-07,0.219749382714817,0
3.32527122048411e-07,0.170007886723761,0
1.76877216365167e-05,0.20785364328711,0
6.22393887056048e-05,0.297428921974891,0
6.52423286704542e-05,0.253225930702061,0
6.38739119943218e-05,0.257663211127417,0
6.38571905797748e-05,0.260706504419331,0
6.14792917711888e-05,0.254313402592207,0
5.80911312109625e-05,0.255626675061376,0
5.56980872127127e-05,0.25044086706164,0
5.48424287513207e-05,0.24544612423901,0
5.12966772994354e-05,0.227111275327231,0
4.56027746876029e-05,0.371917281129929,0
1.43582850246064e-05,0.268291239344309,0
1.14646146120593e-05,0.319147174171424,0
1.2037599685167e-05,0.340381631571317,0
1.20083872010958e-05,0.339112425356313,0
1.20998481142163e-05,0.382160772729102,0
1.17493099230776e-05,0.377324430491724,0
1.5023214202225e-05,0.403677057229982,0
1.83972841445979e-05,0.466157936939318,0
2.94488495936792e-05,0.619707463352953,0
4.80422831268573e-05,1,0
5.81097019547433e-05,0.926721232868904,0
0.000110303888514921,0.441662703577128,0
0.000113346950087638,0.165591154793394,0
9.7804646015186e-05,0.14391328242798,0
7.97225271954746e-05,0.122174842847954,0
7.1111428559245e-05,0.114723864990548,0
7.00722266357667e-05,0.0946718490095208,0
9.58315803556826e-05,0.0901045657577954,0
0.000104064444252678,0.0745850986760222,0
0.000113326258230468,0.0755869564751909,0
0.000119450124520355,0.0769092719219758,0
0.000101305032308483,0.0832434168811726,0
9.76969357012573e-05,0.113720375887648,0
0.000104416566677883,0.124214874077356,0
0.000110565983846849,0.131265435853139,0
0.00011990626881053,0.126022545319195,0
0.000121190562921765,0.164121927503444,0
3.57571886749591e-05,0.130427129677921,0
2.05757024484395e-05,0.232411841199064,0
1.28958954562149e-05,0.337272210166338,0
1.06363354118846e-06,0.342653312433326,0
9.52929112886788e-07,0.368280802780636,0
8.40010101386004e-07,0.356818575487279,0
4.79783878864958e-07,0.273600016749277,0
3.79361041642587e-07,0.279398599651096,0
3.94753723872787e-07,0.254727204532837,0
4.43006677125626e-07,0.249126220347985,0
4.11517824726649e-07,0.23999322096666,0
4.09660046244536e-07,0.229326685190177,0
4.53052129315997e-07,0.235202066804985,0
3.6705717577726e-07,0.209223085579864,0
3.97051655386405e-07,0.21429921758729,0
4.87431416769506e-07,0.240344992421972,0
6.37568223106147e-07,0.26055620643396,0
7.01173196581477e-07,0.260484982819732,0
9.4715193932388e-07,0.310608499059678,0
9.37499377182031e-07,0.301956264627794,0
9.55389956470256e-07,0.300897011964799,0
9.61027981474313e-07,0.29425273092598,0
1.01869269329088e-06,0.305019928829907,0
1.04011866692475e-06,0.314240364721799,0
1.0248007957477e-06,0.310085502552539,0
9.9617544642412e-07,0.29145558391418,0
8.42986349119142e-07,0.263207901561792,0
8.87504118507933e-07,0.274570048101635,0
8.38282934201384e-07,0.270146744069631,0
7.97779349898372e-07,0.281848156334454,0
7.74981165523803e-07,0.279616150481458,0
7.73794486194905e-07,0.287000985020611,0
7.84211705312908e-07,0.309319268497307,0
8.71477918677097e-07,0.320804862282959,0
2.04358792699155e-06,0.463571893227308,0
2.34895335596792e-06,0.442577992955809,0
2.33913348110604e-06,0.447721104850065,0
2.29845677522475e-06,0.439037767991052,0
2.53772954317619e-06,0.459601724224928,0
2.62568621855441e-06,0.450989827791177,0
2.67864540314113e-06,0.455663406181411,0
2.77249481315612e-06,0.434001129312035,0
3.44205655522446e-06,0.470689861150044,0
3.50759843087223e-06,0.454542175091697,0
2.55582545680205e-06,0.327174223828962,0
6.9413024640325e-06,0.485655435817137,0
8.54846435817211e-06,0.380038649600541,0
8.7857712676729e-06,0.377851002668921,0
8.05068886109068e-06,0.361568362879578,0
8.09150788399896e-06,0.362214885741647,0
8.14564072199002e-06,0.36345710711685,0
8.18148005716191e-06,0.36393393746337,0
7.8933969496052e-06,0.351764891526372,0
7.91077555725089e-06,0.347666975975716,0
7.84670913159716e-06,0.395001017211872,0
3.65459343701577e-06,0.318569704606481,0
1.97659031626257e-06,0.349528951841469,0
1.73534878543135e-06,0.343377054990493,0
1.67243084146291e-06,0.339527055418603,0
1.43306539581856e-06,0.316020102398331,0
1.31058262729666e-06,0.30254501084863,0
1.40052452398635e-06,0.30270286439048,0
1.60286501128595e-06,0.34033901085643,0
1.64654366469745e-06,0.338813947332974,0
1.94748265567871e-06,0.375716853765841,0
2.23030786639436e-06,0.43302908558859,0
1.86369427615575e-06,0.417260514961453,0
1.98426056152207e-06,0.430715058109431,0
2.36976315056289e-06,0.468185946516331,0
2.50349644532183e-06,0.452238773121213,0
2.62117009530853e-06,0.452220836024198,0
2.26547786267312e-06,0.430209352424614,0
1.75071805620257e-06,0.353987548686993,0
2.03723065972125e-06,0.420236065698555,0
3.54522143757712e-06,0.58225682077143,0
3.91766430507683e-06,0.580616574152009,0
3.76768565810784e-06,0.547696546557907,0
3.3438124799087e-06,0.527479806282607,0
2.31875081361803e-06,0.43749850053892,0
1.64221351292839e-06,0.375260992437821,0
1.6254296971617e-06,0.377700075475952,0
1.49827775078048e-06,0.371016646038513,0
2.20199865978007e-06,0.48306570437861,0
2.35755926746976e-06,0.492369218049488,0
1.44278088725806e-06,0.383068529119871,0
1.02492727043402e-06,0.329093193648895,0
9.93210464355455e-07,0.329033831481627,0
9.43508465009689e-07,0.295456284393108,0
1.10144392757823e-06,0.317588018883055,0
1.03872586114119e-06,0.307480111040326,0
8.52063394229795e-07,0.288343145531706,0
9.09761198935753e-07,0.309113877125008,0
8.63828620512475e-07,0.299667105487458,0
9.36132271195549e-07,0.313580801323808,0
8.96648669592424e-07,0.310022964481567,0
8.18794038765953e-07,0.306606780611642,0
7.35579504027123e-07,0.290006171253129,0
6.62769602546762e-07,0.295852664967844,0
3.95475870568149e-07,0.227648398732127,0
4.23924753819309e-07,0.238296742766836,0
4.08651769274143e-07,0.221397863230059,0
3.22143787936834e-07,0.194656040492155,0
3.60956114360734e-07,0.206726502082586,0
3.15489212740036e-07,0.188552791355844,0
6.31488284810511e-07,0.265753470330175,0
7.01831093784139e-07,0.254892352621091,0
9.4975571602536e-07,0.294183223403273,0
1.09809943343761e-06,0.314203598270115,0
1.12919803617818e-06,0.322620653293758,0
1.1358152058484e-06,0.335339018201848,0
1.0984845783418e-06,0.339837860088733,0
1.08167347854396e-06,0.333864909437002,0
1.07116252557702e-06,0.340251016018219,0
9.80684453668787e-07,0.341061680632139,0
4.36531736469382e-07,0.23538765557955,0
2.40115668487886e-07,0.200482425324263,0
1.72296280343357e-07,0.180193390794571,0
1.37468214583979e-07,0.166941487433525,0
1.13696518375476e-07,0.154053475533634,0
1.18339468359692e-07,0.148999443584907,0
6.36631500707762e-07,0.308383208177578,0
9.37724250406486e-07,0.348906304084004,0
9.34245976500238e-07,0.348258357525764,0
9.34184103358637e-07,0.354140995255535,0
9.49667350969644e-07,0.334395720229368,0
9.39623306987333e-07,0.332618515641193,0
9.89458381994695e-07,0.33632112375389,0
9.69947307282334e-07,0.318345014345815,0
9.25429273854532e-07,0.308288944043458,0
8.92100509613193e-07,0.30820578038627,0
6.70051358407931e-07,0.274532635673313,0
4.88101107714664e-07,0.254058623553045,0
4.98061979408477e-07,0.248419245619252,0
5.10130762540921e-07,0.247812160656663,0
4.84103205034567e-07,0.250990552146478,0
4.59981921175366e-07,0.239736420841772,0
5.00588040627688e-07,0.24134507497182,0
4.65009928050773e-07,0.234556259112563,0
4.55062434333522e-07,0.234277175987879,0
4.80933240680285e-07,0.246226662437754,0
3.65699575195178e-07,0.211821206288742,0
5.11765252032644e-07,0.243958030525381,0
4.92837615521814e-07,0.236973126140435,0
4.90825198192201e-07,0.233921572780048,0
5.36182611636295e-07,0.239054421275503,0
3.33806637493609e-06,0.237878821075425,0
1.69460430953721e-05,0.368840844655486,0
1.75161441583745e-05,0.292495512782277,0
1.68069983918658e-05,0.295569539816916,0
1.64194700955318e-05,0.284763534989629,0
1.65150817019069e-05,0.27840137612159,0
1.63474191301824e-05,0.284852471770363,0
1.61539995529249e-05,0.28477574544546,0
1.55003734453066e-05,0.276670189135313,0
1.41663164297279e-05,0.264620468654625,0
1.30803658712561e-05,0.377059464222549,0
2.67963510936774e-06,0.238104751617444,0
1.80004547220458e-06,0.276781348815092,0
1.89989692900693e-06,0.292024002449454,0
1.76060288466118e-06,0.339237661537971,0
1.17871019147496e-06,0.330417783002259,0
9.933090389196e-07,0.32773299801187,0
1.21799329945566e-06,0.365159327665935,0
1.41552924489624e-06,0.384240409034388,0
1.36710449026018e-06,0.394077556858616,0
1.02980134256595e-06,0.34639212419345,0
8.24796525618334e-07,0.311029635242325,0
2.91641913361355e-07,0.193432905283367,0
2.16840101581243e-07,0.165683699585577,0
3.54648662450532e-07,0.190211664619181,0
1.7273515718631e-06,0.406469602455212,0
2.46187712017091e-06,0.483343949361705,0
2.48018664135675e-06,0.450885670128933,0
2.33201085275556e-06,0.426422616834137,0
2.3480468220298e-06,0.402243191302569,0
2.3933494913856e-06,0.380746203063722,0
2.62815128676206e-06,0.388305562415118,0
2.58791499795129e-06,0.342942610853332,0
2.32531966414922e-06,0.315501530037168,0
2.2431472033742e-06,0.315774447288262,0
1.85224070391918e-06,0.29270283285022,0
1.459618214931e-06,0.254369320774527,0
1.4005850769329e-06,0.249326517349613,0
3.47733876808293e-06,0.331759660889169,0
7.06164792477253e-06,0.41179134230919,0
6.6851874396799e-06,0.363320014566445,0
7.06570638039917e-06,0.381250090203737,0
7.28327522965105e-06,0.404845929285047,0
7.07469778885723e-06,0.401105242954934,0
7.0257315782224e-06,0.400496691822018,0
6.65013793320321e-06,0.389750480568218,0
6.6023925509427e-06,0.387961545956066,0
6.46963769674592e-06,0.365908053695767,0
5.90404430774102e-06,0.423005547451041,0
3.14484183449479e-06,0.383069712931188,0
4.86990867679482e-06,0.572468211634148,0
5.5875019313987e-06,0.598173802973076,0
5.20884578590275e-06,0.568543840279433,0
4.67728244875268e-06,0.510601112425013,0
4.50782317957061e-06,0.482528029329099,0
5.68887082039785e-06,0.54752834194771,0
6.64177942625477e-06,0.584761485239624,0
6.23599274429009e-06,0.622750718617163,0
6.45780478846339e-06,0.64370759723655,0
7.75438639514436e-06,0.696254964699036,0
7.37427372245017e-06,0.701521025191497,0
5.50211250732542e-06,0.604943059187325,0
3.17335179877052e-06,0.44854809807777,0
1.56679411390131e-06,0.320388620725605,0
1.28317925051646e-06,0.310501544815618,0
1.22626256121835e-06,0.312370438486988,0
1.14903291073115e-06,0.315219183351419,0
8.43732699390523e-07,0.276867445704933,0
6.59055365777594e-07,0.256237402874256,0
5.21211511693821e-07,0.246512147466633,0
5.63471835550695e-07,0.261237614056468,0
6.34508891097515e-07,0.258359970780566,0
6.23573891478742e-07,0.271068540703208,0
6.83960317421745e-07,0.297716610111554,0
8.50704473452658e-07,0.306376293841116,0
1.17900987575256e-06,0.359227722716615,0
1.29874936696212e-06,0.367633911677375,0
1.19280142541944e-06,0.364990201999844,0
1.23988917451629e-06,0.374667334143957,0
1.37072992190861e-06,0.388218331346563,0
1.35553746926183e-06,0.391199293166192,0
1.29146893129601e-06,0.441365296476789,0
6.79503955005374e-07,0.330347027644608,0
1.47962885145237e-07,0.157911405960367,0
4.9864497754499e-07,0.281322092020252,0
9.30938535834174e-07,0.344465007761689,0
9.1616388091596e-07,0.350231980370534,0
9.46891684871938e-07,0.329215271199484,0
1.02203648332747e-06,0.33459402733581,0
1.05113569466297e-06,0.309640515937269,0
1.49026918353475e-06,0.354114100181976,0
1.65220545321251e-06,0.328502618378759,0
6.61866439506688e-06,0.510224896314702,0
8.75249715950686e-06,0.431035526859566,0
8.66514143691791e-06,0.426826059149867,0
8.78798708305406e-06,0.424187316537693,0
8.98595367612175e-06,0.412648477869485,0
8.33282255363625e-06,0.379805785994827,0
6.93839812292338e-06,0.345344746486641,0
6.7700446491198e-06,0.341327797626189,0
7.21525173935095e-06,0.352128315383329,0
7.15293853273094e-06,0.370082068295564,0
4.56976743567911e-06,0.383401661843697,0
2.83921852741757e-06,0.377749875412567,0
3.28648151340216e-06,0.420471063615959,0
3.65198235523499e-06,0.479356275090813,0
2.20974987700298e-06,0.438361740578501,0
1.20686493526776e-06,0.362495233397353,0
1.38943558962411e-06,0.340036756256792,0
7.79469696693026e-06,0.533684431732812,0
1.21751574089758e-05,0.470458337250207,0
1.23045015832532e-05,0.475220281164472,0
1.22673544628593e-05,0.474906729368833,0
1.1072748330799e-05,0.452297099549949,0
9.94761895975586e-06,0.428651231998863,0
8.60139115397346e-06,0.39735561410217,0
7.57868559579186e-06,0.364668486887198,0
7.17013627365403e-06,0.354200849493742,0
7.3079801277378e-06,0.376594269547102,0
4.34090475779237e-06,0.4172158996347,0
1.21686629294327e-06,0.286957346551673,0
1.34033947179581e-06,0.316773683215345,0
1.05007038526618e-06,0.290048028721772,0
9.33802831026605e-07,0.271406583332671,0
8.99033733979707e-07,0.271718808836127,0
3.35989641626996e-07,0.180744684949921,0
3.88566849777653e-07,0.199294554612174,0
5.1772267622713e-07,0.218741619084883,0
5.52625112974636e-07,0.227354757055057,0
6.79036429929716e-07,0.261528414029945,0
7.0482071949384e-07,0.261578810356594,0
6.24045905217589e-07,0.243871357717178,0
6.58978354399356e-07,0.249005091506359,0
6.83269943420719e-07,0.261630815262116,0
7.33984708400068e-07,0.276189949426833,0
7.40175279041356e-07,0.275392463513647,0
1.0898177618414e-06,0.304372254261148,0
1.1259164713352e-06,0.287700013902465,0
2.46629818937279e-06,0.372921860315715,0
2.53614926969475e-06,0.332754409502094,0
2.58734423362229e-06,0.338561900482702,0
2.84729240031205e-06,0.354977401113208,0
2.92447496384226e-06,0.3586600279166,0
3.18884833634508e-06,0.373643073322975,0
3.36033287275531e-06,0.378019346243211,0
3.23355022893762e-06,0.374079236267003,0
2.93255446956897e-06,0.396485008580579,0
2.66328607783933e-06,0.421098524455151,0
5.39482307158034e-07,0.224467018076849,0
2.63449588015982e-07,0.193021493949564,0
3.92805556035874e-07,0.213434758659764,0
5.48310451494221e-07,0.238534100811932,0
5.38039598001374e-07,0.238656953503949,0
4.94754802781424e-07,0.230995683950531,0
5.56578657100865e-07,0.249090458080253,0
6.4313601373325e-07,0.27348511436327,0
6.86497820331437e-07,0.282508427904265,0
7.11784308346632e-07,0.273542108480728,0
6.72764359247002e-07,0.25843511671782,0
4.9047032976128e-07,0.221200664363531,0
6.21827977524334e-07,0.270696970671065,0
6.62640663496341e-07,0.287529923328831,0
6.54146088444178e-07,0.277799985313516,0
9.4614181408041e-07,0.339364423852918,0
1.07565338909084e-06,0.362327531500578,0
1.04635271598987e-06,0.35156832584436,0
1.01265077661284e-06,0.347954465588148,0
1.00044020453144e-06,0.345843825549935,0
1.00742183604998e-06,0.347052139391832,0
9.48809664248581e-07,0.325515803502379,0
6.14434885213484e-07,0.249392379438836,0
4.17266042011338e-07,0.216710627262214,0
5.76469331898187e-07,0.261676812912387,0
4.18864446171544e-07,0.221523694238063,0
3.07801540905801e-07,0.192176906815162,0
3.24775376747482e-07,0.192572563604186,0
3.24328622740698e-07,0.190946994638465,0
2.5973763958491e-07,0.183017067516398,0
2.40323291163615e-07,0.184119687442567,0
2.9459571777855e-07,0.202258413852061,0
2.60867726552425e-07,0.186344128730353,0
2.77802484620463e-07,0.182709397242969,0
2.4854511391731e-07,0.162771273059346,0
5.12822112181081e-07,0.23261750711573,0
6.65538755682195e-07,0.270801676915219,0
6.60981178311566e-07,0.269150118924942,0
6.53934417170279e-07,0.262039283827845,0
6.41540778041177e-07,0.25952445929415,0
6.33200753823512e-07,0.26614129215034,0
5.32091415172277e-07,0.251967441466008,0
4.63249667976762e-07,0.228068651006354,0
6.71564565980555e-07,0.272111436672629,0
6.28470494939625e-07,0.263244338627117,0
5.65170926587135e-07,0.256266681127303,0
5.3263207905401e-07,0.246975787407987,0
6.34667314504175e-07,0.270896465768312,0
6.3761539807613e-07,0.280854925139757,0
6.31301433203654e-07,0.270679886008941,0
6.08860581624108e-07,0.261987974659946,0
6.13288603853287e-07,0.276438831493094,0
5.90575616066299e-07,0.294319068743664,0
3.34658444946025e-07,0.231340450198021,0
2.70437116405779e-07,0.241059123765231,0
2.55153922352183e-07,0.228780557519417,0
2.46832028813281e-07,0.217282234972439,0
1.52734950205883e-07,0.171024071692496,0
8.17841474026904e-08,0.130455072423157,0
8.14155489431925e-08,0.130809045268728,0
1.55515369005788e-07,0.168783239509842,0
2.45783705926204e-07,0.207755014308637,0
2.07121265647606e-07,0.184626654266364,0
1.98379814120063e-07,0.183971421528235,0
3.14214784446452e-07,0.208885957647462,0
3.28445519001796e-07,0.205309598349681,0
3.31790013142419e-07,0.218300139181454,0
3.25790694758172e-07,0.224932015810607,0
3.8158416210306e-07,0.240761898715587,0
3.37309836682504e-07,0.21793214001441,0
3.26449296064863e-07,0.216512934800909,0
2.73697822166878e-07,0.195741356879582,0
3.69874648051722e-07,0.220235131287683,0
3.87826044325505e-07,0.226106477195587,0
3.06178141052544e-07,0.220237276936445,0
4.02731926632238e-07,0.252910541238928,0
7.00120825096229e-07,0.324067807849728,0
8.57508494729739e-07,0.336108110047027,0
6.22932716746784e-07,0.285936171280391,0
5.88642234414008e-07,0.289895388739246,0
6.24542034519449e-07,0.292018345872983,0
5.21649464400236e-07,0.260266900933901,0
7.22599346241359e-07,0.295402895527768,0
9.21510142812748e-07,0.323667180302412,0
9.52190067694714e-07,0.332546267575129,0
9.93230971385316e-07,0.3475813972893,0
7.37512357601391e-07,0.302210412699808,0
3.35713984899406e-07,0.203232319538247,0
8.03771275190308e-07,0.293013319539216,0
1.42130861878424e-06,0.36409286380974,0
1.36950196448098e-06,0.362000641552358,0
1.3584074852995e-06,0.380820595344247,0
1.27448664620597e-06,0.3740250069295,0
1.20720035282486e-06,0.377209617495229,0
1.25354307184538e-06,0.374731216241887,0
1.18535552530637e-06,0.350515844347178,0
1.06860592384553e-06,0.320352730865099,0
1.04871216859308e-06,0.315360262773839,0
8.29671741919317e-07,0.296116775579163,0
6.35847128818782e-07,0.274378491442553,0
7.35555300451104e-07,0.276009190617458,0
7.38867669845375e-07,0.27479802886793,0
6.88258080405449e-07,0.271774403403381,0
6.54227060407583e-07,0.262099228826918,0
5.61195907288002e-07,0.239894753410946,0
5.12332055776477e-07,0.239864228972425,0
6.48928237519789e-07,0.27067369754077,0
6.91041139595465e-07,0.278101332798026,0
6.21932272933719e-07,0.26551172961071,0
4.16448313193955e-07,0.226705293306072,0
2.9498077466974e-07,0.20855002293289,0
2.85145849584221e-07,0.201300240081434,0
3.13137505281157e-07,0.205274598001509,0
4.13235046441851e-07,0.238819501703811,0
4.22652437837814e-07,0.236057881877544,0
3.87407102427891e-07,0.230036355386157,0
3.55289133078461e-07,0.230993614897031,0
3.45164381171756e-07,0.240488681912697,0
3.35275240075958e-07,0.230064077636599,0
3.09864125647524e-07,0.219615311288582,0
2.63551683100275e-07,0.191172883789616,0
3.75816229905542e-07,0.210448702683288,0
1.04776092404908e-06,0.284096644745823,0
1.47732326280743e-06,0.316823078151727,0
1.61108753814367e-06,0.334886892852052,0
1.57318869868518e-06,0.322940796188251,0
1.53452960290072e-06,0.314901540784045,0
1.52226587096508e-06,0.311071635314716,0
1.50631993899362e-06,0.308428062587673,0
1.41952081064007e-06,0.298409307913146,0
1.59553845680589e-06,0.315967958365803,0
1.18454800599742e-06,0.265924376387608,0
9.33808727897853e-07,0.287216320169968,0
6.98265246939209e-07,0.265629147463831,0
6.49761192586812e-07,0.254347718612244,0
6.50428683206877e-07,0.254478077283933,0
6.05794824666205e-07,0.255765354236373,0
6.3301663061977e-07,0.275192837675753,0
6.87254732163261e-07,0.292105881791348,0
9.31464061479273e-07,0.3351576563666,0
5.28570895024253e-07,0.26344148266449,0
3.14554954705755e-07,0.232617374796532,0
3.36563046346105e-07,0.239354591137505,0
3.70392868617512e-07,0.237717259252604,0
4.24023328383454e-07,0.249036869659693,0
4.75530650461127e-07,0.270373664171497,0
6.27628122481206e-07,0.292936114857194,0
6.58008099046561e-07,0.284144675662047,0
6.38106158584765e-07,0.285793548955337,0
4.54032242125207e-07,0.234068206727543,0
4.66271770484829e-07,0.228766230834009,0
5.11156906151066e-07,0.235928584748763,0
4.41231014775967e-07,0.215610151396709,0
3.66722374311182e-07,0.196729845586785,0
3.75176815433657e-07,0.192694710973461,0
4.63822192565834e-07,0.220093959998428,0
5.45509877716469e-07,0.243624440473963,0
5.80271757697064e-07,0.237337452112044,0
5.91862806245421e-07,0.229738703372127,0
6.92750352127331e-07,0.25260496387811,0
6.2954539775382e-07,0.241263042335159,0
6.41419760161088e-07,0.23510184085312,0
7.70918925338001e-07,0.258154697632097,0
5.2477401404461e-07,0.212954986227853,0
4.03893698281085e-07,0.19658675014758,0
4.82766727573375e-07,0.213110211404917,0
4.65006407530625e-07,0.205148575708115,0
4.72514356811304e-07,0.215742982487346,0
4.61239186933229e-07,0.227951043975892,0
3.59343012028911e-07,0.20216081599087,0
3.63520373223551e-07,0.212144447174655,0
3.21991613453436e-07,0.218035706651339,0
1.29636113410671e-07,0.143836547094923,0
1.85633418872129e-07,0.178508138083666,0
2.50800447137138e-07,0.200447523807447,0
2.16207728149654e-07,0.189283623996231,0
2.03057265201731e-07,0.193914276811658,0
1.84825811550172e-07,0.18046330143146,0
2.28616857567408e-07,0.185970898156342,0
2.00333702802216e-07,0.178879146179875,0
2.07336457441653e-07,0.183703365418729,0
2.20813008568288e-07,0.19349575052676,0
2.15892289544391e-07,0.188906965535457,0
3.44815937690106e-07,0.222039749879369,0
4.59787324424184e-07,0.245706267321953,0
4.83622213969344e-07,0.244851351071575,0
5.00862905238245e-07,0.236104880828474,0
4.91868064273048e-07,0.237459490050152,0
4.27972031794481e-07,0.223460208500955,0
5.02809048776073e-07,0.242935709067838,0
5.09375522956166e-07,0.245314694417109,0
4.81137166809858e-07,0.227225204222627,0
7.44884238778349e-07,0.271574341735049,0
7.29133871701109e-07,0.257616430718982,0
6.40559961127937e-07,0.239941216017203,0
6.70525308432858e-07,0.252112225345153,0
7.12515256342364e-07,0.266560998663962,0
1.57089261544464e-06,0.369511306454779,0
2.26640525569311e-06,0.375965341842659,0
1.94212442401342e-06,0.341352073609181,0
1.86143058170057e-06,0.338724168183365,0
1.97670904580456e-06,0.359706602790859,0
2.06391444218319e-06,0.380000984185353,0
1.99762656831607e-06,0.389725575132172,0
2.02374064260505e-06,0.395500329864275,0
2.03533591577759e-06,0.388311618802532,0
2.05084204676955e-06,0.394391917723888,0
1.41259594750891e-06,0.382270654641023,0
5.9239792530792e-07,0.306618491061627,0
6.49684533260588e-07,0.349797779833931,0
6.64879714310484e-07,0.311131846557805,0
7.7469785166489e-07,0.318440703259573,0
7.46589666751055e-07,0.312836983201904,0
8.00860509131922e-07,0.314950142979006,0
7.04261044803309e-07,0.302992143227275,0
7.72071191582449e-07,0.323343923313968,0
9.47524674394554e-07,0.342498593878269,0
9.41424053043047e-07,0.33806436909623,0
9.12217377830024e-07,0.330249282463354,0
9.44428728976382e-07,0.318206810875203,0
8.96085386368741e-07,0.329759036667734,0
5.41584761790433e-07,0.270807429263863,0
2.44991940944913e-07,0.184230071660833,0
2.44100545243434e-07,0.204715421373679,0
2.68874445525075e-07,0.209234844622163,0
2.82924401370819e-07,0.213327466157497,0
2.64794426712527e-07,0.193812112725825,0
4.50466747332292e-07,0.250687354125005,0
5.93204828525847e-07,0.27071621536226,0
5.07294191444655e-07,0.261219117169935,0
5.20810612461965e-07,0.269288226885264,0
6.08319741716367e-07,0.285847197439326,0
6.63154659437953e-07,0.291964788188599,0
6.53441984414573e-07,0.286254625421621,0
6.55208845463863e-07,0.296553742672009,0
5.36285058772602e-07,0.273116048567819,0
5.68930049988192e-07,0.307472231213264,0
5.67826014869771e-07,0.260767270042279,0
5.88526057249124e-07,0.25382189015174,0
6.21000655289548e-07,0.257505342437243,0
8.27019382039796e-07,0.294963738950421,0
8.79069304285283e-07,0.301680580807272,0
9.53634889163462e-07,0.314581706921865,0
9.56336536325056e-07,0.302840678352493,0
8.93978707112163e-07,0.284823988696081,0
9.02921796431184e-07,0.287151503155989,0
8.94791507201338e-07,0.287593888158574,0
6.1376528228133e-07,0.269540786274722,0
3.20207501855421e-07,0.212744024765021,0
4.98912273037229e-07,0.271619754115029,0
4.22706653848093e-07,0.235000642397749,0
4.27856558733626e-07,0.236266196646507,0
4.32927868006853e-07,0.243746626555869,0
5.18304970259613e-07,0.282410982574831,0
5.31172471400639e-07,0.279353637792325,0
5.65817998190342e-07,0.281377155592822,0
9.28753965069321e-07,0.354506549037406,0
9.75157941140419e-07,0.341394084134532,0
1.02751555684684e-06,0.34964346574433,0
9.95653705338183e-07,0.344747062713379,0
1.0099742131573e-06,0.370983419957775,0
1.02768031718977e-06,0.38068906479559,0
9.97330177032672e-07,0.368448230890989,0
9.35240171390041e-07,0.348812612375427,0
1.14739234834218e-06,0.371199315224499,0
1.15309884746311e-06,0.369503047988319,0
7.46217195719394e-07,0.305838168377588,0
5.89479414105208e-07,0.286393930179248,0
5.84983621863178e-07,0.288285605288923,0
5.53490896892037e-07,0.280041209353303,0
4.82378854266066e-07,0.264477642140496,0
4.32553988767133e-07,0.244504229279902,0
5.060204672551e-07,0.262855191731264,0
4.96181053506392e-07,0.247122741828005,0
4.22386990618652e-07,0.246937021810884,0
3.87896454728466e-07,0.239673516611495,0
3.85952863567746e-07,0.241420701730803,0
3.16875681587332e-07,0.217559238140054,0
3.07508193564467e-07,0.218543073055077,0
3.20281344765526e-07,0.213198258235396,0
4.06988323504201e-07,0.230887547209669,0
4.0806067394129e-07,0.230996888467811,0
3.22300011018403e-07,0.208131548539104,0
2.74836446395753e-07,0.203239343834308,0
2.73804845979379e-07,0.199121726279444,0
2.70224917053857e-07,0.199887209683502,0
2.90357363572344e-07,0.210578111798702,0
3.10405581646291e-07,0.224246158506105,0
3.78721979222717e-07,0.248937679407309,0
3.60944848696261e-07,0.248596322203146,0
1.72852258487734e-07,0.177731106573454,0
1.25062869725384e-07,0.162224489868507,0
1.3951601314108e-07,0.169981513763456,0
1.72461480751303e-07,0.199835395579095,0
1.90603425178098e-07,0.219305921008468,0
2.47945217284086e-07,0.256563211647813,0
2.43224199765587e-07,0.241653451589801,0
2.20270408400473e-07,0.213631647602875,0
1.93731407329617e-07,0.186696346951184,0
3.5946050938885e-07,0.230283003660116,0
5.37045491124575e-07,0.256786926221276,0
5.69180094931705e-07,0.255585014819664,0
6.98340938122392e-07,0.276586524362097,0
7.76347127341234e-07,0.292303424504381,0
8.18871490209211e-07,0.292412283797317,0
8.63696601006924e-07,0.291688347821597,0
8.71764224978133e-07,0.284201004611727,0
8.65668092289817e-07,0.296509461428684,0
8.83166749672565e-07,0.310127675130394,0
6.96196853339242e-07,0.310037712407843,0
3.38774373064083e-07,0.241409490572046,0
3.27371760356649e-07,0.257079659352097,0
3.22937313178199e-07,0.249388580959738,0
3.53781910390088e-07,0.248810928296568,0
3.4225572742546e-07,0.244767557000924,0
1.97960168118419e-07,0.201402763223755,0
2.01018179931996e-07,0.201867577733617,0
4.15182334148726e-07,0.269313154538551,0
3.936433518181e-07,0.262886487587457,0
3.64044226621577e-07,0.256265318856139,0
2.86874424976901e-07,0.220562489502686,0
2.16156416568497e-07,0.186270557279288,0
2.26950331342337e-07,0.187653817553872,0
2.24667274026344e-07,0.192412699729438,0
1.52142798716985e-07,0.158999723411135,0
2.0087867932113e-07,0.171258479032596,0
1.86583959312095e-07,0.168345274251663,0
1.75062705075674e-07,0.168347799505182,0
2.45240753706375e-07,0.194660126321568,0
2.60851532159745e-07,0.194619441692929,0
2.61143647319027e-07,0.196574186871114,0
2.69060593027902e-07,0.199899924382381,0
2.94322877467078e-07,0.212926274124743,0
3.6117148218079e-07,0.239679401126653,0
3.74331890598131e-07,0.258599765707344,0
2.00537892970801e-07,0.211141005013679,0
1.37605514869752e-07,0.186827146518469,0
1.28578197106189e-07,0.180190104773016,0
1.35080597819589e-07,0.186752480900677,0
1.2911287610367e-07,0.184621616126621,0
9.36620303301068e-08,0.159465728055789,0
8.36306602203288e-08,0.163876255413783,0
7.01476841444244e-08,0.149667603040427,0
4.95763167764822e-08,0.122505567537814,0
5.59815511337963e-08,0.127215948085551,0
6.91337743417935e-08,0.128276543448988,0
6.98237962908062e-08,0.128745383500859,0
7.12577921601e-08,0.133048164973441,0
8.09493440625901e-08,0.136183014531995,0
9.37598127772181e-08,0.139849340801551,0
9.43970269240104e-08,0.141473811966802,0
1.20198919088875e-07,0.154000362569155,0
1.17413571560762e-07,0.150804505458614,0
1.04467826859446e-07,0.146074321533321,0
9.9715916776648e-08,0.145913212531588,0
1.72423019068686e-07,0.183102120224578,0
2.21815212641426e-07,0.187578699440671,0
2.38767661323208e-07,0.192142267171492,0
2.41785715233104e-07,0.193626742139354,0
2.45453129084304e-07,0.189141746927161,0
2.62051237413188e-07,0.189909186719778,0
2.09205413575235e-07,0.170879780726557,0
2.15039355525529e-07,0.172301067964653,0
2.11616969876632e-07,0.174951483858545,0
1.9934725305674e-07,0.168643967868427,0
1.65207801038315e-07,0.156842200659333,0
1.34709094930969e-07,0.14324352892145,0
1.6959929787096e-07,0.154641117975872,0
1.70531179554141e-07,0.155673348510416,0
1.75021162937927e-07,0.163542152709605,0
1.32897435262796e-07,0.147522622903033,0
1.37965664080894e-07,0.146386884112291,0
1.78022494377121e-07,0.169758949412148,0
2.04966443278004e-07,0.180847949921736,0
2.3965580054355e-07,0.196619409648619,0
1.84711130606351e-07,0.181163085062649,0
1.6137923537734e-07,0.193211130739024,0
1.65195127165782e-07,0.188819811147966,0
1.922041176764e-07,0.211912181542399,0
1.83607711578956e-07,0.213667061365815,0
3.04417616939521e-07,0.242736148867018,0
3.64247008582103e-07,0.252181734988237,0
3.62011478288108e-07,0.239947404044675,0
4.77264154582014e-07,0.254144577241518,0
5.12065200349256e-07,0.242565167360305,0
4.87614483817204e-07,0.233057756500238,0
4.29305252774538e-07,0.213040094151091,0
4.08797078743253e-07,0.212899704649724,0
4.29600272362941e-07,0.212899301970793,0
4.43343942955809e-07,0.220843650688406,0
4.58984205765416e-07,0.228653534840453,0
4.76641814632847e-07,0.243108760626681,0
5.25712936768088e-07,0.261725061556707,0
3.14247613296831e-07,0.214506533178397,0
1.93915530533358e-07,0.181768546841708,0
1.51836425451103e-07,0.158858598465292,0
1.25649124343034e-07,0.148473417509745,0
1.05743047270064e-07,0.13813802999163,0
1.05767690911101e-07,0.141146924748911,0
1.26999155806797e-07,0.154105597134546,0
1.11281441553931e-07,0.15643891485367,0
1.25505047055976e-07,0.17472620584299,0
1.31599507497223e-07,0.170297927186147,0
2.46061739004894e-07,0.227764524784121,0
3.34687313211238e-07,0.275262702750957,0
3.84196388052893e-07,0.292358164942162,0
3.79882430676509e-07,0.291038029122043,0
4.02562941665132e-07,0.272709176770487,0
5.04570012954114e-07,0.292720009792351,0
4.33092628349781e-07,0.266072869227281,0
3.67978759939008e-07,0.235924438086288,0
3.21656547948348e-07,0.211240359673133,0
2.57101826150085e-07,0.192376182014817,0
2.23861338951458e-07,0.185543399361917,0
1.88664674732581e-07,0.175847006588553,0
1.69249006116231e-07,0.16914363007241,0
2.09613793912406e-07,0.186330054073836,0
1.89422906759462e-07,0.188029337981372,0
1.09999972220051e-07,0.15588229990262,0
1.12260850259112e-07,0.155085614502316,0
1.25233702965567e-07,0.162350137601606,0
1.28893987763467e-07,0.170697603884003,0
1.70443782641467e-07,0.18150451951858,0
2.43857189288202e-07,0.206275328268238,0
2.21189264159108e-07,0.191282435784863,0
2.06316474741767e-07,0.189915142207312,0
1.8492588233538e-07,0.184003369734405,0
1.88332249617604e-07,0.183394273350467,0
2.13566633934607e-07,0.203014866833532,0
2.25448829499204e-07,0.208125199706692,0
2.06650924155829e-07,0.205126951629005,0
2.08188423317475e-07,0.192761832513827,0
2.61273994577507e-07,0.223116406187246,0
2.01277202201887e-07,0.207723508066268,0
1.99287404214224e-07,0.209468607559707,0
1.93061716384459e-07,0.206488239371282,0
2.8217145012416e-07,0.238068424819795,0
3.54027026605394e-07,0.25741229713976,0
3.46855639050867e-07,0.238796226033399,0
3.29790269685337e-07,0.234096905442885,0
3.39661808180396e-07,0.231501128999369,0
3.22766127886e-07,0.229056585690518,0
2.25178453551836e-07,0.187920139209192,0
2.83579922222381e-07,0.208298913600474,0
3.45361530300046e-07,0.222544996307066,0
3.54620938354366e-07,0.21470901415388,0
2.49461857363855e-07,0.186009961836249,0
1.52698952887369e-07,0.155311536424911,0
1.63325290902163e-07,0.163120807136755,0
1.85028681523703e-07,0.172496978897765,0
1.9512377304816e-07,0.171708537107306,0
2.09799677376222e-07,0.184702073957042,0
1.98393896200655e-07,0.189955714914013,0
1.72566656290725e-07,0.184438775335267,0
1.25054420477029e-07,0.166481847840594,0
1.17953531338466e-07,0.171350700114354,0
1.35520662838092e-07,0.181795989215909,0
1.69922745659559e-07,0.203277865511052,0
1.926393419797e-07,0.221503462519931,0
2.13196979319065e-07,0.235327390464445,0
1.73742510020165e-07,0.234397926671482,0
1.03624750296999e-07,0.18852520604586,0
6.0639903393661e-08,0.156732575889718,0
8.53954969705328e-08,0.161098549899959,0
9.04041409851259e-08,0.158574685025782,0
1.48307896119743e-07,0.171222393117604,0
4.52196730933031e-07,0.275150719803539,0
4.41417602343813e-07,0.265976026003982,0
4.34615605365816e-07,0.244244016849758,0
4.71512328764173e-07,0.245646846431657,0
4.70093647157524e-07,0.241339572768603,0
4.78083027568444e-07,0.243344885658777,0
5.48601246458448e-07,0.258757696287796,0
5.6998981456575e-07,0.257304020455967,0
5.4946940672695e-07,0.264993868561548,0
4.90107804199036e-07,0.276356795258792,0
2.02814965402544e-07,0.193950068388297,0
1.5501026237755e-07,0.175821874909772,0
3.92341551480364e-07,0.268554920039634,0
4.99922662319712e-07,0.286657167207926,0
5.3643221651479e-07,0.286500523900346,0
5.79011411484071e-07,0.291506952220786,0
4.94069797573623e-07,0.261819342122272,0
4.71908827345844e-07,0.271609887358619,0
4.71935231246955e-07,0.257635959575169,0
4.87237788161364e-07,0.260548816539981,0
4.70512501042134e-07,0.256202407274196,0
4.62844808159739e-07,0.252941984523891,0
3.48301604688664e-07,0.240229433951691,0
2.50125915476776e-07,0.213631871311884,0
2.10349582623343e-07,0.205459675168433,0
1.16668629497441e-07,0.155658530718628,0
1.50551435597074e-07,0.183250755057025,0
1.43279889244336e-07,0.170084876446408,0
1.35464334515724e-07,0.170008782035076,0
1.36070128020195e-07,0.173753181566913,0
1.97418008015623e-07,0.20473909907348,0
1.48597414895416e-06,0.304975759887272,0
8.84231082125015e-06,0.583556580716356,0
5.83992133373241e-05,0.406098812040779,0
0.000137105493632868,0.654601898914276,0
0.000188967507675389,0.658973030874627,0
0.000210652058673421,0.69071837837448,0
0.000198645305609765,0.503337264540282,0
0.000172380508787898,0.428229403359466,0
0.000154298091076026,0.404783692552027,0
0.000130372097070411,0.329764867501551,0
0.000116501484002113,0.225269733408222,0
0.000104246212140428,0.157965174682407,0
0.000108954657177375,0.126170613197769,1
0.000190750327946613,0.136030634340789,1
0.000205120577194904,0.116411852683044,1
0.000202510221081334,0.118553083827437,1
0.000201651061638681,0.122450625044632,1
0.00020848549079245,0.119679209341575,1
0.000198017096249407,0.115768843558351,1
0.000184947265886746,0.117878414413098,1
0.00019539838840589,0.146134445904548,1
0.000205885307397874,0.173230570748759,1
0.000198204013337939,0.267795671580982,1
8.01341661260942e-05,0.246595265866369,1
3.15630723567906e-05,0.270888242569967,1
2.19210340178052e-05,0.134508063619889,1
0.000121230171677859,0.182546893429291,1
0.000242460800319233,0.236077419214071,1
0.000237040971433106,0.191186575095851,1
0.000229307656055152,0.183880064796446,1
0.000215712040233008,0.169290024553608,1
0.000209175726349022,0.152642725830433,1
0.000197556830486295,0.143319161949826,1
0.000184942325188771,0.138092576914007,1
0.000191642883747495,0.144703885854522,1
0.000204593456754181,0.177035312217402,1
0.00017239983846781,0.17102517569864,1
0.000121075472981514,0.141118905113386,1
0.000118823671899551,0.159614706072266,1
0.000117415357168582,0.144742865128192,1
0.000187789734646378,0.0947874661193528,1
0.000417641971954044,0.145913468595647,1
0.000871691046390182,0.201753801923702,1
0.000978721155956474,0.159476723051667,1
0.000927565260385185,0.148817427151306,1
0.000749263112345937,0.0983969938409141,1
0.000666460172619236,0.0975887550895604,1
0.000804613399011992,0.10870004785705,1
0.000866893428954237,0.106224541985116,1
0.000774721856595558,0.0933691487066609,1
0.000822495446759704,0.114160910970621,1
0.000853162956527367,0.118766458794225,1
0.000557918229011256,0.0893752249987276,1
0.000625799398851876,0.0701149206663677,1
0.000913422290636871,0.0733853947211157,1
0.000930823743553902,0.0829775505848785,1
0.00093862246385927,0.0707655124658722,1
0.000954987598686903,0.0704659691424708,1
0.000994094007536744,0.0742728048048675,1
0.00104629739304004,0.0814066098360104,1
0.00113233704239848,0.0940654269547054,1
0.00120743407135619,0.0988725630289076,1
0.00126650361672539,0.113598350595616,1
0.00101882163762208,0.197795281814144,1
0.000388306386118801,0.159409666602373,1
0.000192534688181363,0.118482429051792,1
0.000103852377888404,0.142129808623412,1
0.000103157814468401,0.126898703925608,1
0.000178506113510635,0.137435510497218,1
0.000207028083024107,0.143683385086659,1
0.000329059918769821,0.0585098166659865,1
0.00203380994631942,0.0797423817237965,1
0.00287291004077419,0.0631641619606563,1
0.00272886199542071,0.0544877745546914,1
0.00258961952599103,0.0514100219528355,1
0.00263333850766494,0.0513446904685593,1
0.0026370468722065,0.0521846350884543,1
0.00268084388128076,0.0533629156679033,1
0.0027452620808282,0.0541854423308566,1
0.00278216183257799,0.0548468584908103,1
0.0027536240561931,0.0744875493368251,1
0.00148417737747768,0.123535240018797,1
0.000412645410716651,0.119028200321872,1
0.000143882776823464,0.090906264466358,1
0.000127145783974741,0.113666122108249,1
0.000125985693462277,0.110137338872472,1
0.00013601479283656,0.11413267477719,1
8.36351326011117e-05,0.0874625869233286,1
8.66855060301364e-05,0.102027819111981,1
0.000102066968362624,0.110327972462249,1
0.000125468506081139,0.109226904951541,1
0.000186401266143638,0.0953724993017705,1
0.00028705194500504,0.126137656454145,1
0.000310760718956938,0.0722769744242038,1
0.000371357930146932,0.066978680460766,1
0.000364624040007551,0.0605795935503989,1
0.000413493210408929,0.06347206950867,1
0.000413224528447843,0.0623458858860253,1
0.000416341487850779,0.0593384180818858,1
0.000438403838187716,0.0598801470459289,1
0.000440065879534157,0.0599425469638004,1
0.000447159832543925,0.057634534884508,1
0.0004308938838828,0.0532390521005233,1
0.000514026846497555,0.0781083472140187,1
0.000749282262567334,0.0968438398940135,1
0.00137439734482515,0.125263267533666,1
0.00162266983247861,0.124030957370558,1
0.00165237651167797,0.098598285101601,1
0.00211543038601471,0.115077261803351,1
0.00202246164318009,0.121734217749524,1
0.00137081653092888,0.0918928791556393,1
0.00118775569826991,0.0820952866201719,1
0.00102532857584589,0.0471981072284395,1
0.00116729030956005,0.0531980388732438,1
0.00151930783831517,0.0700793739591748,1
0.00223515268124361,0.0910210152945367,1
0.00238900340565433,0.049853450971357,1
0.00246782206236121,0.047553615230044,1
0.00231871821492165,0.0408293475670531,1
0.00207849061545625,0.0337575733019616,1
0.00189816366912213,0.0284024582775785,1
0.00141414849231751,0.0223822097899629,1
0.0014325790169493,0.0260123349497861,1
0.00134098707394141,0.0233662038264072,1
0.00172957002939464,0.0160157268111108,1
0.00273413020034478,0.0193297514741761,1
0.00250886354236096,0.0182919519956579,1
0.00304765590070878,0.0127841040450511,1
0.00619463616259886,0.0192873540578257,1
0.00601902879257031,0.0150025899409526,1
0.0061469181671687,0.0152500170389523,1
0.006023768586695,0.0149159658118504,1
0.00583268437252954,0.0134023977704098,1
0.00523887419056423,0.0111258386572899,1
0.00492688330179679,0.0146198167440692,1
0.00458178898531292,0.0144105534205454,1
0.00454540938451813,0.0157798024770255,1
0.00429153070044321,0.0246119424456225,1
0.00199342841915405,0.0156076387144893,1
0.00176900136350737,0.0195277868376384,1
0.00166520947158762,0.011963440821802,1
0.00263267496222776,0.0152693477020359,1
0.00260238012512955,0.0179445498367436,1
0.00228773462827842,0.0148541527308806,1
0.00255208787370352,0.00879799248156357,1
0.00334230103109992,0.0118935257794116,1
0.00344495169219769,0.0120086450026877,1
0.00301000548332203,0.0105756677674104,1
0.00312348632257546,0.0117399729078981,1
0.00313705408826681,0.0104233630580667,1
0.00402673352992529,0.0181554321613441,1
0.0034372319477208,0.0123034206228684,1
0.00428515878085607,0.0151360823872028,1
0.00430879973585988,0.016905586424478,1
0.00407529441665053,0.0308311274729607,1
0.00426142075622245,0.0328923016713828,1
0.00474515273904187,0.0373820699302246,1
0.00487860807394894,0.0435135091441434,1
0.00471568875842862,0.0450603482079168,1
0.00408236163949498,0.0545133655010643,1
0.00100731816201241,0.0254686996270377,1
0.000262383678370505,0.0342395609611829,1
0.000273031417627279,0.0325009896531742,1
0.000279711808358257,0.0390974372521236,1
0.000168184542348379,0.032621894617263,1
0.000351436301176209,0.0354184198075719,1
0.000962451605803237,0.0440991994657085,1
0.000942010682596092,0.0363558617479556,1
0.000916980446553485,0.0343871467579631,1
0.000934364158865386,0.0354099536603642,1
0.000906279399228577,0.0373886546762935,1
0.00116216011210624,0.0402660201004718,1
0.00115017725782957,0.0317509362784175,1
0.0010087148692364,0.0283543995703382,1
0.00101695165772124,0.0266819149914312,1
0.00104691232933534,0.0288284115410097,1
0.000741564178807813,0.0254572028433295,1
0.000793968183968163,0.0283633160135937,1
0.000970272524396347,0.0335279660649227,1
0.000867096034624717,0.0175320225098486,1
0.000917662738760448,0.0120856386331752,1
0.00101167157341802,0.0119009782326412,1
0.00103675172374734,0.0142552050918438,1
0.00105891210543217,0.0146889712056284,1
0.00100921672466428,0.0133107345969273,1
0.000986910851587465,0.0136916333693164,1
0.000957385642527866,0.0145822376419802,1
0.000939329263903205,0.0156357020816886,1
0.000703956000093717,0.0120973109041328,1
0.000999635199577972,0.0160433478263784,1
0.00577861330276857,0.00861577441581826,1
0.121596010405838,0.0108333478781903,1
0.41073038902439,0.0405341862741093,1
0.674659257461885,0.0519526685009336,1
0.690440524244445,0.0297174211988146,1
0.647736124557432,0.0274597063869918,1
0.621500838031614,0.0262723688202241,1
0.600192604237025,0.0255721299511738,1
0.592610787138562,0.0251942920581685,1
0.601515038612052,0.0256610395745796,1
0.631068542883053,0.0275294425167911,1
0.648847573335042,0.0566597986261249,1
0.469524267719123,0.0621262305998086,1
0.151958119694843,0.0219397141002559,1
0.0274946311950113,0.0442869593854255,1
0.00688489155800659,0.0407220992690839,1
0.0032858640513977,0.0580292959189697,1
0.000958436886038459,0.0337617357590226,1
0.000616602182106165,0.037607795122324,1
0.000776825703241624,0.0334727464313392,1
0.000779930301130176,0.0312921252091539,1
0.000805416647930005,0.034941919649755,1
0.000842298373912531,0.040859129768493,1
0.00148548576726099,0.0419124997823971,1
0.0019899131368359,0.0416845288069113,1
0.00233383756748808,0.0443074281479119,1
0.00226009055890449,0.0425448834362498,1
0.00184940907554519,0.0241304843527873,1
0.00222278386706233,0.0264386175696582,1
0.00223016288565382,0.0258600541719784,1
0.00190835819853028,0.0236972851918724,1
0.00259010035229591,0.0251842680771637,1
0.00397135438133096,0.0310539871514818,1
0.00539978269059161,0.0220511022833664,1
0.00538970471187553,0.0211901008233816,1
0.00515395180995946,0.0208171395646397,1
0.00421400187967435,0.0177988614145599,1
0.00459466139969186,0.0237095381846392,1
0.0049653473868169,0.0251275242040752,1
0.00488309334714081,0.0248926883439771,1
0.00495666283789658,0.0223042653502784,1
0.00603732333068644,0.0286105954382639,1
0.00646568752598209,0.0289257532701424,1
0.00522042033623754,0.0407881905324841,1
0.00871272245515803,0.0217813794588633,1
0.0151184575885965,0.0267791422263934,1
0.0151784319956567,0.0243976320148923,1
0.0129687195572732,0.0205187386147715,1
0.0113369988484143,0.0176806920138055,1
0.00987663049794864,0.013639599900099,1
0.0106436079227718,0.0133007926573013,1
0.0111708001698723,0.0109947804564335,1
0.0119093121615671,0.0107503967956125,1
0.0108861986049368,0.00906993436113763,1
0.0103457985869813,0.0127033328060431,1
0.0076109901491006,0.00885721314392575,1
0.00779624314971889,0.00953941879216002,1
0.00666247235216669,0.00744554892859463,1
0.006633803143499,0.00438332545886078,1
0.00866923741107981,0.00733975305897712,1
0.00969467212391918,0.00942033571977161,1
0.0084944346661406,0.00807690362368139,1
0.0106603557285461,0.0128793945284785,1
0.0114641709158884,0.0147709706615344,1
0.0120426208066091,0.0161289564416425,1
0.0120693954022965,0.016064613211581,1
0.0140742294363696,0.0175317458224444,1
0.0136465947929194,0.0168083818772583,1
0.0115798792453599,0.0231703681104982,1
0.0110148557722386,0.0135165428513001,1
0.0154948604986625,0.0147802721421523,1
0.0158874142783631,0.0137700427113105,1
0.0193420665892989,0.0105294791665841,1
0.0207311246489039,0.00634712528615243,1
0.0204352564320768,0.0059620407609814,1
0.0207885630785838,0.00663307106041641,1
0.016895899841072,0.00475723793245001,1
0.0322377768837566,0.0078076217370033,1
0.0398798228523006,0.0092315336937089,1
0.0402824453456764,0.0101909266266704,1
0.0423163720232905,0.011575357905582,1
0.0400790327311407,0.0104475355425057,1
0.0476004971936135,0.0123327156027001,1
0.0430721700983448,0.015226375085937,1
0.0311043685160084,0.0109892899182223,1
0.0260380607091587,0.00928594588701467,1
0.0147281586717743,0.00414326616162267,1
0.0136434580841025,0.00652133362696873,1
0.0152118072835718,0.00602783073067601,1
0.0168432417890169,0.00764208444008295,1
0.0153033037293902,0.00642584403682955,1
0.0135768435249764,0.00545995851068875,1
0.0159222626962494,0.00447485085473312,1
0.0180601238560027,0.00246705099621956,1
0.0362751932568371,0.00774628363911085,1
0.0405725615680527,0.00598480765933565,1
0.0414298738567135,0.0066354015738593,1
0.043996338956016,0.00791711378832528,1
0.0445444890417446,0.00755920945577713,1
0.0477499038518166,0.00825328119453927,1
0.0514794247492968,0.00932426045162876,1
0.0466491490075287,0.00950216788043599,1
0.0460583098981319,0.0122152465598965,1
0.0513869854167372,0.0181189678864175,1
0.04950949566131,0.0184498671569508,1
0.0481154668445601,0.0236612142447138,1
0.0422395745860058,0.0168632448218917,1
0.0248521117171851,0.00760514312892379,1
0.023354397064801,0.00929957996003138,1
0.0240536091798376,0.00872414031518916,1
0.0331723146495039,0.0118195572456424,1
0.0371622043124163,0.010073682905706,1
0.0386798454246288,0.0112261047282761,1
0.0301737066684143,0.00783160767286297,1
0.0428337912115821,0.0122336376439141,1
0.0508380857731913,0.0155208381209966,1
0.0492264552983181,0.0179061783410734,1
0.0464593351544879,0.0176111389067349,1
0.0549811404536669,0.0213610826337613,1
0.0419621569198492,0.014774327711065,1
0.0420319284131804,0.014602085048979,1
0.0484878695467975,0.0217728984043861,1
0.0246511029686385,0.0100014281076823,1
0.020409215165753,0.0122846566341404,1
0.0210540363380642,0.0101559493327689,1
0.0224561169399651,0.00947311839064597,1
0.0232364185605648,0.00900600887685354,1
0.027064107506408,0.00499174855810425,1
0.0354983339979337,0.00672813492433198,1
0.0302405232424675,0.00602813887730985,1
0.0326840447820474,0.00682359253744796,1
0.0438567236672872,0.0103247833238166,1
0.0616079674236858,0.0158102817081801,1
0.0771030831643717,0.0191399484722086,1
0.0799022335510299,0.0227888100119148,1
0.0696058869846367,0.0195629164519591,1
0.043381786772352,0.0134157050328976,1
0.0260532657474009,0.0251110614087081,1
0.0327413753596245,0.0264806322283417,1
0.0426292076530343,0.0366023596635815,1
0.0453438980735124,0.0293565889327026,1
0.0470357960917058,0.0336993510129846,1
0.0477371153806321,0.0369427441321256,1
0.0427558433306261,0.0362378228086863,1
0.0348379955438231,0.0320845237285174,1
0.0257306519660637,0.0207120656187874,1
0.0201403226591674,0.0141017028578967,1
0.0137225872633603,0.0067430539846278,1
0.0198087489010161,0.0161474469396444,1
0.0179169134904303,0.0153376206112524,1
0.0229539412638446,0.0243850539993424,1
0.0242310292237962,0.0251438825163226,1
0.0268138891090672,0.0228206334424199,1
0.0306574190634116,0.0245324088094758,1
0.0334380877687598,0.0255110995553052,1
0.0322968721762738,0.0228708361529885,1
0.0150090309291219,0.0103491106394782,1
0.0122687966773829,0.00795288682948246,1
0.013133268033978,0.0073839143804261,1
0.0122876854533361,0.00660974920692664,1
0.0125399995670337,0.00645038310345806,1
0.0124809621284562,0.00621503552253227,1
0.0128742029425924,0.00898454555384665,1
0.0142462839904945,0.00914717137039082,1
0.0115733025194251,0.00664776753728962,1
0.0103867879515771,0.00885097875500873,1
0.0101069591590627,0.00911717515662502,1
0.0112461129488905,0.0172592585763796,1
0.00908259759256205,0.0158620457239064,1
0.00918664680493226,0.00999784149423663,1
0.0227286267274029,0.0177206984506425,1
0.0282803993709529,0.0190748084345126,1
0.0489967334198867,0.022664063478522,1
0.0652340197288209,0.0170797034748684,1
0.0543624056696582,0.0146149512834253,1
0.048120247127923,0.011748216325722,1
0.0476358930946292,0.0126047325356514,1
0.056122063994099,0.0119709820977202,1
0.0818900700506159,0.016156879307591,1
0.0634626122002487,0.00750048829524941,1
0.0656337006846799,0.00654166225594105,1
0.0617438754243601,0.00567100757544004,1
0.0762618498014919,0.00412282293498179,1
0.120135901881641,0.00969216983309798,1
0.104110666407878,0.00724711747368349,1
0.134272314640056,0.00946782368799677,1
0.123975558870316,0.00818249703253753,1
0.12823041360721,0.00898728735371593,1
0.135482599117097,0.00763058235814001,1
0.127194944965547,0.0080781637714458,1
0.145305942053942,0.0110843066590902,1
0.137267040293974,0.00746056093830597,1
0.15006388894796,0.0120938253395831,1
0.149413422778254,0.00847452014234806,1
0.160855329623458,0.0105821646884277,1
0.14352974312218,0.00962800855543734,1
0.147874728307869,0.00915999018185153,1
0.133235058967844,0.00869290782212158,1
0.117959179660991,0.0095773520677515,1
0.11172363814036,0.00927583928895512,1
0.0947416505779311,0.00633589210351934,1
0.0976189659458134,0.0115481899749508,1
0.0531471851843269,0.00386580983308362,1
0.0533903952737597,0.00577526391597451,1
0.0626231947637314,0.00804251580738602,1
0.0830763169914266,0.00995998182511819,1
0.138085945968081,0.0183237511751764,1
0.167443740845199,0.0235311929330128,1
0.189747279876296,0.0268784938677227,1
0.18958451995655,0.0322829501449396,1
0.162322359866962,0.0319662273472823,1
0.166828461481111,0.0305522923014337,1
0.138600786876687,0.044284663424878,1
0.053333406105401,0.0481938246428226,1
0.0275142741875742,0.0231730352156538,1
0.00648138501968742,0.0431493804505733,1
0.00533279244655104,0.0419217412997329,1
0.00419820629899692,0.0334257613358708,1
0.00562507527544606,0.0207212112531325,1
0.00807666176322584,0.0249389516800694,1
0.00861667244474585,0.0400348046428034,1
0.0143601324829477,0.0191389134530735,1
0.0356657203497355,0.0310729735089936,1
0.0414930722277143,0.038020343706157,1
0.0390298382041123,0.0305646966314458,1
0.0442349412538432,0.0241452063258649,1
0.0390538070050906,0.0119914339208554,1
0.0309785370223848,0.00912332201026727,1
0.0270281377268112,0.00779033226461062,1
0.0278890785890086,0.00793652326389717,1
0.0229515455174951,0.00603115226802528,1
0.0232328448475577,0.00834962506807437,1
0.0188954894252827,0.00595869060535047,1
0.0182120239367707,0.00557333853747397,1
0.028173218378406,0.00734645780816263,1
0.03204047240125,0.00821112803547578,1
0.0297471411770966,0.0113912796620716,1
0.0287776517087948,0.010814453378788,1
0.0357496010618523,0.00837423533389198,1
0.0596533694732521,0.0144926084448979,1
0.0647493051622272,0.0146186123768188,1
0.0597143124539127,0.0144395780624559,1
0.0766590760268865,0.0161446821175407,1
0.0748670989622329,0.00886470271445387,1
0.0761110317076167,0.00802311958817152,1
0.0785664968952886,0.00938493115141082,1
0.0623819010601118,0.00746598058139393,1
0.0537108101537027,0.00582110624477648,1
0.0570582017197244,0.00857384522506273,1
0.050386690278759,0.00716174389623817,1
0.0622190238484282,0.00920238173352506,1
0.0673323903480258,0.0101885643419541,1
0.0365027806868532,0.00500730261274124,1
0.0322618031889109,0.0104356826333527,1
0.025679020823772,0.0162670056654472,1
0.022211539069222,0.0159294706422696,1
0.0968722269710745,0.0212534757549488,1
0.170178189358389,0.0177242183370373,1
0.167482226224437,0.018657040285856,1
0.175843262823884,0.0202347057194404,1
0.153978827061513,0.0181273068691668,1
0.128849461792587,0.0140351379969744,1
0.119102558439282,0.0100590680454348,1
0.109300696507698,0.00946168046462326,1
0.089873063904243,0.00653590440644839,1
0.144612715296667,0.0107330887964867,1
0.171582778082787,0.015926581629109,1
0.174970897682466,0.026437277161019,1
0.165922207851122,0.016371491231086,1
0.169119112411906,0.0181014058439208,1
0.166712398823257,0.0178163288250002,1
0.182122010431201,0.0159886413783312,1
0.18414545775639,0.0179934445918587,1
0.185905850928946,0.0182948830249894,1
0.181569346144255,0.0207125829285454,1
0.1818739241252,0.0157479263689366,1
0.202764153736567,0.0169167284132427,1
0.21051881354798,0.0165438830231684,1
0.248178345756434,0.0213652179377867,1
0.315580703221918,0.0258128857394189,1
0.358992542275275,0.0295891753919324,1
0.330442755410931,0.0452968650089845,1
0.263370352626592,0.0373365917927926,1
0.210710656085002,0.0304562568815949,1
0.122085951133191,0.0175717156214286,1
0.0548999059552175,0.0165603212629848,1
0.0462108773173456,0.0178189999623336,1
0.0203548710064277,0.00920572475643083,1
0.0235599348282101,0.0153539388526351,1
0.0211793431182267,0.015000043705526,1
0.0226260500887617,0.0188411819912791,1
0.0220705522454284,0.0162126641224967,1
0.0298158906507549,0.0194763461671886,1
0.0347765826985252,0.0210811754497702,1
0.0330703045554083,0.0251820227695491,1
0.0352677720509602,0.016956744565647,1
0.0478871794558389,0.022662477829935,1
0.0518097465662129,0.0257402328093742,1
0.0498870309259986,0.0240313104330051,1
0.0499173695122486,0.0179356303551538,1
0.0506313747308732,0.0158414690330603,1
0.0509388220275363,0.0177332049405366,1
0.0534431560239642,0.0165324663580294,1
0.0619553330150088,0.018647562330292,1
0.0717894636286181,0.0210992982038149,1
0.0706635781652323,0.0264674529547184,1
0.0848591664460028,0.0294612153363368,1
0.0861108195754539,0.0315757512687503,1
0.083653582838808,0.0289941119003165,1
0.0750349777640409,0.0395710247490425,1
0.0380199411523074,0.0262144702148442,1
0.0128545738586365,0.00603688807047717,1
0.0115520415973692,0.00999376443034127,1
0.0213979828132454,0.0157478417322454,1
0.0284214645689181,0.0129662474505197,1
0.0616097793765253,0.0232521896835137,1
0.0592511677133667,0.0171900700211624,1
0.0583411824283948,0.018162229262664,1
0.0531233985575044,0.019236467368892,1
0.0421772951787555,0.0145498215470346,1
0.0377398673244617,0.0108020341699267,1
0.039410267989067,0.0119865854595523,1
0.0492906609041274,0.0185301107367965,1
0.0496427787302132,0.0160166546868308,1
0.0483801633919232,0.0202764229069643,1
0.0249487890747822,0.010790998674416,1
0.0216028695125174,0.0125002540618629,1
0.0209927843830894,0.0101198166087783,1
0.0234679412228096,0.00838458916150282,1
0.0225976643446312,0.00852397025439791,1
0.0233303053106247,0.011351263045461,1
0.0197907444227796,0.00876970684285517,1
0.0160321046562596,0.00636453274283488,1
0.0241431679810059,0.00760824219484,1
0.0263974258138597,0.00609141282865262,1
0.0224463788334083,0.00540637046001063,1
0.0268147301159159,0.00692627013992696,1
0.034276619470396,0.0102490479613845,1
0.0361795694637415,0.0143343297506865,1
0.0336674996475256,0.0109212439231584,1
0.0334829682412331,0.0107129854863683,1
0.0335653197823308,0.0108095109965814,1
0.0344189792466159,0.00949651713820006,1
0.0294497267016137,0.0128238259149688,1
0.0237415703943935,0.0163828187300281,1
0.0245405000918529,0.0149858305221993,1
0.0230157004067791,0.0159600892971167,1
0.0166100389793905,0.0115833961953371,1
0.0122388510698985,0.00811368514801062,1
0.012348870429623,0.00681030597335671,1
0.0326622742459533,0.0181197812220519,1
0.036309172756487,0.0188641146283022,1
0.0374300759355768,0.0215035439652192,1
0.0365542747604214,0.0221358497037499,1
0.0338524339927514,0.0258469496238451,1
0.0328275577569216,0.0278949637607245,1
0.026307167803065,0.0236346375020966,1
0.02683603848543,0.0188576870220847,1
0.0276988643843529,0.0192841444567515,1
0.0388500756552465,0.0297664789209424,1
0.0446011881748673,0.0375309508347631,1
0.0505756181370163,0.0277706536000642,1
0.0497941840270461,0.0280558142509741,1
0.0430724236525428,0.0267614523525434,1
0.0345978028322723,0.0225395626220675,1
0.0274625802233606,0.0164456381132418,1
0.0255164185667362,0.00978042041952251,1
0.0478998933789531,0.0198060876045103,1
0.0493928469621812,0.0173603844880532,1
0.0709155565488386,0.00601534012078626,1
0.254280853519957,0.0209377566516457,1
0.380040599441747,0.029258093707715,1
0.413170376085048,0.0302376763643968,1
0.439770767546093,0.026045370155127,1
0.438146958433776,0.0194849175476547,1
0.453886624302538,0.0201009184029544,1
0.429534422128455,0.0215720694197123,1
0.370577173365676,0.0190033628332649,1
0.335961750012424,0.0177306227787805,1
0.3276688514691,0.0295259501630965,1
0.247359717564531,0.0289038004984037,1
0.1705759726958,0.0225066519651337,1
0.13213402644825,0.0182008289796562,1
0.0778135396427108,0.0134223330591455,1
0.0755578721375254,0.0276830637029063,1
0.0731943023316856,0.0252380883729918,1
0.0773736834986925,0.0261536304652486,1
0.0896472886112777,0.0303392464389938,1
0.119582760315841,0.0422544929713181,1
0.107350240153143,0.0375572417129122,1
0.050795467301099,0.0211130342226752,1
0.0403055555639611,0.0159378077662228,1
0.0418187612808312,0.0159236365558216,1
0.0576441338939898,0.0194776428392461,1
0.0671748009216073,0.0212825927252599,1
0.0564893479836994,0.0167905352840463,1
0.0464643944400407,0.0128790261960326,1
0.0442730681583177,0.0119057244436617,1
0.0484271278348899,0.0140421204992859,1
0.0483341257063466,0.0232309923693724,1
0.019448053235176,0.0122798720802143,1
0.0134291929747459,0.0125731712990215,1
0.00706432771504883,0.00396107825895782,1
0.00839660122253464,0.0101537987007324,1
0.00760179685641466,0.00847581622900252,1
0.00719673240915835,0.0111963931403292,1
0.00749200949377514,0.0126887638616701,1
0.00791420452477624,0.0176587626540538,1
0.0222327964021957,0.0210219761359477,1
0.02911937731348,0.017374192151587,1
0.0276038284604735,0.0160268479497446,1
0.0244073493530531,0.0136328745555739,1
0.0240634107691178,0.0139739901886645,1
0.0249934664789887,0.0117361331787647,1
0.0219851090883602,0.00987709386214189,1
0.0192627920686232,0.00861246302219086,1
0.0205427818025206,0.00660231555044496,1
0.0202819690446657,0.00656203015394481,1
0.025767669042668,0.00529603428960161,1
0.054092912323028,0.0129576541897426,1
0.0521312160203426,0.0107451308940245,1
0.0683601899622654,0.0129965054157435,1
0.0715156669360754,0.0110185389101842,1
0.065033853516877,0.0103314426204502,1
0.0607784524607382,0.0048437422021342,1
0.08532984169189,0.00668935590848364,1
0.0801678071238593,0.00446081705054458,1
0.0815823907006275,0.00461744605838973,1
0.0876651481421939,0.00695608787972594,1
0.0753275237223326,0.00597234540583324,1
0.0798964722198077,0.00685770852500326,1
0.0714037981626247,0.00564028049405955,1
0.068810057005889,0.0063851405621547,1
0.0675208944653005,0.00640346262851889,1
0.0627165535146288,0.0121025256008441,1
0.0225513853998332,0.00328323907529411,1
0.037633718837985,0.0220625764373865,1
0.0386399070996175,0.0135035650336357,1
0.0373295937290068,0.0129775159700648,1
0.0401723957896584,0.0138726607965125,1
0.0375104980969735,0.00848191586812138,1
0.0423891654670433,0.012416665273459,1
0.0438380724507528,0.013714022403021,1
0.0418843617154029,0.0135508598515378,1
0.0447286911663946,0.0157450335181285,1
0.0478301114979752,0.0193346171218811,1
0.0447508722064917,0.0162666936080986,1
0.0433983789746563,0.0218063503191312,1
0.0302741943927836,0.0158676211576626,1
0.0140980928777732,0.00645899744381644,1
0.0104004643905327,0.0140350274337338,1
0.0114887726314901,0.0188871854227199,1
0.011799410566322,0.0182609887577657,1
0.0116524553336949,0.0186889197157076,1
0.00958850721976081,0.0170469870110916,1
0.00763792233031084,0.0093889830893981,1
0.0481517686770648,0.00908015656997648,1
0.258492407322246,0.0303282975174084,1
0.288242530974524,0.0152704947232402,1
0.276857684351897,0.0150554687468818,1
0.263388341176939,0.0143762604112207,1
0.242290594591964,0.0130062725038762,1
0.22491259815336,0.0119026033356751,1
0.203683795721436,0.010030934424564,1
0.217155358015695,0.0091950434339834,1
0.280310319911038,0.0124954688036257,1
0.327168419970161,0.0246381436684326,1
0.171085420886869,0.0151334583954309,1
0.139684206804392,0.0155832550925069,1
0.16221251564669,0.0186599579659482,1
0.174368828391478,0.0202159533197566,1
0.179707689432504,0.0228713489037659,1
0.174474856831914,0.0179673582484834,1
0.168736405263021,0.0179841963875472,1
0.164044870875004,0.02054840369748,1
0.143252590090794,0.018529113450894,1
0.117100368525223,0.0112069376680424,1
0.100157797983528,0.00881533670139025,1
0.0964461294243904,0.0175814846665974,1
0.0904244193293924,0.0160766205180282,1
0.100137599101274,0.0114638178722965,1
0.110913112933501,0.00930359069566944,1
0.107304662774519,0.0122397651799087,1
0.126683258180979,0.0116058013162629,1
0.160574491724627,0.0143475477706867,1
0.165538518160621,0.01385001118633,1
0.162853367307996,0.0244414627787255,1
0.111111355945401,0.0196612612563084,1
0.0706433678173481,0.0132250350041873,1
0.0391345613510627,0.00631843215117378,1
0.0376450592068401,0.0129833523304819,1
0.0425967012463903,0.00952757550473844,1
0.0371560819623264,0.00441381886771209,1
0.0436228613125908,0.00843819677688774,1
0.0504283537279971,0.0102756484286872,1
0.0614622120696977,0.0135249263063495,1
0.0635082133538248,0.013132546614806,1
0.0625635561398343,0.0119306742466405,1
0.0650311130560688,0.0122856293736364,1
0.0716479574681658,0.0136043398689276,1
0.0783348987394499,0.0147937371831923,1
0.05266143183748,0.0243217134814212,1
0.0059093918183663,0.013484195104695,1
0.0040176050914694,0.0347658194468629,1
0.00301912648775956,0.0277076876014834,1
0.00268490638066486,0.0282200509660555,1
0.00168428549635044,0.01658831108135,1
0.00181194757455036,0.0156545116512938,1
0.00246681088122573,0.0119470239074534,1
0.00623250917402532,0.0265999831713348,1
0.00599811956818884,0.0163157353044518,1
0.00600926087662522,0.0161711526259721,1
0.00778764582133318,0.0196502436103245,1
0.00899815499055536,0.0229275591536216,1
0.0108894440548759,0.0254943176633677,1
0.0137681740445889,0.0182674209594366,1
0.0299259832584217,0.0259393028443663,1
0.0293059494787855,0.0153979607058637,1
0.0262031765930244,0.0142892230218005,1
0.0267060757599872,0.0150766095554813,1
0.0448830840710631,0.0150011198088607,1
0.055557051575851,0.00967476285379821,1
0.0496796998274927,0.00916513414197423,1
0.0471243699582725,0.00707613746085301,1
0.0541341730444761,0.00849391699800661,1
0.0543610148490079,0.00748628417860754,1
0.0534827059869321,0.00699366984264554,1
0.0515248057502259,0.00823550567344361,1
0.0525093001382589,0.008565073938366,1
0.0530549560760194,0.0078404355309924,1
0.0397159329181978,0.00946730315527668,1
0.0243899372674611,0.00784653762716227,1
0.0300436278573401,0.00972903931778059,1
0.032292554114235,0.0115112755643932,1
0.0307529223059762,0.0097047792424763,1
0.0276603056872021,0.0134235498012246,1
0.0202131092090376,0.00949667255359596,1
0.0210707145849613,0.00815973291284161,1
0.0211684962293941,0.0081690218143067,1
0.020917494933062,0.0102107155790174,1
0.0248252686494931,0.006877861816781,1
0.0297496119239033,0.0075338473804033,1
0.0251319909010166,0.00581611509708262,1
0.0241364564550587,0.00623756801534746,1
0.0243060923395833,0.00733884969564878,1
0.0250840401047667,0.00864203773284795,1
0.0259978094244283,0.0112091824959455,1
0.0254164329415908,0.0110131173822158,1
0.0254084800503151,0.0113374277658539,1
0.0253400745078877,0.0102378474016688,1
0.0319418343346671,0.0196760368086505,1
0.0405660809361236,0.0352418095716805,1
0.0803147500297372,0.0396628667316631,1
0.0796779485728388,0.0314475703659738,1
