Activity,Complexity,Tag
0.00524436041789048,0.00723644994808515,1
0.00405916223207537,0.0113616715841595,1
0.00486226467666414,0.0138011161050504,1
0.00541749655262626,0.0160483293486674,1
0.00523592887448585,0.018564650363179,1
0.00503305367363671,0.0186958886772785,1
0.00554068573858005,0.0172896045739718,1
0.00472983115041622,0.0161871896161515,1
0.00365670603551418,0.0174248145043166,1
0.00334563978941077,0.0202399280678602,1
0.0022185007143019,0.01460077443687,1
0.00278260443028625,0.0175843012793573,1
0.00279250365199421,0.0172387354204789,1
0.00272566857594431,0.017838075860276,1
0.00277913935248046,0.0179167629148492,1
0.00282114458669446,0.0175613321029082,1
0.0070219113070966,0.0372680898970256,1
0.00847876883842999,0.0320000286845936,1
0.00822941966967093,0.0341883461580517,1
0.0083141360137538,0.0329517556544208,1
0.0097114260365604,0.0228352230345405,1
0.0109722058518294,0.0195442482270923,1
0.00976971662737753,0.0174568164298039,1
0.0108961156937058,0.0189432512754919,1
0.0122217545404986,0.0206338206484728,1
0.0120965345608908,0.0117408821198919,1
0.0135195588109511,0.0120087086940996,1
0.0135015760442914,0.0135203551328899,1
0.012428671810218,0.0107917378942763,1
0.0109647057785504,0.00856730131491711,1
0.0100730420612889,0.0101190148496777,1
0.011805596646259,0.0111995207334007,1
0.0147353110602622,0.0119997952064603,1
0.013133896869988,0.0102713519275212,1
0.0111540024753058,0.00830515160388356,1
0.0117092415505653,0.0144186023315751,1
0.0113693243695217,0.0161535345753899,1
0.0102780121240739,0.0141616064807505,1
0.00886559791502587,0.0129857478136829,1
0.0088319012358278,0.0137653921009,1
0.00810851392318851,0.0099057141747021,1
0.00972759969676152,0.0120385431558494,1
0.00858053502406603,0.0132402182334162,1
0.00823355576192865,0.0149192603411899,1
0.00722043073217179,0.0137797295491754,1
0.00601616145863424,0.010169779765356,1
0.00878135398644548,0.0149232426301683,1
0.0090039203966525,0.0145717404625331,1
0.00785763084473573,0.0134097490981894,1
0.0378947990479221,0.016257060236918,1
0.053987668937296,0.0157254314360541,1
0.0649728758634308,0.0188120387497705,1
0.0737465809791028,0.0209882186843283,1
0.0838080062494544,0.0231518119903613,1
0.0920434276921082,0.0242643265880036,1
0.0901415078310783,0.0198893628356632,1
0.0624438758165153,0.0155782599107673,1
0.0407880633166783,0.0114184476165808,1
0.0182765687542023,0.004170402849102,1
0.0224736539764699,0.0111061346759962,1
0.028713278908381,0.0188685956882244,1
0.0357828016189008,0.0244330056744266,1
0.0403080284946795,0.0266354561670843,1
0.0444354165134704,0.0284731586115233,1
0.0362265193564189,0.0259857097744093,1
0.0249331929325221,0.0284576720638069,1
0.0242739298156123,0.029230865983799,1
0.0216886661542832,0.0137634482048573,1
0.0525117106984221,0.0194910181251498,1
0.101821772255144,0.0373719849623472,1
0.134128734694137,0.0472859976165882,1
0.164452914314239,0.0579044958354911,1
0.212089226713916,0.0707271848379458,1
0.321328328647844,0.0629949894249971,1
0.312355289385321,0.0391029917186365,1
0.245270060478691,0.0328759255674015,1
0.160748565990611,0.021880688952518,1
0.120675603665154,0.0141539466880898,1
0.186204873169541,0.0208911992511272,1
0.193671704773269,0.0185865778827275,1
0.198940605128165,0.0185853308541088,1
0.23447209502844,0.0201054271433545,1
0.249469030843458,0.0203250506752375,1
0.137987902453713,0.0134050884281872,1
0.0946808253023875,0.011489242649523,1
0.0906777647447918,0.0100375766286005,1
0.0645300253150164,0.00706805440890873,1
0.0723614896682005,0.0130365564726988,1
0.0775853765997414,0.0155415687937705,1
0.0694886316121617,0.0166125836591537,1
0.0613096691907644,0.015609401522434,1
0.0586189417195001,0.0190784053516679,1
0.0660352682044211,0.0195949481264674,1
0.0888988037550649,0.0259274140582065,1
0.0960058023328435,0.0297576393626485,1
0.116210777982041,0.0412877190362561,1
0.116148666698067,0.0381265296275427,1
0.100907448571899,0.0249066917444122,1
0.0923130144044266,0.0233452745115676,1
0.099987300780765,0.0285332999010916,1
0.103222080766459,0.0282733209194578,1
0.116349743314456,0.0292774112141451,1
0.138889034202143,0.0400019264724112,1
0.14633486146723,0.0414562423815376,1
0.128657004288568,0.0312539362011493,1
0.0799452657402963,0.0251435508248071,1
0.0399898467809635,0.0209031275762828,1
0.0375216418481818,0.0322208250812237,1
0.0368179801475974,0.0248915323657667,1
0.0369594393504007,0.0241108581626644,1
0.0236762762727527,0.016021496801155,1
0.0198364480751455,0.0169133992658859,1
0.0233464498047703,0.0205938761169299,1
0.0223763360761714,0.0198513347372901,1
0.023074069685256,0.0190652162775169,1
0.0275327101215995,0.0257741131205683,1
0.0194940924110616,0.0175989033654177,1
0.00900851625367262,0.00952717620882645,1
0.00884301629202998,0.0122225246499626,1
0.00838447916322723,0.0128003838678076,1
0.00666092175602896,0.0142932161276259,1
0.00759725202559765,0.0171971305660157,1
0.00919147300610706,0.0185275698691622,1
0.0109540480591247,0.0128969156843546,1
0.0205477579933629,0.0159071937735645,1
0.048175242790356,0.0255731775934967,1
0.0736088361986799,0.0345219827665029,1
0.121792413929852,0.0290330694702921,1
0.175428766556061,0.0245922604194904,1
0.170005585622167,0.0257221101916928,1
0.176518379674611,0.0251792024274074,1
0.180943776527815,0.026484325533222,1
0.136116107903517,0.0163533750871084,1
0.0830085585547536,0.0109198482449663,1
0.0684144504798253,0.0101471552826358,1
0.0702741555298695,0.011506509820757,1
0.0711311409840318,0.0104040132085183,1
0.0665367295434027,0.0139790037151362,1
0.0567996772963758,0.0178702184260343,1
0.0523191016200807,0.0165727870104343,1
0.0552373118404667,0.0213152541366817,1
0.0456617000267761,0.0187888895622705,1
0.0491283917705691,0.0307095259251183,1
0.0519798125266053,0.0411031787557179,1
0.0497424577724006,0.0382923601420944,1
0.0509554316347341,0.0372006331946036,1
0.0496198945043683,0.0341997112918474,1
0.0456499005164499,0.0332712595285739,1
0.0657986962544664,0.0302770003507771,1
0.0753792442710237,0.0276110634731476,1
0.0747216777148867,0.027906570591732,1
0.065466467692888,0.0245739612105917,1
0.0650974539273677,0.0210146465686984,1
0.0625773501602651,0.0204394414080544,1
0.0769640880590216,0.0219028263690378,1
0.102265010140981,0.0243738767560627,1
0.112697076767941,0.0201769302033197,1
0.116724854215989,0.0124549290176368,1
0.100368706410558,0.00525025881361417,1
0.119180489497862,0.00694753571010558,1
0.117486942863532,0.00722248450468213,1
0.112669823417181,0.00692308599084102,1
0.108272767123987,0.00698377298264316,1
0.107428946867289,0.00671916770464671,1
0.120365962253454,0.00793222964578993,1
0.110441494863419,0.00723970524454215,1
0.115179359453896,0.00946377978066705,1
0.107885155201751,0.0128397103190055,1
0.0911110764983955,0.0293167604761912,1
0.0541576989810626,0.0206904783474955,1
0.0655359248761409,0.018540264979881,1
0.0640074413381705,0.0164847887245974,1
0.0663579467472655,0.0159658630110442,1
0.0678433397881182,0.0149357078016321,1
0.0627391063189371,0.0147430619424403,1
0.0605628886389553,0.0150342706525449,1
0.0603515592842405,0.0141600616969525,1
0.0762294123217974,0.0186529698259868,1
0.0931170021716512,0.0232030139409309,1
0.0942418547717615,0.0343468917898756,1
0.0794735912692273,0.0337591030904373,1
0.0860684487360563,0.0385664857593311,1
0.0592605217850985,0.0295645832647779,1
0.0449599778151385,0.0351492245089634,1
0.0370711955665615,0.0339626812988263,1
0.0188487439325433,0.021781048647747,1
0.0158860866874575,0.0281887080771771,1
0.0178084962847227,0.0134002309663456,1
0.0407712401586103,0.0245454952140521,1
0.0427646256302812,0.0207553580471216,1
0.0407074095436377,0.0156796464819748,1
0.0485891420768664,0.0161149278734911,1
0.0420998899603325,0.0150558417766945,1
0.0408416067542494,0.0156370899794391,1
0.041171424811037,0.0127833333847716,1
0.0485763239335164,0.0120575082296001,1
0.035122077783422,0.00910833419594714,1
0.0253255341730452,0.00772745247274364,1
0.0270184221735889,0.00693887428906236,1
0.0410978708843875,0.0106602791101174,1
0.0660868948371021,0.0189511947886952,1
0.105707607838326,0.0305132960930236,1
0.117216357871159,0.0306182646944369,1
0.102357275850664,0.0294774915293548,1
0.0951102179691393,0.0311622445639155,1
0.111481483501159,0.0413989210481348,1
0.115629234271335,0.0451798461460353,1
0.0915305423184153,0.0243230779259926,1
0.0456877736045748,0.012867714044362,1
0.0615063109237681,0.0154473809478554,1
0.0666464855248683,0.0109484989849651,1
0.0683029726022427,0.0108584909122171,1
0.0673040448015741,0.0121276692053066,1
0.0697895573058614,0.0100035232908062,1
0.105700722229876,0.0157653063374578,1
0.143069120078694,0.0209209903852799,1
0.173816613427275,0.0244308316392572,1
0.197370036383997,0.0306846643635447,1
0.205396124425678,0.0404948888252648,1
0.13292486923121,0.0375918640552093,1
0.10367107277944,0.0385021162973877,1
0.0844975041960741,0.0317375436865444,1
0.0636129488215449,0.0126017747307469,1
0.179603096929112,0.0309399025935998,1
0.257468479941873,0.025131078519582,1
0.258958123397359,0.0285318233810872,1
0.23749994042714,0.0277243330295662,1
0.198680532919064,0.0204251546115107,1
0.192507307284251,0.0180195221557745,1
0.168006786277666,0.0152332177832818,1
0.170430133477599,0.0160462575343133,1
0.17371516396982,0.0146818943150549,1
0.176170845525419,0.0170451597263942,1
0.130561796978402,0.0137523917452742,1
0.0931389597996005,0.0126409723378042,1
0.132765876152961,0.0132188228152072,1
0.13570257450792,0.0127093438296371,1
0.120658398355054,0.0128947184701708,1
0.119842366347661,0.0143482353259209,1
0.121749152287309,0.0159877572902639,1
0.121954794126655,0.0161861599152535,1
0.130313134389659,0.0217975537731723,1
0.0732848970091348,0.0156678678913622,1
0.0332120558935327,0.0101882076323224,1
0.0434285120039217,0.0105094998961468,1
0.0680987855929756,0.0225365092386273,1
0.0629973908855247,0.015358205463637,1
0.0647717052607035,0.0148820725013246,1
0.0670536518099618,0.0139359399769951,1
0.0742849975385379,0.0102972284015789,1
0.0950912208323035,0.0132415642508324,1
0.105222119895725,0.0145267278335344,1
0.122957664217761,0.0167802098385451,1
0.13233285067889,0.0169783156518707,1
0.116449066812544,0.0220042304128785,1
0.0623757284178838,0.0140921390430998,1
0.0547034849657406,0.0176255675723314,1
0.0603908796232658,0.0217225279970733,1
0.0205432006174793,0.00881787033412357,1
0.0083332130147777,0.0204061636761393,1
0.0081829405830914,0.0175455085726144,1
0.00772455518219753,0.0185125978784451,1
0.0109707104418807,0.0143195838304829,1
0.0392827045464811,0.0277642389751094,1
0.0830441483814448,0.0432809600998195,1
0.0971781475169555,0.0421286042378253,1
0.100043800381221,0.0440905254641826,1
0.0966909593203878,0.0425728368275301,1
0.0816239441805408,0.0356978298549268,1
0.0695268657045492,0.033361990694771,1
0.0638571357250726,0.0319322778367919,1
0.0459657466563077,0.026449454831584,1
0.0471263212204933,0.025243741988084,1
0.0507403467689698,0.0222946721769009,1
0.0520430673696195,0.0224188499019353,1
0.0566503827393028,0.0143558678911654,1
0.104721091752638,0.0190600735362742,1
0.106308010952868,0.0171553033574686,1
0.0879399222476125,0.0145619983289505,1
0.0706882010319914,0.0115609922981407,1
0.0768992297991624,0.00987695003400042,1
0.0775021983292902,0.00794470172030283,1
0.0814017451856324,0.00761608891455945,1
0.0883028122277838,0.00751287840733737,1
0.0915395413501605,0.00770837739783192,1
0.113166902013367,0.0122632862273665,1
0.158973191484185,0.0180368669440358,1
0.19419238005969,0.0216915841955716,1
0.211663570951925,0.022802032348773,1
0.230271756591968,0.0225337367912676,1
0.169589691487359,0.017641028447704,1
0.165796242645676,0.0165614853547392,1
0.0911947501622856,0.00814338867629042,1
0.0927073416398088,0.0100286946127551,1
0.224713939979169,0.0193125013064222,1
0.415334393322671,0.0356855566556087,1
0.608767960612291,0.0399025498779326,1
0.582202731973994,0.0354772011641113,1
0.512587022300292,0.0308951168607362,1
0.411865253836365,0.0259968967779272,1
0.491302748951395,0.0281161699822891,1
0.573879503362943,0.0332576111003874,1
0.609853238393535,0.037305310807683,1
0.731793541476818,0.0431658170384396,1
0.699922038369811,0.041344340499827,1
0.571014741826316,0.0402937940005341,1
0.301619342139323,0.0206947866396486,1
0.233254544205901,0.0134390528748926,1
0.136250795009688,0.00827071330114501,1
0.119987873780414,0.00659133814080492,1
0.122991108303111,0.00782073311290719,1
0.11686139879588,0.00722241410610634,1
0.120324310251701,0.00486929102688564,1
0.117627368946536,0.0043514409379598,1
0.116377622247682,0.00426484233711255,1
0.192392007946374,0.00785831763928307,1
0.189210101468454,0.00801193146974615,1
0.259448899785184,0.0118225842831198,1
0.242863410959932,0.00726960991345461,1
0.259443801239032,0.00829375680138955,1
0.26053976445123,0.00875026818470478,1
0.24963942116056,0.0082962955673937,1
0.232944764560448,0.00891638714095039,1
0.230573874693107,0.0090733478992141,1
0.251002856064806,0.0114577205882566,1
0.178333547148975,0.00880714438118644,1
0.184175869556301,0.00956739667326854,1
0.0721974447579266,0.00369341059568663,1
0.0573116708373192,0.010635719016169,1
0.0591787726886791,0.0113239469692881,1
0.0529808802047682,0.0105341366216271,1
0.0527338206734412,0.0117231189315221,1
0.0408610652747842,0.0155696499850541,1
0.0298062601725614,0.0119278729230666,1
0.0443127506212506,0.018548931409951,1
0.0494973662965321,0.0223691986862377,1
0.0843233320156509,0.0510922526750539,1
0.0936679219502705,0.0425763772446637,1
0.0781515148399584,0.0384138414078279,1
0.0691920921459028,0.0367837142991998,1
0.0583383178726783,0.0319104943433509,1
0.0441817532554244,0.024134610483349,1
0.0298247046102617,0.0130181084823412,1
0.0268911927953701,0.0126808791523678,1
0.0392770629522827,0.00801669523335793,1
0.0926387144412986,0.0172506121023585,1
0.129465074538062,0.0224388369548079,1
0.200364815984685,0.0361991956963194,1
0.247526592341438,0.0287144429249559,1
0.208757421766101,0.0189879907706638,1
0.189377580777375,0.0174477074015239,1
0.144685167781112,0.0147626763470348,1
0.115288826721976,0.0136230819302265,1
0.096371589667611,0.0120308829230749,1
0.0757918220760662,0.0120326164322257,1
0.0793042472272727,0.0111354308663377,1
0.0904922794042692,0.0128248263827157,1
0.0739100598801579,0.0101917520064505,1
0.0541981922662563,0.0100090359979146,1
0.0604933531056735,0.0174567543195908,1
0.090333720104981,0.0262539622284639,1
0.12840293567457,0.0314655515976849,1
0.146133459558238,0.032882924816407,1
0.159910271212115,0.035715059195753,1
0.132224778653056,0.0364423887967469,1
0.0893086936919226,0.0299977787723673,1
0.0734177707941128,0.0272567173920138,1
0.040610802787202,0.01507399482476,1
0.054762276408145,0.0180878930453632,1
0.0495939280387505,0.0183211738637542,1
0.0537767355501418,0.0225605679960998,1
0.0612308610779176,0.025867929134812,1
0.0708508631185722,0.0261463223677883,1
0.0791077763930901,0.0105226932392602,1
0.116734570651753,0.0153030474405248,1
0.14882812212148,0.0204175233482348,1
0.196689246432194,0.0249882372748637,1
0.204478045313697,0.0191812584075499,1
0.189797167717393,0.0178210831383202,1
0.191652536743126,0.0164142887838312,1
0.184505813450081,0.0130189817373984,1
0.152164965749158,0.00823746269645611,1
0.0986447531922109,0.00370025560037292,1
0.093745035371741,0.00760181907532522,1
0.0897451327348924,0.00739502524582529,1
0.0870645683352947,0.00735240848972354,1
0.0788754097265357,0.006134930576309,1
0.100514502996258,0.0115931824679327,1
0.119742966787548,0.0139489718923093,1
0.144937610783728,0.0181347304704708,1
0.137222807341078,0.0200673579532939,1
0.130310223627243,0.0286390549465874,1
0.0794660543040754,0.0161223248433571,1
0.0744843789649779,0.0145596845399175,1
0.0698489269396601,0.0137072065834221,1
0.0622847797794624,0.0125183529673465,1
0.0662177555943152,0.0148004114031241,1
0.0835680118521834,0.0161831954356803,1
0.115463214667576,0.0218673389045757,1
0.115766820150201,0.0235423562791086,1
0.15074484676313,0.0278545568372708,1
0.177613580970498,0.0310274302883201,1
0.172651141665079,0.0522930375017899,1
0.133839434948249,0.0532905045227661,1
0.103328949518346,0.0514033471356814,1
0.0586067039735698,0.0283196950310045,1
0.0340517651643149,0.0149463968675684,1
0.027032169333429,0.0169887841540656,1
0.0318456017676716,0.0168148879445231,1
0.0333691559408002,0.0150674485266534,1
0.0805435929664979,0.0213382690145162,1
0.0729572175624541,0.0123614262619403,1
0.0725922406792386,0.0105381117842285,1
0.0964896350345214,0.0129790864365423,1
0.0904595694782702,0.0116172202041517,1
0.0919894095382905,0.011869843351554,1
0.113945618591179,0.0134991370421757,1
0.227086001095955,0.0221115643077014,1
0.295637954511008,0.0223100887487256,1
0.272750062781636,0.0222659009977596,1
0.272617842257124,0.0234905063758163,1
0.269649687786351,0.0269548392997165,1
0.218591916745562,0.0205824924287533,1
0.205579778911138,0.0208703736046252,1
0.156440997221797,0.0167548453453573,1
0.0982186578298281,0.00903787300008224,1
0.0914017954855848,0.0106428737795261,1
0.0793238642237166,0.0111818325047059,1
0.0654933227726609,0.0104793877650357,1
0.072976589668788,0.0112930062499406,1
0.0693367554228105,0.011517954529592,1
0.0557181290271349,0.0126862309801228,1
0.0626244688337749,0.0143312078822423,1
0.0868088737709397,0.0180300659226622,1
0.118846189462005,0.0308022120534435,1
0.133094961456762,0.0417522652997091,1
0.190215351171278,0.0517649843644435,1
0.206004875991287,0.0379330389507315,1
0.198723339162122,0.0300851441933167,1
0.328988056448168,0.0287089647977064,1
0.357390008299869,0.0239734821108588,1
0.370940543673193,0.0236493845316499,1
0.389514963066869,0.0161247438442606,1
0.427657958909629,0.0166225026440893,1
0.416692690744978,0.0158095804228521,1
0.406914262093298,0.0122761344569653,1
0.432344278971,0.012887780896205,1
0.459138507677575,0.0146212693643137,1
0.485814024147447,0.0151302817961026,1
0.325168265311021,0.0122479526106598,1
0.26226610220818,0.00954484105678419,1
0.146652810453732,0.00361055664790192,1
0.120349943359371,0.0072633721276966,1
0.131159799657681,0.00924468467771813,1
0.0747625088079668,0.00473213319531193,1
0.0554893191667295,0.0102529993012423,1
0.0619720572052656,0.01044182211393,1
0.0967886092601154,0.0165329774122778,1
0.129220325232844,0.0255902968353752,1
0.121243870887859,0.0237578687230461,1
0.142507535068193,0.0334757533899908,1
0.122210054490594,0.0227862501422663,1
0.114582055959439,0.0221364507475369,1
0.086965773067549,0.0187168081376399,1
0.0729048119010487,0.0156902414259249,1
0.0894504985476738,0.0185521951618307,1
0.091237042534871,0.0211334138587741,1
0.0850211821638654,0.0197087383063633,1
0.0618200773156211,0.0134511738946938,1
0.0596033116972099,0.0129170942012878,1
0.0322858041157887,0.0107365502235182,1
0.0299106804486615,0.0139059614593299,1
0.0292912986986264,0.0127787434688876,1
0.0350412050170548,0.0137757094233236,1
0.0368452983067868,0.0148291486446513,1
0.0385243952144081,0.0157165520187379,1
0.0315325183501503,0.0134387328983045,1
0.0330935398173989,0.0101634875352405,1
0.0415001229225939,0.0146554199006211,1
0.0353296097520012,0.0157144801922906,1
0.0434605042305128,0.0139896407302092,1
0.0515814724654751,0.0156955779415428,1
0.060512293836222,0.0165886889853888,1
0.0766841338442605,0.0235863059634045,1
0.101586706947108,0.0274815368481214,1
0.0977562948008504,0.0252603242122189,1
0.135224606533732,0.0239819869141084,1
0.191780846988626,0.0235659212965198,1
0.188403101611854,0.0231647475943912,1
0.147920496586496,0.0203001769181832,1
0.144407441622163,0.0202824377746418,1
0.115346973757355,0.0167791017638924,1
0.0757326630029407,0.0126316534852507,1
0.0660189790979604,0.011315548416548,1
0.0688883738059427,0.0102032271531004,1
0.0609128079208807,0.00785048392109122,1
0.0664483320445199,0.0132947192885651,1
0.0536405609959318,0.0145947700786498,1
0.0758881481811092,0.0188971192288855,1
0.111943695371043,0.0312476726666503,1
0.117874645875052,0.0315567718131353,1
0.107198041360375,0.0279561349753859,1
0.113354063447863,0.02696457785387,1
0.106405906834168,0.0204954294254324,1
0.0875198293482345,0.0240912977706665,1
0.0467097550662078,0.0166855070918104,1
0.0644829296249752,0.0211568282474155,1
0.0874948693996845,0.0203177061869674,1
0.177352567959376,0.0320861972340119,1
0.178797221969439,0.0192272688619738,1
0.152715077249727,0.0174885695059372,1
0.159201495691684,0.0112849944606844,1
0.148792543533632,0.00660868712915439,1
0.178844872445446,0.00860998334356477,1
0.237901840858025,0.0112542574071099,1
0.291463077280371,0.0140359656196071,1
0.321366005027707,0.0147208702643744,1
0.315816631368656,0.0149707547699804,1
0.221278567975267,0.0104264208949209,1
0.198104579790712,0.0105727610066534,1
0.221427208679756,0.0115631550663353,1
0.18322358808975,0.0165611201913883,1
0.0703880510729822,0.0141150567007637,1
0.0764083252933828,0.0156300229935993,1
0.0783961995473083,0.0110052630414558,1
0.0943817327435392,0.0138150018882718,1
0.0978120178646075,0.0144414433379833,1
0.11065032265591,0.0171794332479712,1
0.0933853061465038,0.0134548612447771,1
0.216702550176419,0.0231116989803168,1
0.257316033417589,0.0236048563245205,1
0.2990433990208,0.0236062980317344,1
0.258571425011381,0.0206312238547462,1
0.182849303617904,0.0155658541817068,1
0.141265559835377,0.0127715478870278,1
0.179752700114486,0.0149160387292644,1
0.186578116491279,0.0150334645672122,1
0.21555866246965,0.0170032507298084,1
0.209562930503429,0.0186530704953978,1
0.183171323563006,0.0254850949920038,1
0.177037666312889,0.0244514554289645,1
0.0898289400035533,0.0170656088085138,1
0.0702712695685168,0.0135822659019233,1
0.0456098371069645,0.00813723688530689,1
0.0295774551572309,0.00520444494878485,1
0.0333993798185051,0.00720495980949952,1
0.0345128244376468,0.0081045917245987,1
0.0345528846684373,0.00869257308965921,1
0.022051424001094,0.00576351131565547,1
0.0182694313969972,0.00837949778718613,1
0.0166197840848566,0.0121945276496081,1
0.0114139396487962,0.00867848678120819,1
0.0429799049414509,0.0165965651358098,1
0.153105951417477,0.0432454805087249,1
0.244485397523459,0.0524446191352763,1
0.372636658573724,0.0600915705782424,1
0.414296955579877,0.0589155388137416,1
0.377387134507465,0.0419469714505158,1
0.322693558612844,0.0385865511909211,1
0.256415993876206,0.0323786692100401,1
0.196770246148541,0.0221112590967605,1
0.127238813831436,0.0136470213361889,1
0.104086572242407,0.0133976111229003,1
0.105307211603269,0.0137957730245804,1
0.101767631093491,0.0155054765985689,1
0.0903907721564593,0.0126273117348983,1
0.0736505903077739,0.00938092991084844,1
0.0712494420009373,0.0122302766456038,1
0.0710610190961062,0.0121289733322329,1
0.0669598161050795,0.0108237767776131,1
0.083907042653429,0.0168896684611987,1
0.086590665024344,0.0183103791741907,1
0.106618277013426,0.0206866470688613,1
0.121372188320922,0.0235254376034948,1
0.115454282121872,0.0247976393203402,1
0.1237354548815,0.0211118831426296,1
0.120486565485941,0.024220532100696,1
0.114219105686995,0.0232004545827521,1
0.101834582444631,0.0219869415169938,1
0.0781546788574094,0.0189054900049318,1
0.0867899911023292,0.0430389661016879,1
0.103161884893081,0.0415435416313162,1
0.144504129523418,0.0558166279631032,1
0.169848974321931,0.0729910123962871,1
0.122684526728102,0.0392752432832368,1
0.0714779615927254,0.0384615026383858,1
0.0606027473001473,0.0248056793455517,1
0.0650014903895309,0.0115089342392364,1
0.0940540849260556,0.00933870784887652,1
0.105186493975313,0.00702142294259531,1
0.138029580846631,0.00690967766519208,1
0.185368130432595,0.0101155942404374,1
0.223306686892692,0.0119829802075452,1
0.211506867397111,0.00960958831053217,1
0.189746960111764,0.00839241265091652,1
0.214603605332958,0.00888191073018105,1
0.224056516732034,0.00969740082571904,1
0.167110048124456,0.00833623166450455,1
0.162951025997851,0.0106944970852466,1
0.0539908763463395,0.00379036401110501,1
0.0462235848964637,0.00691485369401359,1
0.0474640797940336,0.00689708160332291,1
0.0565559824490008,0.00919916581597822,1
0.0583457914007275,0.0131463534576183,1
0.0665447721388298,0.0137615974612156,1
0.0828154502838284,0.0205555611409748,1
0.0578917826883394,0.0128317368150385,1
0.0651975438262397,0.0157711486166833,1
0.0684665947623424,0.0167910958171858,1
0.0714998055345079,0.0136266384375043,1
0.0709328159953093,0.0120605705503606,1
0.0704949942421412,0.0117375300287864,1
0.0953747151376131,0.0149846148973251,1
0.108847397893255,0.0157484056479997,1
0.0976385994313782,0.0215269530523989,1
0.0636199028057178,0.0157512036055729,1
0.0587910205682405,0.0187017082762706,1
0.0671029317169482,0.0201800381037682,1
0.0682706971205823,0.019429479304463,1
0.0456081902898096,0.0290540908299967,1
0.0159847728061495,0.0219237023151275,1
0.00703242914449531,0.0174890063644646,1
0.00755245301352726,0.024364676638467,1
0.0143819133175227,0.027101711861898,1
0.0194956744243135,0.0308770382854479,1
0.0262249090179703,0.0361138722993684,1
0.0313405679500205,0.0342056610524789,1
0.0360560789461615,0.0130761196456381,1
0.192943125284215,0.0177848255491879,1
0.316216602153299,0.0241282312309325,1
0.355219362569467,0.0303641735230756,1
0.350361953385718,0.0273777756660279,1
0.360460193779074,0.0247628494485795,1
0.477920944147649,0.0265364407555692,1
0.416830088461899,0.0172458776897635,1
0.361463026823068,0.0150245659954753,1
0.302505523295208,0.0114420860411772,1
0.209970522062072,0.00813706876859093,1
0.240551283786423,0.0127054276040347,1
0.254232038494999,0.0138478527340752,1
0.26467274257962,0.0137993736251727,1
0.262123029461334,0.0131857783882796,1
0.2361607407719,0.0143223927876009,1
0.0795173603085086,0.00465700515158936,1
0.0637016385563456,0.00713154037333918,1
0.0730956374600768,0.00797387348225836,1
0.0773175489681191,0.0159748501503973,1
0.0605030211557353,0.0156070446202167,1
0.0774235615355476,0.0206813741468639,1
0.109589594935516,0.0254231130089912,1
0.119625574090829,0.01909083644334,1
0.13765931945514,0.00801642957529879,1
0.642928956128891,0.0222948974929535,1
0.915687508208411,0.0222914452359907,1
1,0.0224576832506533,1
0.986454542310892,0.023326218760239,1
0.937474716268281,0.0231575356725391,1
0.874836478400329,0.0223201997866718,1
0.769142920382694,0.0162575429591838,1
0.687129332189538,0.0147658967152254,1
0.655127253605357,0.0149533751614157,1
0.771652042347821,0.0238294883686556,1
0.563647867895392,0.0322226723390751,1
0.438318334005091,0.0328451406702426,1
0.366610817179582,0.0280945609882424,1
0.314607232023038,0.0249459574447122,1
0.30228884312522,0.0224784851097704,1
0.141355505365265,0.0139794382782772,1
0.0445744376789985,0.0194595229599252,1
0.0363839408575801,0.0162962776482293,1
0.0303910961856475,0.0114592057895318,1
0.0384300044204596,0.015023827302483,1
0.0411780402505288,0.0160601636949334,1
0.0499100267441242,0.0224707895908368,1
0.0564349648269051,0.0225486674662973,1
0.11317858099179,0.0377902919135949,1
0.107433798889306,0.0167304734230294,1
0.102005068663235,0.0134255594631786,1
0.0888764820878286,0.00718727014525418,1
0.0811737602880306,0.00636834712238038,1
0.0792354392952827,0.00564512895560725,1
0.0782722187316802,0.00535434994531656,1
0.0764151014309029,0.00527168242150067,1
0.0789079764082427,0.00556567566322248,1
0.0819188872272413,0.00643665401783612,1
0.0616507552521103,0.00478029776062664,1
0.0592139608138871,0.00688381831705354,1
0.0517179299113026,0.00868576827378864,1
0.0488104266528726,0.0197561046415038,1
0.0603156582401566,0.0288095632984721,1
0.0577058945625162,0.0935621543305199,1
0.0411409906717354,0.0761960234151189,1
0.030805868954444,0.0526397971276564,1
0.0226721294622602,0.0427072288112374,1
0.021936587131068,0.0327308971913559,1
0.0199139627020411,0.0339341410160653,1
0.0226230374102643,0.0309077106438631,1
0.046085005682701,0.0433830791362032,1
0.0591632201702263,0.0433080566479412,1
0.0917855782607194,0.0376736091544047,1
0.088454750328511,0.0269651050885458,1
0.119069752872977,0.0297989848777291,1
0.165069056835758,0.0284538882087482,1
0.282377392935899,0.0391630801071444,1
0.302800956006958,0.0373710632758217,1
0.286803006582941,0.0330593722290305,1
0.214350344736659,0.0235482147418934,1
0.179465560541392,0.0200165307069949,1
0.134676499625927,0.0148336038595584,1
0.119965569951489,0.0125260785519833,1
0.0809904786941232,0.00973416655332568,1
0.0801293681189872,0.00889543730996039,1
0.106419504064582,0.0141354739560185,1
0.0980182408626439,0.00994402241073085,1
0.0985920713677415,0.0102326322616329,1
0.104065407004062,0.00932563574849959,1
0.129512575275758,0.0128336810377234,1
0.185671579057073,0.0178154708633339,1
0.252014106989902,0.0226892505235012,1
0.294853856664915,0.0310194213262477,1
0.322895948225743,0.0289773281811132,1
0.301924690576312,0.0333375245787602,1
0.194973230435727,0.0263941228026538,1
0.134169075939772,0.0238335630523753,1
0.115030939229399,0.00882173227408589,1
0.144354946065935,0.01270860385599,1
0.156029405516143,0.0131473076947462,1
0.163960611832445,0.0135083692355248,1
0.169522782659583,0.0125094064858504,1
0.197406294989442,0.00969016742488873,1
0.202058041230502,0.00703787994095809,1
0.224092136402683,0.0075927230062855,1
0.224616112584572,0.0076505597964562,1
0.21746959491643,0.00742878397746996,1
0.217039998138767,0.0115630513302461,1
0.162818301474741,0.00853556620637587,1
0.157873591613553,0.00720602143457626,1
0.163052534524112,0.00838351537784972,1
0.183020487852852,0.00949417577013508,1
0.139244878495783,0.0149632568694802,1
0.0552284839326884,0.0100664759353004,1
0.0539586185995541,0.0115776339674479,1
0.0568508305048413,0.0111070558114214,1
0.0572233077362717,0.0106148852089811,1
0.0568817746051615,0.0108633734614388,1
0.0440239518488272,0.00872155395243946,1
0.0468661747626022,0.0127722842892978,1
0.0584249530135954,0.0115007052948636,1
0.0514166028485575,0.00980467461059616,1
0.0298038985052735,0.0061866559344113,1
0.0279041563026263,0.00822536239101768,1
0.0370055015384145,0.0108810282703152,1
0.0394082596531825,0.0128465997371875,1
0.0379599373549856,0.0127993091820885,1
0.0385757311167805,0.0126860851920732,1
0.0386660824267594,0.0118221989766239,1
0.0624272661007506,0.0213499090294423,1
0.0698891165105294,0.0247763189628997,1
0.0743821968542839,0.0300567330048354,1
0.0838477606235996,0.0336310212372604,1
0.0963026180459882,0.0384062368636221,1
0.0809405186882325,0.0463539911493188,1
0.0651317479308172,0.0425702064861624,1
0.0315645230574906,0.028461070549132,1
0.0192926685843134,0.0216012036665912,1
0.00619700626153064,0.0128957404729041,1
0.00575805315379449,0.0244965350748312,1
0.00572459840813947,0.0529969468353427,1
0.00294687308860152,0.0365976471006753,1
0.00139786618788975,0.0139450957595869,1
0.00332027638951101,0.0269002152108664,1
0.00511152311070503,0.041433850487575,1
0.00542970460983687,0.0396492941904031,1
0.00559932726228801,0.0287596905284539,1
0.0182109608440296,0.0329197046180494,1
0.0223332537624205,0.0242401836704748,1
0.0218836737098076,0.0244074321316274,1
0.0192492076333522,0.0226567817572891,1
0.0142038324305869,0.0179736152703002,1
0.0138769750245098,0.0134530402701129,1
0.0266968614586333,0.021548297587949,1
0.0337207710213895,0.0210338201809272,1
0.0301552152493852,0.0191710828815864,1
0.025192875098764,0.0157757676345552,1
0.0283575541220051,0.0205345955490135,1
0.0325306691824373,0.0173233850577549,1
0.0339245974406418,0.0147666122279589,1
0.0351818045373431,0.0129415714199876,1
0.0324293993434631,0.0106496513439613,1
0.0339312410722967,0.0120796569227154,1
0.0336744783011231,0.00916284599644421,1
0.0370466935095215,0.00896527573064065,1
0.0461866925763174,0.0112468593402304,1
0.0523477050092647,0.0124564879422493,1
0.0595105467979611,0.0143635838449923,1
0.0670983482930664,0.0207328351813922,1
0.0640324421418616,0.0221918456720072,1
0.0682864976545294,0.0249268245250188,1
0.0646741399293173,0.026641174926748,1
0.0428642863052441,0.0247865540276917,1
0.00636932645639005,0.00804147303913738,1
0.00484636591230714,0.0178640536059202,1
0.00481759974010834,0.0167206054072965,1
0.00510614869285444,0.0134108670873502,1
0.00710910394209859,0.015106516969074,1
0.00684534679916972,0.0129495576191382,1
0.00567869759627328,0.0092725865325736,1
0.00472470013416586,0.00724222798042029,1
0.00463685171465261,0.0084396674825429,1
0.0047742131534436,0.00845434272078817,1
0.00526796558570735,0.0098645720508201,1
0.00529318483570311,0.0103658297124149,1
0.00472709517682926,0.00967141366177317,1
0.00467445573859222,0.0107002463134795,1
0.0046663963506161,0.00947666262058672,1
0.00521430764822622,0.011960413439047,1
0.00604213809017491,0.0154531929659643,1
0.00574022808282939,0.0147970982711082,1
0.00532680209178402,0.0151640427889576,1
0.00599958494976303,0.0225945187893089,1
0.00564113640416337,0.0201516249810169,1
0.00561546663932217,0.0197071186144911,1
0.00563460259834047,0.0208485636591563,1
0.00585309128753069,0.0213062019164546,1
0.00621016756211451,0.0280425805797576,1
0.00530892306799926,0.0258095728814051,1
0.00451012812328842,0.0247655632346048,1
0.00644019347545407,0.0343788499022352,1
0.008268460688228,0.039732809971236,1
0.00620344428018509,0.0248329114391893,1
0.00550112439291456,0.0259524422290413,1
0.00471657992298989,0.0208030600190266,1
0.00421238419549395,0.0187343659565849,1
0.00410676432103876,0.0207548461702696,1
0.00409344918023354,0.0231185163301652,1
0.00376558650100612,0.0210802129144598,1
0.00356080340872266,0.0217252409873738,1
0.00371845157375464,0.0253591228900824,1
0.00369021598343846,0.0247745103078015,1
0.00343338278910769,0.0392798486124009,1
0.0016004709723384,0.0258100251921626,1
0.00147077964094065,0.0235861819384584,1
0.00321030578921752,0.0275072169623649,1
0.003472054365049,0.0230369331067112,1
0.00337900679865785,0.0225935502718224,1
0.00396454024871039,0.0164718476547474,1
0.00627298420288574,0.0184848414939755,1
0.00575622938906078,0.0144207281531173,1
0.00524258769685272,0.0136688608140289,1
0.00533203654110348,0.0124584524739304,1
0.00555644001891885,0.0137720171340524,1
0.00489620383843886,0.0128348767735068,1
0.00432053138277052,0.0142786626179557,1
0.00411466605238132,0.0174756833343439,1
0.00367885132516068,0.0157485418269834,1
0.00340733135873776,0.0247440685793399,1
0.00164922737720947,0.0243375162369126,1
0.00155507882007172,0.0337017487185415,1
0.00145064041764826,0.0244864163805631,1
0.00148532342858883,0.0302256237167772,1
0.00108356355433017,0.025115816470245,1
0.00118897306475829,0.024036749487181,1
0.00141087178254388,0.0264622455649204,1
0.00145184324566215,0.0264296801751969,1
0.00161043410071951,0.0273203641288631,1
0.00166225391862714,0.0227094798140139,1
0.00184775591708069,0.016985685240669,1
0.00259778341371725,0.019785642524121,1
0.002682688450004,0.0220863805743557,1
0.00260809191323689,0.0235338073951343,1
0.00182219589860826,0.0165211921948742,1
0.00173974203801282,0.0186765200779748,1
0.00187206216610602,0.017590316061418,1
0.00215358978208681,0.0173209472176281,1
0.00238527314187181,0.0179014659159971,1
0.00234967160961654,0.0160926361758543,1
0.00240829315956585,0.0161367108558598,1
0.00261039083210298,0.016845995547269,1
0.00321155476187119,0.0199633771748225,1
0.00402006845700515,0.0250280042219788,1
0.00423267733327392,0.0270923825292115,1
0.00417680132350777,0.0263976227451747,1
0.00403248266920874,0.0275209025997545,1
0.00355009116665593,0.0282920999867623,1
0.00381946707035584,0.0328935662855435,1
0.00341722157009182,0.049515367740274,1
0.00110082219026107,0.040702242519954,1
0.00101061222734874,0.0575693259344155,1
0.00109977427538916,0.0526294025437658,1
0.00113270269027427,0.0440886559780436,1
0.00107250257148358,0.046268590833834,1
0.000554055969706159,0.0337453492572258,1
0.000518523053575008,0.0395108562126799,1
0.00052416292707699,0.0388900009658597,1
0.000555825079024847,0.0406866639384694,1
0.000592592796372259,0.0436497909047425,1
0.0005880866658602,0.0463369249914379,1
0.000435329011358182,0.0461031771641645,1
0.000446634788422453,0.0626129512181737,1
0.000353725441198884,0.119343052366328,1
8.64370004736223e-05,0.0966385908183342,1
8.25718952760665e-05,0.101243448399056,1
8.96550810539252e-05,0.116349447493552,1
0.000122784137628768,0.0794943034174589,1
0.000209487449575623,0.079754466006957,1
0.000220233817391723,0.0756888742903069,1
0.000234411075236009,0.0820326853961319,1
0.000229972925645536,0.0857543166214015,1
0.000221106738909154,0.0782049362199655,1
0.000224960296966092,0.0799416776687673,1
0.000232819092539765,0.0862332003753303,1
0.000237471639165364,0.0905909089889235,1
0.000237554349107805,0.0882058919180169,1
0.000187270311966895,0.131773208946542,1
6.86009686184387e-05,0.131523818942494,1
9.67602164408252e-05,0.168722719569244,1
9.35386750209205e-05,0.140070577627341,1
9.05508237607645e-05,0.155708626154306,1
8.65050223003058e-05,0.19128487623365,1
9.83353510979716e-05,0.171356374128956,1
0.00013395597647876,0.199347061794486,1
0.000109085208253127,0.124691872528815,1
0.00010862434475294,0.132738991141083,1
0.000103125438771789,0.132444856432902,1
9.68622201784646e-05,0.112269042005754,1
0.000150039735319284,0.167158425208796,1
0.000188439185060492,0.180929479012883,1
0.000194997969816775,0.150702878735028,1
0.000204549119140894,0.123842957228589,1
0.000226151312626799,0.148491594940717,1
0.000159520041873687,0.123789647863933,1
0.000145516953246719,0.145570993375022,1
0.000164202704207816,0.167696412535848,1
0.000131036721225468,0.149053567099557,1
0.000119288499187677,0.163602626857292,1
0.000119850309095754,0.159135947377726,1
0.000150978520248854,0.16859193051827,1
0.00013222183716387,0.187604804268163,1
0.000125227103297896,0.288336899993167,1
0.000129148031382235,0.301722726588862,1
0.000130056124579013,0.294862723661256,1
0.000131127556529942,0.305037715638998,1
0.000132377238149454,0.304735752958549,1
0.000140104647215862,0.312364421685837,1
0.00014490443409216,0.309968502832442,1
0.000155161785473718,0.377556135343802,1
0.00013076780087867,0.836622962059373,1
8.05030855294812e-05,1,1
4.73223104921897e-05,0.794384871967266,1
1.49921881694019e-05,0.466465634836482,1
1.73713645160814e-06,0.22989963066619,1
5.31105937283557e-07,0.158386550540264,1
5.30022287448971e-07,0.168640131514512,1
4.52017604894553e-07,0.162328126884044,1
3.90368926743183e-07,0.157137231623286,1
4.10879145703936e-07,0.162722071209082,1
2.03998590155005e-07,0.128621428805259,1
2.81224567034667e-07,0.147392828763795,0
2.32079605299204e-07,0.129032263687601,0
2.39286781975966e-07,0.140294610729134,0
2.86731499803268e-07,0.152825139112574,0
3.32082345966902e-07,0.165808258795175,0
3.25020684150354e-07,0.164121360326238,0
2.79984840777435e-07,0.155139384069413,0
2.76078739115029e-07,0.15846467230197,0
2.94778404515522e-07,0.166361214978567,0
2.44948617660277e-07,0.144638339213884,0
9.07766291274021e-08,0.100862160539567,0
9.53164245358993e-08,0.102057849872661,0
9.59799924157335e-07,0.259539728159044,0
1.27328604097806e-06,0.236438365360912,0
1.51670826140074e-06,0.24981404742635,0
1.52144168545387e-06,0.250151873003773,0
1.57621428352862e-06,0.249792185783054,0
1.71308291227242e-06,0.251993038056005,0
1.72121816529267e-06,0.256061030345894,0
1.82247588780778e-06,0.265242691427016,0
1.87974889387801e-06,0.246874936210699,0
3.7281175416798e-06,0.30954379093297,0
3.52188207965864e-06,0.290463932423912,0
7.23149039934947e-06,0.407777050053829,0
1.42688882835324e-05,0.438218934924386,0
1.42471053124763e-05,0.353844993922738,0
1.37122543792685e-05,0.346681244495637,0
1.26143479441924e-05,0.330845659952122,0
1.2943422927167e-05,0.333921197841784,0
1.31677094405401e-05,0.336616891272884,0
1.31590254892047e-05,0.345477584680278,0
1.37783112524075e-05,0.373006718544923,0
1.47001125190066e-05,0.394670190254357,0
1.18020732652757e-05,0.401130339597792,0
1.70693893288077e-06,0.194523680915835,0
1.00914890845602e-06,0.239007497172631,0
7.71214844690956e-07,0.230367628678022,0
2.85885066013848e-07,0.156561071466052,0
3.08307263063001e-07,0.160062020078331,0
3.32671949380924e-07,0.163660166589061,0
3.24794029667625e-07,0.168625664630889,0
2.99740494777565e-07,0.167266646644963,0
2.65251461180841e-07,0.153718233447277,0
3.16903201378019e-07,0.157916695004525,0
2.98030024594666e-07,0.157448243647804,0
3.12142116089935e-07,0.160931837125148,0
3.26629226873564e-07,0.16443547962851,0
3.46639196591371e-07,0.169161898989066,0
2.7627572063663e-07,0.166860295126353,0
1.39858053844408e-07,0.128742852256633,0
1.24496512748713e-07,0.114837746345637,0
7.45264079925481e-08,0.0880670423607621,0
5.36044557406855e-08,0.0801386180387355,0
7.25160229652696e-08,0.0913025317143353,0
1.0719432646658e-07,0.104420701939377,0
1.12971836406131e-07,0.105159224250508,0
1.30531691282904e-07,0.11026187646418,0
1.74155135234975e-07,0.124979740103268,0
1.73860920281433e-07,0.121232175792959,0
1.71342239106497e-07,0.121262476903025,0
1.33058419362552e-07,0.114346936032488,0
1.0881846006767e-07,0.108496946701171,0
1.00652025291669e-07,0.102627203934807,0
1.00012464010892e-07,0.104871010449618,0
1.1581122026262e-07,0.116901743660878,0
1.53069059655752e-07,0.129407271486138,0
1.81477818523127e-07,0.130779099677701,0
1.71701667516978e-07,0.120664442431864,0
1.89735451552534e-07,0.122827436767286,0
2.25222301333577e-07,0.126486672391298,0
2.23636893461415e-07,0.124605790712736,0
2.30922192171424e-07,0.125039261025984,0
1.88804692907483e-07,0.112774732129406,0
1.89829164463662e-07,0.113012102247001,0
1.96706082759524e-07,0.109022649450452,0
1.89393290458414e-07,0.106053824218799,0
1.61487463135556e-07,0.104006166696456,0
2.06106711545768e-07,0.117463114613824,0
2.12759657660473e-07,0.116556462364259,0
2.04082915010636e-07,0.120859658568502,0
2.38705560754353e-07,0.131618120332597,0
2.4788489966101e-07,0.134583569759822,0
2.50050355247847e-07,0.141200066038768,0
2.63140489844659e-07,0.140973317972436,0
2.4976116960975e-07,0.14311121226967,0
2.39341266226621e-07,0.146151255533235,0
2.44581645276629e-07,0.14353759121729,0
1.53461178616627e-07,0.119142473536015,0
1.21615553217878e-07,0.11737403676418,0
2.22696746760866e-07,0.139881599918267,0
2.28051961846872e-07,0.135473223689153,0
2.18740351944008e-07,0.131022004332931,0
2.82230430123698e-07,0.149619762711427,0
3.62511716136294e-07,0.174325984690278,0
4.56330745820321e-07,0.193373169272492,0
4.4777085093266e-07,0.188857773317727,0
4.30083754375124e-07,0.186383596046449,0
4.57720010390122e-07,0.189625198537081,0
4.68558017530592e-07,0.188296930050297,0
3.15720306385318e-07,0.15763637560319,0
3.11347651893448e-07,0.167722746563017,0
5.70190256402522e-07,0.23012091129619,0
6.06964778581375e-07,0.2036995551957,0
6.26894949827452e-07,0.20693813639133,0
5.59009249948693e-07,0.191380925409634,0
6.17425754707306e-07,0.193387946058847,0
6.888069964643e-07,0.192908195696928,0
7.39569553690774e-07,0.20183024929783,0
7.08449490866915e-07,0.200436681485849,0
6.96698495329299e-07,0.204637292726181,0
6.76406883946563e-07,0.199719932836158,0
5.62266737562521e-07,0.183293151898645,0
4.78220338363831e-07,0.18435963472617,0
4.01883376811026e-07,0.170700936465703,0
3.74529768324046e-07,0.173210342911492,0
2.70327716903488e-07,0.16238881673509,0
9.05397483699353e-08,0.111980079483698,0
8.06140590512168e-08,0.110528182695417,0
1.31443003241567e-07,0.13839929475454,0
2.19217801623602e-07,0.173198811837158,0
2.37631801906812e-07,0.168874403248998,0
1.76667278299832e-07,0.153952458604298,0
1.51254985574683e-07,0.141134770306461,0
1.62854598717398e-07,0.142806596742816,0
2.62463208698044e-07,0.173848861310711,0
2.70721512302844e-07,0.170058085952139,0
2.24464383495992e-07,0.158681254189694,0
2.2670678760914e-07,0.151504350958319,0
2.25204698729519e-07,0.146387121458614,0
2.30801320956893e-07,0.141973116265202,0
2.30640550506496e-07,0.14592233878461,0
1.64592730135245e-07,0.121755807245911,0
1.63158537014134e-07,0.118717173959043,0
1.85222479159744e-07,0.117825320600461,0
4.77402739316298e-07,0.175262253637081,0
5.32518169060557e-07,0.170624204082802,0
5.47507540813309e-07,0.164153239727952,0
5.06284421479365e-07,0.15863640340437,0
5.74093005187966e-07,0.170955156335282,0
5.62219964928881e-07,0.170956059889492,0
5.75585873655939e-07,0.169047254456187,0
4.97516145288426e-07,0.159172192787877,0
6.5957141813774e-07,0.173549110302924,0
7.65869520591993e-07,0.194201004430623,0
7.15587262990533e-07,0.196749470798715,0
7.07597357186656e-07,0.199541420461021,0
7.10279658757407e-07,0.202722831912954,0
8.61788624762071e-07,0.221505073887875,0
8.71406017044001e-07,0.222467060602361,0
7.98635175429509e-07,0.21441539575609,0
4.24317476573401e-07,0.162366149532608,0
2.23623481953561e-07,0.121418675795252,0
2.11962175874718e-07,0.130833210149697,0
2.23407556677116e-07,0.135833188752868,0
2.19523751646516e-07,0.132951321598582,0
1.97652096994759e-07,0.13181579982113,0
7.27963234794132e-08,0.0927598457316314,0
7.55840730306648e-08,0.0990153879478521,0
1.02822007262407e-07,0.106368576439628,0
1.05374384850825e-07,0.107009695844779,0
1.08665401234289e-07,0.10835138048447,0
1.63761216648313e-07,0.126941273687143,0
2.43894976074516e-07,0.1545501670682,0
2.79087610902018e-07,0.169558430940108,0
2.80428761687394e-07,0.1742742260938,0
2.23024155196346e-07,0.164259048087996,0
2.13295279755382e-07,0.163917089540963,0
2.35486798869451e-07,0.155429400958828,0
1.46748886579669e-07,0.137035263578383,0
9.3444680971059e-08,0.113394013366228,0
1.15836031552149e-07,0.121201835728244,0
1.2101555588527e-07,0.11904031386031,0
1.23982851997914e-07,0.110990737944995,0
1.15160594487864e-07,0.109254284272907,0
1.58536093188488e-07,0.119683951086014,0
1.4996764846457e-07,0.116817035272646,0
1.47817616111765e-07,0.117809571183458,0
1.35516748752146e-07,0.116905652094842,0
1.66027929119446e-07,0.125992217043887,0
2.29326055092979e-07,0.152381663577278,0
2.48855892829622e-07,0.153274713936312,0
2.20196338765382e-07,0.14399068117568,0
1.30338397925962e-07,0.122784909470916,0
1.40897445703074e-07,0.117174348276259,0
1.57598628789511e-07,0.119455069267434,0
1.69882228832768e-07,0.123357120783526,0
2.55706658685169e-07,0.136977855765148,0
4.38227724875471e-07,0.175826527735734,0
4.01279020738367e-07,0.166358392997751,0
3.44339122994452e-07,0.15631837452094,0
3.31187966036905e-07,0.157179372200089,0
3.26700475509037e-07,0.160154238389826,0
3.31638425056943e-07,0.161370088796621,0
3.47069705993477e-07,0.171629094636569,0
3.50130379729553e-07,0.175243894691554,0
4.32665469636972e-07,0.188280501796612,0
3.46700889527499e-07,0.179636078543738,0
1.14520362631695e-07,0.11070134666324,0
1.01832237982799e-07,0.106368770484447,0
1.06285696809488e-07,0.105837731310619,0
1.14036710129719e-07,0.107097858725814,0
1.22948657098541e-07,0.110602338291421,0
1.32226738231771e-07,0.109142238663093,0
1.39170714066902e-07,0.113945573892722,0
1.3330904691557e-07,0.118040630894565,0
7.45279167871814e-08,0.0943248502660137,0
8.86877867791792e-08,0.0968666625195964,0
8.29711315565148e-08,0.095919879710167,0
1.03329800478519e-07,0.104534641476887,0
1.07285524719985e-07,0.106134116138313,0
1.28045030082969e-07,0.110899092774768,0
1.49885670622814e-07,0.114385951693242,0
1.39282700157481e-07,0.11828035594513,0
1.63224253402618e-07,0.121225970970167,0
3.014705792907e-07,0.161834390149167,0
3.70940848822381e-07,0.185524426055834,0
3.89269853674567e-07,0.201757784459049,0
3.91701862979999e-07,0.199060954044091,0
4.13657842487385e-07,0.207722114774183,0
4.14014085664752e-07,0.207920517930473,0
3.68269444101761e-07,0.187216171851381,0
3.52904550129103e-07,0.173001113671746,0
3.98224046893129e-07,0.171801324921213,0
4.07021996045194e-07,0.164833070117913,0
3.42804343564438e-07,0.147505773911147,0
2.98395320539833e-07,0.136605250245393,0
2.92809595162591e-07,0.133952769314763,0
3.00778545485446e-07,0.137124024348944,0
2.33191251656432e-07,0.120304778271963,0
2.79890122003218e-07,0.133967895380747,0
2.63429004907363e-07,0.136069645174823,0
2.76571612028653e-07,0.146598239182723,0
2.44036635126222e-07,0.137929719349298,0
2.31789749085714e-07,0.1419964623736,0
2.28223796791249e-07,0.145114697787979,0
2.08290272668208e-07,0.1412686349577,0
2.47934522240069e-07,0.144510506875253,0
2.96568170238607e-07,0.155011217221933,0
3.18076708315223e-07,0.1523318806384,0
3.19026243071269e-07,0.148983301553674,0
3.2709276211376e-07,0.149088728112939,0
2.6153462942302e-07,0.139090496788233,0
1.92386739011373e-07,0.122023262895438,0
2.51499301027597e-07,0.139876784360132,0
2.7681218095078e-07,0.14090602551044,0
3.35999344479441e-07,0.146847195715305,0
3.08588066508689e-07,0.147520383532287,0
2.87556139892426e-07,0.137225896675817,0
3.58131685315105e-07,0.150102122133417,0
3.6775779507714e-07,0.156014912958424,0
4.31379808965341e-07,0.166623106594161,0
4.53531093555849e-07,0.165484196635294,0
4.71059934320711e-07,0.173938341221717,0
4.14997652121976e-07,0.163512831651541,0
3.7840317943606e-07,0.156354670577719,0
3.81087995664534e-07,0.160395715707243,0
3.75871757328663e-07,0.15848614391929,0
3.71557778183654e-07,0.16709607606008,0
3.16276883961249e-07,0.162150911455926,0
2.78135393844402e-07,0.149029399812005,0
2.00828109698377e-07,0.133082755390742,0
1.96517483430331e-07,0.137601039334804,0
2.08280716968862e-07,0.137131573134514,0
2.02319301727866e-07,0.135399063287448,0
1.80126776750709e-07,0.13799843675027,0
8.81835140838781e-08,0.106797555121349,0
6.77334792646194e-08,0.0968515780316362,0
3.9026012588572e-07,0.16658803528572,0
1.170946177423e-06,0.266716953455674,0
1.16551652846841e-06,0.2733460664012,0
1.08787865065379e-06,0.260808977688935,0
1.06635921572704e-06,0.255539138229591,0
1.08859616632396e-06,0.238482094952883,0
1.1455434403972e-06,0.233498983534063,0
1.74097063405968e-06,0.261956530704676,0
1.6178972499381e-06,0.236253710085917,0
1.58607190944498e-06,0.229827171182789,0
1.67638232103061e-06,0.264974011433593,0
1.42090499912974e-06,0.253861518206681,0
1.46379768354763e-06,0.254370564592648,0
1.44347388454605e-06,0.250701782227182,0
1.45210771037075e-06,0.250537101444407,0
1.48563648000515e-06,0.278941480791112,0
1.39228081791747e-06,0.273993801809271,0
3.71518884810877e-07,0.160058632442272,0
1.11496067610673e-07,0.104592531053468,0
1.2141723054549e-07,0.110345623086186,0
1.37480025858088e-07,0.114989704133194,0
1.66067995999159e-07,0.122152534220467,0
1.71191191999294e-07,0.127553992616242,0
1.40585628145474e-07,0.11965585897408,0
1.75365691462625e-07,0.125565221626717,0
1.95406507648495e-07,0.124551367637071,0
1.88995136319006e-07,0.124194332448202,0
1.77695773308367e-07,0.124160941545265,0
1.71476354185035e-07,0.120515770096357,0
1.60381013737621e-07,0.125785926987674,0
1.40148915920986e-07,0.120458346959873,0
1.18730737878534e-07,0.111418502232097,0
1.18030824812416e-07,0.10950967268879,0
1.10757596459475e-07,0.101574959919614,0
6.15988158416077e-06,0.203948835236225,0
5.27942316813195e-05,0.293940721305078,0
0.000290616002232276,0.273177703399759,0
0.000356835000384018,0.138728612243534,0
0.000347066652360782,0.135815698045682,0
0.000345845461980912,0.141735428796962,0
0.000347615822593282,0.142874866876854,0
0.000351012678573276,0.142111164599595,0
0.000352810354403692,0.142489891247704,0
0.000352777104761065,0.140591882348076,0
0.000361046261628595,0.150614444003949,0
0.000355894156285061,0.166211482867384,0
0.000127902935157259,0.16719496312472,0
5.41409780830596e-06,0.205306909081944,0
1.43875722487773e-06,0.262419378164045,0
2.06100274021998e-06,0.2082800090432,0
5.97686395689218e-05,0.219141864394,0
0.000120183318176913,0.191246445270837,0
0.0001181417943107,0.188639997021254,0
0.000118626700956304,0.169041509237731,0
0.000189782188142746,0.183776355263921,0
0.000288540839622064,0.22463725592125,0
0.000270128051739165,0.149775690265274,0
0.000244443880926804,0.134644042552511,0
0.000212697441675539,0.118941866031213,0
0.000186979915101996,0.106768043640116,0
0.000181544460305652,0.13261752274724,0
0.000183755588279554,0.151469982694346,0
0.000180148190905299,0.132257183165773,0
0.000180791477902957,0.118791303972518,0
0.000169368625919096,0.126010842026613,0
8.22403277643573e-05,0.0796284157143651,0
7.21531117538431e-05,0.0948082477881821,0
7.05460074148504e-05,0.0974986930891089,0
6.93252294388459e-05,0.105047273103264,0
6.66822680117256e-05,0.108030999829174,0
7.11938670661109e-05,0.109347489317343,0
6.57997396635746e-05,0.103998446981795,0
5.5620249796725e-05,0.114860277176895,0
3.4106577124327e-05,0.122188196982607,0
3.15960157791774e-05,0.112630383048705,0
4.60288309114801e-05,0.162575645644687,0
5.39146303885732e-05,0.194796622771459,0
5.36120587244877e-05,0.183438417423209,0
5.27770188492084e-05,0.185161994385257,0
5.41072183002024e-05,0.184106743068375,0
5.27235329176684e-05,0.212226668232815,0
6.3885031159818e-05,0.138517382761802,0
0.00011288636101077,0.168587717304217,0
0.000118907237512986,0.160162419405939,0
0.000138484097169671,0.136026530824008,0
0.000258937316074606,0.18362528217693,0
0.00026922618232025,0.132174258511536,0
0.000284575840819986,0.0889364692000002,0
0.000408994458692865,0.0835663361872884,0
0.000376493386082288,0.0698958220385895,0
0.000355829752883197,0.0660719822420218,0
0.000362302009943684,0.0760752064272766,0
0.000396180489339393,0.0824401727810079,0
0.000456968881625456,0.0922910282718523,0
0.000517463608159223,0.115790319912369,0
0.000476088706599802,0.116505760000952,0
0.000451116194149206,0.125923519534976,0
0.000404826655595407,0.235718364827009,0
8.55612895302011e-05,0.218804399268686,0
2.92539990325961e-05,0.324509428845719,0
2.94916898451374e-05,0.514039375391445,0
1.87258005734933e-05,0.488329162136385,0
4.00903247052689e-06,0.253923497551445,0
1.3088466540523e-06,0.274118507517758,0
9.07249110002408e-07,0.237305434441443,0
8.41621908046223e-07,0.227444291670015,0
9.40692716561934e-07,0.224558093128426,0
3.93405392707583e-06,0.139862340117947,0
4.31947451035252e-05,0.278079474976992,0
4.82411275306476e-05,0.206388466799819,0
4.762048234348e-05,0.216021712455623,0
4.76232613755511e-05,0.21753731037102,0
4.70518464808376e-05,0.215362423319471,0
4.60574678336249e-05,0.213785747557699,0
4.58198921924072e-05,0.212358716593092,0
4.61341050453097e-05,0.208781815793295,0
4.69236364892082e-05,0.206879806004819,0
4.61511250869954e-05,0.287104131343655,0
9.24708328277128e-06,0.224767427303642,0
2.63689020515878e-07,0.131135413116876,0
1.95260825144434e-07,0.133367158127793,0
1.87459351025903e-07,0.13471570563926,0
1.85396828761843e-07,0.134116445974089,0
1.99745130439186e-07,0.14304096685649,0
1.5708513568256e-07,0.130869509859626,0
1.46577051635292e-07,0.13252432758568,0
1.62689134239252e-07,0.13756702416006,0
4.02700640570866e-07,0.188240288500092,0
4.03336346043134e-07,0.18445589359928,0
3.79694037066985e-07,0.179771784731641,0
3.46144311951568e-07,0.166825783475192,0
3.53429610661577e-07,0.162145085391705,0
3.7814366675909e-07,0.169621137854766,0
3.36387607631807e-07,0.150189156913802,0
3.98588672262903e-07,0.162122983765853,0
3.99573244583217e-07,0.151921057925972,0
4.06327950513762e-07,0.162012429909576,0
2.29202669220725e-07,0.129062670268449,0
2.52141712253793e-07,0.140043209821388,0
2.45721623444198e-07,0.132454542556498,0
2.11540551596566e-07,0.12586488496602,0
2.0964734961916e-07,0.120996593567952,0
2.04901016989715e-07,0.124041990674457,0
2.02668000932065e-07,0.128239062280592,0
1.50663538078332e-07,0.113918744000935,0
1.28236814645278e-07,0.116272052070244,0
8.50517593561773e-08,0.098330267765216,0
9.77564807460423e-08,0.100719622128519,0
9.92091146904525e-08,0.0990175745398985,0
9.97950299398135e-08,0.102225613665776,0
8.29823636943424e-08,0.0990784438401792,0
7.0423324808539e-08,0.0956320279193422,0
9.10911289865728e-08,0.099437491859521,0
9.60694807018876e-08,0.0999527594787987,0
1.41232733399418e-07,0.11308729391171,0
2.05236304686059e-07,0.130663869945187,0
2.15185128855825e-07,0.131905877014372,0
2.38483600299373e-07,0.141931602612559,0
2.12608778197118e-07,0.136483838274864,0
2.12498803832717e-07,0.134603489363585,0
2.27681301298564e-07,0.133569901470935,0
3.18919118652287e-07,0.158986846755427,0
2.97326591007737e-07,0.155297485264122,0
3.08740454766677e-07,0.162344282286942,0
3.45111625846829e-07,0.173563905453596,0
3.27809439564695e-07,0.166987290232833,0
2.92934992761024e-07,0.15865015980514,0
2.20121737252945e-07,0.134912143191971,0
4.09332631204549e-07,0.181398821539464,0
5.2609187742858e-07,0.196743748169519,0
5.01167428301612e-07,0.202224729902449,0
4.37329153849269e-07,0.194569439881407,0
3.92112422764172e-07,0.18081943044382,0
3.8161389441625e-07,0.180207703533813,0
2.86582464422243e-07,0.159166102838374,0
2.78613514099388e-07,0.161547240819225,0
2.269168453509e-07,0.151646878255348,0
2.16747569520788e-07,0.161998938937674,0
1.36853708441318e-07,0.130380080116198,0
1.03181435672887e-07,0.125399417960274,0
1.37579438660054e-07,0.141073809488417,0
1.99767259427145e-07,0.159159465454514,0
2.00217886091031e-07,0.162577924811026,0
1.68728839157345e-07,0.141112741041833,0
1.22657795021963e-07,0.124166371419894,0
1.22043380318413e-07,0.121723425278967,0
1.85072940847175e-07,0.145437165894017,0
1.65608819499016e-07,0.131668102421097,0
1.43752085149746e-07,0.129086443779955,0
1.61580505471291e-07,0.132346049969834,0
1.72195713937541e-07,0.1280381081852,0
1.6216390606293e-07,0.125729857750451,0
2.26798824081787e-07,0.144973634930132,0
2.84742573188556e-07,0.163281105524189,0
2.48627897196107e-07,0.150959312843259,0
2.50467453142099e-07,0.153808302872707,0
2.37261644290048e-07,0.154698856822656,0
2.28826644069275e-07,0.14978268886068,0
2.29999312787238e-07,0.144513863522116,0
1.35939043605691e-07,0.119175333972374,0
1.2781116691477e-07,0.115872522158521,0
1.37280194391067e-07,0.111641173424429,0
1.75608942686322e-07,0.120677695777641,0
1.28223570781273e-07,0.102091897967337,0
1.57082285737141e-07,0.108207818903801,0
2.26463536385443e-07,0.131520866323434,0
2.42655249817285e-07,0.13091578833413,0
2.2886017283891e-07,0.127404118367409,0
2.32171977059547e-07,0.132989277006914,0
2.09028576175558e-07,0.130057417724092,0
2.90034754187648e-07,0.147930630036192,0
3.35454837260578e-07,0.152687359360953,0
3.18783494779116e-07,0.158295644749393,0
3.14165409693523e-07,0.161425474181679,0
2.8268055385604e-07,0.157999535936841,0
2.30685479057806e-07,0.141652634512438,0
2.39314946142458e-07,0.153013526335954,0
2.47744078828545e-07,0.155321031686538,0
2.68943816936829e-07,0.154286151004634,0
2.8743560396559e-07,0.148918283044988,0
2.79105548793773e-07,0.158076834571872,0
1.78789649417689e-07,0.140751215581863,0
1.86453487936871e-07,0.138763065054481,0
1.90326899048884e-07,0.148570102591463,0
2.04535721044548e-07,0.160952895465308,0
2.24552396516283e-07,0.161647380630965,0
2.15054366654251e-07,0.152903881388425,0
2.12269299404569e-07,0.154663410511538,0
1.79027703682093e-07,0.14347432341867,0
1.69163539655655e-07,0.14367277537623,0
1.11408892809624e-07,0.117251911284114,0
4.57667705509492e-08,0.0866613478007355,0
5.02488964756752e-08,0.0909544935073809,0
7.16786419436507e-08,0.0915075291534243,0
7.03996870259466e-08,0.0888705545466391,0
8.23453170712891e-08,0.0941417257949643,0
9.10770469033263e-08,0.0950741644664981,0
1.21209352173757e-07,0.108221305845406,0
1.68334037894899e-07,0.123110209187887,0
1.45008072860251e-07,0.113498603269735,0
1.83724246088631e-07,0.128701930098905,0
1.95017573920736e-07,0.135099107250277,0
2.06058597761343e-07,0.132670407728842,0
1.90332096008178e-07,0.137783424384672,0
1.89223802527913e-07,0.139608098565025,0
1.54886989545329e-07,0.124796310572538,0
1.5600936510884e-07,0.135082465507366,0
1.59529885920452e-07,0.134102088242266,0
8.32863019910783e-08,0.102675019801831,0
7.01396714174321e-08,0.101850154482506,0
5.06606297667855e-08,0.0911919710855366,0
6.40501762764331e-08,0.0916382702263734,0
6.96285253243555e-08,0.0996867145197764,0
5.26401683260003e-08,0.0905317538653449,0
5.17268446411595e-08,0.0918043522668793,0
3.80077103260058e-08,0.0835913858753273,0
5.55290071176998e-08,0.0873406378428298,0
1.11304785979909e-07,0.106062148820982,0
1.11188944080822e-07,0.103003602609374,0
9.40267404119122e-08,0.097657043730517,0
1.29273524202374e-07,0.106659574929696,0
2.03051067125137e-07,0.133899966248306,0
2.04871008740892e-07,0.138141948427959,0
2.64380551389587e-07,0.151031201811895,0
2.976142678512e-07,0.159660799538175,0
2.95996169428644e-07,0.163730968215873,0
2.61149719147617e-07,0.158071068455053,0
1.41537845203091e-07,0.131784663059098,0
1.4051907353775e-07,0.134525642939188,0
8.97350578987096e-08,0.105649721060918,0
9.67910198244199e-08,0.113178193846266,0
1.07616621320125e-07,0.115484924382667,0
1.11316353405433e-07,0.10939306665945,0
9.20619545113367e-08,0.104835033483646,0
7.73604272458952e-08,0.0998136503501229,0
9.21156005427517e-08,0.104858846967416,0
1.07090890212258e-07,0.109512365159581,0
1.05492406119938e-07,0.100745597327651,0
1.27553665963977e-07,0.114288953098469,0
9.59085426076426e-08,0.101420893075015,0
1.18618248856411e-07,0.110708906979604,0
1.07148727339877e-07,0.115282160646966,0
1.24756696001076e-07,0.122840127071254,0
1.24988715086946e-07,0.114763023292494,0
1.40541873101101e-07,0.120633359687422,0
1.42604060077465e-07,0.115090765378494,0
2.29383221645206e-07,0.144644919100692,0
2.23709315603825e-07,0.143894015406218,0
2.16964165372626e-07,0.141894073552382,0
2.19331799440359e-07,0.144629173392324,0
1.96398121010432e-07,0.144336185890917,0
1.96601975929809e-07,0.134578951553383,0
1.97310103544488e-07,0.13590996060473,0
1.95717654630703e-07,0.137415885049686,0
1.79455530782628e-07,0.126429755515212,0
1.89384740622158e-07,0.135533246498288,0
1.3175733545689e-07,0.115863062898763,0
1.20324025011561e-07,0.112986267429796,0
2.18410596494654e-07,0.138642103687252,0
2.72562074111924e-07,0.151036293530484,0
2.7936170859378e-07,0.150707282703642,0
2.93047649426995e-07,0.155132550694341,0
2.61674779680092e-07,0.150206899790691,0
2.6572572562732e-07,0.154507118687078,0
2.68143820493352e-07,0.156320070576104,0
2.38222746471618e-07,0.143898101555007,0
1.66403283695503e-07,0.120539275679899,0
1.45638246085529e-07,0.112917218547721,0
1.11979384824953e-07,0.108003830226676,0
1.06936657871939e-07,0.104318656923267,0
1.32630592262017e-07,0.107828564672361,0
1.53394959296598e-07,0.116357242416003,0
1.6056542197061e-07,0.115489276112526,0
1.56070555113423e-07,0.114056869744083,0
1.54038711673579e-07,0.112017823222487,0
1.54962764564702e-07,0.112311863840503,0
1.48474947640447e-07,0.108878349781614,0
1.44528611454479e-07,0.104888452556585,0
2.39770937409486e-07,0.12761252043608,0
1.92756896628137e-07,0.117778328533121,0
1.86614426031116e-07,0.118887728983543,0
1.86104285801129e-07,0.115919295131128,0
2.50640964524957e-07,0.138133323358877,0
2.6521122665728e-07,0.132078852994169,0
4.22823266954644e-07,0.166837014114496,0
4.40841627756168e-07,0.166598756343242,0
4.3071141294268e-07,0.176360692460488,0
4.02062252797026e-07,0.179266754963974,0
3.33734811378335e-07,0.168566572193208,0
3.17829433639169e-07,0.164590754564611,0
3.24716913497467e-07,0.160845016067021,0
3.91385519038498e-07,0.174638588930303,0
2.89557304508055e-07,0.149436027603125,0
2.87647505789679e-07,0.155041215597061,0
1.81349068047731e-07,0.117434271925016,0
1.46058026281352e-07,0.103526475934656,0
1.83356267841894e-07,0.10944765385462,0
1.8257705923559e-07,0.109817488627943,0
1.8670025968138e-07,0.112162876409776,0
1.96304240455456e-07,0.113516168867873,0
2.11444491671564e-07,0.121561335526991,0
1.14392115087844e-07,0.0931959670376392,0
1.49441917356703e-07,0.10267447522839,0
1.26058953413676e-07,0.0977482393305672,0
1.10390959363523e-07,0.0965107820278695,0
9.74480160654059e-08,0.102114036620656,0
1.05519229135645e-07,0.108860176418557,0
1.43936493382736e-07,0.121873714996663,0
1.47687524485583e-07,0.125204563002718,0
1.52176356164236e-07,0.124836866886896,0
1.30017359956713e-07,0.114927946015036,0
1.34166209911273e-07,0.118271246504305,0
1.69254067333667e-07,0.125870192215895,0
1.44164489016249e-07,0.120040682689646,0
1.67757845988732e-07,0.132415963760317,0
1.73609454509175e-07,0.130188915835974,0
2.07603435822247e-07,0.132202542731512,0
1.80005234960784e-07,0.116250643013346,0
2.31409029906517e-07,0.126593336441193,0
2.34467524272565e-07,0.12592769736844,0
2.30356897115389e-07,0.124919521607978,0
2.12758819441232e-07,0.119733920006162,0
1.84211251467571e-07,0.118194913989524,0
1.89896222002931e-07,0.119827852286526,0
1.45941513806872e-07,0.102859997369778,0
1.38801059381684e-07,0.0989472500500195,0
1.30574440464188e-07,0.0963037750832262,0
1.37981113320274e-07,0.106722958724469,0
9.17610338038679e-08,0.0914007367148047,0
1.00012464010892e-07,0.0971872682009316,0
1.17138791896293e-07,0.0976859085273827,0
1.52642573706002e-07,0.111479713138023,0
1.86003699492226e-07,0.11871201624335,0
1.68794052614283e-07,0.11655896589124,0
1.75248340768904e-07,0.120058128431615,0
1.72901326894496e-07,0.120960058074712,0
1.4661208919956e-07,0.11911036841581,0
1.41266262169052e-07,0.117221040815397,0
1.34698479129219e-07,0.118560771452452,0
9.87355208193667e-08,0.109677502149574,0
7.08303640719002e-08,0.0985032969463124,0
1.52684149380349e-07,0.12145674604967,0
1.46232375883451e-07,0.113963111499321,0
1.57997788792008e-07,0.11103975141121,0
1.70949784857927e-07,0.115764089629072,0
1.7090820918358e-07,0.115704814369792,0
1.68083913273427e-07,0.113422222772921,0
2.13296620906168e-07,0.117589393792434,0
3.14225090903472e-07,0.138542305205728,0
3.16511082417145e-07,0.135545423551697,0
3.26162003468709e-07,0.1439990771006,0
1.97389231440825e-07,0.120507913250512,0
1.85994311436728e-07,0.120465871963326,0
2.82339063337314e-07,0.155750324595922,0
3.21383483220415e-07,0.162273736135627,0
3.34166494287376e-07,0.167341918387455,0
3.31941525134438e-07,0.171617256687469,0
2.8304735859584e-07,0.174098060769693,0
1.17401825094075e-07,0.120946971897712,0
1.14620110721357e-07,0.11538493845712,0
1.34528320623324e-07,0.116600162221328,0
1.89980714502409e-07,0.142508443367308,0
2.57118219886777e-07,0.165949105650661,0
2.32412210693977e-07,0.155919260598794,0
2.36333567946568e-07,0.156994940250653,0
2.43328507511543e-07,0.159114467488918,0
2.21451655900494e-07,0.149967504856049,0
2.0263447216243e-07,0.141721737552529,0
2.75830458575886e-07,0.160868669172277,0
3.5029383248152e-07,0.182799997080415,0
3.61935021298583e-07,0.195183793920089,0
3.12736245887856e-07,0.185824889017222,0
1.93715316508136e-07,0.143409924275996,0
1.95305083120351e-07,0.143936576540328,0
1.79808085795334e-07,0.141183856555658,0
1.57802651352736e-07,0.131023381591556,0
1.87291204246186e-07,0.143765974754242,0
1.93595115868997e-07,0.145907924632317,0
1.53538462430633e-07,0.131746282147427,0
8.87266801519551e-08,0.100178324147291,0
9.26126645525815e-08,0.0970759143799987,0
8.26123737214269e-08,0.0859767219081841,0
1.92176178338069e-07,0.128715396610091,0
2.21516534069736e-07,0.135303832822373,0
2.21012429018283e-07,0.136984528851465,0
2.52460906140712e-07,0.145666621620767,0
2.311124679391e-07,0.133633559532313,0
2.32079605299204e-07,0.133782289507021,0
2.36534740564374e-07,0.128634024734308,0
2.42028261825121e-07,0.132315201110178,0
1.87381564280351e-07,0.122112580030732,0
1.93963932334976e-07,0.129254231408872,0
1.41844298157549e-07,0.108001272283419,0
2.19956272774799e-07,0.129766086210842,0
6.69118902934983e-07,0.202040291263056,0
7.63806327752541e-07,0.196245334531767,0
7.474127711275e-07,0.193145894436732,0
7.47462226062711e-07,0.193152286708075,0
7.11057526212926e-07,0.198726992621538,0
6.98779290772811e-07,0.204940928846277,0
6.2756552522014e-07,0.194199622400622,0
5.74354529591115e-07,0.187706924750058,0
6.30031063295207e-07,0.205404337866537,0
6.7016919164378e-07,0.219351054718344,0
3.42963269932505e-07,0.177772819254043,0
1.21037517229381e-07,0.119107076031154,0
1.33034949223808e-07,0.130731875538751,0
1.38445654423559e-07,0.138317183456653,0
1.40163668579625e-07,0.139040371322823,0
1.30318280664181e-07,0.132183943023984,0
1.76569206648652e-07,0.142803906376496,0
2.48810293702919e-07,0.147722876301309,0
2.26916174775507e-07,0.137045414540544,0
1.92051451315029e-07,0.120441554700656,0
1.43702965502232e-07,0.110027115737724,0
1.28521138611778e-07,0.111826791501219,0
1.27648217094346e-07,0.113096421370533,0
1.28882075816892e-07,0.112732150065567,0
2.01228946139356e-07,0.133203029599691,0
2.27912649809041e-07,0.138932967292737,0
1.83696920141379e-07,0.140650568986473,0
1.08002369814769e-07,0.122435992297019,0
8.1709611599021e-08,0.114776042929873,0
4.68331530691709e-08,0.0991259133740993,0
4.68919960598795e-08,0.0969007380949167,0
5.03429446744997e-08,0.0969197846530704,0
4.16697225454743e-08,0.0876606936181682,0
1.30815847605556e-08,0.0717358553604442,0
5.98823825670292e-09,0.0635678640426861,0
1.41466261279922e-08,0.0702370766220344,0
4.64033142424583e-08,0.0871386259339997,0
6.9271276283901e-08,0.0976029317232048,0
8.92669962746134e-08,0.105555563248281,0
1.17791932328771e-07,0.110223832539679,0
1.15907615475318e-07,0.111251442184315,0
1.12545350456381e-07,0.113593356932597,0
1.16193448236452e-07,0.112226539517354,0
1.46552910921156e-07,0.119089605415967,0
1.65154672314318e-07,0.126368346763982,0
1.54262013279344e-07,0.124577069213781,0
1.15694372500443e-07,0.113319782952881,0
7.19862684050463e-08,0.0972077267756731,0
1.37175752273656e-07,0.121371946883255,0
2.2079717431723e-07,0.160884278825201,0
2.18552590834055e-07,0.146633463415143,0
2.86931163626441e-07,0.156830159594734,0
2.61005545438189e-07,0.152144839348145,0
3.07942470049378e-07,0.162436006040173,0
3.1094580958938e-07,0.160639292453913,0
3.12477403786279e-07,0.15686545976235,0
5.53091422108222e-07,0.193061385458333,0
5.81897999827309e-07,0.185182747240808,0
5.06787353023881e-07,0.180470457810594,0
3.50324846593432e-07,0.149130563125218,0
2.70755041072479e-07,0.139445665436239,0
3.01173011460195e-07,0.145169950561226,0
3.51368932479848e-07,0.147733326872571,0
3.77867892628847e-07,0.151411227931243,0
3.88916460442621e-07,0.155114514809031,0
3.96017853851186e-07,0.157312745867761,0
1.91526558426403e-07,0.118243315278754,0
1.55886146880434e-07,0.112535008451815,0
4.05838933408645e-07,0.161206512751278,0
4.82626018693792e-07,0.165599614023561,0
4.72983647478485e-07,0.167210452357545,0
5.15759651778045e-07,0.178407675312612,0
4.99684618464531e-07,0.17941041631063,0
4.08440933576122e-07,0.165870531272113,0
4.84870434533118e-07,0.178619610491405,0
5.55778250062874e-07,0.192829519129299,0
5.58223335588463e-07,0.1977054368767,0
5.71893685543795e-07,0.192378127849745,0
6.18330360912042e-07,0.208000870052226,0
1.02628294795844e-06,0.285762300021492,0
1.113110893886e-06,0.266568109847966,0
1.05863066668246e-06,0.260035231739068,0
1.05280202536922e-06,0.274286867660524,0
1.05846972858822e-06,0.275283882846528,0
9.28307189058987e-07,0.251925331278413,0
7.93297395303713e-07,0.229985141192285,0
7.26862149999339e-07,0.217934669626737,0
6.76249298729282e-07,0.222552116519131,0
6.06645584694452e-07,0.209643005354188,0
6.20549127242598e-07,0.213301112011616,0
6.2849544564595e-07,0.212071196202385,0
6.29312374118092e-07,0.214781848468604,0
6.19912080619545e-07,0.205946327986107,0
6.27688240517002e-07,0.20171371715608,0
7.53685165706854e-07,0.225590142816103,0
7.46115710674192e-07,0.223156558823048,0
7.30665150695118e-07,0.225833778227924,0
8.25894903361513e-07,0.230077623834657,0
7.70994895962154e-07,0.236270838887221,0
2.85822199570783e-07,0.145221608024993,0
1.39929805411425e-07,0.115004457067592,0
1.42785618365035e-07,0.116007027047279,0
1.40546064197306e-07,0.118738229077309,0
9.89621753020951e-08,0.109715444023522,0
6.85395108866304e-08,0.0938666042327156,0
6.1514563072832e-08,0.0919380387697615,0
5.82369581972215e-08,0.0902314957238149,0
2.84458081578208e-08,0.0766760631863627,0
7.269204900585e-09,0.0632498482862154,0
0,0.0610051166812819,0
1.73679026706172e-09,0.0626756059957297,0
1.06931628556494e-08,0.0654549804315192,0
5.31323706642332e-08,0.0944591501052388,0
6.1892767594308e-08,0.0938354606064242,0
1.2091010790477e-07,0.125740401160553,0
1.33270321186642e-07,0.126175515858492,0
1.74249015789951e-07,0.134581271044828,0
1.92561926832713e-07,0.141979181549496,0
1.82788290484287e-07,0.135281358296343,0
2.03539748942559e-07,0.142114820657417,0
2.46925976849466e-07,0.155122634401357,0
2.60357601965005e-07,0.164821871356359,0
2.55691235451137e-07,0.162926435775828,0
3.86560729088108e-07,0.182137944173499,0
4.81054860548724e-07,0.181708546635677,0
5.01510762902668e-07,0.194841829149993,0
4.98284457044599e-07,0.194033665423474,0
5.38887294140307e-07,0.18600149430209,0
7.62629467938374e-07,0.217529065068159,0
7.75356988891589e-07,0.213632658967323,0
7.71025071854826e-07,0.205977935962773,0
7.90969157540302e-07,0.207711792821635,0
7.42875490376726e-07,0.198508195869332,0
6.46307269226526e-07,0.195690763399836,0
5.18746394577077e-07,0.188513233183257,0
4.97183372249805e-07,0.18678556152809,0
4.53951376683216e-07,0.173822696481059,0
4.22726871741946e-07,0.188809657517466,0
2.17141867851688e-07,0.136239850249873,0
1.75878513994183e-07,0.127148632875511,0
2.07831431455761e-07,0.139043987812717,0
1.87668067616877e-07,0.135798987072917,0
1.71486245172077e-07,0.138259376840756,0
1.62635488207838e-07,0.1482914150103,0
1.60499705582126e-07,0.153910342338507,0
1.6447957053773e-07,0.159178760679175,0
1.64356687597019e-07,0.166991642467491,0
1.43389136218454e-07,0.144055871532218,0
1.35516748752146e-07,0.138671884566357,0
1.62037837889105e-07,0.136094739446058,0
1.97997610965841e-07,0.144863139507472,0
2.0931357071745e-07,0.146172894581341,0
2.88153790211159e-07,0.164195631698233,0
3.05654466809528e-07,0.157239221465834,0
3.08443222223869e-07,0.153847561130543,0
3.08485636117456e-07,0.146698773240244,0
2.94433728763681e-07,0.145131264755393,0
2.77285774821866e-07,0.140339141113102,0
2.78367915861816e-07,0.14384600519293,0
2.38269686749106e-07,0.144073404924876,0
1.24182515821087e-07,0.112675028998694,0
1.25463314821121e-07,0.113216662242829,0
4.4362753322509e-08,0.0772668582351402,0
6.02788602679564e-08,0.0898024058778584,0
9.85512802302256e-08,0.107651188061766,0
8.77340609269289e-08,0.106588113352583,0
7.4490196921343e-08,0.0976087551126143,0
1.28042515425247e-07,0.115960648991471,0
1.27800940640031e-07,0.117732952717927,0
1.45584767697962e-07,0.120607989351561,0
1.84053666250289e-07,0.130650187087879,0
1.9926147793721e-07,0.132611699076137,0
1.91758577512273e-07,0.130245171720843,0
1.80785784717873e-07,0.130587633116069,0
1.60637173537628e-07,0.118648913113682,0
1.68323979264009e-07,0.119605153178665,0
1.67932195590832e-07,0.116366425112219,0
1.76829389901014e-07,0.122388643131248,0
1.67843679638997e-07,0.115514208633856,0
1.6525257632165e-07,0.117114327392104,0
1.6302224256557e-07,0.113441062697443,0
1.65263305527933e-07,0.106215059251321,0
3.83863674858717e-07,0.155995707201624,0
6.32038263089368e-07,0.182627669617546,0
9.31735170466409e-07,0.208807133190895,0
9.34939012048823e-07,0.204339939281773,0
9.36438418626873e-07,0.210468271742654,0
4.82050497363017e-06,0.0901024710687152,0
0.000235744613649527,0.154387667096516,1
0.000435707213867932,0.183556029506756,1
0.000477071788901593,0.181624793254892,1
0.000550206114063609,0.147179552640498,1
0.000817364715801968,0.162608271796685,1
0.000782625463703216,0.127639224593567,1
0.000681213611445819,0.111916173936252,1
0.000558558440888299,0.099751417426635,1
0.000420948244276134,0.0798165291022454,1
0.000414753116075826,0.0763866934670231,1
0.000444436055531753,0.0705355603026915,1
0.000454033935410906,0.0692075510344086,1
0.0004601280742865,0.0681210837121408,1
0.000481296569449018,0.064438132675995,1
0.000486361814323718,0.0652976376133994,1
0.000484992502221794,0.067061156820007,1
0.000523269838172268,0.0683245568886235,1
0.000466104723659266,0.0559378176299581,1
0.0004885447761194,0.0526365080789703,1
0.000586431195432791,0.0608727994474998,1
0.000757702652791932,0.0853107766992889,1
0.00111571676997925,0.0827850458087871,1
0.00116363566926932,0.0565981442463842,1
0.00115168348636124,0.0590443863565091,1
0.000881599489916583,0.0501344514792079,1
0.000762319682224214,0.0456069580943115,1
0.000875325269528077,0.0407626198661677,1
0.000909039345128269,0.0413046407958038,1
0.000964507270371668,0.037826891457597,1
0.0016683735640113,0.0402596582816242,1
0.00169034742105866,0.0355812855526164,1
0.00151818907828775,0.0353541139647174,1
0.00138869378273266,0.0423404540750591,1
0.00126209941510244,0.0383491387862418,1
0.00131781222307947,0.037820723472391,1
0.00150475593767182,0.0397350794335361,1
0.00149660692192987,0.0449410125022317,1
0.00163232312645917,0.0456896609427834,1
0.00165058257939927,0.0460937592577364,1
0.000865665679780768,0.0350133215812104,1
0.000822637502419553,0.0413341995566134,1
0.000828030001497393,0.0405756994353696,1
0.000736847191946063,0.0369305989223982,1
0.000635194465654736,0.0357335353305015,1
0.000627529011887077,0.0377168422513602,1
0.000509524226858309,0.0354961870608152,1
0.000582004275297843,0.0339174409071735,1
0.00090048597762148,0.0490871953048278,1
0.00104846407315392,0.0720980740057962,1
0.00127076729023093,0.121443037903144,1
0.00132331390524275,0.130262861335455,1
0.00128054216965849,0.138343383118924,1
0.00109838385742969,0.104679511529919,1
0.000953587723275173,0.0725329655121162,1
0.000621733017369182,0.0533674437563487,1
0.000464549174497614,0.0442252768679507,1
0.000384214236921356,0.0533451676849072,1
0.000347162433996997,0.049693107489844,1
0.000291722939809097,0.0432562241142702,1
0.000253741274631344,0.0362156472363707,1
0.00073903258658927,0.0527977315944928,1
0.00140036638213933,0.066195730049178,1
0.00458567020220569,0.0704412443387823,1
0.00510858207700707,0.0469667976075363,1
0.00679442691489749,0.0418119340208855,1
0.00648093081237095,0.0250844733283795,1
0.00565918757554829,0.0217242912183825,1
0.00753765803420452,0.0206057555241362,1
0.00787268557730436,0.016711699228071,1
0.0062201515353317,0.0134694714164981,1
0.00560885987037016,0.011901087963473,1
0.00547682622633444,0.010433046316739,1
0.00653665039651231,0.0115649528104156,1
0.00662324699040888,0.008639157697172,1
0.0140700077455613,0.0149655476865303,1
0.012758418442847,0.0140899715193393,1
0.0103389441373476,0.0115691829100014,1
0.0100972698945689,0.0125310098365914,1
0.0107593176260901,0.014211896751316,1
0.00832845155732027,0.0102238453661744,1
0.00751310834217094,0.00895737973215985,1
0.00687051735734507,0.00745206344234282,1
0.00717115651702939,0.00785834762548624,1
0.00578150696050723,0.00914595152121413,1
0.00380050648256125,0.00690265919183821,1
0.0042157892633402,0.00762274401097245,1
0.00438578888444236,0.007266728699113,1
0.00627984307013025,0.0106711865958845,1
0.00652076448473858,0.00876063634181116,1
0.00757448234660628,0.00759700812439749,1
0.00892391669884423,0.00579296872358455,1
0.0104310875305581,0.00800319434650873,1
0.0098865751589942,0.00835145937018309,1
0.00990664678811937,0.00829396929671276,1
0.00989603067052052,0.00861634109695054,1
0.00954410021161835,0.00953108215339814,1
0.0109229830518818,0.00953371001268971,1
0.00997421143074983,0.0045955186954277,1
0.0160440367976685,0.00935919816297378,1
0.0151245920409619,0.008908228158638,1
0.0182413442460882,0.011971381727922,1
0.0217679227662259,0.0130999550398975,1
0.0234270260157082,0.0135663802294853,1
0.0214870930313001,0.0100633274936618,1
0.0217138895995663,0.00991215538493006,1
0.0237380528817687,0.00974828221722072,1
0.0193257061847986,0.00836194161048895,1
0.0142145649738207,0.00991484876649073,1
0.0138033179169276,0.0107494896195155,1
0.0106124815186073,0.00913448968182534,1
0.0145915780518089,0.0170866461988368,1
0.0135874991907209,0.0112794355363941,1
0.0132477124967753,0.0110301296485137,1
0.0133727443714357,0.0148537577131871,1
0.0102773082224253,0.0128701470283944,1
0.00966421225165447,0.0147619308209865,1
0.00932899007656156,0.0163822859082592,1
0.00931810882401402,0.0157147691143728,1
0.00949277775813832,0.0158872457698807,1
0.00928886426131835,0.0203531171192016,1
0.00389987454122237,0.0141840685120754,1
0.00511517460360832,0.028885705405549,1
0.0105292054943576,0.0321113932859919,1
0.00981493621377264,0.0359843245948291,1
0.00750949217048531,0.0249275851041762,1
0.00796860768313754,0.0202671005812008,1
0.0084933540208648,0.0138152915624458,1
0.00926774656592999,0.00812472337462718,1
0.0134049908964771,0.011735203435103,1
0.0148691485554571,0.0125056051789175,1
0.016213576327438,0.0133639767156354,1
0.0185470295856858,0.0180364172787932,1
0.0141290290972538,0.0142203233768278,1
0.0125425653523337,0.0127990358258995,1
0.00997630759108732,0.0109481433233615,1
0.00997790467753287,0.0125912025412617,1
0.00381011582123272,0.0087418196641595,1
0.00153489482883083,0.0267442828285985,1
0.00140543310144168,0.0218519923367989,1
0.00164975358979047,0.0245700447802385,1
0.00154150083466805,0.0264139517231297,1
0.00115245174782426,0.0189674993784499,1
0.00176694704581927,0.032667141749568,1
0.00199032399860897,0.0319302985442698,1
0.00205005080902605,0.0329885438982805,1
0.00243070593100729,0.0342149662335821,1
0.00231411016435824,0.0335494526891957,1
0.00198094951639551,0.0312946633634197,1
0.001442813626794,0.0277633251077489,1
0.00169458990747875,0.0234575110278812,1
0.00120656234113041,0.0179675691717379,1
0.00107650771042573,0.0190367106601503,1
0.00111454624978484,0.0208179988500129,1
0.00111708001488266,0.0245622211923056,1
0.00140091319127587,0.0279301294922407,1
0.00118461266905517,0.0266212403107853,1
0.00131622359896008,0.0278280368043103,1
0.00174538580051679,0.0329868234332873,1
0.00228596266820196,0.0195789470194105,1
0.0021055756956256,0.016132148954423,1
0.00199358564513139,0.0162334257256584,1
0.00229270452322568,0.0173133339134685,1
0.00229786904678727,0.0168503071078387,1
0.00233403754181958,0.0155397293389325,1
0.00261766555583905,0.0165017559529437,1
0.00282271364325624,0.0154439286512683,1
0.00296527589698143,0.0137250357204581,1
0.00307192225689834,0.0140848431616089,1
0.00207328012151469,0.0185843686474077,1
0.00147506885422761,0.0217836935596927,1
0.00202010654650723,0.027396599831022,1
0.00208946017213166,0.0255950739327037,1
0.00191917906979973,0.0234610480606421,1
0.00241112617027381,0.0196774122036156,1
0.00270184825200096,0.0190780453436219,1
0.00241084617420089,0.0195444537059115,1
0.00250759346312165,0.0257037710813351,1
0.00271093256500987,0.0274470312448228,1
0.00295147934490483,0.0293245886488435,1
0.00286628314964425,0.0323097166097414,1
0.00213009249040393,0.0253877560912612,1
0.0015328961646232,0.0197998191966081,1
0.000819955375868979,0.00993248801974887,1
0.00206056534685854,0.0294441079442562,1
0.00275999526323846,0.031270322444802,1
0.00286420859055189,0.0296385434545015,1
0.0029810024040992,0.02668022438669,1
0.00331213184315405,0.0282409118582708,1
0.00328977027332908,0.0275969262885496,1
0.00340379040633216,0.0275939495426076,1
0.00319103794444858,0.0171337838107665,1
0.00754297314955262,0.0300451374072294,1
0.0122272269359522,0.0333016094877377,1
0.010833449594428,0.0294749256082854,1
0.00973028995135643,0.0293528351938667,1
0.00991906363568424,0.0274816803468161,1
0.00968830551570881,0.0257860439512501,1
0.0087116996875559,0.0216885028581472,1
0.00840015947323269,0.0182460627170785,1
0.00750896321860383,0.0165092457864191,1
0.00806956035084789,0.0236906209709356,1
0.00645248388183756,0.0208953591157039,1
0.0028162436971662,0.0133041193343614,1
0.0030879409283501,0.0154030407809322,1
0.00334341147526013,0.0121501934476473,1
0.00664604415578266,0.0202625223508073,1
0.00664452906260209,0.0163308907762105,1
0.00790195257074691,0.0156280160954878,1
0.00770054081368516,0.0135969374305455,1
0.00768745840495509,0.0136088326255472,1
0.00773941474648042,0.0135832381707397,1
0.00757624326736121,0.012082022618564,1
0.00818322967619009,0.0117983703456501,1
0.00855360658116586,0.0113745838626276,1
0.0100573989561473,0.0157567048219711,1
0.00756379731967423,0.0135397039426627,1
0.00858579876529214,0.0190163273702565,1
0.00599317003025149,0.017148086424467,1
0.00561852189279735,0.020361481487199,1
0.00614907054840081,0.0148574897236841,1
0.00755698637392665,0.0160570161993894,1
0.00675065620789516,0.0183101310780723,1
0.0049328887853244,0.0171083028936528,1
0.00510167163513853,0.020273813246232,1
0.00453766203340468,0.0169268928548909,1
0.00431210457698104,0.0156126894316277,1
0.00301850460921233,0.0110255843875777,1
0.00248828771944325,0.0115460996667537,1
0.00221442927288837,0.0086278581922904,1
0.00438757346343243,0.0210719109905659,1
0.00461679645963739,0.0188452571777009,1
0.00463423127366184,0.018153440552997,1
0.00461290762076495,0.0188967155063738,1
0.00452227519133178,0.0196348885814787,1
0.0049297874780724,0.0196825335013061,1
0.00558483173108917,0.0214524957552208,1
0.0052507033159284,0.0203342061234226,1
0.00405516346946698,0.0160486155222256,1
0.00350110972204768,0.020236709568161,1
0.00277513967604545,0.0188204677647175,1
0.00307534775583565,0.0284483292164993,1
0.00261033136799182,0.0245416870646843,1
0.00387108145799485,0.0285461828618696,1
0.00403038453603845,0.0267948130966367,1
0.00438493866274019,0.0376207751246574,1
0.00396784036279021,0.0339147015023587,1
0.00610206778200354,0.0439749163770359,1
0.00606801180582778,0.0403077315444589,1
0.00368317560434372,0.0274023778716457,1
0.00305280759116342,0.0242545465974418,1
0.00308128388166686,0.0243907405531671,1
0.00258389955406568,0.0217236662252071,1
0.00368199333969189,0.0246104882260776,1
0.00521405526695091,0.0270327195319629,1
0.00524620617598827,0.0248275178635855,1
0.00536360490285639,0.0263992772581331,1
0.0042329751021094,0.0232888324213703,1
0.00364851878741914,0.0200881709308204,1
0.00414134857634125,0.0229788908763117,1
0.00405924796161881,0.0245514742169226,1
0.00412143559613358,0.0225655671728515,1
0.00391431897239692,0.023168510228517,1
0.0034959921763158,0.0251850379940725,1
0.00199342029079525,0.0178453347736244,1
0.00194303846615948,0.0206576645055985,1
0.00182837231088172,0.0194444402038749,1
0.00178798137175429,0.018625587913864,1
0.00245205605034141,0.0282770713357922,1
0.00312692865711892,0.0341848503200172,1
0.00302932288886296,0.0339182561136325,1
0.00242003332531087,0.0363009801429287,1
0.00244410459197767,0.0302936359934501,1
0.00256115761057548,0.0296847637405371,1
0.00249628541196858,0.0381435980000213,1
0.0023258522855011,0.0290534830489298,1
0.00343499603927015,0.0199722737723732,1
0.00345765068708808,0.0109889551255011,1
0.00369571447902747,0.0114002380598755,1
0.00374159952784555,0.0112377262420622,1
0.00376906015882405,0.0112075652258614,1
0.0038904788879379,0.0100939155104548,1
0.00393500980413394,0.010681517522765,1
0.00430565978836508,0.0110321272467188,1
0.00580482796328398,0.0132181516565481,1
0.00648631411869837,0.0111113704723896,1
0.00459268706271261,0.00768017212268878,1
0.00515943138388979,0.0133390153234869,1
0.00543428607748257,0.0141564044214738,1
0.00594453329375034,0.0154037449064299,1
0.00676689535498033,0.0169309520265332,1
0.00644963478335536,0.0181354877192719,1
0.00512223183878905,0.0156113604435103,1
0.00534258133110659,0.0188876623845924,1
0.0053512969032569,0.0201893402560599,1
0.00258095465500351,0.021716367657503,1
0.000643299003807334,0.0315974309531833,1
0.00149025332402333,0.0445148214954902,1
0.00206340409081846,0.0471364582321277,1
0.00204205718236696,0.0492121744963505,1
0.00209674936437004,0.0467887677125077,1
0.00217976848749862,0.0364302679332478,1
0.00226307091012214,0.0316795146510354,1
0.00208967037337655,0.0277486096537512,1
0.0021155211997766,0.0266533556902119,1
0.00201949919162142,0.0249930874279719,1
0.00207955734423687,0.0235322886499753,1
0.00619381611091838,0.0337367242429212,1
0.0127253583864683,0.0600137092179335,1
0.0154346805660138,0.0630150946124492,1
0.0154893416851206,0.0494456839448065,1
0.0134159757192264,0.0511975281171032,1
0.0105177999237722,0.0394038480057399,1
0.0101927245426311,0.0346531471173704,1
0.00944790216551988,0.0335561080929926,1
0.00724822507767677,0.0238785505459161,1
0.0105361166175308,0.029071665886527,1
0.0123392416118189,0.0340767075189564,1
0.00948047362775885,0.027576819769267,1
0.00737659593363729,0.0228828015517358,1
0.00667315565972987,0.0243357706252405,1
0.00687172617493837,0.0228621059498317,1
0.00717108468046694,0.0223920292010075,1
0.00558429637035102,0.0199875679423725,1
0.00458700396174145,0.0146444532776821,1
0.00376631420003421,0.0101080775248343,1
0.00397606724440561,0.0122368039688846,1
0.00369214229256122,0.0147036568383861,1
0.00381681288450251,0.0159127660316328,1
0.00438153462959177,0.0172924797089404,1
0.00459582259277977,0.0165784231750411,1
0.00331813468453107,0.0139920966340706,1
0.00289001233635655,0.0156660894193288,1
0.00304388467492232,0.0155158593589485,1
0.00192705457410046,0.0123144302279235,1
0.00122092606453299,0.017898670238302,1
0.00120801308807567,0.0199101388097758,1
0.00135096947382905,0.0197609480483,1
0.00131652860833336,0.0192422650491734,1
0.000972826951071585,0.0159657406199191,1
0.00108455420021946,0.0203363336277934,1
0.00113334910014153,0.0168998765298144,1
0.0014323411648851,0.0241829072952138,1
0.00168229913630224,0.0298352061639604,1
0.00163990290567058,0.0289086127909371,1
0.00172306516076971,0.026423219519368,1
0.00188016147561464,0.0244770551983584,1
0.00202642670566888,0.0241557494190095,1
0.00204898805297955,0.024897112410515,1
0.00218575490396962,0.0219138333843145,1
0.00251246993968216,0.0242689308367169,1
0.00255205813652752,0.0318080001936106,1
0.00211099721368592,0.0289297536868822,1
0.001612173113944,0.027996401108385,1
0.00186228714954579,0.0328877794215653,1
0.00200015771180683,0.0190203959712377,1
0.00468428522582395,0.0307637949154677,1
0.00470723296169348,0.0282454784208951,1
0.00454266481082868,0.0269147618030553,1
0.00450793407151689,0.0271547226505424,1
0.00557328770177311,0.0253047265102064,1
0.00662553516816598,0.0259179661331295,1
0.00664530183971981,0.0258187633462804,1
0.00557570626335962,0.0221576711273307,1
0.0039909513346482,0.0178974480696489,1
0.00380586158499059,0.0242448976755731,1
0.00315678152088229,0.0241212560346891,1
0.00447102607667073,0.0325813284861522,1
0.00388481291966509,0.0220146363376948,1
0.0023103083505809,0.0158955527700144,1
0.00227456696714518,0.0209115058191724,1
0.00223460554530356,0.0216098078175137,1
0.00222733795397502,0.020725509619532,1
0.00181884157571663,0.0145281172051946,1
0.00351933038605712,0.0225681140361269,1
0.00457230160296252,0.0263432633694489,1
0.0048799791912054,0.0301818822208703,1
0.00371800217206436,0.0232862815951371,1
0.00645481506460046,0.0379679282393595,1
0.0160255216033674,0.0561826164826955,1
0.0269747697455242,0.0749408472055108,1
0.0473250599111486,0.0787747853660854,1
0.0525237537013791,0.0520527549966292,1
0.0510112254515714,0.0537041385941825,1
0.0412366216967168,0.0506248814926864,1
0.0305841883339285,0.0434487510369876,1
0.0199454315633143,0.0313722984970449,1
0.0124116062067902,0.0217230964427509,1
0.00966658262770499,0.0185270805119058,1
0.00960356001349907,0.0205509469867364,1
0.00936408662933508,0.0195522111531718,1
0.00617082441849657,0.015656374706539,1
0.00648638379064345,0.0153471242756772,1
0.00686899161727134,0.01178912982569,1
0.00924617662058237,0.0137578414979554,1
0.00940589839584253,0.0103919909279806,1
0.00897606760195222,0.0106003327643726,1
0.0108135558300611,0.00892968744179676,1
0.0137050618340438,0.00821056254329125,1
0.0146233057322165,0.0086285493690694,1
0.0142005250630607,0.0083887364808292,1
0.0148732379832115,0.00976676351971283,1
0.0147614661736582,0.0097314600430153,1
0.0143436777892656,0.0110673102080301,1
0.0261643653677646,0.0132341604582352,1
0.0391969097193471,0.0180863949012833,1
0.0369354795194498,0.0164394928659764,1
0.0412428493245211,0.018798385801212,1
0.042313924716264,0.0157370190712904,1
0.0391919655300952,0.0145927110416887,1
0.0455108598222577,0.012248393110408,1
0.051635381549367,0.0131469626967081,1
0.0575255283737535,0.0154225934337549,1
0.0745991881082201,0.0185727602823316,1
0.0631903032885864,0.0182510035171036,1
0.0414042498064843,0.0134868473748806,1
0.0376808675771979,0.00826425248097685,1
0.0839184656023111,0.0165711155881634,1
0.091540480037689,0.0164956468153651,1
0.151244856632622,0.0206287600755472,1
0.15831420670468,0.0214593992389629,1
0.168555976140422,0.0190968599581901,1
0.185868183051435,0.0157439768534086,1
0.15922145844602,0.0111220032705153,1
0.148969711214569,0.010490799849503,1
0.161633036660387,0.0110187519549682,1
0.183616727150867,0.0133596284791276,1
0.178207229608279,0.0135686425686683,1
0.195828284639464,0.0158447900640317,1
0.167672151406584,0.0155493717283254,1
0.157456400545365,0.015522443635523,1
0.116039463866867,0.0169565921240645,1
0.0165851226387825,0.00346186173115254,1
0.0130077036070289,0.009387502559646,1
0.010210973391092,0.0102969864693873,1
0.0103751346569258,0.0135562790015135,1
0.0101741448373009,0.017783410295028,1
0.00395861527387738,0.00886013099901525,1
0.00559974503528403,0.0142885217145738,1
0.00580907826811022,0.0141479445739358,1
0.0058704841783551,0.0141533091288336,1
0.00613990260592296,0.0153523731015634,1
0.00791995179332673,0.0155275438545393,1
0.020653721886406,0.0245656895100136,1
0.0620148922282466,0.0412278209690981,1
0.0884919191423151,0.0436749907656533,1
0.113859879269917,0.0536958565975825,1
0.103287819694825,0.0408389191142289,1
0.101754358053588,0.0319624835106105,1
0.0985026055617891,0.0303372239643462,1
0.0726440332246773,0.0226858477705219,1
0.0630191433521061,0.0191105959168313,1
0.0615704395037194,0.0196381164658628,1
0.0633987125903985,0.0214894268606584,1
0.0713147483258623,0.0238240177425003,1
0.0738457950111226,0.0278890609977267,1
0.0611557795144718,0.0243827295263041,1
0.0623174117425221,0.0262080118734625,1
0.0513796161321837,0.0393841399661276,1
0.0205154881007807,0.0175350822742194,1
0.0264117672767816,0.0150175112190999,1
0.0898343326855305,0.030409882910014,1
0.199885672814716,0.0568984740127639,1
0.416194571421316,0.0751972782609784,1
0.501272873452284,0.0470873519475225,1
0.466927979860527,0.0432942853210152,1
0.406773552210214,0.0324516052745722,1
0.387738243766925,0.0275295425833077,1
0.444722498159747,0.0295314730859193,1
0.49509218825097,0.0309171522549946,1
0.530730083045848,0.034951894641984,1
0.542551901777574,0.0404880865607577,1
0.495501736010807,0.035737381162451,1
0.315386182083634,0.0308509086725578,1
0.154563092118046,0.0254351361234375,1
0.0957019015279778,0.0151395946609374,1
0.048407790540263,0.0118328238790514,1
0.0466577618690206,0.0173149739529605,1
0.04178780047167,0.0138942219947979,1
0.0537837839613886,0.0173663843425245,1
0.145929078513455,0.0298552769028645,1
0.168913875404306,0.0163481099966116,1
0.172128436908217,0.0157934356988153,1
0.179421087928373,0.0166395333409922,1
0.164078632174655,0.0103068050506616,1
0.199267673663563,0.0125823985108788,1
0.216914754700756,0.013291791026853,1
0.234735952972262,0.0140287667230814,1
0.27126328071343,0.0178267710769535,1
0.289000590831639,0.0199086873326752,1
0.189569224965454,0.0153373120799843,1
0.136745400638661,0.0173846493841307,1
0.130551688664581,0.0185137615581392,1
0.0402924659276544,0.00523835017358364,1
0.0398808622131683,0.0216088401870597,1
0.0495461553235549,0.0166248951035899,1
0.0506403907821596,0.015211276493082,1
0.0589435641878181,0.0157622263278325,1
0.0560019077776176,0.013449233923356,1
0.0598073824578739,0.013210313233102,1
0.0584771808276775,0.013219193847347,1
0.0494379652865108,0.0110004359214509,1
0.0440709733222662,0.00967291069841905,1
0.0462061803300835,0.0121290138438272,1
0.0635944066112701,0.0164430372847793,1
0.0939727254206956,0.0310718111644282,1
0.109400601645962,0.0284718094770951,1
0.103750536432038,0.0247674715659563,1
0.0678738514486175,0.0182414100669454,1
0.062122528410251,0.0200850480772953,1
0.0666537115049819,0.020038207695673,1
0.0617575788803086,0.013231311880659,1
0.0580729092420369,0.0124275747537957,1
0.0585353804924949,0.0102989063968219,1
0.0871921006767936,0.0133943186759964,1
0.122088960041513,0.0176724131790457,1
0.111710239845624,0.0170346244653421,1
0.133641996409567,0.021322469286082,1
0.157128351326313,0.0275455795583218,1
0.165756753936905,0.0266296744890399,1
0.118282229626856,0.0195454336500184,1
0.0853851093989392,0.0179547511449603,1
0.0729037751713743,0.018397924073641,1
0.0358404462303601,0.00836997000896748,1
0.08469688227584,0.0265203207699837,1
0.161904245580414,0.0422622771875638,1
0.248638002640704,0.0490790371405738,1
0.348334924307874,0.067800293984442,1
0.332209560132615,0.042388681521945,1
0.2758084442818,0.0221666533517745,1
0.302315947018137,0.0236668507229873,1
0.373487712813349,0.0281646677778117,1
0.399206796568905,0.0240457086378053,1
0.400188316922905,0.026378403503446,1
0.416721891933014,0.0267247235172269,1
0.382620882671277,0.0230336101037881,1
0.336014457863383,0.0209176217216396,1
0.203752083694312,0.0136132684169085,1
0.100140747496244,0.00688891387473401,1
0.0851266095107607,0.00967430958751584,1
0.085129121368831,0.0101270031713818,1
0.182404003904519,0.0146797388681589,1
0.279286430976553,0.0214361700801578,1
0.335722233583975,0.0263773771599923,1
0.353530080250128,0.0252508596930113,1
0.353760951436993,0.024801281257457,1
0.318518768720461,0.0297170678812223,1
0.244708477350663,0.0244982477423656,1
0.198723086922506,0.0219180962922461,1
0.214491760977206,0.022509215590002,1
0.276683910524382,0.0293891979012924,1
0.28501214920922,0.0858969273697691,1
0.231376855520802,0.0677579151712003,1
0.156285426915927,0.0510442971539898,1
0.0746317023403699,0.049630169871242,1
0.0542355286662391,0.0381031174458755,1
0.0441600372265686,0.0344160642980063,1
0.0648588012912733,0.0266075790645224,1
0.0951754461745457,0.0258602670787596,1
0.11514837516331,0.0306714742320467,1
0.122644476723586,0.0220726245308583,1
0.101782420222043,0.0183351156189962,1
0.122199053179569,0.0141544177966883,1
0.151019278348462,0.0110133092990014,1
0.116792125530669,0.00860014003288765,1
0.0978224767537352,0.00690834779341083,1
0.0959496991718658,0.00681660872392883,1
0.157768111170498,0.00949315508535957,1
0.268791908694309,0.0146562450293544,1
0.256415534499707,0.0128692759644792,1
0.271598855379328,0.0145110040602663,1
0.293550505542006,0.0151767667482333,1
0.335600467494126,0.0176303061883121,1
0.331906634439593,0.0188205001922109,1
0.242839750180627,0.0150953632305818,1
0.203621104557408,0.0123093001845662,1
0.295053847460649,0.0149984027472504,1
0.399516882552476,0.0240708957286134,1
0.425527541785631,0.0274135419885047,1
0.480650803487025,0.0328383966358364,1
0.471512661287079,0.0388922515769492,1
0.336835124664086,0.0365997933017588,1
0.152708156441601,0.0233361867361438,1
0.123497692345052,0.0280584782041794,1
0.0817769320025023,0.0229412258768414,1
0.020229399913457,0.0102651161829338,1
0.0247205084973269,0.029860652300649,1
0.0367165583527186,0.0464408283613106,1
0.040497460156803,0.0454375350461347,1
0.0389426855048678,0.0216552131928985,1
0.0554744432160987,0.019155046524636,1
0.080692271076521,0.02254095382355,1
0.0904211744259948,0.0198035514002385,1
0.146453575559918,0.0273796523247978,1
0.198787179779565,0.0385526662888222,1
0.259173872396969,0.0433668809065931,1
0.390041660291313,0.0377895694604539,1
0.339536129849927,0.0109680738313922,1
0.388071312806075,0.0123268384786341,1
0.472844748839821,0.0155423411606063,1
0.554543702623357,0.018527366690796,1
0.592735511288004,0.0191274461823802,1
0.616526467652771,0.0206578271183853,1
0.616449708731652,0.0211411411361222,1
0.567616583234846,0.0193085734987059,1
0.442939247370483,0.0160178272214028,1
0.147393246051351,0.0032215058090448,1
0.125544852730549,0.023523231163267,1
0.24542006657141,0.0232187446039647,1
0.358435528388794,0.0248162385310222,1
0.366966797514864,0.0253968722725601,1
0.379382753493934,0.0244612388932951,1
0.339609439182861,0.0226877130593302,1
0.267138880370879,0.0190912250953263,1
0.19363268754438,0.0120910772534946,1
0.14919600578205,0.0100981307377793,1
0.177140819348353,0.0135163039363651,1
0.231753368733116,0.0163315360656575,1
0.264821386341263,0.0422353489007582,1
0.248068636052057,0.0446130589784761,1
0.236748483359323,0.0481228624404704,1
0.173565713828024,0.0420181332498565,1
0.161701218496585,0.041906717762302,1
0.0870795318655865,0.0281876388535384,1
0.041271430057142,0.0473945235432726,1
0.0298363202903908,0.0385385489068273,1
0.0133306417790627,0.0273900827356702,1
0.0127572371793642,0.0331335496220497,1
0.0126660940209358,0.0138061969953659,1
0.0188445884713859,0.0204532662039974,1
0.0250634738795719,0.025791195504968,1
0.032145702880628,0.0337413467748287,1
0.0590486126544196,0.0389397056396321,1
0.0911610081287208,0.0533279333699369,1
0.152954158655248,0.0541464286108096,1
0.169175548400256,0.0382140682980406,1
0.172640623507816,0.0348577254224952,1
0.186413039196659,0.037200336003196,1
0.171826123042817,0.0239335105018495,1
0.142661787387634,0.0200215393512106,1
0.123416285677957,0.0176653267253619,1
0.112528507598317,0.0157325650543118,1
0.141811527148335,0.0211823100940195,1
0.157734474240909,0.0213856013429924,1
0.162368012957716,0.0258422255839847,1
0.177027436571276,0.0298507797883492,1
0.165111514831748,0.0346463674012749,1
0.0892659838291563,0.0254022125785276,1
0.0265027166452919,0.0190590997369371,1
0.0132903742774419,0.0123668366493111,1
0.0122016320497387,0.0125890560296413,1
0.0109321088574137,0.0150720648317175,1
0.00922819335585281,0.0148341335493571,1
0.00912094426684679,0.0151155491252209,1
0.0214636107055189,0.0195343668687036,1
0.0765759462179349,0.0355751925245842,1
0.125880960521823,0.0319858410384992,1
0.129746954814671,0.0235494297796975,1
0.166463432195914,0.0245837973716111,1
0.19439953555115,0.0254491602436227,1
0.201283621778432,0.025942453868258,1
0.206935559916636,0.0260567173609997,1
0.206381315433435,0.0241353998214151,1
0.209023831552392,0.0232328310134513,1
0.213098756599722,0.022121628535775,1
0.16523921177285,0.0206836485944513,1
0.0740778110532509,0.00760203266641216,1
0.0684826283499056,0.00966078944579759,1
0.090942994186959,0.0200590378785428,1
0.148777387818948,0.0271684680466639,1
0.205089940260469,0.0321050456293446,1
0.268415551872079,0.0279692196104455,1
0.394209632085591,0.033804578544172,1
0.422305506462976,0.0359199052784634,1
0.388562875593253,0.0252876579635955,1
0.321654726833498,0.0223079678185454,1
0.288074500829538,0.0215382221230515,1
0.288767437378306,0.022310648193576,1
0.336907543104082,0.0243751502647672,1
0.396573021869594,0.0309797696981465,1
0.439971157427336,0.0316205338637891,1
0.416375250502568,0.0510583052385415,1
0.214639236729791,0.0294324378550659,1
0.0808461572544217,0.0118682832097035,1
0.0572131449511085,0.0352361748658851,1
0.0529189636652762,0.0407053642491965,1
0.0414424615905049,0.0390693348382885,1
0.0203830312856171,0.0287246078893128,1
0.0198227490287544,0.0235169368226793,1
0.045594248505688,0.0494444058119675,1
0.0489933369136445,0.0409330536834777,1
0.0457722677201401,0.0193850899939897,1
0.103391482611677,0.0261797515974588,1
0.104179012767742,0.0221568517455823,1
0.116432509564275,0.0223817038896345,1
0.154952975612412,0.0264195456345754,1
0.206207854839957,0.0286315660124297,1
0.392055012856279,0.0310070516920002,1
0.358576361163032,0.0174392633769369,1
0.332174070624841,0.0165434667842469,1
0.282305110317428,0.0136694239772349,1
0.258766132707719,0.0139975739117231,1
0.264936933499497,0.0149886037264614,1
0.244280084984577,0.014582159219381,1
0.234269407071184,0.0147930412590484,1
0.244490609307833,0.0132517748447667,1
0.295519242791319,0.017305817059208,1
0.149784346813753,0.0107134617109256,1
0.115521897149862,0.0173047149603224,1
0.122076516706221,0.0178362904409759,1
0.121110128050248,0.0212755522537302,1
0.124247850672289,0.0224317366127304,1
0.152399072149805,0.0229369984340582,1
0.178237996751465,0.0269877916680426,1
0.104516546959882,0.0150713949785172,1
0.0566704464182537,0.0171474416381486,1
0.0565695080664898,0.0196361424715093,1
0.0570950749392113,0.0221215086150038,1
0.0806584832052723,0.0252234211725993,1
0.152231236942383,0.0372130043122348,1
0.165818026957883,0.0141066799685534,1
0.173274919386183,0.0145504867142724,1
0.166217166601712,0.0156575232660234,1
0.172479067775914,0.0141592637095478,1
0.197952007322981,0.0154092552736118,1
0.207601825257069,0.00933179460097535,1
0.240976213976618,0.00995676799712901,1
0.25164358794306,0.0100743655408546,1
0.232038869342163,0.00990170829019187,1
0.156724962252089,0.00568368649320512,1
0.133307628065213,0.00820224709554529,1
0.131926995852174,0.00831570297773956,1
0.143448609731087,0.00591934894693365,1
0.264208403962443,0.0130522687412404,1
0.314012075615263,0.0159787164328344,1
0.428138276478736,0.0253417449525907,1
0.444716545736922,0.0300328701856582,1
0.415554420636203,0.0331170931092581,1
0.381794813622168,0.0282401940483975,1
0.313632554014646,0.0235107985864533,1
0.271053758516817,0.0201003997940688,1
0.2932190358478,0.0204252329133627,1
0.351347040310953,0.0350882071104504,1
0.369528209580469,0.0513560561865482,1
0.351227990996955,0.0579313012496959,1
0.246644663664552,0.0493526611215499,1
0.196719847311911,0.0437874822950073,1
0.146987427310477,0.0392492512577433,1
0.0698656163876772,0.0309551975497621,1
0.054899245800062,0.0336449652672285,1
0.0255696003988195,0.0308733394801531,1
0.0234895411456656,0.0371049954525546,1
0.0239577218223758,0.0355276257321141,1
0.0216534398473506,0.0350484955735496,1
0.0222503945299474,0.0219552913760682,1
0.0426074423996449,0.0408218762809283,1
0.07626649988064,0.0514029422244455,1
0.0878355530276141,0.0522446581383399,1
0.0965340117358121,0.0601851756415448,1
0.113526335690547,0.0584613421940645,1
0.0957930191205517,0.0370898959693212,1
0.0734613190142585,0.0306308117147087,1
0.0693194420942477,0.0271986302362711,1
0.0543438574595817,0.022972761377392,1
0.033929285864895,0.0181804521462101,1
0.0346476612397152,0.0157701023983979,1
0.0722349539021539,0.0232924851522616,1
0.061979414463421,0.0184788518471049,1
0.0577184392110217,0.0161885992350217,1
0.0598789913398594,0.0177913404887436,1
0.0612080974310871,0.0194584803875889,1
0.0501503891283595,0.0165331045847389,1
0.0536222196905476,0.0189212066439289,1
0.0703475501848046,0.0220501354811399,1
0.0976261014349704,0.0267519067112563,1
0.0999936940217477,0.0295006689637611,1
0.0661305366398996,0.0235534420957567,1
0.0750918662694844,0.0282356631520373,1
0.0577818268961947,0.0222337629646739,1
0.0526692679652832,0.0200109058393332,1
0.0526962854211992,0.0114820236633551,1
0.0695193774784932,0.0138793777129457,1
0.0654480565987109,0.00805313168966708,1
0.0905097889524124,0.0100755103769298,1
0.122270705899583,0.0131756006356215,1
0.13610403862356,0.0149239022790505,1
0.142142139011484,0.0165711212987862,1
0.140416343304094,0.0148744487136326,1
0.141809727836803,0.0147938597146881,1
0.146249409560616,0.0151675530174931,1
0.152799880057969,0.0152515506617388,1
0.120961954043432,0.0103005010284949,1
0.117306676593688,0.0130745421696918,1
0.207519997058235,0.0206820039980096,1
0.207900483024723,0.0150692611690712,1
0.193749937554725,0.0128130640340632,1
0.279681898231511,0.017565120640497,1
0.272216385523848,0.0106680491884333,1
0.240412379211659,0.00870066238273423,1
0.177261976906624,0.00542099016961777,1
0.185220485182356,0.00602367340187495,1
0.175064802060298,0.00575728703980041,1
0.141032483031493,0.00437537260220489,1
0.160149887834871,0.00549874605895315,1
0.172538957265239,0.00674451851779264,1
0.187522490767333,0.00863388183538482,1
0.14048203012825,0.00626445936514595,1
0.158394878539166,0.0115441530660477,1
0.157207415605833,0.0171547916030888,1
0.108259494831775,0.0142430040907274,1
0.11064152031583,0.0188076595388819,1
0.0897585653402216,0.0232197142551135,1
0.0392915895069815,0.0120189837848614,1
0.0293446188610794,0.0141768136016359,1
0.0222072179612929,0.00850246607620352,1
0.0888473961888031,0.0189452970658433,1
0.112829217834802,0.022821288573584,1
0.128611015289332,0.0203519793317496,1
0.253892277693814,0.0251983647101983,1
0.305201288921443,0.0243743296224479,1
0.410975709390655,0.0261135296535944,1
0.355753541446149,0.0213475203371502,1
0.264650697065389,0.0173056191832746,1
0.197230376650814,0.0131782072527575,1
0.133924119644191,0.00932562669479164,1
0.142559178634076,0.00995810525775856,1
0.147765679869228,0.0105047214373961,1
0.113937439399376,0.007755205666959,1
0.118798037723516,0.0103995640305055,1
0.125981916662443,0.0133870886796658,1
0.0977911084599947,0.0115400872334711,1
0.110085392642342,0.0155225254761864,1
0.114233108317284,0.0161697987145787,1
0.144755448909068,0.021799011961136,1
0.151374104159957,0.0207296038253739,1
0.144465061728115,0.0279261500376947,1
0.13611390851011,0.0289177552673745,1
0.162620861630784,0.0207418393619116,1
0.290985839995475,0.0289959184720572,1
0.471151011937603,0.0438911834339527,1
0.656667128249099,0.0623581443885048,1
0.75489663849975,0.0684826865923922,1
0.701472525125804,0.0573525693035471,1
0.536902726158522,0.0461663824899259,1
0.423808611952998,0.0222489706765712,1
0.461366472769584,0.0228899488250009,1
0.3854026064178,0.0100520719938358,1
0.378395213657559,0.0121128339944076,1
0.417790450391101,0.0133846503790253,1
0.446086470645006,0.0141204478508377,1
0.464931055012806,0.0145140559894023,1
0.472093845520591,0.014910111285994,1
0.489605997296109,0.0154416291032595,1
0.491437955723487,0.015119407145861,1
0.399927576426246,0.0228622516583041,1
0.131300960103053,0.000913038446199119,1
0.229274932007599,0.0199406159728389,1
0.385794372076808,0.0353296060169991,1
0.515055835733805,0.0430361310029367,1
0.503668435723099,0.0368166218593547,1
0.487241375503165,0.0354492757770635,1
0.41791256645911,0.0274741010658672,1
0.328150290327674,0.0236297763452168,1
0.277858728472522,0.0204027067528234,1
0.195092509493716,0.0156080984568814,1
0.144876612220373,0.027594043024495,1
0.147337114405002,0.0317593500191471,1
0.144201109138444,0.0313447320993054,1
0.129200181862881,0.0296918633039039,1
0.14935318882174,0.0410292408200099,1
0.104358096184001,0.0472259117827682,1
0.091432118521273,0.0609114730937594,1
0.0808007953652225,0.0339464460866032,1
0.0843184276599184,0.0269826456055072,1
0.0936304896942177,0.0353453697629284,1
0.0679984608084756,0.0217863115968547,1
0.0410850174285373,0.0139679691678001,1
0.0219350474522465,0.00826868471287554,1
0.0189153225180319,0.00722581219279566,1
0.0185317835257197,0.00612649606614145,1
0.0355950825498342,0.0100545944778296,1
0.050090819800394,0.0145464974082038,1
0.0954450886011177,0.0229578403518622,1
0.16898382090341,0.0503657346677128,1
0.214469744368295,0.048200132052687,1
0.215887072062121,0.0528462729819775,1
0.21790595398725,0.0634757988222894,1
0.176673222588074,0.0527407233667625,1
0.130483874037144,0.0414223640653946,1
0.0695531618290534,0.0275810587280692,1
0.0469176283013335,0.0248643514390488,1
0.0203355582721905,0.0102562971597309,1
0.0387680389030834,0.0178163075336681,1
0.0754171368541164,0.0329456881824081,1
0.075839526579327,0.0307126257613194,1
0.0881888175602166,0.0292935360872051,1
0.0798816998032753,0.0249302226988005,1
0.0784862808814547,0.0228438852204885,1
0.0763201530427861,0.0201981504519762,1
0.0719164930800391,0.021727160622656,1
0.0447465936801201,0.0133256033564703,1
0.0220601497944897,0.00698005967508972,1
0.0208720569766144,0.00843805418692242,1
0.020472393727402,0.00708906060887725,1
0.0407779595922752,0.01553328262561,1
0.0493767392398418,0.0174080145856964,1
0.0424440504199134,0.017481050883421,1
0.0428893118823372,0.0172094099863128,1
0.0431976657839188,0.0156699344727674,1
0.057149753568718,0.0123367926834338,1
0.084481313812561,0.018685251878279,1
0.0748328525916369,0.0140461325176721,1
0.0656469955848714,0.0132047134713705,1
0.0620805564446233,0.0138462195318625,1
0.0623117631607604,0.0133053088598753,1
0.0701238095897087,0.0170023491310582,1
0.0709828364857594,0.0170146054847154,1
0.0672177227405727,0.0087394359419277,1
0.0601797032839645,0.00651885315514791,1
0.0600921035600766,0.00966340717474168,1
0.067509535288701,0.00621673675796607,1
0.0871842422614361,0.00903132677472505,1
0.11051148436283,0.0113159634380104,1
0.124672055025476,0.0110521907904907,1
0.127276950353427,0.0101654574831601,1
0.143833597722322,0.01114964970553,1
0.11795768844552,0.00878564623475767,1
0.177124842111755,0.0138232978184729,1
0.19462890203121,0.0169796753104826,1
0.127398961145793,0.010559677473227,1
0.106353001119998,0.0117267832638926,1
0.106786465178373,0.0115883374171336,1
0.145886457762782,0.0146928553856698,1
0.222061496433599,0.0212528936663886,1
0.271034971355242,0.0318687310395163,1
0.291491989517302,0.034355117689245,1
0.299839914996933,0.0379026620694244,1
0.197770651523027,0.0331651665124462,1
0.121738697984247,0.0262038762574526,1
0.0549123029465405,0.0196630846861468,1
0.0479565859485185,0.0131342343892266,1
0.0623563296910479,0.017348942515819,1
0.10704288096668,0.0329070298520684,1
0.143757292056355,0.0386963871664711,1
0.1695391239695,0.0445788836423247,1
0.156863002878975,0.0377779984839904,1
0.154663074855282,0.0344187060227176,1
0.151735365557427,0.0339001177928372,1
0.129443557400694,0.0309828744603911,1
0.111853893359377,0.0191304567943433,1
0.100676028776742,0.0180177265286641,1
0.104493021224571,0.0189962250060448,1
0.109688310013174,0.0223927126619253,1
0.118127494290451,0.0240950447262789,1
0.116070727139112,0.0225411919859684,1
0.134924819252909,0.0136496021317342,1
0.191213223175131,0.0197127439142448,1
0.28662888032,0.0251021395421087,1
0.339713975439837,0.0282199480827828,1
0.372561187358364,0.0461449553690393,1
0.353256598652358,0.0432438407267832,1
0.311557070087338,0.0356023973942355,1
0.241531559205973,0.0293520050221297,1
0.152548927314612,0.0201444414216595,1
0.0543822459781058,0.00615079738026526,1
0.0529771108812068,0.0154480384857146,1
0.0533964553135015,0.0130194869198325,1
0.0514131997999814,0.0104481154361868,1
0.0452361510678317,0.00735964007188664,1
0.0367851482970776,0.00564598690171955,1
0.078920730310973,0.0101697978399828,1
0.115876670559578,0.0137136753302299,1
0.10362243470095,0.0120953208845374,1
0.123237766250809,0.01435571108353,1
0.135264508207306,0.0172317091932267,1
0.113033250609549,0.0141044341264943,1
0.109320867282078,0.0168292642044834,1
0.101564830255764,0.0151767687198236,1
0.0864911085314829,0.00883919933158731,1
0.0842286125633144,0.00870038031546417,1
0.0824009449146814,0.0079539870344065,1
0.130516735898595,0.00837592260472655,1
0.257871087828456,0.0136826200367249,1
0.255020786305164,0.006795812712789,1
0.313091188470836,0.00857510677658278,1
0.36202105001269,0.00995687924672891,1
0.372137949655867,0.00865946524326896,1
0.351672426006725,0.00754443165476368,1
0.365215694143286,0.00932399740060072,1
0.375663976780468,0.00917197830944335,1
0.378198910157419,0.0106931355950211,1
0.299647447389882,0.013700461467638,1
0.0999409358983718,0,1
0.177358401475773,0.0159883328424013,1
0.15931257097575,0.0116247124671719,1
0.199243642766876,0.0109934304811029,1
0.221693149732507,0.00787414194086412,1
0.224294258306965,0.00851918856592526,1
0.198447693018067,0.00738435037363985,1
0.198557001531278,0.00722602725961137,1
0.204292452612545,0.00739277293116364,1
0.199771457879058,0.00731446270265826,1
0.192122776991568,0.00875332225048252,1
0.145853239754381,0.00700347658333633,1
0.153196280336775,0.00818799126873758,1
0.0791365954086416,0.00684535613006137,1
0.0280955468951861,0.00986222977123542,1
0.0261208679556077,0.0109991942229179,1
0.0168267442209403,0.00841342642700072,1
0.0159102660763594,0.0109333610534456,1
0.0235437932162975,0.00811687964679964,1
0.0500715688080229,0.015735310121647,1
0.0509781156245842,0.0178598656469845,1
0.0540564225054037,0.0219500193170149,1
0.0467812404268648,0.019262510986026,1
0.0405605750405066,0.0162752384722206,1
0.0370733706804457,0.0139323412717825,1
0.0385500809134618,0.0112906462639366,1
0.0360396973277902,0.00962617753701219,1
0.0300489271183871,0.00799563922662997,1
0.0283748737056953,0.0100394441806114,1
0.0292349403687916,0.00817815232714878,1
0.0372041076004893,0.00983139405395684,1
0.0421549386758721,0.0117620489559811,1
0.045709932144791,0.0130586613239388,1
0.051097480196359,0.014787259811292,1
0.0479397462493673,0.0148254261100912,1
0.0431530343015311,0.0181110775328174,1
0.0427157994146559,0.0174893339401997,1
0.0394139302537902,0.0158722332148666,1
0.0343419418838396,0.0192033806109045,1
0.016155224027591,0.0191454004313121,1
0.0183402773185859,0.0217461468561988,1
0.0198672644539883,0.0220346869235177,1
0.0216361618889574,0.0236252447790048,1
0.0233446287022209,0.0250681179112338,1
0.0179297813260822,0.0219663884218093,1
0.0120825504317772,0.0205262086168897,1
0.0114800517391248,0.0253255900524238,1
0.00458848059977026,0.0148000895176549,1
0.00340931534321183,0.0128873422419388,1
0.00505310383764355,0.0204800974209406,1
0.00529214960543533,0.0308966016864332,1
0.0050737013267947,0.0409552413863578,1
0.0174745700021084,0.0227915268932588,1
0.0276063183209331,0.0173308000556554,1
0.0289230024046859,0.01850490457389,1
0.0285754732162423,0.0195275443312744,1
0.0278321523377366,0.0190813080370612,1
0.021215885213699,0.0133495235769085,1
0.0176388907688257,0.0117179354824109,1
0.0174754777908639,0.0108636312525386,1
0.0225625958804765,0.0135755007616248,1
0.0289487148885325,0.0166361910115983,1
0.0300040341888801,0.030279248495317,1
0.0306396303806617,0.0473611059937009,1
0.033463475471193,0.0571894569249181,1
0.0305722849601916,0.0542628656962308,1
0.018871310510342,0.0501179726436592,1
0.0122978874374096,0.0375328937652727,1
0.0113346732630495,0.0349413714864444,1
0.00902596435565141,0.0439874214538651,1
0.00961547788842891,0.0543717776284115,1
0.00963685897845519,0.0553131133886058,1
0.00955255936060016,0.0628162834545992,1
0.00832226824113786,0.0504486667340031,1
0.00705880929896963,0.0369943575248924,1
0.00567794617379659,0.0328713110234255,1
0.00326675315386189,0.0220725694022375,1
0.00228594843339517,0.0201339107303072,1
0.00192777614591355,0.0193624461369648,1
0.00177818637154443,0.0178941925714283,1
0.00237190571345328,0.0120423924102748,1
0.0041513920396544,0.0194100387539669,1
0.00413786404128751,0.0154425694135337,1
0.00729144111103435,0.017421055761048,1
0.00744767211053089,0.0137651722226464,1
0.00814616429981392,0.0145481407385997,1
0.00874141997789356,0.0113051999767011,1
0.0112066959892454,0.0134046858252692,1
0.0110074748801145,0.0134108713683489,1
0.00882615576463936,0.0112243373682539,1
0.00991073035370364,0.0137885659608491,1
0.01069612737558,0.0114528864514703,1
0.0107393799578111,0.0120910230337766,1
0.0094426229091909,0.0128677349161097,1
0.0122117423375662,0.0194500856253719,1
0.0127412915434637,0.0182538660696665,1
0.011581948550165,0.0227440703534197,1
0.00919131192920371,0.0185578126975435,1
0.0112991994614921,0.0219146897843329,1
0.0112522825595916,0.021543304669084,1
0.0120664875050318,0.0261806887656688,1
0.0114706883071556,0.0423032285813931,1
0.00776048687945608,0.0337740581893417,1
0.00678354076631136,0.0369161848070193,1
0.00683575499855944,0.0352367599597137,1
0.00563077263917275,0.0459270892519991,1
0.000795845256734506,0.0245460645309848,1
0.000287585701538037,0.0582651916018217,1
0.00028519119231736,0.0596333732556737,1
0.000284772600213489,0.0618006140840552,1
0.000343260776908293,0.0506472870584974,1
0.000589821076255193,0.0705292391311814,1
0.000603655628498142,0.0712962248912348,1
0.000531071566438872,0.0619725607337012,1
0.000569653302712527,0.0754972399708449,1
0.00061822975985048,0.0593908410474704,1
0.00096694717234947,0.0506884518980721,1
0.000889884195583387,0.0359768284491133,1
0.000964280849752107,0.0379105798536855,1
0.000910233096904222,0.0241288554243239,1
0.00116635420051975,0.023300839367174,1
0.00132001004868166,0.0227252559837064,1
0.00160231963687759,0.0259047220728463,1
0.00179237884809725,0.0283690289467521,1
0.00194178948981764,0.0322790200946495,1
0.00208391008800418,0.0430042936582557,1
0.00150799059353468,0.0420838620413776,1
0.00156142790249121,0.0535945393205832,1
0.00165187209386768,0.0557746824246553,1
0.00133965082087902,0.114172784786266,1
0.000131855487577117,0.0981256536910075,1
4.67457663662977e-05,0.245647262971794,1
4.88362222865591e-05,0.277531096622691,1
3.5595723898869e-05,0.236950508941658,1
2.64728011705747e-05,0.224614651560804,1
2.73827583993005e-05,0.236013033513109,1
2.98720041644426e-05,0.250308933057321,1
3.07715111462487e-05,0.250403181469814,1
3.17832176292525e-05,0.251611546681906,1
3.37893740081046e-05,0.262211486242634,1
1.73516641845512e-05,0.279107706524476,1
8.87490606056861e-07,0.169367421964703,1
9.92451581178093e-07,0.194974455759986,1
1.07058786415333e-06,0.208374097693852,1
1.03670955709549e-06,0.212826865896902,1
7.16756578831531e-07,0.178799413668814,1
7.52399002103679e-07,0.189193907244628,1
8.1576519147957e-07,0.194610865902987,1
1.80380354835454e-06,0.288645324673452,1
