Activity,Complexity,Tag
4.53533964322653e-05,0.292774690365696,0
4.13481860479942e-05,0.271843370856516,0
4.14798640880163e-05,0.263406912995629,0
3.55104950121229e-05,0.270278615015708,0
3.09205913129613e-05,0.279849889116347,0
3.12410500297868e-05,0.258472564788047,0
3.22167226600775e-05,0.275899985723112,0
1.64647203969647e-05,0.240008865966575,0
1.53693263655352e-05,0.334094287790734,0
1.44183639728328e-05,0.319401766103938,0
1.08609424140238e-05,0.276231672083147,0
9.81487522964811e-06,0.331115308345304,0
9.96133565012825e-06,0.359690301613097,0
1.11828948701259e-05,0.382647418263966,0
1.14472563748176e-05,0.387012467240466,0
9.37497547876932e-06,0.429780253599654,0
3.23208417880814e-06,0.324853775375034,0
3.04392182695506e-06,0.342669622854822,0
3.06970439105377e-06,0.342691296698149,0
2.25123751706563e-06,0.315472265788349,0
2.32374258353022e-06,0.32870270466784,0
3.4658751530814e-06,0.429748649680742,0
3.8505732801677e-06,0.442199178895392,0
3.67846996184925e-06,0.433460156978498,0
4.52565532267186e-06,0.430676090406175,0
8.29012314630594e-06,0.524134768812659,0
7.53509337750482e-06,0.435777998095741,0
7.36108783920513e-06,0.417797699455632,0
5.57838631194382e-06,0.354277320360376,0
4.8342522357293e-06,0.333151446566638,0
5.03393015696672e-06,0.330956587566518,0
5.69296092517292e-06,0.320565297855468,0
6.93418498220842e-06,0.356311362241873,0
7.15981272220208e-06,0.357344484292846,0
8.12643687552059e-06,0.416120493080177,0
4.52547944664023e-06,0.338685514658953,0
4.4544984666889e-06,0.372476340012047,0
3.63275478083312e-06,0.355186144256194,0
3.62000549281518e-06,0.372442883899486,0
3.63498461303015e-06,0.372656301416344,0
1.47239223688027e-06,0.245450192274995,0
2.18718053508088e-06,0.356617354665201,0
2.80677455174498e-06,0.386248169920878,0
5.06870446939596e-06,0.531808878632818,0
5.85427718021842e-06,0.591863504394442,0
6.44595173899958e-06,0.626826532549135,0
5.85742363690968e-06,0.573819677531704,0
4.60064748313659e-06,0.466863923606059,0
5.32198112855332e-06,0.417778548395631,0
4.82525290058955e-06,0.358294409592515,0
3.82368373163465e-06,0.314218597433985,0
4.52984789689631e-06,0.336104824367686,0
4.58235689313011e-06,0.327536332779157,0
5.96039681186842e-06,0.336489635947531,0
7.04250392639114e-06,0.307587505970323,0
7.71948611974676e-06,0.318219439259327,0
8.2547927552473e-06,0.32973727790911,0
7.70981293800743e-06,0.331789868126998,0
6.52370015276384e-06,0.343787186830465,0
5.54697002472622e-06,0.326242106222516,0
5.19845425288705e-06,0.318276128616764,0
5.63090220527689e-06,0.297733285363728,0
6.5950761640764e-06,0.272972027807511,0
4.29153380491564e-06,0.233846973141315,0
4.28392026944861e-06,0.260145605180717,0
4.39345499980679e-06,0.257868132847329,0
4.32611448128261e-06,0.25381292488158,0
5.97084315843698e-06,0.275768950328152,0
6.2657803663716e-06,0.279468308811236,0
8.09302732661124e-06,0.319174261184331,0
8.90250262469634e-06,0.318895505053361,0
8.39564324760109e-06,0.345476100546599,0
7.91337668497885e-06,0.414836049952379,0
5.25165778701828e-06,0.336622747804483,0
5.10623158657508e-06,0.344424670055816,0
4.97587089251532e-06,0.337654254961542,0
4.30586890848539e-06,0.294956694448027,0
4.36670391054178e-06,0.328972425741158,0
4.42640261549189e-06,0.326347731101709,0
1.68811920810112e-05,0.380444319832689,0
2.89237652003119e-05,0.457678433110758,0
3.73237548274514e-05,0.484661757129391,0
8.87989489885242e-05,0.294990919994378,1
0.000774041474849539,0.215139162389898,1
0.00205883688391117,0.335748932021571,1
0.00254571672950242,0.21765564406751,1
0.00242585402197293,0.169013240839288,1
0.00316113948466856,0.120691898400398,1
0.00345204119981481,0.0779341765216781,1
0.0030027035339778,0.0670098492062566,1
0.00259802137761663,0.058669993907308,1
0.00179007970611252,0.0441523858188358,1
0.00110469357954082,0.0282667493136265,1
0.00131676077538742,0.0286053306072061,1
0.001312140252016,0.0257476186504824,1
0.00126260026735175,0.0272640175592394,1
0.00117953814604681,0.0170220887111813,1
0.0020154220786235,0.0212321836447829,1
0.00209414470352271,0.023422334831469,1
0.00196268759552295,0.0199604781418622,1
0.00203706512391667,0.0195388855500093,1
0.00210464430673305,0.0203435974821886,1
0.00207268375647927,0.0197053756323661,1
0.00238950642791797,0.0244840142702373,1
0.00279917463546262,0.0279897477404776,1
0.00912904712574679,0.025820334788326,1
0.0219538038911251,0.0386603467856608,1
0.0229351841509192,0.0299275606800196,1
0.0210241659911849,0.0280967124076491,1
0.0210294117740228,0.0262195777726534,1
0.0200893202312451,0.0218346704846919,1
0.0173347101366571,0.0192844496783955,1
0.0151412999076954,0.0173371967100222,1
0.0147312428880764,0.0169417726206034,1
0.0155057413707592,0.017976353802019,1
0.0139424134826731,0.033509041753056,1
0.00431478720908841,0.0177653969868036,1
0.00343869700870592,0.0167058690492319,1
0.0140308711385321,0.0234826984055356,1
0.0150193988540329,0.0145584791915212,1
0.0146403497823172,0.0162638471673858,1
0.0144924380716203,0.015874910571465,1
0.0145554929311163,0.013201458221362,1
0.0184546604139668,0.0151317368282447,1
0.0178069938817514,0.0131596534070014,1
0.0164369105520942,0.0106255454771488,1
0.0276840043421972,0.0151961404248009,1
0.0272077666887226,0.0115031508189194,1
0.0253922754450358,0.0118862371806102,1
0.0320418445933705,0.0210067477677068,1
0.0304312638242604,0.0184407887330225,1
0.0238518413580911,0.0143038761365013,1
0.0181397730884151,0.0113336779428422,1
0.0179346642527458,0.0119491971162624,1
0.0156181113993129,0.00917050922942422,1
0.0113390839948567,0.00473174248997536,1
0.0105625227903126,0.00665697811134566,1
0.009002546259495,0.0103347608807708,1
0.00817202510852737,0.012898683053602,1
0.00802402126499885,0.0123559570566731,1
0.0103129281834705,0.0107380523803063,1
0.0113412520587017,0.00937040736190958,1
0.010879422741852,0.00871861953654647,1
0.0144796453994684,0.0112220150460616,1
0.0178556452622494,0.0142180339490216,1
0.0185972184179131,0.0160741584934303,1
0.0193956323281882,0.0161857224894223,1
0.0183501029725447,0.0150969502120393,1
0.0197154808791594,0.0118284327624309,1
0.0160302279636444,0.00787647848666195,1
0.0147851331346562,0.0100676166007269,1
0.0127389800533918,0.0110033821661524,1
0.0103247698159821,0.00807428125440303,1
0.0122706243594527,0.00531430003499615,1
0.0185216074350446,0.0113502760143336,1
0.0223601594298175,0.0153885654952139,1
0.0256168808599024,0.0171250197352929,1
0.024459792083507,0.0174290425793099,1
0.0239401170767477,0.0179277991069814,1
0.025645952555295,0.0211353925032505,1
0.0415784749511374,0.0271959623090169,1
0.0625758131416224,0.03334503725473,1
0.0629153910844116,0.0292722066170803,1
0.0663404919157968,0.0368535788687895,1
0.0671991550283462,0.0378742311941154,1
0.0599808106147044,0.0364510600572072,1
0.0454315576934603,0.0275532397046831,1
0.0315754228927972,0.0174803953321626,1
0.0212778645003843,0.0123765475741589,1
0.016661603468735,0.00776310042247874,1
0.0166682399516346,0.0103248786462368,1
0.0150742152887973,0.0105675019087499,1
0.0116995183520408,0.0110571237793766,1
0.0128486400833526,0.0168867312149166,1
0.0295292281014973,0.0229806160260642,1
0.0297604180485874,0.0215918003464638,1
0.0335103179465475,0.0242104889485843,1
0.0300751968882852,0.0231373978743307,1
0.0244252254234252,0.015889435093802,1
0.0277973406433246,0.0178803852721339,1
0.0429823143304882,0.0279339911906747,1
0.0388538399695257,0.0204536277504496,1
0.0343703653629612,0.0193405947990144,1
0.0300115049826973,0.0187685752820978,1
0.0308463987594249,0.0248137854882612,1
0.0261668730900737,0.0230205543166409,1
0.0260398233623172,0.0198088162481931,1
0.017228957651396,0.013881140981081,1
0.0132013022679929,0.0114867868747687,1
0.0229940754662541,0.0171393970328042,1
0.0177341524989317,0.0125168205724087,1
0.0250866296131589,0.0175349435045324,1
0.0312294491350079,0.0165328392435861,1
0.0302514542494932,0.0172090607808241,1
0.0273364692620075,0.0158136812725347,1
0.0284437650929666,0.0159875712379264,1
0.0286211685967177,0.0191728412342661,1
0.0262360419965108,0.017275932411247,1
0.0198850967434491,0.0155429494056542,1
0.0221528230566162,0.0228591749824118,1
0.018165329202812,0.0229735437146362,1
0.0206848449646541,0.0367702020751555,1
0.0220007431870814,0.104980427125703,1
0.0146957358676505,0.0526686255571806,1
0.0119386012167779,0.0322493239790157,1
0.00884786290620274,0.0200610900245954,1
0.00808736247981458,0.0217049692940298,1
0.00821039687983188,0.0215219779924505,1
0.00832068888324041,0.0202423049291612,1
0.00964725746605498,0.0202009893994539,1
0.0101614957346442,0.0221996874863678,1
0.0102759171789893,0.0221863641369052,1
0.00960373713049279,0.0192680714492258,1
0.0100280534538708,0.0244849848271136,1
0.00621322702816925,0.0221713669450196,1
0.00584119783427331,0.0339931171393212,1
0.00587491418409104,0.0331289045266497,1
0.00549455673281445,0.0345443991628484,1
0.00502862124187547,0.0396162615790961,1
0.00481050193641876,0.0497356351298759,1
0.00443145145631536,0.0496939106247302,1
0.00470232785201221,0.0523846568662943,1
0.00539124913061614,0.0849454792752192,1
0.00666043878764603,0.0172636823161276,1
0.0162046462698859,0.0409584165801842,1
0.0417795554347576,0.0604835830786449,1
0.0556969560546103,0.0508440843979996,1
0.0562776465053374,0.0484596695378229,1
0.0559505602735655,0.0472123453931195,1
0.0538917908472511,0.0372703246600712,1
0.0710153098562327,0.0453624883821991,1
0.0811184590363764,0.0566857310276454,1
0.0830972330381244,0.0444676108513519,1
0.18374258552306,0.0583665188729697,1
0.230967997406252,0.0542040579213439,1
0.316020316230018,0.0589554427085817,1
0.334371538011557,0.0454452289768916,1
0.271627641379885,0.0410813455828865,1
0.2048272948278,0.0322160456963156,1
0.136135779021942,0.0227894934518773,1
0.107107780469386,0.0196467794772237,1
0.0920159634049214,0.01694452486719,1
0.0725243215228867,0.00948979819197015,1
0.0778992171833172,0.00969222908609246,1
0.103520580802551,0.0125060983682776,1
0.102756900796669,0.0110078640098361,1
0.111661019790377,0.013278226438909,1
0.132376195239841,0.0136574493063551,1
0.121996547125046,0.0135911303727633,1
0.125774122949313,0.0141101877286547,1
0.125356266161684,0.0128134037343419,1
0.115890313962931,0.0116416108685818,1
0.117944713157986,0.0162232047104563,1
0.10875395784862,0.0173660304478994,1
0.083873318381097,0.0143270290828573,1
0.0757679819733121,0.0158398805649697,1
0.0830275929016905,0.0172422105663909,1
0.101291382790184,0.0245118514980126,1
0.134699130147009,0.0313626522182921,1
0.139288556397232,0.0359637572656627,1
0.176313215584545,0.0415900317274942,1
0.182567208611681,0.038900448338864,1
0.130668419358799,0.0299203620297285,1
0.101066689231423,0.027186522440009,1
0.0432976543390471,0.0110616807115688,1
0.0679624109986673,0.0134206608811129,1
0.0671052676464255,0.0115663962331683,1
0.068815474868249,0.0116887300897722,1
0.0683109470484956,0.0116182838273766,1
0.0693459895715977,0.0130104465769178,1
0.0694352774378493,0.0124239558887497,1
0.0673176720133502,0.00766001320038102,1
0.0838102958867567,0.0107883228682784,1
0.0916412417264091,0.0113670559940165,1
0.132368375419894,0.0194039600896585,1
0.0942030649535592,0.00651428270248568,1
0.103775400585595,0.00709715227381779,1
0.117756479428052,0.00768929679956412,1
0.120084261856441,0.00704290148568928,1
0.12373556010339,0.00694533147217148,1
0.103809782154258,0.00581710171539227,1
0.0973500355794077,0.00741539674390402,1
0.0961213926710072,0.00672603606342954,1
0.100662320470114,0.00735818052694804,1
0.074702100734535,0.00469709493141016,1
0.0614877674383984,0.00857345431471941,1
0.0565786093456077,0.0109268856152848,1
0.0662438536732461,0.0138564758226916,1
0.0666351702928382,0.0128767314842226,1
0.0692679102081113,0.0155877590243142,1
0.082762263245138,0.0199437707105411,1
0.0795407158592168,0.0206203394689101,1
0.0842008050312095,0.0231499332204874,1
0.101942515539131,0.0262134211336503,1
0.102144953496555,0.02487974873177,1
0.109038372040969,0.0285781233044073,1
0.0894227486356217,0.0272154128190936,1
0.0401642404584233,0.010873926374513,1
0.0666002381892613,0.0205326302418161,1
0.0918517172695164,0.020156734064178,1
0.0913369352731058,0.0214741418196995,1
0.101389628311197,0.0245049447482585,1
0.0997603399834605,0.0226243741587444,1
0.0856879738368796,0.0173403743064037,1
0.0912836933469612,0.0156627529827556,1
0.0899344248351207,0.0169278974020275,1
0.061715543162712,0.00936933680235924,1
0.0572560256727392,0.00675573585764555,1
0.0706466958136353,0.00766309700993114,1
0.0750844626313222,0.00689575578871514,1
0.0801356698066219,0.00510902922973991,1
0.0794166458488798,0.00362009634450261,1
0.086772741140696,0.00513772428165252,1
0.0849547998321557,0.0057994864045751,1
0.0782981166531817,0.00609662756278072,1
0.0671110458927422,0.00532817638000673,1
0.0624135963135294,0.00604701018233722,1
0.0690729065814108,0.00816867869136635,1
0.0510913277305315,0.00738256521550917,1
0.0452367121931063,0.00965209098594762,1
0.0369609799718707,0.0144789689683963,1
0.0350796055213891,0.0240480710384682,1
0.0640854171327143,0.0305173921856157,1
0.0979192161353389,0.0330827940546074,1
0.116123030583809,0.0375886416224158,1
0.125474267797844,0.0201158828395818,1
0.138619480414993,0.0205427443750385,1
0.128970852246326,0.024177962639398,1
0.106474523210766,0.0190744485394546,1
0.133258341012005,0.0146857619073122,1
0.308090725162103,0.0265965310849255,1
0.389996046867573,0.019694446142311,1
0.389381317949559,0.0200048030246872,1
0.429594109970383,0.0200715409253621,1
0.450582944812001,0.0202302386855103,1
0.490118799545966,0.0262671380626197,1
0.398179501317259,0.0161899235340033,1
0.326765167945107,0.0110840476467582,1
0.242857420765218,0.00661887869310392,1
0.230563667274562,0.00814634821856938,1
0.196097272445829,0.00685057704711831,1
0.193628065153798,0.0102224984776925,1
0.183060595992866,0.0106092013069287,1
0.213337456935756,0.0151424264336235,1
0.218267178555724,0.0143615229295002,1
0.170572158485883,0.0110917642288113,1
0.154236199627746,0.0153027695465686,1
0.138517788268458,0.0200268574921525,1
0.127445627056458,0.0257963966164899,1
0.109057671236565,0.0228622172063732,1
0.100106358077701,0.0251531820515988,1
0.0986755227399898,0.0240698142542795,1
0.101479277482167,0.0248437230136398,1
0.0851286425147678,0.0238232116977467,1
0.0825422103477267,0.0199400275051888,1
0.111990994414215,0.0346197022194388,1
0.0938152371242152,0.0194049912558551,1
0.121232421220316,0.0172330845712674,1
0.165550989404077,0.0198578551402068,1
0.16894440012754,0.019588439975521,1
0.172174877407226,0.0197232182689439,1
0.196861039662599,0.0196296710870684,1
0.228806070089797,0.018034746564942,1
0.250157223230578,0.0174758640626558,1
0.242550719187975,0.0148276005048636,1
0.14306976422967,0.00601313786867931,1
0.127955708894037,0.00727699979980064,1
0.144534944545208,0.010451394833116,1
0.155635029497672,0.00834880301916361,1
0.171005406335397,0.0087911348464139,1
0.173743780612243,0.00892629733493736,1
0.167356298116967,0.00982447564279389,1
0.148159131618272,0.0103663260537784,1
0.119039206706892,0.0101333581481366,1
0.10889901968962,0.014599276897887,1
0.108529834861708,0.0204235055943423,1
0.0862776112251382,0.0177897383401879,1
0.0673122093788139,0.018311239279466,1
0.106162768719617,0.0565665514389559,1
0.101671978798675,0.0208168097990153,1
0.0981511857215654,0.018097115771881,1
0.0871201580625397,0.0151356142655588,1
0.0997259747205744,0.0169085568107732,1
0.0973136386079844,0.0112981724430439,1
0.117325598231943,0.0134334199693926,1
0.122335271708018,0.010846401384407,1
0.134319113822642,0.0117600263813839,1
0.136770106853312,0.0117364283472861,1
0.0916572891555743,0.00764696596383832,1
0.0774816343214,0.0142526853975785,1
0.0795490897902234,0.0173124556671427,1
0.0886319436459645,0.0199060750911374,1
0.0850360837941905,0.0192343304763965,1
0.0950711748321143,0.0372333944166945,1
0.0522038639849374,0.0202717193011246,1
0.0508852504321146,0.0201093054378964,1
0.0779821556518744,0.0221111067287314,1
0.0775583594134063,0.0203698288254031,1
0.0574985000460358,0.0139339209409516,1
0.0552456241849378,0.0130630217907837,1
0.0540978971065878,0.0126854328966414,1
0.0572725763101295,0.0128809622007984,1
0.0574490057994854,0.0116745850565257,1
0.0529872117437779,0.0117981317184571,1
0.0513691548489028,0.0130981012788222,1
0.0452965322889004,0.0170190140576938,1
0.0180824135900348,0.00757697734333194,1
0.0196420880665277,0.0130462069847701,1
0.0241736798949768,0.0139239206781597,1
0.0412344119259017,0.0185176265019473,1
0.0484668877376309,0.0128029652014461,1
0.0702583699659609,0.0170037658891835,1
0.0692466848932228,0.0174368636486515,1
0.0680197492615686,0.0171011851185304,1
0.0949058957921217,0.0195812817219766,1
0.133006992551616,0.0299704859605307,1
0.189282489206968,0.042590520250947,1
0.345636435829763,0.0500406101111116,1
0.491140201429941,0.0371136002826445,1
0.49223614474722,0.0346391348506762,1
0.4387068010266,0.0373376184060722,1
0.323992955133054,0.0301150226026057,1
0.263969482110897,0.0240486773400198,1
0.213214230583258,0.0199351356016665,1
0.201380314747715,0.0205010094676274,1
0.200962551588725,0.0208766890331339,1
0.210333654397288,0.0205962748763085,1
0.142338568869788,0.0176715594700842,1
0.0431636425751317,0.0124332212726012,1
0.0730394584731664,0.0286038654937372,1
0.0791334465583263,0.0207023945780806,1
0.0753392587171401,0.0217390918418422,1
0.0976385102517006,0.0212975567782179,1
0.112214400242813,0.022182577576873,1
0.118904269351047,0.0240510093767827,1
0.123840804146045,0.0242426433443909,1
0.127753009999346,0.0188287806554601,1
0.174797438010234,0.0213425696134008,1
0.184769674592503,0.0190228434497689,1
0.181865529462309,0.0180856663137417,1
0.174420998847786,0.0149698437820863,1
0.246104777034224,0.0182832358899091,1
0.283692704674318,0.0193605305792,1
0.277831812964667,0.0184029689883379,1
0.327961571892013,0.0201008577575047,1
0.331863625387603,0.0199104623987928,1
0.330783432653854,0.0238672151579763,1
0.23915960148707,0.02128057947848,1
0.182001036544247,0.0180676800487874,1
0.0820150298516643,0.00862729158988029,1
0.0635857697723133,0.00942926178280619,1
0.0504941481153979,0.00836777124059118,1
0.044381158114622,0.0101033748475628,1
0.106889340345528,0.0249432317327202,1
0.105136795802234,0.0278312889940823,1
0.116528116495672,0.0186641785183648,1
0.143290402793749,0.0190891376553327,1
0.145481953055567,0.0168537563811941,1
0.152509802918066,0.0154075590880298,1
0.161335255559446,0.0159484020718765,1
0.170432071071351,0.016887075421631,1
0.158986867671759,0.0152275725934926,1
0.206648173885945,0.0138101743944838,1
0.176338247692514,0.0112138311305082,1
0.144250631150173,0.00895618367676638,1
0.112013362887444,0.00775391397312612,1
0.115668603935341,0.00758983216554707,1
0.0938479433829806,0.00581164361144294,1
0.0997028273120579,0.00560744222075966,1
0.152786521136161,0.00996107476359343,1
0.153991234552405,0.0094449261400358,1
0.0866459823146546,0.00309272228146128,1
0.104446438517385,0.00979827724304716,1
0.105501282930819,0.0110968337800331,1
0.162058446182114,0.0166515743338274,1
0.195336881702286,0.0187203394112327,1
0.260627965246212,0.019869425874494,1
0.375577384345348,0.0252277075192433,1
0.380754230203624,0.0336127984703102,1
0.245292251829354,0.0224231020535287,1
0.190333397679655,0.0171796270565825,1
0.127403952671238,0.0119444851727581,1
0.123217573293242,0.0103000941859957,1
0.106714453500883,0.00828992252676494,1
0.106977499693567,0.00883427198103099,1
0.109140992516203,0.00736207284893901,1
0.140167633133851,0.0150944895737994,1
0.113820540085396,0.0132927747361946,1
0.121068595646058,0.00959325660066758,1
0.130341824357577,0.00787947193734208,1
0.12998487243755,0.00937427465976912,1
0.133544395981165,0.00896392719581758,1
0.128632728607613,0.00840771395780322,1
0.158443064659841,0.0109356335870368,1
0.157395895106397,0.011825421314922,1
0.129845432009554,0.00693342363609146,1
0.155601848592949,0.00767675484554456,1
0.169627068100044,0.00582153586094657,1
0.176480150384781,0.00527412100827053,1
0.171655637262921,0.00661084158386116,1
0.179386206917754,0.00696983057284567,1
0.196425247171758,0.00851743024768135,1
0.185395398224068,0.00829777456532364,1
0.177915612860871,0.00797838858231663,1
0.18024376493395,0.00811248485845723,1
0.180165604757151,0.0116098991962965,1
0.124778646352319,0.00976706131041885,1
0.107773654153259,0.0148819958900749,1
0.0256982278378021,0.00863200124475278,1
0.0303614839370767,0.0097330418798321,1
0.0302955602853468,0.00981012914811589,1
0.030975427624476,0.00911825247161965,1
0.0282220187128352,0.00728712623885226,1
0.0455719313776158,0.0150827260131844,1
0.0483712915717753,0.0132479835744209,1
0.0516671213561242,0.0136282103446761,1
0.0400890562177094,0.0091883286043421,1
0.0429217436666588,0.0102515434894097,1
0.0387286450572974,0.00750629636959632,1
0.0419757328546447,0.00923055319413128,1
0.060072840692451,0.00930831476589544,1
0.130740173520994,0.020951976737531,1
0.15562364250953,0.0281272565541149,1
0.184671985692231,0.0248960689571135,1
0.268295581121124,0.0320004067248049,1
0.247582285318642,0.0261660347067318,1
0.21707384953052,0.0219216514170854,1
0.20612050786651,0.0203342602593084,1
0.173220030618353,0.0161399999089405,1
0.155159483087868,0.0130098462961603,1
0.106788333326661,0.00979583230622093,1
0.117728152317979,0.00944764384242298,1
0.102824110687582,0.0071883607744631,1
0.123286082763879,0.00862160131400957,1
0.145389628163381,0.0046114890533164,1
0.184054712002017,0.00774582483132472,1
0.211046705162547,0.0106702270588412,1
0.267023190668434,0.0137274991462373,1
0.289328352297709,0.0177657910377947,1
0.257712799339018,0.0163678268243335,1
0.247813097399355,0.0166996754345303,1
0.204366434786694,0.0116575029286097,1
0.222756985190155,0.0105736027186047,1
0.123940697146816,0.00513953930721057,1
0.0969605562286059,0.00781621641438196,1
0.0980006013969675,0.00533634285706583,1
0.194753473928247,0.0104202634109864,1
0.265332426493972,0.0150236264892388,1
0.253580633292389,0.0132082155491128,1
0.23336085193049,0.0118190728313163,1
0.22325486972371,0.0109698687584295,1
0.216889910431361,0.0115775646128805,1
0.261997318897423,0.0178243779145001,1
0.267161267935279,0.020986599710374,1
0.302680648818188,0.0221593821553296,1
0.284318122423496,0.0255384351734137,1
0.232218588634526,0.0337792856625701,1
0.153486335434381,0.0249707823542251,1
0.121403247017903,0.0203194303771218,1
0.19848147455333,0.0183936749080872,1
0.220349119852324,0.0106921223651818,1
0.223216287863486,0.0112406595251125,1
0.20883925193993,0.0110020950797857,1
0.166379991450134,0.00903681384383401,1
0.132665374829476,0.00684382207619384,1
0.153837101811101,0.00834522826228315,1
0.153071444435307,0.00844115289931776,1
0.150720958224311,0.00799017483129876,1
0.14243810109709,0.00731835359566143,1
0.0932727316249612,0.00660237438142817,1
0.0693946356182239,0.0118193936581127,1
0.0663037562647274,0.0153572008528409,1
0.0578579625074412,0.00709200531035715,1
0.128397088900363,0.0166268687348683,1
0.152320603321798,0.0167738102032592,1
0.151816847622136,0.0171202690674756,1
0.144760726491927,0.0165175555721501,1
0.145810307651826,0.0156822711038093,1
0.136922779752513,0.012006052423548,1
0.115370320966099,0.0113233819777351,1
0.119449988019185,0.0117681785857141,1
0.117810565486902,0.00704570983648511,1
0.21944757729423,0.0196688150148525,1
0.248886848314451,0.0141785044730504,1
0.214511669700577,0.0128441620460412,1
0.236344355905747,0.0127865176427979,1
0.225814225284092,0.00963254327092709,1
0.233908213376633,0.00983732597114748,1
0.229211967949569,0.0109067245129501,1
0.209211555836151,0.00863676810564104,1
0.173038277167539,0.00604504570682733,1
0.154311757464844,0.00702883820987655,1
0.148352807115223,0.00624770061409314,1
0.128077420660086,0.00747618569713451,1
0.111904954883088,0.00675091179970609,1
0.101518980562611,0.00780839769880174,1
0.101384988605096,0.0101598186582368,1
0.0882262619219726,0.00925519351813681,1
0.0993565177731285,0.00657277466546223,1
0.126788965038374,0.00666459792988233,1
0.134049444476565,0.00667791007254231,1
0.13715399971371,0.00708275439867034,1
0.101835242680755,0.00617803260560841,1
0.0841690675364226,0.00519061686903773,1
0.0908308547249102,0.00317132148503981,1
0.139875295485397,0.00710234910040268,1
0.144985518057779,0.00602862545148787,1
0.179668524455719,0.00618727409482701,1
0.17768180908972,0.00777631905486231,1
0.147172046766112,0.00775809663637496,1
0.139481999413658,0.0079135140730886,1
0.172215771742588,0.00949663823021508,1
0.190999539486884,0.0101928134360272,1
0.183376418522318,0.00926761186308503,1
0.175566452425817,0.0131765399925364,1
0.126014433096311,0.0097696272355558,1
0.130528396629574,0.0121012848606249,1
0.0913496155089176,0.0166979529775407,1
0.0614183605523787,0.0133160110952239,1
0.0749430304679625,0.0165158256770318,1
0.0681507461909662,0.01903295950457,1
0.0668871766992546,0.0214260564475596,1
0.160104908388849,0.0187484739389176,1
0.280386917646885,0.0253105999461838,1
0.302746453607896,0.0226095580838087,1
0.300521485452196,0.022725101832801,1
0.3234352706891,0.0220039003374211,1
0.350550952894205,0.0200954148342743,1
0.327108475096542,0.018016763904271,1
0.294787506243028,0.0165794342432204,1
0.216376813314229,0.0107245071007768,1
0.126737959645476,0.00544515240533983,1
0.112714062369731,0.0110008656498331,1
0.12570881628829,0.00943466509889574,1
0.162129609284628,0.0109613104924927,1
0.167142576598061,0.00808008848625655,1
0.188992098607399,0.0109579475507062,1
0.170273500977769,0.0113009529568036,1
0.170389539817414,0.00944963927023696,1
0.166470099401836,0.00708828511385576,1
0.188584400819905,0.00806964486666253,1
0.191227534664482,0.0081144285830397,1
0.19274510343565,0.00749012902167589,1
0.174012947252893,0.00904916808500068,1
0.158644178379893,0.00822254933285086,1
0.268273368734252,0.017526397498041,1
0.278748359645823,0.0104980036910589,1
0.380167860952062,0.0147532972487605,1
0.436654954453678,0.0179560946651164,1
0.435709917202403,0.0234970418718387,1
0.430148365110363,0.0242777778684213,1
0.435622347191668,0.0254407867957364,1
0.443638074872556,0.0267942816635939,1
0.441227497464244,0.0243672776061658,1
0.385630826254099,0.0214448273834423,1
0.181432314460058,0.00915320840453343,1
0.150145877850515,0.0177036418269925,1
0.15768079996494,0.0201681501143806,1
0.140467132028072,0.0105165053544054,1
0.145568067725246,0.0113721410084382,1
0.160304001593839,0.00730853737136218,1
0.299401628968367,0.0148948344139305,1
0.294228544322139,0.0112871488292305,1
0.290993389737333,0.0125748057738742,1
0.255476164588151,0.0106059932130538,1
0.349240191444237,0.0144683545374822,1
0.385503928098203,0.0129650380111629,1
0.373470009941875,0.0118618109872922,1
0.364465023034999,0.0166156016406399,1
0.326370620981647,0.0133350879811941,1
0.34228496652134,0.0152888476157582,1
0.297055778380045,0.0134645413966414,1
0.289288736569027,0.0160054743117955,1
0.300891115620463,0.0166173970933019,1
0.238503697328462,0.0145095836456444,1
0.22886917761175,0.0164339978511753,1
0.231212934527478,0.0213959023766738,1
0.198787118593168,0.0169861560271626,1
0.211454159943852,0.0138443221791871,1
0.136617226083643,0.00840139024565996,1
0.0925666036508486,0.0143443914992436,1
0.141026232415988,0.0203594783362106,1
0.151350288882925,0.018439660648773,1
0.165385032530099,0.0184830988565194,1
0.186369541323448,0.0228966188976083,1
0.159819890630481,0.0170909005058709,1
0.136967064230981,0.0146084341048017,1
0.0620313816292913,0.00358512805697491,1
0.0682930224723743,0.00975087654883714,1
0.0665101060371895,0.0107528198561361,1
0.122489047610476,0.00694867272147175,1
0.320096376886795,0.0205485453667813,1
0.354815051256732,0.0223211178634099,1
0.344913453116876,0.0236398088887015,1
0.272955624613456,0.0198772680876075,1
0.223850494554721,0.0173158478614427,1
0.20432470163129,0.0158656776994615,1
0.180596387651836,0.0146896109287882,1
0.176379043284865,0.014528510980606,1
0.181024866193063,0.0133542447330128,1
0.179295747665403,0.0225782908057252,1
0.099586963167316,0.0182570310982396,1
0.0954065925877331,0.0203506982438166,1
0.0973087782297091,0.0243116493793455,1
0.0923441869966425,0.0224281432469531,1
0.0924286299951604,0.0224684430822672,1
0.0618393412728424,0.0174071376707463,1
0.0578395840594253,0.0137566382444232,1
0.06161896588776,0.016262045919661,1
0.0775793640533618,0.0341351333205695,1
0.0912022526386893,0.0500612019481726,1
0.115183303648598,0.0574359421452615,1
0.145394174242911,0.0661468797031086,1
0.145166801818029,0.0538983047373114,1
0.144493599128863,0.0574616219834255,1
0.123181299976118,0.0588520344769146,1
0.0725565014453839,0.00897056476097737,1
0.119836022803594,0.0182401559126194,1
0.191203268507838,0.0198887882387706,1
0.190280502182393,0.0209656747709452,1
0.190697514186059,0.0203058160116353,1
0.212741346826392,0.0182437039839477,1
0.20334457833594,0.0129739170865302,1
0.19809759292141,0.0135158560276157,1
0.188343420931461,0.0136568734128828,1
0.138608156928271,0.0100675231391937,1
0.129524468382817,0.0163714143890693,1
0.105833217349899,0.0147576451732876,1
0.0692246483037555,0.0128205211944237,1
0.070388658796557,0.0111953560994869,1
0.067327805929598,0.0099995494743161,1
0.0701518976414834,0.0162848474779708,1
0.0596220615330371,0.0248405568594741,1
0.0556201796833606,0.0246842842919816,1
0.058811796035667,0.0235785765334163,1
0.0932170928476703,0.0135383857117474,1
0.141236161163445,0.0129450699734846,1
0.135301528488178,0.0124353610073069,1
0.11584402134728,0.00926781051305551,1
0.122505537104563,0.00782886081000361,1
0.126822640811867,0.00896332761162795,1
0.120734856196265,0.0084426619020787,1
0.129686502383981,0.00799788586210214,1
0.161181424689004,0.0110079944078951,1
0.141305125850393,0.00705963407936296,1
0.150864599069223,0.0125867054867039,1
0.132984856982566,0.0144275763427535,1
0.13625428170857,0.0150554652860041,1
0.141735172778374,0.0107565237673926,1
0.249738120095036,0.0186080882114475,1
0.351598399626033,0.02459230189568,1
0.368343335020768,0.020747115500222,1
0.367703930193409,0.0235066345147438,1
0.392301140732665,0.0232894581262218,1
0.493437445507017,0.0341234228314224,1
0.506116985782394,0.0400213096254144,1
0.425097179699205,0.0296413402596592,1
0.272944103910043,0.0184759004356555,1
0.224551626762741,0.0218808190242259,1
0.228758122825371,0.0248437167982566,1
0.259844762813219,0.0246438564427152,1
0.259512306901359,0.023696889915778,1
0.272726281440049,0.0202539845825239,1
0.309024663655016,0.0200294133311951,1
0.252267967987138,0.0181918665233336,1
0.166268899062493,0.010782405143506,1
0.245875790925026,0.0156272374393958,1
0.347271713121234,0.0182901564316982,1
0.290525100438837,0.0157187381440505,1
0.293105761978442,0.0155441479259635,1
0.321541729839634,0.0154326750310913,1
0.327709373642091,0.0131872294410163,1
0.308359403641757,0.0141086903467842,1
0.340421604597238,0.0164728640763283,1
0.44782286832413,0.017923906689923,1
0.476667009332795,0.0200647937868917,1
0.412990170848713,0.0193423915987586,1
0.299943486812239,0.017492148960789,1
0.299845618478411,0.0186138800358154,1
0.325912270287859,0.0166852674664137,1
0.182120627535894,0.0107760184979996,1
0.181534229927598,0.0141850754216694,1
0.166164225038713,0.0131544852096364,1
0.161820387746982,0.0144908459088736,1
0.160464583727155,0.0151858297918018,1
0.169991698733298,0.0145677986209052,1
0.168290554507531,0.0139513462736607,1
0.191932275094645,0.014936248887986,1
0.156332823137542,0.0116154511987336,1
0.165320585546118,0.0253413428061278,1
0.231015307329046,0.0336770934996309,1
0.302701252654773,0.0411137202431503,1
0.293404196035541,0.0350747046175081,1
0.227071531034392,0.0302996792941036,1
0.179271328285389,0.0314561445142473,1
0.135651525787117,0.0346879348841104,1
0.0411927028189591,0.0233201262207399,1
0.0259250270199335,0.0121329712041007,1
0.0368600233854556,0.0108201728138405,1
0.0794920076876585,0.0228749985209343,1
0.0949444999204935,0.0251013822072251,1
0.176845938954962,0.0277018496032126,1
0.345952884572205,0.0418404941103491,1
0.380712250679179,0.0446526279526123,1
0.509278786035038,0.0456757759215073,1
0.574042435949185,0.0488160384355196,1
0.534189455126589,0.0395755279191171,1
0.384811610788267,0.0290856944068662,1
0.292816219381368,0.0232526226417707,1
0.245926103536373,0.0197692643752272,1
0.136592813036717,0.0114151586974045,1
0.123422980218093,0.0112122929141572,1
0.126201485972498,0.0113272277977498,1
0.120214114648109,0.0126743153249508,1
0.104037511151586,0.015761933279464,1
0.0778171548189684,0.0123473492634035,1
0.0558869902619651,0.00923349967868253,1
0.1520444023358,0.0218421777109104,1
0.202304276296324,0.0259873783099587,1
0.169629390283711,0.0221840667002987,1
0.166695234366674,0.019806109498278,1
0.191285220954495,0.0232918872837457,1
0.179286999834885,0.0199452373079765,1
0.179504448481409,0.0228970080093169,1
0.186984660464855,0.0217439575607751,1
0.171439499128714,0.0173356239536311,1
0.169713468663454,0.0187341915273276,1
0.123890808696557,0.0185353539624745,1
0.0915261969924093,0.016402468179953,1
0.0935209515502547,0.0175397233912928,1
0.104193837811029,0.0200947013213451,1
0.0967037242390903,0.0141254837741395,1
0.0759828475007988,0.00895879049753534,1
0.0799001844909396,0.00487723743027193,1
0.0999588370454333,0.00766828738040359,1
0.0984460069283941,0.00737709524721149,1
0.123095066006796,0.00989424758597636,1
0.14036888740782,0.0113453668751037,1
0.157990649393296,0.0128125294627447,1
0.15905192121148,0.0126210144465793,1
0.162053660591845,0.0125468365472915,1
0.12410635902703,0.0119442001023874,1
0.111066131489391,0.0138562092885196,1
0.118840406542236,0.0266840873368151,1
0.0545392030227216,0.0180012149608806,1
0.0461653760217503,0.00796010828582925,1
0.0802745302899559,0.0187120352037294,1
0.0842097302430509,0.0192227711432595,1
0.132432216866664,0.0220494863941678,1
0.16865107203218,0.0257030356355167,1
0.2580386804596,0.032334518010518,1
0.35630696976327,0.0238820231887685,1
0.34154850775791,0.0239595553267333,1
0.302373479789524,0.0180580986003928,1
0.254277808102786,0.0154287259047499,1
0.361160900640582,0.0220004395428235,1
0.471060638416417,0.0233621497388546,1
0.402177086906549,0.0183173570466821,1
0.377906529482783,0.019985164776272,1
0.353662617270739,0.0186471850381278,1
0.356246841152984,0.0183552989968443,1
0.388569862120965,0.0295154591972853,1
0.25484989871371,0.0107349343334629,1
0.221193755679879,0.00585728603001074,1
0.279754627863694,0.00858916819184406,1
0.28051930951875,0.00865324242083866,1
0.382523562122587,0.0118614357010457,1
0.383159352910444,0.00974485616851128,1
0.373032300033812,0.0082872621734886,1
0.310711817351121,0.00642549908967684,1
0.347671730173616,0.00643059974114435,1
0.601050837072329,0.0134313065108973,1
0.772316335071542,0.0208375294305323,1
0.906272446143787,0.0355467795564428,1
0.810517504775403,0.0207817200683849,1
0.882190917948109,0.022190372742066,1
0.826604749879558,0.022997373168518,1
0.869887482364833,0.030019956428289,1
0.929730010458294,0.0298823971955455,1
0.98825223810346,0.0228681666725913,1
1,0.0231526192151706,1
0.870124049036536,0.0213007273216918,1
0.712355608180233,0.0179179826715,1
0.493542597508227,0.0105931296237312,1
0.589026513695654,0.0191060176592932,1
0.588479043220166,0.0194424239296756,1
0.469658637020052,0.013312178260211,1
0.445403161655018,0.0131375951383755,1
0.372840065635406,0.0124107126960008,1
0.312611525482098,0.0163710088332957,1
0.330859539020016,0.0290004468652631,1
0.4122596563384,0.0356862081887037,1
0.419665592214779,0.0361208661399907,1
0.458215442695476,0.0411683183191824,1
0.470914379042071,0.0441782740238746,1
0.479463212418211,0.0505055465009685,1
0.456536928484218,0.0616624394944103,1
0.270132452976683,0.0353362653812447,1
0.100704024051446,0.014969468701472,1
0.0978616183563175,0.0150704980407142,1
0.0912281092776342,0.0107187853843438,1
0.102096593047084,0.00960824026888069,1
0.0975073914745262,0.00899725940276178,1
0.0967869087395935,0.00913210603331657,1
0.137071848906823,0.0129734181148496,1
0.196202238450031,0.0173691206421099,1
0.284892884216138,0.0255484883377903,1
0.273591771260082,0.0299398159122381,1
0.25615540227643,0.0325121411670816,1
0.269052698224775,0.0378453832019826,1
0.192851969548631,0.041586699584691,1
0.160518018950024,0.0478869300312048,1
0.0822268582754515,0.0397885503634142,1
0.030340797116663,0.0232040507431573,1
0.0227402393419916,0.0172265582983616,1
0.0561094224136083,0.0475941228338486,1
0.106178182456405,0.0740002159790806,1
0.142900483045743,0.0918363006714252,1
0.172585967745949,0.0979302131227293,1
0.18884556253143,0.0811517871939173,1
0.154899165426283,0.0737414361765663,1
0.121798685301263,0.0667836650540272,1
0.0974521436691363,0.0281062152041327,1
0.11727817217148,0.0311266251842107,1
0.129085984151211,0.0356695584114726,1
0.119646469941867,0.0180802633652775,1
0.1166557579642,0.0172485085283812,1
0.129210385632864,0.0157302736360381,1
0.133864629842209,0.0133470738195775,1
0.133333991213677,0.0122986212567859,1
0.150328992690098,0.0127339655891372,1
0.133250912918329,0.0109465665752686,1
0.151328339120523,0.0145517484962289,1
0.157085426924781,0.0148439252900746,1
0.147993396043414,0.0128736596522434,1
0.13503812747198,0.0170163456843005,1
0.135093025603575,0.0168133596591075,1
0.096886150682988,0.00979699363797288,1
0.0808392409963741,0.00892008147504852,1
0.0875316784459203,0.00878359782740574,1
0.172328905907151,0.0101880375730632,1
0.201451941485311,0.00572264055456741,1
0.222602512958624,0.00733587064691973,1
0.216762980183435,0.00660545078150154,1
0.221223696987931,0.00656526994647598,1
0.239146140800505,0.00736474159367601,1
0.230434804000588,0.00691142071157019,1
0.224596221798278,0.00739846862095135,1
0.242322829073373,0.00822047110627353,1
0.25654560726553,0.0102675337520105,1
0.151377971215258,0.00194544237788526,1
0.298299096697135,0.0180670823693845,1
0.299410758913876,0.0106854095695545,1
0.304049263165362,0.0118312742632272,1
0.306034859202844,0.0126688782167238,1
0.297805590736019,0.0114746070031181,1
0.29023997308694,0.0111225827675792,1
0.298468663663232,0.0110380943283946,1
0.30089584388894,0.0113633668637892,1
0.296390501411302,0.00979788908098244,1
0.354192531485036,0.0304926104177256,1
0.160267780544485,0.0125295099989936,1
0.131555128003033,0.0225202677155608,1
0.144484947378559,0.0112615959468262,1
0.259195715414308,0.0158650317950643,1
0.244600920314576,0.00999055849259385,1
0.246747180363253,0.0094942832133191,1
0.243486114269111,0.00985806727834585,1
0.243408249181084,0.0101498527807099,1
0.251824968560006,0.0105273785904344,1
0.227690008067208,0.00834297276398493,1
0.220864514269941,0.00809991908931793,1
0.244347591607321,0.00737239899447542,1
0.249656880209604,0.00781363379354522,1
0.163170528503069,0.00380057029133481,1
0.1537274228555,0.00667463395036462,1
0.15825230190413,0.00681980137641732,1
0.17195869713226,0.00636059799485668,1
0.175024683457277,0.00524757143963112,1
0.224028044566138,0.00740392798203172,1
0.217665577442674,0.00557388755645979,1
0.228876848992499,0.00627993866156663,1
0.20174666461832,0.00436645636951905,1
0.244373311011233,0.00893642853643705,1
0.254294938836575,0.00850263730394108,1
0.233193755039973,0.00786077372539875,1
0.235441150112507,0.00860046572664144,1
0.238632233348007,0.0079649938165346,1
0.260504666351575,0.00921028551816385,1
0.3055636306898,0.0114688772268054,1
0.4696483660143,0.0261090308351364,1
0.464051530651494,0.017746907720166,1
0.430935873416057,0.0248922383424279,1
0.431322341672811,0.0226257364074404,1
0.436599378248424,0.0266487955623631,1
0.399806410834075,0.024150773145599,1
0.454876655552328,0.0233116721793687,1
0.534134103573653,0.0311765515996697,1
0.581235831590784,0.0332850986360423,1
0.567431616225067,0.0333708772002708,1
0.409730553518552,0.0301202726883188,1
0.272970960242146,0.0194526770055612,1
0.231875078255406,0.0128199717943697,1
0.191114385052658,0.0127514554097755,1
0.193838489097809,0.0107619537432923,1
0.215895580336248,0.012670197194926,1
0.185881964265954,0.0131820646497125,1
0.137090904529978,0.00923428204021915,1
0.123265320687318,0.00755799599032361,1
0.147791581466343,0.00984427547241097,1
0.110461389410431,0.00705610264341661,1
0.102845898791805,0.0136572408097106,1
0.132036201734923,0.0186947546929108,1
0.150056258864183,0.00971160860104396,1
0.164917186893205,0.0107615156649808,1
0.157648301438529,0.00872293952414438,1
0.212341910718062,0.0130498672931182,1
0.215651350974659,0.0118333478847003,1
0.22193030610162,0.0130919408495931,1
0.210629866441085,0.0130737682194884,1
0.180341821235113,0.0114988944735428,1
0.175836404834366,0.0130746935575452,1
0.190935883565187,0.012417720006475,1
0.146911201929399,0.0141848897879989,1
0.085707894921847,0.00934619631272619,1
0.0927925118786271,0.00810693031178542,1
0.0949866320886089,0.00822019672557142,1
0.084857925112383,0.00887047606992396,1
0.101226823496769,0.0126599988513741,1
0.125825133288639,0.0156091193822093,1
0.127448157428377,0.0157384525918045,1
0.140923371181123,0.0197789517006969,1
0.122488910475451,0.0233115070642899,1
0.15133898493672,0.0273194577557001,1
0.208780070780378,0.0184768548182326,1
0.209368877294225,0.0142000989198409,1
0.158328181504875,0.010185910246862,1
0.160156059706953,0.0102532808262433,1
0.160314368009406,0.0102326829413225,1
0.162028514593973,0.010288362063001,1
0.162113347276358,0.00970374590771561,1
0.166748890245854,0.00808980523136387,1
0.189933894593939,0.00964961404757782,1
0.18830486200685,0.0102632389028582,1
0.0869553380381259,0.0100496538174123,1
0.0415043217221023,0.0171205216813412,1
0.0410227123040641,0.0168638826540883,1
0.0414830892821654,0.016629547461827,1
0.0405620971996443,0.0161555311880016,1
0.0382283997568401,0.01153634274294,1
0.0557745026232123,0.0155437307828189,1
0.0491379345108127,0.00919499792094044,1
0.0525505063425305,0.0072041459749629,1
0.0647671590258353,0.0100297626788435,1
0.0719728259028452,0.0113912332578787,1
0.107869092461065,0.0153482447250089,1
0.1611758041809,0.0221396759657346,1
0.190768922065246,0.0246193074366954,1
0.196197860482468,0.023664510123652,1
0.160120046402196,0.0210829487290706,1
0.16962540959786,0.0224857065039474,1
0.14173437705572,0.0455730026356298,1
0.0624712819760794,0.0348647017957534,1
0.0410361103582422,0.0250166968491141,1
0.0213635004230903,0.00701614472950323,1
0.0408910701096463,0.0393420936025556,1
0.0451548203579853,0.037938489420221,1
0.0542991922120743,0.0303492446735476,1
0.103671329419157,0.0452285067476036,1
0.19197292816775,0.0741611380192757,1
0.318611389028407,0.126961935907383,1
0.508894848268489,0.143880965107249,1
0.578494502619539,0.0795760694689274,1
0.534237366395744,0.0775640513525113,1
0.45490960123079,0.0646182904640798,1
0.383945028255622,0.0540817067601727,1
0.266587760672405,0.0382260205540432,1
0.255564867442614,0.0335250288250298,1
0.312931337090999,0.0340069844918249,1
0.31768913877169,0.033804307516393,1
0.3576352453635,0.0352529337501081,1
0.285896054836541,0.0296173473166874,1
0.200377923519014,0.0246642967528035,1
0.135999582939098,0.0174852962518233,1
0.0868376535159346,0.00802820285108391,1
0.0793522090220843,0.00435563041519351,1
0.0844770880719977,0.00542842166846692,1
0.0781616041541833,0.00653513634106234,1
0.0703630288997508,0.0063860856762011,1
0.0729067959467108,0.00642944193065492,1
0.0719691756442609,0.00669010364705668,1
0.0728670934538993,0.00635352343585569,1
0.212351667767149,0.0142740482993056,1
0.262347188491396,0.00687109256437109,1
0.268736151244016,0.0080996198071481,1
0.267681663449756,0.00873000160687918,1
0.24713936599856,0.00770722271224986,1
0.231542550372143,0.00692621517704935,1
0.233089676970228,0.0065738458461487,1
0.246633973428258,0.0057998055946371,1
0.2454108430068,0.0057845065202479,1
0.271775241681721,0.00753060912569163,1
0.224951731669339,0.00785545480747797,1
0.181153142740974,0.0186112579596073,1
0.19125001477278,0.0183551940257795,1
0.18772143830396,0.0186297108633565,1
0.158537338156553,0.015088791316827,1
0.166445545770473,0.0159472976672192,1
0.0990236018564736,0.0144047802266838,1
0.0303425781863366,0.00639907415781928,1
0.0283336590876002,0.00750001318677512,1
0.0277956034924826,0.0074801958509488,1
0.0236395522425575,0.00580720711446284,1
0.0367255013224074,0.0115447689281016,1
0.0622379361716306,0.0204643173476032,1
0.0681711370430556,0.0269975757680838,1
0.0676077770907693,0.044004299474181,1
0.0853314328017142,0.0351270945291743,1
0.161072717414165,0.0652342279604636,1
0.171442780805968,0.0358076453053141,1
0.144441752874899,0.0346226771131624,1
0.110820340441062,0.0263537145309858,1
0.0813663927929167,0.0203980440855988,1
0.0746820719987799,0.0182296765256645,1
0.0888976595864596,0.0111817680404975,1
0.150297995752724,0.0200869386220558,1
0.149900483770253,0.019804202230732,1
0.149386402208932,0.0151048954690327,1
0.305015561291246,0.0199310550256673,1
0.336681280886248,0.0198962303508113,1
0.458587364942605,0.019326576248803,1
0.409306204142033,0.01260350587347,1
0.391860642305809,0.00958807721161297,1
0.315593288226017,0.00616239900545215,1
0.286261727197842,0.00638495102706195,1
0.354717487467082,0.00617237680707472,1
0.400322590442303,0.0038833625432784,1
0.433893213963359,0.004596164092289,1
0.386261591405217,0.00414230098427982,1
0.42334532735638,0.00551247490712253,1
0.349799709140973,0.00410143809108458,1
0.339676755943776,0.00464873703234858,1
0.309677750711183,0.00479622003840143,1
0.308030254784166,0.00556176627071076,1
0.379274491072273,0.00669124499904228,1
0.299466342842502,0.00532881488798978,1
0.248915418894371,0.011478435040345,1
0.246865572873375,0.0167553373150238,1
0.235440627827078,0.0169522662605905,1
0.270473240979849,0.0229539333522707,1
0.271509867736136,0.0250309258863973,1
0.312492790579967,0.0261034629240478,1
0.492661139604466,0.0483945910603068,1
0.555159417506144,0.0355458885550853,1
0.474513841103959,0.0261131075380175,1
0.410817132315665,0.0248746926373919,1
0.618381037566659,0.0363895729746612,1
0.797004068515271,0.0348618574093884,1
0.828228475835358,0.0177633618817175,1
0.896116764459163,0.0220164590395129,1
0.98979996998546,0.0224576469950061,1
0.96825392985017,0.0204475464141364,1
0.802229251692042,0.0108768245074961,1
0.798782562445563,0.0133106964215678,1
0.78969568048262,0.0139269330280289,1
0.769623335990962,0.0137847345735997,1
0.625804685847833,0.0109653285885717,1
0.450155661884831,0.00719136304940507,1
0.467467522913377,0.011326707156154,1
0.474019988301687,0.00973129341911282,1
0.315476669753976,0.0057599034342246,1
0.305166245354624,0.0085374179407682,1
0.279321425897133,0.0167155192629825,1
0.116762370546536,0.00439073056765293,1
0.215415799935311,0.0161466781531917,1
0.229545814665809,0.00837709146783268,1
0.243990449801702,0.00744972851622166,1
0.247915167904548,0.00793583080137194,1
0.23223600668509,0.0106204857413579,1
0.167876074828697,0.00752551570563225,1
0.16596554838662,0.00733538366410803,1
0.153452049159317,0.00668303183615326,1
0.136483952366596,0.00522678905765276,1
0.135468331970401,0.00659112433431707,1
0.112486665899147,0.00481748955744908,1
0.123700415400694,0.0142736707168173,1
0.148296220880818,0.0442198042923823,1
0.161566782438113,0.0513633555248172,1
0.171643791063151,0.0390763109237485,1
0.174830824469724,0.0345469380306971,1
0.157594730227105,0.0213153997396392,1
0.119581886380319,0.0121421802804098,1
0.0944547210923406,0.00667532460839791,1
0.0785844025741251,0.0042608840645688,1
0.0748543469315847,0.00473833809510184,1
0.0749949413160201,0.00482154690062779,1
0.0776462988396752,0.00514666940300245,1
0.0716817546447562,0.00326587501334397,1
0.0962258734966917,0.00698817923463347,1
0.123275414089315,0.0112655345344545,1
0.123689924145905,0.0164010652649912,1
0.112422979847989,0.0220174707645985,1
0.111158062572037,0.0310321513543971,1
0.0882551653131416,0.0250266851178811,1
0.116555438415772,0.0300955919215141,1
0.140147723872754,0.032386204740494,1
0.119858879576796,0.0304895336896168,1
0.0758989591499346,0.0259055208895158,1
0.0831783093910911,0.0294981322151856,1
0.0934561216703584,0.0263902110491801,1
0.0805193221998262,0.0219567992947792,1
0.0684446364959604,0.0180243643864003,1
0.0490305416048026,0.0155379025191975,1
0.0246043327998592,0.0113413813959434,1
0.0245166968632013,0.0132203123066869,1
0.0230081934629327,0.0127187366203301,1
0.0197652554991753,0.0111422325541521,1
0.0223334073489221,0.0148028868031932,1
0.0219062847418934,0.0186619870297319,1
0.0214143187970035,0.0290191292647967,1
0.025295390854307,0.00572696428650138,1
0.0558805854740113,0.0115453411523092,1
0.0520927062262456,0.00937067654441156,1
0.0556418582733722,0.0103712879265639,1
0.0660060617511683,0.0126538533353272,1
0.0750896457759114,0.0143722403178422,1
0.0811262170909029,0.0157740324100531,1
0.0875338830285265,0.0169110657007673,1
0.0920348698443369,0.0176894175942095,1
0.0973324520712256,0.0178568224772817,1
0.0824751616915111,0.047907864151916,1
0.0122305064584899,0.0310853471064035,1
0.00404716296330131,0.0753627110694722,1
0.000958781861759674,0.0916385941296598,1
0.000897765159243747,0.146135595722617,1
0.000892409226971563,0.0710062757497737,1
0.0019902016239778,0.0688854297724637,1
0.0095514108866986,0.0833195051747739,1
0.0197283857424594,0.1084287226719,1
0.0238359687698755,0.124606201299707,1
0.0386262907202608,0.0326547987874899,1
0.0845872094011669,0.0466665478954987,1
0.0949166002745283,0.0523102789726103,1
0.091995948099198,0.0506410122211055,1
0.0997326890379291,0.0420280109932414,1
0.0937404899169902,0.0224472623507319,1
0.0740918093231215,0.0133188201165179,1
0.107725025121604,0.0193272084018718,1
0.192284559740347,0.0240462344600661,1
0.287765158110065,0.0232759961418784,1
0.256153076244355,0.0158965280476838,1
0.256919217153881,0.0129337677928605,1
0.278894321029444,0.0132746209141757,1
0.246206843178554,0.010821157733617,1
0.229858365276368,0.0103533704923295,1
0.211774189449879,0.0110409783364095,1
0.189384685104357,0.00926846096410232,1
0.224598388953775,0.00790080530540065,1
0.200001938516932,0.0103037923269832,1
0.121536323231166,0.00690036645177478,1
0.1125211226105,0.00937029713165845,1
0.124472427964125,0.0140754568065343,1
0.09158364390066,0.0125401825164048,1
0.0912356005413253,0.012604275005186,1
0.0911450094640266,0.0116775827387664,1
0.0932583548723953,0.0113236366316947,1
0.103933790348998,0.0112293855436488,1
0.106373340991266,0.0143463026296665,1
0.091574778014563,0.0100562444809408,1
0.0832313607822817,0.00741195537229223,1
0.0765679656226903,0.00621885836683589,1
0.0849477390578133,0.00685810325116514,1
0.0900067406853566,0.00679433187076088,1
0.0754881037691757,0.00521766888149481,1
0.0785125736070252,0.00518071931881061,1
0.0704777448938592,0.00269362744074843,1
0.0778451029136076,0.00774695493175988,1
0.0675014349888713,0.00917607056107067,1
0.1030761790534,0.014489447497473,1
0.135523515103071,0.0197699017347658,1
0.155669238691961,0.0229746342131288,1
0.153615961170955,0.0317662028256721,1
0.128234051639723,0.0272101305439955,1
0.120540262162254,0.0262723968199306,1
0.0773970576000245,0.0162661456881954,1
0.0664049928985477,0.0212080134925953,1
0.0701384784864921,0.0212806081570953,1
0.0667390640208789,0.0242991888019342,1
0.0620106263705133,0.0329106037378826,1
0.0625569379112363,0.0346940011657713,1
0.0606142438091878,0.0247111068665742,1
0.0485704343553562,0.0185077436423929,1
0.0626827158194033,0.0206971718734234,1
0.0871331313069581,0.0251215360763382,1
0.0929663745159269,0.041312861898095,1
0.0863713794307011,0.0378086592019319,1
0.105163101940312,0.0475493653019076,1
0.11698991309251,0.0489338628139557,1
0.11895295544568,0.0527174206623535,1
0.0835163954219903,0.0467054971825642,1
0.0351803685057101,0.0337712140130316,1
0.0183472297508213,0.022473781503492,1
0.0155766362443918,0.0313255570506106,1
0.0152364519658799,0.0386544672116222,1
0.00456964377901847,0.0224941883305726,1
0.000531893017082296,0.0592691141850148,1
0.000551120135059678,0.0559714466807427,1
0.000608172343009938,0.0590840928575692,1
0.000614886097561315,0.0510894596217236,1
0.00101541039831638,0.0552200746737056,1
0.00113410642632755,0.0493619816399064,1
0.00366726628205316,0.0662927926262223,1
0.00602429095333919,0.0901313579159713,1
0.00594247661764668,0.0633396921404133,1
0.00549946227381319,0.0511216420221972,1
0.0100435574357541,0.0359040399722248,1
0.0176295680443306,0.0505246141449533,1
0.017850546458149,0.0461900248366591,1
0.0150401992565673,0.0359564360783963,1
0.0144340007516381,0.0339141554933678,1
0.0113068167883611,0.028523577665253,1
0.0145600741722312,0.0254714605698999,1
0.0212976687493521,0.0214285659062287,1
0.020412510373882,0.0146440268332064,1
0.0156938188191477,0.00716769448856648,1
0.0254658401171734,0.0124385504955267,1
0.0359539754998597,0.0131940087332847,1
0.0738166321137451,0.0183844603075448,1
0.0687566188584756,0.0139387803681899,1
0.0860251272514978,0.0121235651429139,1
0.100010771265691,0.013630333023026,1
0.103388662900038,0.014316145897423,1
0.10157299119668,0.0148432486375547,1
0.0774178116588797,0.0119713756066339,1
0.0543040445869557,0.00565937041061879,1
0.0551859911652024,0.00625641781973831,1
0.062456253872493,0.00820260380428069,1
0.0629533872181359,0.0103348805654666,1
0.0650394237372667,0.0126062271948101,1
0.0731182498759396,0.0261417919373326,1
0.0757477286454164,0.0269027606092381,1
0.0651129575447125,0.0197559142114039,1
0.0639817598543072,0.0182412826966254,1
0.0456081494155234,0.0158623138793747,1
0.0440634830368907,0.0227446730380616,1
0.0377738895315646,0.0242689518767945,1
0.031464581679408,0.0258948635028674,1
0.0258674144887065,0.0223307658832068,1
0.0222496546983138,0.0202357337111845,1
0.0219770697449069,0.020867610837131,1
0.0222103978645035,0.0202411054184384,1
0.0139423582920846,0.0264188855668942,1
0.00510107689458955,0.0349888100513059,1
0.00500128282719005,0.0426688772206653,1
0.00479228345851651,0.0349301014082992,1
0.00422864841197689,0.0266936261556562,1
0.0042801845489072,0.0315254253177182,1
0.00426608832275001,0.0327157873240451,1
0.00736373136027906,0.0184210512239635,1
0.0119683305135149,0.0183121222738128,1
0.0112552826914204,0.0176884044336889,1
0.0111812840650039,0.0184126086870328,1
0.0112422363398188,0.0188433886138364,1
0.0114892550706125,0.0207638207607732,1
0.0112694024318581,0.0215878009004079,1
0.0113881176729463,0.0220260674893716,1
0.0113283930067973,0.022165675323866,1
0.0130981443583682,0.0243478273184358,1
0.0132536789302725,0.069366055014182,1
0.00695125534430749,0.113036356672176,1
0.00658037417224174,0.119642032807053,1
0.00592191055509569,0.113578506026848,1
0.00588990414930492,0.131499991375125,1
0.00592264122137857,0.158043529096061,1
0.00368655859710304,0.206813253474651,1
0.00158486177954123,0.265728605911716,1
0.000410495177852334,0.134319562232219,1
3.04891129203026e-05,0.673799205380691,0
8.67155739358577e-06,0.53449502546773,0
4.78809046753483e-06,0.607108800197976,0
4.66553194460739e-06,0.551977486796859,0
4.21479064337135e-06,0.507487741283812,0
4.44417902674709e-06,0.497351021503442,0
3.34281021063937e-06,0.426439079129399,0
3.03017866693097e-06,0.408476722084895,0
2.78841447346327e-06,0.381936602807247,0
1.3957771889551e-06,0.271898751925949,0
9.43146599798964e-07,0.234387381223356,0
9.04557329330814e-07,0.235298639190834,0
8.63660289443786e-07,0.224190292730585,0
9.29276705575607e-07,0.241920399762249,0
1.06033262724273e-06,0.274421894830404,0
1.21544407934901e-06,0.306074431871088,0
1.11227882017534e-06,0.305829145677537,0
1.09646635793994e-06,0.324933570565697,0
7.35861350483865e-07,0.291620964104797,0
4.91852840910653e-07,0.261714296668821,0
5.16641015720756e-07,0.261985728959374,0
6.13410249877695e-07,0.287290788921249,0
2.42332514448322e-07,0.188596152137662,0
2.37676800007256e-07,0.189227957890231,0
2.44504928293845e-07,0.183837076740571,0
3.00261251295861e-07,0.202764524620748,0
3.44568217066619e-07,0.216240856289129,0
3.17032237903609e-07,0.203836593650573,0
3.92814116235832e-07,0.214346547809527,0
3.8376150100416e-07,0.207994088289213,0
3.77285124780819e-07,0.209440165731338,0
3.27633769205949e-07,0.200321408684371,0
3.13776634616258e-07,0.205302773864047,0
2.63234863524421e-07,0.184372684075794,0
4.01263062853076e-07,0.221229204665954,0
3.67684362583917e-07,0.210576003463869,0
2.35300921732991e-07,0.175220713838795,0
2.49941394373337e-07,0.192381958683009,0
1.90235792323947e-07,0.187449866333567,0
1.94294217967418e-07,0.188949284276491,0
2.16169747751837e-07,0.19557300146112,0
2.6478050347293e-07,0.212233849907016,0
2.56384492092655e-07,0.219826199436288,0
2.450327288162e-07,0.227974312525593,0
7.28618189248138e-08,0.165459948658807,0
2.40372531260605e-08,0.136988231224013,0
6.91089347794195e-08,0.166656264881041,0
1.12671186255486e-07,0.190745913955267,0
1.42086624972127e-07,0.194391698913208,0
9.27621401748555e-07,0.318868038643141,0
1.81308738784656e-06,0.389428439357441,0
1.6819197331711e-06,0.360556146854494,0
1.61637659871912e-06,0.348863515310481,0
1.556902911633e-06,0.344743499773823,0
1.55104037724553e-06,0.339378600506508,0
1.57070004145896e-06,0.330335322544597,0
1.64346150758926e-06,0.334575057632698,0
1.75645530566354e-06,0.349119677047403,0
1.57150148439523e-06,0.328558419229411,0
1.13425418547182e-06,0.327049946067806,0
2.95560015999551e-07,0.187945812699923,0
2.95939356459918e-07,0.199970833094866,0
2.97104966238133e-07,0.20507293711403,0
2.76874567059328e-07,0.192764894627386,0
1.59244538849448e-07,0.147086814744665,0
1.42177666682615e-07,0.147456274538865,0
1.440652303279e-07,0.151410294357379,0
1.4168021339709e-07,0.150615725683835,0
8.08912494783897e-07,0.290756508953016,0
1.38087531625207e-06,0.342880291647738,0
1.41141412001384e-06,0.338667258036085,0
1.50318088806344e-06,0.339261838987528,0
1.48783967013631e-06,0.328929426468669,0
1.30426578600632e-06,0.312219236870303,0
1.3942908640604e-06,0.318301386192502,0
1.4254829955514e-06,0.307547485799681,0
1.48392763542504e-06,0.299281700665194,0
1.58668044806181e-06,0.308426386447121,0
1.05947462809237e-06,0.283182809510526,0
3.82920054892075e-07,0.194830244390169,0
3.57807199133396e-07,0.199821236963545,0
2.87484892163249e-07,0.185464006578833,0
2.28500381843519e-07,0.167650063859439,0
1.49307887917641e-07,0.140244109655852,0
2.20638205947468e-07,0.16821195719822,0
2.04939028567736e-07,0.161696561034481,0
3.30422266444604e-07,0.198914078748319,0
3.33529409669966e-07,0.19559536800348,0
3.43276390371589e-07,0.202016986888,0
3.50316087178575e-07,0.199796143761381,0
3.69021882561671e-07,0.197717707185928,0
3.4103397096838e-07,0.195846168888209,0
3.34984697617915e-07,0.200927576400994,0
3.39184168941649e-07,0.204075244486828,0
2.76993886876862e-07,0.196819832900261,0
2.57984619125472e-07,0.217800822357866,0
6.58659186982538e-08,0.148556948952752,0
7.91347307194126e-08,0.159864041789205,0
1.01653070156671e-07,0.163143948527733,0
1.41096891225536e-07,0.170857559586806,0
3.88217889276051e-07,0.244445769866492,0
3.97183256201839e-07,0.23491798887147,0
4.84649682850747e-07,0.238151837261836,0
5.14454635249191e-07,0.236053864130686,0
5.75100829212808e-07,0.233672283197904,0
7.53333082378398e-07,0.25366173222836,0
7.38166361063035e-07,0.249012359606505,0
6.33139402366371e-07,0.231909273086627,0
4.91688172665357e-07,0.204310389410807,0
5.60309482525723e-07,0.222496993611445,0
4.91210893395224e-07,0.210137198595128,0
4.77404280057755e-07,0.215113144245141,0
4.29928097168121e-07,0.220970112362358,0
4.0816205883476e-07,0.224844076295136,0
3.36444813535362e-07,0.219411464975278,0
6.38224806092543e-08,0.130003651856079,0
1.0466348156464e-07,0.150753044983152,0
1.0154961366748e-07,0.148340121049934,0
1.59739578150226e-07,0.168092150576159,0
2.06420008210502e-07,0.183462487943701,0
2.01109931475304e-07,0.186291203962744,0
2.31295086471525e-07,0.187268624647134,0
3.0237590193492e-07,0.204029823629922,0
3.22197992836385e-07,0.20502036770836,0
2.61205564488944e-07,0.196568079584677,0
2.85305581218447e-07,0.19926601118287,0
3.56517958850596e-07,0.221441172632352,0
3.66598931584824e-07,0.21919417630703,0
4.8218328014844e-07,0.249907293676595,0
5.27697065865607e-07,0.244836957861915,0
6.28845785637472e-07,0.260276486432039,0
6.00912533555971e-07,0.271116005451558,0
5.7484305012724e-07,0.259882496039663,0
6.15130214010492e-07,0.263989662074729,0
6.12738299980402e-07,0.263683073314846,0
5.91192623969018e-07,0.269727985199229,0
3.96090238393539e-07,0.221992721946603,0
4.28144334866989e-07,0.223065448377553,0
4.80272093938121e-07,0.231309940377122,0
4.72589242623336e-07,0.242638701885953,0
3.08376205880501e-07,0.20361596876087,0
2.81399064186604e-07,0.193657707054711,0
2.70196623109548e-07,0.194810124880707,0
3.08159809390611e-07,0.200079081354442,0
3.11755784527399e-07,0.19384042583222,0
3.41805066667816e-07,0.195887013676123,0
3.84434140611381e-07,0.201431708816751,0
3.83722877248195e-07,0.204599913805477,0
2.28181046146883e-07,0.162263946031796,0
2.13208650603716e-07,0.159457858656514,0
2.0663450799809e-07,0.161499269742294,0
1.95350163867091e-07,0.15563214704446,0
2.01596176974501e-07,0.159074576372381,0
2.41115176425511e-07,0.172916215706978,0
4.79549277933643e-07,0.23560514974435,0
5.02909063482986e-07,0.244425251702362,0
4.81023015622165e-07,0.234694307979821,0
3.7829572225273e-07,0.21534347117377,0
4.15405392497969e-07,0.233075271935023,0
4.41779900142331e-07,0.237031487441984,0
4.3027553854432e-07,0.219850605156418,0
5.42229254047268e-07,0.253153441934234,0
5.83656853296364e-07,0.261630107918504,0
6.41602143182174e-07,0.279147602671654,0
6.16939495578957e-07,0.271986311782527,0
5.85838233370952e-07,0.25681406556523,0
5.83922219191139e-07,0.261685132612699,0
5.64354631253083e-07,0.268002355193502,0
4.40159081811676e-07,0.237751892196486,0
1.78796435886644e-07,0.171722308991042,0
1.60087191953907e-07,0.176176973855018,0
1.5356943313489e-07,0.173438554517337,0
1.54562615431121e-07,0.17021249581265,0
1.52596942136497e-07,0.171995476368695,0
5.33561324527906e-08,0.130779256706474,0
1.7399398565841e-07,0.187080453258796,0
2.4914753824628e-07,0.202812535093016,0
2.17580204554471e-07,0.183426727884861,0
3.58489149824644e-07,0.214670765463866,0
4.02056918980133e-07,0.220977811643071,0
4.50025554758316e-07,0.232445112391648,0
5.06005688631947e-07,0.245028024060886,0
5.48829778057636e-07,0.240488660697875,0
6.08671770245278e-07,0.242754332834782,0
5.61526820548535e-07,0.235840603396576,0
5.42248565925249e-07,0.241597230693674,0
5.66058732057535e-07,0.263551240291874,0
5.59167150457576e-07,0.27643245842,0
3.66445815980821e-07,0.241871436862286,0
4.99323261567635e-07,0.28070751913106,0
5.36666053768517e-07,0.286070972752895,0
5.21747800454694e-07,0.280560505640313,0
3.85836148467397e-07,0.274125313153767,0
2.04470025816738e-07,0.230037429920286,0
1.3098143299491e-07,0.189368682160461,0
1.22816646867976e-07,0.183588697102507,0
1.45272222701792e-07,0.196095994009301,0
1.84486542792135e-07,0.209605984446747,0
1.95673465395812e-07,0.21240504718026,0
1.07683031629154e-07,0.177897248466606,0
1.02054998617177e-07,0.178174840024284,0
1.19240673319098e-07,0.168873259072604,0
1.28720563851128e-07,0.17305578438534,0
1.24753352345627e-07,0.176828162872788,0
1.11491609851229e-07,0.182942223029283,0
1.05270426301226e-07,0.179742810535744,0
1.18886162416138e-07,0.18667888335665,0
9.56739747913737e-08,0.167107082986948,0
1.33252820215093e-07,0.191940904269757,0
1.22564213034351e-07,0.185086835975085,0
8.8548581525843e-08,0.160966228799735,0
8.31681543779961e-08,0.176278851491438,0
8.85449605487215e-08,0.177609358890859,0
1.24780940742745e-07,0.183222416687337,0
1.85799578067448e-07,0.217902536429297,0
2.30046711501956e-07,0.245809460593237,0
1.82992458660738e-07,0.220895734898913,0
1.83280929838099e-07,0.229707912917073,0
1.80606924447482e-07,0.215893589598983,0
1.9885578700332e-07,0.210376668024781,0
2.18415960559651e-07,0.232328702974443,0
1.70508708965055e-07,0.207775651547227,0
1.56187572021344e-07,0.187992265245182,0
2.97727084593134e-07,0.237954147848564,0
3.38218575042536e-07,0.231719091102323,0
3.18067492505444e-07,0.22426057433158,0
3.19325523414004e-07,0.224635604186649,0
2.99005979227014e-07,0.213276618618014,0
2.91835582388685e-07,0.216572806575168,0
2.79701688053948e-07,0.224792063010213,0
2.16201991690969e-07,0.198915236195772,0
2.32456557990172e-07,0.20049113486688,0
2.19843660110483e-07,0.201095881425899,0
2.01752568700661e-07,0.197174470125509,0
2.0534595742522e-07,0.195678198599915,0
1.78633491916168e-07,0.18076206434066,0
1.53795140708808e-07,0.171227025243452,0
1.29231811335213e-07,0.163394699265283,0
1.75191839375757e-07,0.174679985951743,0
1.97655691728707e-07,0.178195987219521,0
2.1819611552012e-07,0.187688630477444,0
1.33192815451362e-07,0.156692622860386,0
1.82545009344989e-07,0.173226633282949,0
1.73351693288017e-07,0.164730013931878,0
1.45043411433198e-07,0.160119514277089,0
1.65234669573593e-07,0.168787405508262,0
2.52362276220401e-07,0.190478910546,0
2.38405306118641e-07,0.182976341770407,0
2.24935098798524e-07,0.18875078284097,0
1.96262477674272e-07,0.187134950488125,0
1.95195668843233e-07,0.184327062397594,0
2.00849910832471e-07,0.194071735383955,0
1.47467741829901e-07,0.175939652628547,0
1.12621354713192e-07,0.16583290518119,0
1.32362404698125e-07,0.180316299966075,0
1.24685760772689e-07,0.179798898020485,0
1.51036300997055e-07,0.195180359587312,0
1.87797840156167e-07,0.20916465854778,0
1.94242489722822e-07,0.210119729525002,0
2.46078329066955e-07,0.222974421741431,0
2.52612640924242e-07,0.221834904855553,0
2.39527981453842e-07,0.213916319808443,0
2.57230076464308e-07,0.204014962756013,0
4.4686599357843e-07,0.247807149868943,0
4.73201705039345e-07,0.232957736493056,0
4.89700945935485e-07,0.24394086363811,0
3.79343219205787e-07,0.222610258142029,0
4.49911580192723e-07,0.235427844536132,0
5.7866938837996e-07,0.2434531981077,0
5.61737009649074e-07,0.238037414687235,0
5.46154565674646e-07,0.237026774034576,0
5.95447272086988e-07,0.234445350151983,0
8.48775142206504e-07,0.274937445488994,0
5.81669626566492e-07,0.233766301748809,0
4.85524235039373e-07,0.222556150405898,0
4.98224381224946e-07,0.22330698601725,0
5.08663830694221e-07,0.220484991235615,0
4.52551789796873e-07,0.219964606473389,0
3.7435127117485e-07,0.210830350205717,0
4.09844951058931e-07,0.222938803858516,0
5.14564988837662e-07,0.249542296742523,0
4.70736854184374e-07,0.257179901531375,0
1.41625036602854e-07,0.16334197376767,0
1.86780345584976e-07,0.17388356896592,0
3.03713766767638e-07,0.206862357310932,0
3.13721630249505e-07,0.204993892098489,0
3.4590194363977e-07,0.216601223397941,0
3.98124882680956e-07,0.230294831588187,0
3.99740700614634e-07,0.225394746037471,0
3.91090531125914e-07,0.216037887459898,0
4.13533692181027e-07,0.200689448154508,0
9.57440148345558e-07,0.274096654026953,0
9.52858577721746e-07,0.267556618130661,0
9.31292037985042e-07,0.282328691825808,0
9.55151863232139e-07,0.272125009997199,0
1.17740657682321e-06,0.288863551298434,0
1.10712927342587e-06,0.275354864845402,0
9.23942488992931e-07,0.24544477440115,0
9.75622281465868e-07,0.260226038049559,0
1.0206425797296e-06,0.269359178519693,0
9.54170923287131e-07,0.285112470630441,0
5.65340054312624e-07,0.241156207613193,0
5.52051585558518e-07,0.238239354117014,0
5.49402237297826e-07,0.222860000671285,0
4.46934792143741e-07,0.217112746993808,0
1.971303051911e-07,0.160902122717358,0
1.50218822304966e-07,0.157509003207931,0
7.37122312659616e-08,0.136344695226409,0
5.33416485443037e-08,0.12808014380103,0
6.75943317776669e-08,0.139271542000088,0
8.54717855373102e-08,0.148198368214106,0
4.46485446125687e-08,0.130979530757329,0
4.3008931686378e-08,0.136577856541849,0
4.02854396084314e-08,0.143846774971438,0
5.26855619753524e-08,0.170603589438009,0
4.74908392256028e-08,0.166999457869799,0
5.64812081362788e-08,0.152816906136994,0
1.0861500216928e-07,0.172093819400143,0
1.44831670485321e-07,0.175007128677705,0
1.84058922636813e-07,0.185228239520621,0
2.71024275023074e-07,0.203718302810773,0
3.29199410742369e-07,0.208073880687456,0
3.2583276415662e-07,0.218193511955092,0
2.92168195001433e-07,0.21105551952305,0
2.49804659380124e-07,0.195429218773247,0
2.52060010844482e-07,0.206423742716509,0
2.59571814097141e-07,0.211704780702888,0
2.15045520569299e-07,0.202074869640545,0
1.8521763531575e-07,0.194155227871832,0
1.28658489957614e-07,0.158834347518029,0
2.06434492118988e-07,0.203592339057689,0
2.16692547877215e-07,0.219242780054718,0
2.43578130578178e-07,0.203732818638078,0
3.65601438601544e-07,0.232101764450987,0
3.68539085612114e-07,0.218475404392098,0
3.69683141955082e-07,0.212968794215063,0
3.36688281139923e-07,0.211385306814415,0
3.11921314910105e-07,0.204457578691081,0
3.37396613235916e-07,0.207971916111345,0
3.80509001411484e-07,0.220404653960815,0
3.70429408097112e-07,0.217755402807747,0
3.61021764680033e-07,0.208730499415316,0
4.44520807395958e-07,0.226409729425193,0
3.15221749342771e-07,0.188183403655049,0
4.99198251643196e-07,0.236392644498374,0
5.4962156505491e-07,0.244590628111318,0
5.55391678312042e-07,0.238869032075481,0
5.45095860935261e-07,0.236814762204053,0
5.3638137599576e-07,0.241786495290835,0
4.36403783681534e-07,0.232591978832467,0
2.95026180515327e-07,0.193390999865603,0
2.2318409771897e-07,0.178358491048877,0
2.82015492434699e-07,0.208141028603033,0
2.85635952273929e-07,0.217258131463439,0
1.45193768197489e-07,0.170448201758778,0
1.00020354329759e-07,0.153964582784329,0
1.06862276814907e-07,0.163145333808863,0
1.20381970822354e-07,0.174795160194399,0
1.14878085597406e-07,0.175086391822353,0
1.50322278794156e-07,0.188311613966867,0
1.60148058855048e-07,0.186553235002942,0
1.5018709564828e-07,0.185284505070403,0
1.11156583253733e-07,0.17328638274891,0
1.156160752203e-07,0.188784617810324,0
1.2404295111985e-07,0.19665448081366,0
1.12753779019356e-07,0.183585020474171,0
1.23443765619955e-07,0.185729312449614,0
1.17766590775612e-07,0.166888640299643,0
1.50433494520037e-07,0.174575821876579,0
6.8088164086071e-08,0.141607541334811,0
5.371754045503e-08,0.150956081228566,0
5.69881449333132e-08,0.152844883839568,0
5.34933847284497e-08,0.141705071663666,0
5.78088997475598e-08,0.136134757901875,0
6.22816686302401e-08,0.142996639902425,0
9.09453235254287e-08,0.163192403230117,0
8.71864044181646e-08,0.16142738877983,0
8.83789128835703e-08,0.174096811183894,0
1.13966289072672e-07,0.195592534591042,0
1.2528529112755e-07,0.183156279467823,0
1.31250419866806e-07,0.174264497670222,0
1.30276032166111e-07,0.173746597885872,0
1.39866276286611e-07,0.183985309315657,0
2.33342662820092e-07,0.218320398811758,0
2.42394588341837e-07,0.200585801973325,0
2.33209031521553e-07,0.188908114026882,0
2.18693223950682e-07,0.187629645408182,0
2.44923064937658e-07,0.193841612987039,0
2.02156738718433e-07,0.17757899343741,0
2.03851528438859e-07,0.184901671197399,0
2.43397254149577e-07,0.195845542109118,0
2.87777501600177e-07,0.199876512088427,0
3.00871644582086e-07,0.194915512001947,0
2.42664954633588e-07,0.180239486461741,0
2.69709687900423e-07,0.201781029180023,0
2.87097275183749e-07,0.212027005998297,0
2.79213890707413e-07,0.218078510747773,0
3.05432006625614e-07,0.212496754872977,0
7.58722303327826e-07,0.304006719196724,0
8.33955344984892e-07,0.306215798672099,0
7.86541235988772e-07,0.289861763399344,0
8.92901231548658e-07,0.299012066605779,0
9.08900605174525e-07,0.292277244620186,0
7.94686710237723e-07,0.27827152982414,0
6.61352676678616e-07,0.255419367073478,0
4.98628551242718e-07,0.223294443022271,0
4.44014560308851e-07,0.204869803170759,0
4.34308962202903e-07,0.202175027836472,0
3.0380342905827e-07,0.178237535589081,0
3.35316275665772e-07,0.18884078027089,0
3.22394042883402e-07,0.188197451967729,0
2.83466814550563e-07,0.188256255005554,0
4.09887713074463e-07,0.230536878820882,0
3.99810533744838e-07,0.222910895834997,0
4.24206091178462e-07,0.218423889118156,0
4.41934395166189e-07,0.219317902334086,0
4.33804266963134e-07,0.218706751042218,0
4.41350900567153e-07,0.235293201554518,0
4.65092095706645e-07,0.249079040802179,0
4.45025157780762e-07,0.250061970198524,0
4.28407286777017e-07,0.262346460733353,0
3.69339666410969e-07,0.250297569896503,0
1.58151348613666e-07,0.170568219830638,0
1.37381941126178e-07,0.1623172343758,0
1.47970367939887e-07,0.165494200036812,0
6.84385367294635e-08,0.129330395555469,0
1.15580210304048e-07,0.143079747088958,0
1.44445950208122e-07,0.1485871944014,0
1.5676848020815e-07,0.142629154016485,0
1.85948555411882e-07,0.152700571441808,0
1.83775969138876e-07,0.152021527232385,0
1.65774540019686e-07,0.146264123609127,0
1.53859111304624e-07,0.151621168224006,0
1.8035914615587e-07,0.1660978271623,0
1.61157621762067e-07,0.163249192541397,0
1.66156639319765e-07,0.165066600412913,0
1.93193268494946e-07,0.18353033128947,0
1.84524994120618e-07,0.18809281359776,0
1.33643713316752e-07,0.171305456063763,0
1.42331471996545e-07,0.179017023018401,0
1.79550806120326e-07,0.1945470729904,0
1.97237210229931e-07,0.201399140315844,0
2.00989232237916e-07,0.206004126495445,0
1.87555751971461e-07,0.19762414367534,0
1.95869343015348e-07,0.200869796207753,0
2.27146481254976e-07,0.228129478854788,0
1.31526303837981e-07,0.193600527505908,0
4.11053322852676e-08,0.140503999284963,0
1.67214999204185e-08,0.131756985164217,0
4.6402304531834e-08,0.142308252105915,0
4.14931216922515e-08,0.138149895343245,0
4.70583911007856e-08,0.144037161564784,0
4.86590354160484e-08,0.139953513183995,0
5.86662091879873e-08,0.137646694674961,0
6.51803470298828e-08,0.146933550867566,0
5.3369236941421e-08,0.135903590673179,0
1.72344716793228e-08,0.114279457518541,0
1.91292772788512e-08,0.117331978750707,0
4.53139422655475e-08,0.128371534088571,0
5.21144821550194e-08,0.133035958724045,0
4.58298452916453e-08,0.131589333432623,0
4.75970545545053e-08,0.13056283653852,0
6.15276432515216e-08,0.142584654383387,0
3.96610796961648e-08,0.139427642733139,0
3.54574701128632e-08,0.135517936879525,0
1.74008641994381e-08,0.127025406370288,0
1.94051612500267e-08,0.125004566314252,0
3.65347970203026e-08,0.134977386985304,0
1.27639443539086e-08,0.119362687370174,0
2.26254169035706e-08,0.130776562173146,0
2.83608722368237e-08,0.134622058609228,0
3.16882053566802e-08,0.136936550635191,0
3.1802697204718e-08,0.136929033135315,0
3.57062829693666e-08,0.130948039820483,0
2.370533022324e-08,0.12673142649311,0
3.26632827673028e-08,0.127993122232372,0
3.49312214378459e-08,0.125224472746655,0
5.08759355519241e-08,0.131360722198807,0
4.95956614981886e-08,0.131676831771537,0
4.51927257457124e-08,0.12205521646193,0
4.03742397616532e-08,0.116006927729538,0
5.79039072901333e-08,0.126709588751445,0
6.50094713952362e-08,0.126019286924878,0
5.83756688808435e-08,0.126947405325663,0
5.04427977171787e-08,0.119811627976408,0
1.77163202777286e-07,0.171307750485052,0
2.19132051892333e-07,0.190512796942895,0
3.1273948331212e-07,0.222944160592272,0
2.51087519846089e-07,0.192369522971332,0
2.4602229013531e-07,0.194343649495963,0
4.1230807763908e-07,0.232134999757009,0
4.46653562920625e-07,0.241927897439968,0
4.80696093116322e-07,0.24018266328032,0
5.29757919130286e-07,0.233860200033197,0
6.44311841061562e-07,0.253742771212205,0
5.49677603986555e-07,0.237195951264615,0
5.32113968244124e-07,0.23171251135212,0
4.22739940299148e-07,0.213913227286919,0
4.11956842858278e-07,0.21262922953602,0
4.6564334636655e-07,0.228344484979814,0
7.5433850702585e-07,0.278212152716875,0
7.78192297311078e-07,0.261420373501842,0
7.26633721357978e-07,0.263999676432666,0
6.33579954582841e-07,0.265266214736971,0
5.5252524385153e-07,0.257768257130653,0
5.65431096023113e-07,0.26332567171241,0
4.92994483268873e-07,0.247840507692629,0
3.50398852369926e-07,0.204872294690389,0
4.57165949214779e-07,0.242341098165781,0
4.99988831648095e-07,0.241232230287817,0
2.06570882257238e-07,0.17724199449187,0
1.97718627759632e-07,0.195938257901212,0
2.30266728968969e-07,0.210653405297944,0
2.68459416228554e-07,0.227365376705285,0
2.77137863824318e-07,0.223632741792403,0
2.79874115535933e-07,0.227821337354872,0
3.10988827087533e-07,0.238529261146032,0
3.11154357470237e-07,0.235302493995171,0
2.31694256092319e-07,0.19700944006325,0
2.07155238993684e-07,0.191042778585741,0
2.11518861280268e-07,0.195193752604481,0
2.04423125541638e-07,0.198168027873165,0
1.91924202227539e-07,0.185878536218744,0
1.65071208320671e-07,0.172064919698822,0
1.84178759736793e-07,0.182669747832932,0
2.34768982951068e-07,0.188733813794102,0
2.17889194602187e-07,0.178777986966855,0
1.88730845261186e-07,0.179594362799157,0
1.88677047886806e-07,0.184279017877426,0
1.67457604671338e-07,0.185567121966845,0
1.46963391445097e-07,0.178199566066056,0
2.30418292725634e-07,0.191807338322184,0
3.74872002170445e-07,0.24475111827025,0
4.63519039788501e-07,0.248741330089595,0
4.32361393793887e-07,0.231860568931369,0
4.42497198467386e-07,0.246551192690865,0
4.27054593180848e-07,0.245413167516799,0
5.27079085770174e-07,0.260988284103641,0
5.71453125831424e-07,0.264705877439848,0
5.74324215833949e-07,0.26522693605148,0
5.78863369297194e-07,0.257965743188213,0
4.98973406206687e-07,0.254774678947229,0
3.77756886371528e-07,0.215208928956937,0
1.68774778206218e-07,0.15257447402069,0
1.75267707467829e-07,0.157236550979609,0
1.79859968595525e-07,0.16053595989326,0
1.67199480730807e-07,0.155314236787097,0
1.28713149469403e-07,0.149553105440034,0
6.58245361025772e-08,0.131523245640615,0
5.63384381811956e-08,0.131376499503165,0
4.84024633228558e-08,0.133051693847556,0
5.58347775063188e-08,0.13203955586228,0
5.74661139133748e-08,0.140346650449473,0
5.08428294753832e-08,0.142537656331259,0
5.99344133179839e-08,0.15180041537381,0
7.79648102541476e-08,0.171556126853387,0
8.67546460032753e-08,0.166829892761343,0
9.20833449065269e-08,0.158617973602322,0
1.49980355097381e-07,0.17991454977594,0
2.0733387386502e-07,0.196448309118063,0
2.21817782351725e-07,0.18999781955448,0
5.47439495270396e-07,0.26300714761315,0
6.06940770753634e-07,0.253920775512257,0
5.95017065519436e-07,0.253659765318789,0
6.2105206345177e-07,0.258766282044327,0
5.99654502647411e-07,0.247553335363757,0
5.86450178504515e-07,0.254443531864292,0
5.80637820514296e-07,0.261089943778062,0
5.60154815074384e-07,0.251546841230045,0
5.30220886919415e-07,0.247748609311692,0
5.24979781177012e-07,0.260452563616459,0
2.05581320938128e-07,0.183617608023607,0
1.06331200170395e-07,0.160363878708063,0
1.54115683397817e-07,0.176067263905482,0
1.38908441624187e-07,0.169829685805521,0
1.33359725253923e-07,0.172446773697745,0
1.31574583532937e-07,0.171670520773995,0
1.31647865212781e-07,0.162291735048584,0
1.1217114655773e-07,0.158427020992276,0
9.83940183196808e-08,0.14990031549462,0
1.0991993335294e-07,0.157276862148192,0
1.23757583637166e-07,0.162333455991364,0
3.48716822283168e-07,0.223240964766427,0
5.06307781580384e-07,0.242933981053101,0
5.29137180195142e-07,0.247556832193199,0
5.40356001882987e-07,0.24749337657906,0
5.5125497059175e-07,0.249697134128542,0
6.36005147116954e-07,0.265688118295964,0
7.63856504031398e-07,0.280010385429545,0
7.27140485727531e-07,0.27100431682395,0
6.41533172189379e-07,0.248801979859456,0
5.63538704408331e-07,0.238321794970072,0
4.95628313056187e-07,0.241218602752944,0
4.08391904668247e-07,0.227602690129706,0
3.30562794842421e-07,0.211957755246598,0
3.60445167180276e-07,0.225253388172341,0
3.74782339879812e-07,0.22143553609977,0
3.67066382488485e-07,0.222570405183842,0
5.20304237575518e-07,0.239544206957595,0
8.72896367516289e-07,0.282100435037518,0
8.73715053200751e-07,0.276475939979975,0
8.55755006677237e-07,0.276020469909836,0
8.13766673256727e-07,0.266303431092586,0
9.17059873622035e-07,0.297741662848975,0
9.49307261302791e-07,0.313477890253536,0
1.06002225777516e-06,0.317713251812581,0
1.07473911579003e-06,0.315786597229163,0
9.89188358465968e-07,0.308469246425416,0
6.82953529484235e-07,0.288975267647327,0
6.38467239132213e-07,0.28083934813662,0
9.14645026736842e-07,0.329099678536765,0
7.10352342585324e-06,0.454314383386756,0
1.55672358705174e-05,0.45493305066696,0
1.48834238246004e-05,0.420388526633702,0
1.42349571709329e-05,0.415130071195313,0
1.32004688368274e-05,0.40170308888059,0
1.28915677616917e-05,0.395209032822042,0
1.28977682539439e-05,0.394794655979357,0
1.30119502497966e-05,0.395514552015726,0
1.37691526048707e-05,0.404128770184661,0
1.42628800773655e-05,0.415187715374155,0
9.90426215359135e-06,0.536485502843823,0
6.53684998982244e-07,0.216836367528263,0
5.34342593448775e-07,0.237544282280575,0
5.42614974324467e-07,0.231049139139054,0
5.72117144064547e-07,0.24931704203672,0
6.08882304200779e-07,0.245163776732936,0
6.47512095127195e-07,0.237767496633411,0
7.76960992662227e-07,0.253353498174989,0
7.89490263213153e-07,0.241923908875516,0
1.12444047533467e-06,0.286109156970043,0
1.1026765061311e-06,0.279638639284067,0
1.114918857352e-06,0.27752645093803,0
1.13440040397655e-06,0.275581711418317,0
1.14854721673597e-06,0.278137194084791,0
1.14091816279557e-06,0.270517862619356,0
1.14569181763431e-06,0.274099328322776,0
1.28634436323877e-06,0.303649398894809,0
1.38022974775952e-06,0.320767021842753,0
1.36092735328875e-06,0.327978885933976,0
8.80783890252191e-07,0.271096674023149,0
8.5015456206238e-07,0.268606854211741,0
8.53932620620144e-07,0.264998956971181,0
5.33689265719535e-07,0.216165056188987,0
5.63821485478786e-07,0.224615227693125,0
5.49395340198547e-07,0.223778558279808,0
5.34596923984701e-07,0.23054763075435,0
4.87575259937579e-07,0.221020620430088,0
4.63885103332753e-07,0.202179144714418,0
4.98258866721344e-07,0.213927868462414,0
3.52874911011226e-07,0.189748549690915,0
3.24107972054327e-07,0.193382218889928,0
3.09250758069127e-07,0.194433354296982,0
3.13794739501867e-07,0.209696780311902,0
2.10416187532976e-07,0.186009939910876,0
2.13030705442308e-07,0.194378633551069,0
2.12955009777717e-07,0.190596013255563,0
1.9793657609686e-07,0.184083237972339,0
1.53729445838172e-07,0.175911369963198,0
1.25072860469744e-07,0.156300708506764,0
1.73386178784413e-07,0.169781040313278,0
1.69861761052649e-07,0.162448844956377,0
3.53458578037744e-07,0.211639850298086,0
3.10199798929971e-07,0.188741409989014,0
2.88387032748993e-07,0.18477726768205,0
3.2628797270906e-07,0.195668353597294,0
3.20894613500064e-07,0.194306911716768,0
3.19146888542668e-07,0.196797723915284,0
2.98286611772173e-07,0.198647540011759,0
2.45761752210031e-07,0.199179485366844,0
1.98863546240009e-07,0.190708677054003,0
1.81593726926879e-07,0.192366696987339,0
2.54875406770328e-08,0.123664799426356,0
0,0.114045114424504,0
1.62628428183398e-08,0.131590447121899,0
7.03697245276907e-08,0.164262473501091,0
8.15857873758237e-08,0.161094063576339,0
1.06528629637267e-07,0.174003415084329,0
1.76929908394161e-07,0.21028262307803,0
2.07540786843401e-07,0.199414754220833,0
3.03927059562853e-07,0.232674139420154,0
3.02830938059877e-07,0.232002150394291,0
3.193963911091e-07,0.235866293578935,0
3.97662087319311e-07,0.242242794555937,0
4.32806773979853e-07,0.230904071480551,0
4.58574336887629e-07,0.217238101435294,0
5.49138768105354e-07,0.242085122813894,0
6.40361182594331e-07,0.232837654927822,0
9.99013103961968e-07,0.280941086208178,0
9.73773858858993e-07,0.266947289062177,0
1.0266465046523e-06,0.259216036343598,0
1.07626337473077e-06,0.261374993267947,0
1.08182243674995e-06,0.261936475635947,0
1.08507097051054e-06,0.26383361966909,0
1.06242779357633e-06,0.272068781513474,0
1.04122766223884e-06,0.28750379748139,0
7.84034140400716e-07,0.237419853818567,0
7.88517944642243e-07,0.244655245184548,0
5.43560394208188e-07,0.202388384102454,0
4.66285293881979e-07,0.204311159202773,0
4.12252038707435e-07,0.20307157406077,0
5.03840171885703e-07,0.222743730238339,0
6.09529769395633e-07,0.240787663471623,0
6.55166668334937e-07,0.249075201000471,0
7.11615115249638e-07,0.231052242372096,0
4.21099223837071e-06,0.441814149532951,0
7.40386313165341e-06,0.477667909556372,0
7.33483696206533e-06,0.47208525261153,0
6.75550872827672e-06,0.451286282919109,0
6.6073893829924e-06,0.445353682808957,0
6.40170564012998e-06,0.429656477724197,0
6.38475515651345e-06,0.423787139156052,0
6.34540030802532e-06,0.416214198172367,0
5.96186589401493e-06,0.390261991072281,0
5.39801337158939e-06,0.370444019361961,0
3.56468661833496e-06,0.340640722727219,0
2.49176195693786e-06,0.317215724087365,0
3.05652541375073e-06,0.353053375707575,0
2.89193389868494e-06,0.33440402138332,0
2.95242145936513e-06,0.338016331792972,0
3.67684914351859e-06,0.394500148457393,0
3.92073885055672e-06,0.411111425895025,0
4.21424353097101e-06,0.437779423196586,0
4.05935623459132e-06,0.438498841749102,0
4.14060061555281e-06,0.479656538173411,0
4.1295374958812e-06,0.501123566613594,0
2.69169507084862e-06,0.433921120682255,0
1.59171808937547e-06,0.341108919913779,0
1.49256763169232e-06,0.342011338111157,0
2.45787530118588e-06,0.378686011194957,0
5.49723659366993e-06,0.526326233567746,0
5.20570155238234e-06,0.457061838119891,0
4.50077386459399e-06,0.410054066005802,0
6.03247201662042e-06,0.473801171203961,0
1.08241250083605e-05,0.582994427157421,0
1.05866873652708e-05,0.45134624957809,0
9.59293829990633e-06,0.428304720818448,0
8.57883227359129e-06,0.403924472345874,0
7.27863301732009e-06,0.367206484249095,0
7.29205425523532e-06,0.376148140717254,0
6.57315580314666e-06,0.366788459963837,0
7.65672372329674e-06,0.404106042736258,0
1.04452597581348e-05,0.475279479637341,0
1.24345388923252e-05,0.519179307932185,0
1.13534323744804e-05,0.499177114996454,0
1.07294366290562e-05,0.608766749832483,0
9.20402811429011e-06,0.558041580521984,0
8.75782493195243e-06,0.534352256317243,0
8.6454987730884e-06,0.545389854819107,0
1.01618110484698e-05,0.620388652754992,0
1.24165057365493e-05,0.657289610341617,0
1.25783477229873e-05,0.556906890974513,0
1.578169979319e-05,0.626562436323827,0
1.55751477055282e-05,0.469907051423825,0
4.76393918811493e-05,0.201175037950899,1
0.000114162307393032,0.2203495120516,1
0.000149535663241923,0.178324292741448,1
0.000271931930701828,0.18105894732357,1
0.000275125840643117,0.169052706427768,1
0.000298239004027115,0.172864506742928,1
0.000516304415205204,0.1883533541216,1
0.000732531933060605,0.209289302476229,1
0.000826395206860484,0.211102844231163,1
0.00124827412449338,0.192936609213429,1
0.00118442203739576,0.114509094044012,1
0.00171110701860242,0.0623307262014219,1
0.00334311925327746,0.0910908228404823,1
0.00869617927243514,0.104978484986756,1
0.0126845341559751,0.10616776621199,1
0.0185438948940835,0.0378777647734998,1
0.0447516511457011,0.0538028921416016,1
0.0539896241426072,0.0604915844450253,1
0.0539371883135614,0.0424059751920942,1
0.0476096172823675,0.0355279751341463,1
0.037477081115766,0.0305693498750018,1
0.0302567792617245,0.0261545018562625,1
0.0282421345684377,0.0131261554436271,1
0.0310162110351697,0.0103656599960494,1
0.033056072618164,0.0109676812410397,1
0.0326070272696718,0.0105894220782182,1
0.0389653376164079,0.0119893736399403,1
0.0399540520791482,0.0111675755036272,1
0.0439552432201968,0.0138543572461712,1
0.0658938780484414,0.0205407272482533,1
0.0643062088079146,0.011311716020813,1
0.0558439195824456,0.00897344469162212,1
0.0522023012277679,0.0106553602139099,1
0.0507236434555407,0.0127238398538776,1
0.0347188595813652,0.00765936566603834,1
0.0335671041788994,0.00974982761709642,1
0.0393752516941617,0.0132447262805761,1
0.046595065182708,0.0157563730195988,1
0.0457972261684183,0.015628098509422,1
0.0241351635570228,0.00700427820492938,1
0.0260966441049951,0.0214132308739148,1
0.0259421728114691,0.0249201092940424,1
0.0206985549342846,0.0202870076394037,1
0.0172997774268253,0.0169675442876507,1
0.0128564641955371,0.010044982039853,1
0.0143500964703713,0.0098701377171552,1
0.0159825338056913,0.0106005925988964,1
0.0152756194158699,0.00869978044026813,1
0.0170149050963815,0.00650499097905095,1
0.0209627881234446,0.00778822402371911,1
0.0180981278291275,0.00465102724280147,1
0.0264937271789332,0.0101656110994822,1
0.054229622753148,0.0186776481157526,1
0.0708015219037766,0.0121037760118967,1
0.0694021181655333,0.0133770749556738,1
0.0648458354649989,0.0129943482406213,1
0.0687392661394777,0.0133442509561628,1
0.0656117818011473,0.0137085068811246,1
0.0640109520265058,0.015264804872338,1
0.0630974830083038,0.0177564273319456,1
0.0629286662922854,0.0198397216171451,1
0.0613094902111452,0.0178270206333785,1
0.0491838554405769,0.0161830300554112,1
0.0363348448953998,0.0230797586049449,1
0.0558582371466918,0.0145606228055913,1
0.0655533223325102,0.0101889675967832,1
0.0543825797968037,0.00874842661969833,1
0.0477861736085171,0.00690690108842324,1
0.0458146139776158,0.00642895781877569,1
0.0472069540890489,0.00511288438653053,1
0.0609349858960961,0.00795256592095567,1
0.0647769097297636,0.00686949684281728,1
0.0655460524320827,0.0057081336003901,1
0.0647692053924327,0.00608623459996646,1
0.0510368298839907,0.00909210887818703,1
0.0446998632025732,0.0119616675859282,1
0.054761846103869,0.0127440025244761,1
0.0535278604861427,0.0125251663803726,1
0.0492745716995377,0.0105370728770128,1
0.0500509604814278,0.0111206889126577,1
0.0492223915826892,0.0104231182272459,1
0.0296550449182705,0.00925205545496359,1
0.0213615762993012,0.0112203066778325,1
0.018961572910624,0.00950505592155443,1
0.0423468236292127,0.00418967158319339,1
0.172359247846146,0.0245574274529331,1
0.184506883191771,0.019431701453192,1
0.208402134800478,0.0210751339982851,1
0.199311044170136,0.0189996297947994,1
0.189035216466353,0.017415290075571,1
0.186987278533219,0.0155070908059249,1
0.165945576322261,0.0138671334970111,1
0.135940981854563,0.0113186888606648,1
0.112967856842411,0.00868002898852684,1
0.107642118372807,0.0160084676537159,1
0.0558957007898663,0.00742596833411916,1
0.0584091986806786,0.012066835326486,1
0.0520731000904196,0.010278477266776,1
0.0496344677757123,0.00825395271208681,1
0.0430751248622635,0.00978494089471695,1
0.040755654370305,0.0131009823240978,1
0.0731136797529488,0.0205681497753444,1
0.0891991983529695,0.0218929030488353,1
0.0878421167099887,0.0168581398541071,1
0.0781068179254377,0.0151102995517713,1
0.0792841556511052,0.0136774044706658,1
0.0971290643152949,0.017574162966098,1
0.082440707677786,0.0155672240081394,1
0.0635108784984786,0.0152711794880741,1
0.0745986761490839,0.0118230777336906,1
0.0974185474531663,0.0152431571910195,1
0.0989579293855468,0.0155642710078881,1
0.117834895852091,0.0137614830582085,1
0.153193114335963,0.0169098373591663,1
0.121455392156285,0.013262872943009,1
0.116210971007398,0.0140023849953557,1
0.121464942008406,0.0105072883652289,1
0.117631698211426,0.0100712081037386,1
0.0799999904047969,0.00513865395054036,1
0.100109075169098,0.0099690005779951,1
0.0946284479947265,0.00728624016305356,1
0.112863744706686,0.0102003355402077,1
0.135029481151072,0.00701011843024452,1
0.143985601220001,0.00118087143264431,1
0.262203315667895,0.00641153619701571,1
0.303619745655101,0.00678797608761301,1
0.307801682127619,0.00736794597847421,1
0.306964040793455,0.00713276587148064,1
0.317143515658034,0.0067294098602824,1
0.298380885328373,0.00607706696941816,1
0.298767954729058,0.00644396967746668,1
0.292322591661792,0.00569325192677428,1
0.246674809054994,0.00795538274629626,1
0.188658295218736,0.0134028474394126,1
0.118637090084724,0.00886334083327838,1
0.0802796223755919,0.00692447553343142,1
0.0954627978684465,0.0112105389444273,1
0.094057240653925,0.0157380543770154,1
0.120297424314584,0.0263505015024385,1
0.12756525781178,0.0211520437210277,1
0.10174074618565,0.0172498150535346,1
0.0821207387736393,0.0153475068131574,1
0.119050073061977,0.0103997958270894,1
0.208321626869017,0.0189636104223045,1
0.274886240235224,0.0242684725013493,1
0.280766646997608,0.0211517420439994,1
0.264264159913928,0.0227872815415232,1
0.255281316997976,0.0200030296300755,1
0.202248506975738,0.0145599963235723,1
0.188794456994029,0.0148374845406007,1
0.198178263208346,0.0119901260880114,1
0.168859579087631,0.00882197254031193,1
0.161235350285459,0.0127697575952715,1
0.125911180926962,0.00890303833758945,1
0.107600701785466,0.00724771553994025,1
0.153326043039929,0.0129519951140901,1
0.190153185723116,0.0148422019157653,1
0.174598786921378,0.0159999452524364,1
0.174955910307776,0.0119538733304892,1
0.196629169913437,0.0137120692594668,1
0.184878843406397,0.0164501820075587,1
0.138877960666397,0.0125097760683205,1
0.12106039681309,0.010520440021716,1
0.101972891505655,0.00895494413858485,1
0.118142260682507,0.0104032969276598,1
0.156398158229443,0.0138069196997971,1
0.167515078695707,0.0157820194456065,1
0.20354764067983,0.0188077954539943,1
0.239355186811675,0.038528820089226,1
0.147360216583213,0.0334693714170557,1
0.125593005141549,0.0416856488186268,1
0.0975835644887379,0.0398282099475486,1
0.0575762369345747,0.0319113570149331,1
0.0398439718325509,0.0227515413707697,1
0.022523145500187,0.0232330002368662,1
0.0227434878771316,0.0295083324018678,1
0.0289326503603529,0.00873219652180532,1
0.091414192494254,0.0262900604648413,1
0.092010912701019,0.02324147822444,1
0.0917094645196316,0.0234679711925297,1
0.0894911553175809,0.0232024411919813,1
0.0976781921364967,0.0210277505773291,1
0.244233346011764,0.0259514992741912,1
0.377225454359493,0.0280392044804843,1
0.354529492781816,0.0227236735362929,1
0.311168460893345,0.0206856209435988,1
0.289105905977872,0.0224417744938456,1
0.287466304276538,0.0247642559554091,1
0.315565734669597,0.0195807524593429,1
0.337700839374395,0.0196900842237415,1
0.251430480138434,0.0146903976783422,1
0.226795837505922,0.0120918108339287,1
0.256266215774516,0.0221239844932599,1
0.228274727240186,0.0193803842933523,1
0.243271344629581,0.0201704468762181,1
0.242038638384113,0.0173630069397216,1
0.242590521992026,0.0169768352903375,1
0.237374945291698,0.0140796316310293,1
0.216777470140678,0.0215086086915714,1
0.15717987921655,0.018515546603033,1
0.165429301010056,0.0229389494204395,1
0.144449547479913,0.0199665886622225,1
0.143870810464958,0.0195715718460629,1
0.146725502095802,0.0207510178522719,1
0.136299797433751,0.0254520142451112,1
0.128503604625528,0.0203594448544946,1
0.211884146110285,0.0200111013849824,1
0.247480333115772,0.0110294653892008,1
0.268939734299417,0.0115929759200983,1
0.257667441978133,0.0103815265570445,1
0.225157105753135,0.00768209371740403,1
0.231655315589829,0.00912831206810027,1
0.219901113713231,0.00803314990186313,1
0.219295636627643,0.00810190131593471,1
0.23437282824635,0.00854744641281908,1
0.235115586125551,0.00907350600771048,1
0.0810740810125506,0,1
0.0733119896781683,0.0115306504820409,1
0.081048818422146,0.011292101036474,1
0.0800974033204,0.00998235816891691,1
0.077140734993707,0.00985179930109516,1
0.0793119524863222,0.00877042987189003,1
0.0779311870110317,0.00944208407485153,1
0.066777860547801,0.00665382403629662,1
0.0855614886582525,0.00931081116842197,1
0.0865849270797693,0.00691707674937205,1
0.0913270603277624,0.0089669554354949,1
0.0816510510648148,0.00838994011253407,1
0.0730398306556447,0.00807831251243069,1
0.0776127218091938,0.00924576484671682,1
0.082769738513766,0.00739639460545617,1
0.0855837616023459,0.00855425683086771,1
0.0779657169950984,0.00831188921792312,1
0.0720163515472771,0.00860847399808911,1
0.0525251325217437,0.00413569650257048,1
0.0509950367343415,0.00854306771098006,1
0.0402752508611063,0.00771663452506431,1
0.0404736401772838,0.0077920003979362,1
0.0385538291484561,0.00836785840078863,1
0.0352018368376502,0.00734395978832193,1
0.0330490444064067,0.0133040579738949,1
0.0179001162167287,0.00720808857703832,1
0.0187424550136485,0.00935505027151827,1
0.0249888488642159,0.0159967694589114,1
0.0517726978969,0.0317518998497097,1
0.137289051206893,0.0590197511278769,1
0.215369117638206,0.05046415413461,1
0.210829740564623,0.0442943646715873,1
0.259969377133837,0.0433648131354257,1
0.229239712928945,0.0240973176897226,1
0.187356072628041,0.0181372699281207,1
0.172329375909981,0.00971804954295388,1
0.263569174988763,0.0132931159677287,1
0.227799037266397,0.0102159946064407,1
0.215094642920289,0.00996273420258652,1
0.214771028396892,0.010590254344318,1
0.214533222901151,0.0104982897390144,1
0.218289982419035,0.01118393927864,1
0.222694017476888,0.0121413933703597,1
0.198481132983972,0.0145886852482652,1
0.169281799717737,0.0113017112996098,1
0.241385854962741,0.0277659163566087,1
0.149676093822492,0.021755590726002,1
0.143210548509871,0.0205014096589422,1
0.138545230723127,0.02260576665139,1
0.128976590182373,0.0180761419077951,1
0.120554560807067,0.0190683682569369,1
0.127733158710955,0.0168696567927637,1
0.158151755403202,0.0202836471157684,1
0.190468089833448,0.0195476931176066,1
0.189681483344865,0.0216413619025782,1
0.152668544116956,0.0182725261906478,1
0.150047390904818,0.00982625186675378,1
0.281700706215105,0.0180639111566019,1
0.288956296991568,0.0109357715465315,1
0.288585319369604,0.0114031607116883,1
0.353737898426043,0.0137147828886208,1
0.378546193885923,0.00986469064360712,1
0.39250578482937,0.0108625840989887,1
0.372794862317096,0.0110574308029991,1
0.364044974406981,0.0113473137389433,1
0.341469712816753,0.0103948394690046,1
0.31890525486301,0.0149994438144197,1
0.160519256659492,0.00672430008319509,1
0.162501972116735,0.012225757617589,1
0.161970013833264,0.012856431137951,1
0.112267098133353,0.00979014131887748,1
0.100565734280834,0.034316373005688,1
0.0877642326073488,0.0364521214561842,1
0.0924143137572263,0.021637620517741,1
0.130578842397699,0.0148294314388929,1
0.152171478751882,0.0133551386236139,1
0.160111994787812,0.0119537743914653,1
0.184144739884259,0.0150978546205234,1
0.162612742510536,0.0118186642435034,1
0.159329326937949,0.00994910408132011,1
0.218204903817816,0.0127807702037924,1
0.221925482619205,0.0108686417155545,1
0.188887534604249,0.00861673547222505,1
0.198249501770126,0.00818164151316009,1
0.219541347910157,0.0141328343823571,1
0.242604600844907,0.0177450169189455,1
0.308255160841866,0.0241820837607334,1
0.387047864752869,0.0290342630248756,1
0.392619807684313,0.036005387054558,1
0.293633988094585,0.0318056415157294,1
0.29678250695576,0.0330263726192618,1
0.238561383066707,0.0392727164961218,1
0.101039939991098,0.018374009969725,1
0.0563452499012829,0.0138562856922234,1
0.0875371774643795,0.028797703881008,1
0.129098280659318,0.0400008288352587,1
0.138923180663446,0.0455067952876786,1
0.134789101330957,0.0437830906523725,1
0.253437153036778,0.0432178152604132,1
0.3774502471382,0.0599491795204753,1
0.386271816376279,0.0584694919295536,1
0.36339107821106,0.0447886987142315,1
0.294141024739546,0.0395116341455986,1
0.235549137066195,0.0340176386196488,1
0.201963048415996,0.0242261369427022,1
0.22915352498569,0.0220210391440183,1
0.27188158820466,0.0247325218689332,1
0.267704666144197,0.0210452140219396,1
0.241073101460557,0.0287335123187877,1
0.183802679671818,0.020979135585834,1
0.136811566605976,0.015885527329179,1
0.176713585570808,0.0257609735272009,1
0.189492714992316,0.0219293379908354,1
0.190863161654439,0.0197248927298275,1
0.204411362966437,0.0148325031028099,1
0.203576156085025,0.0157229322734008,1
0.14010505190506,0.0100015182896297,1
0.148783427708747,0.0120295007894634,1
0.151277770735594,0.0116228938852402,1
0.150585593766109,0.0115417563685772,1
0.152149530160263,0.00986859055477678,1
0.125261694889608,0.00764362500950009,1
0.100919108982041,0.00684494107632575,1
0.0852669766087261,0.00547252338705051,1
0.0860906928265244,0.015183089021504,1
0.0623685516383304,0.0118165012690608,1
0.0630886905983848,0.0144062875447982,1
0.0500196923713187,0.00976808536198854,1
0.0676247526729301,0.0125219897593904,1
0.066494508569781,0.0114316839628973,1
0.0636437989681707,0.0156322444844551,1
0.0684850179050843,0.0109253401767569,1
0.0868526190019637,0.00581056799098336,1
0.10304349356749,0.00759165638281839,1
0.0942650740503777,0.00687462956052914,1
0.0978253967057094,0.00829279541363699,1
0.175175358035592,0.0100994873757623,1
0.227842831888045,0.0101699545707912,1
0.188698123622061,0.00800221861438574,1
0.213175781049401,0.00892762490048487,1
0.206092012054767,0.00801087938364508,1
0.216588066727539,0.00860336707394393,1
0.272553889747629,0.0144938597050361,1
0.305305474286692,0.0172138552959262,1
0.353108951492376,0.0199647573408727,1
0.398798096961388,0.0208477069135948,1
0.306269040135835,0.0265348896830401,1
0.195585860887857,0.0264361134808895,1
0.146534760350207,0.0189939040209624,1
0.198803576717869,0.0178608573905416,1
0.200489462930074,0.0183236015367727,1
0.235007517153109,0.033643365158301,1
0.231362861818535,0.0260703496342477,1
0.284389641109067,0.0218833966527708,1
0.307771482085752,0.0214982960394581,1
0.294807631120209,0.0218367646589853,1
0.339355711356128,0.0232311397425436,1
0.255817274995532,0.0126932984503507,1
0.180383027218148,0.00877624503428208,1
0.183599023625278,0.0122377820009902,1
0.181656352691276,0.0111405595833331,1
0.215639032686375,0.0118030734693317,1
0.151507592863577,0.00968527258032252,1
0.138710927870796,0.0139360186563768,1
0.168218890135394,0.0137821934082601,1
0.216630694680704,0.0167479191237726,1
0.199801465696726,0.0161753192047792,1
0.211912993079906,0.0202838769117255,1
0.231433821326954,0.022189209494247,1
0.215228504152254,0.018642526401235,1
0.211883271720868,0.0194518228045797,1
0.226109906981476,0.0225884544050745,1
0.230861240441246,0.0189520713656894,1
0.235685590649482,0.0191880793727385,1
0.193249452462416,0.0225454862877052,1
0.117315699039157,0.0148047116243072,1
0.096110149791375,0.0151606147660422,1
0.0928425169002103,0.0182890349032297,1
0.0828139284012765,0.0160891787432033,1
0.0912435129915574,0.00937993311336927,1
0.137712044842678,0.0124534960572166,1
0.137274574678475,0.0093937565111937,1
0.138941868771907,0.00876828138643827,1
0.14288805177211,0.00851591093914955,1
0.150901213178919,0.00833316124787982,1
0.14403397528469,0.00741201796168063,1
0.180000209429995,0.00846778986938141,1
0.239824097400356,0.0111597094365844,1
0.231653489791259,0.0104174174920722,1
0.215692939428058,0.0136872803341549,1
0.186070005218686,0.0110315277935828,1
0.297710491231145,0.0220084069972445,1
0.354559025569849,0.0267409995282476,1
0.36067530383685,0.0227847419433123,1
0.352097294008725,0.0249981987458628,1
0.383897033490873,0.0234377927806198,1
0.345339242383914,0.0203498487172493,1
0.251146874606492,0.0124525212007501,1
0.247331161522296,0.0113961853158014,1
0.240682530784495,0.0103830479155871,1
0.24570774013171,0.0126007138438198,1
0.176080634443561,0.00895528049650852,1
0.121178434161913,0.00463162693683149,1
0.141238632083747,0.00617373461445126,1
0.178733382838154,0.00633122765411254,1
0.157673361531478,0.00588257864826997,1
0.172843638175476,0.00880195905600546,1
0.195128648366841,0.00845093921744489,1
0.215020154410154,0.0107412794217094,1
0.199851172206335,0.0102409400220163,1
0.201480321021099,0.0112031074733418,1
0.216963648378979,0.0113925985972116,1
0.232597122048925,0.0126763601680372,1
0.201437557616318,0.0118700369795615,1
0.192158242359524,0.0140385248787594,1
0.205727875396591,0.00923274245034795,1
0.20701971241106,0.00939091170987854,1
0.143291515206718,0.00732852382667097,1
0.147933336921575,0.00797230899351434,1
0.169997570124941,0.00954746932000259,1
0.181560734677479,0.00957063869289535,1
0.212702058020215,0.0128917176802848,1
0.204750534280048,0.00815223378729701,1
0.218588870052488,0.010790793001046,1
0.195026581811272,0.0107177809100465,1
0.183981215423044,0.021730826716912,1
0.124545117295391,0.0196252549520439,1
0.127887149590479,0.029135432900923,1
0.128932257122289,0.024547190634663,1
0.159851201497432,0.0254249265820188,1
0.16573184961415,0.0253410823173682,1
0.124993552627351,0.018184481119208,1
0.132017578852329,0.0282065623229333,1
0.139157354926769,0.0261001825158598,1
0.136385620967041,0.0249636354512173,1
0.140452330895264,0.0236926034435261,1
0.142093945081713,0.0180417687305194,1
0.149484211204083,0.017205318767987,1
0.146449705201884,0.0210845274067659,1
0.126497682797674,0.0162472160642429,1
0.135131583759159,0.0135383941303803,1
0.130842445605811,0.015966077388515,1
0.110242794268232,0.0143053748676928,1
0.0933357844539512,0.00855082126545172,1
0.129762229641426,0.0117454574682172,1
0.112612328999406,0.00607210037627187,1
0.120222166931512,0.00887177512329317,1
0.135370358634617,0.0100615768197435,1
0.135411905926645,0.00934196505573864,1
0.140845020254699,0.00910875582964418,1
0.222457863519157,0.0170433308358461,1
0.249854528717142,0.0149159946337238,1
0.253785651971418,0.0155230243044391,1
0.250156179615485,0.0184386691424484,1
0.166010431883506,0.010645617762789,1
0.217175803324723,0.0199957060390003,1
0.224045673691217,0.0135670459747747,1
0.227926661831687,0.0131576637633565,1
0.205691254116671,0.0110179431177868,1
0.22716242266969,0.0172475644833768,1
0.193147875997479,0.0147669175565008,1
0.203794534390871,0.0187467980127812,1
0.279427998884602,0.0235286904044796,1
0.31366986814567,0.023536640352449,1
0.254870857985236,0.0250320568717863,1
0.126472431063303,0.0116178164078368,1
0.10972685418402,0.0164596449467981,1
0.102835816813473,0.0177426699169126,1
0.074136398223861,0.0153809202409882,1
0.0852357854264483,0.0178723634111238,1
0.0795971474863479,0.0166087766417507,1
0.0662982944793964,0.0146477430392301,1
0.0668719924732737,0.0171081902375429,1
0.0593107960908858,0.0346182376514988,1
0.0169713363507692,0.0141427887990959,1
0.00877142526977592,0.0251192464197004,1
0.0115435627129152,0.00954113692135227,1
0.0475632532339763,0.028010700311611,1
0.0707383861638941,0.0431306894252131,1
0.0899045424986478,0.051479502887546,1
0.216540779813296,0.0293334630277871,1
0.421053529419255,0.0514215024107617,1
0.54286863421698,0.0704303781278336,1
0.583812659520869,0.0691401286080964,1
0.590086592414636,0.0701232011432228,1
0.526153792503599,0.0701752005787702,1
0.397426551523241,0.0567089199094002,1
0.30486978150687,0.0458651013176639,1
0.209863367458821,0.02509172360786,1
0.178521678272475,0.0217885603082121,1
0.194079636910791,0.0493884369519144,1
0.239862612677881,0.0540007079743688,1
0.240508793519735,0.0491538806638756,1
0.226968648368171,0.0475585644646536,1
0.245152398192002,0.0479393096961486,1
0.213412255463779,0.0343559056993359,1
0.114229302551724,0.0194631672558557,1
0.0702690503864573,0.0107376924435347,1
0.0746043713708782,0.0108673684497398,1
0.0811664891639329,0.0084751063411784,1
0.0915421853567128,0.00670372835904584,1
0.131181005469328,0.0103316618529272,1
0.133922809625711,0.0116755628614167,1
0.131717978081054,0.0110150274060126,1
0.110283273177511,0.0108608837347673,1
0.0755473381579538,0.0072484129679336,1
0.145460839958725,0.0139287141678609,1
0.129180307865703,0.00999838226351814,1
0.15591452692382,0.0134795091113228,1
0.151144618415599,0.0144682552649765,1
0.15151615029053,0.0147796074479744,1
0.194266421483436,0.010361603779548,1
0.334426647438892,0.0158207300326999,1
0.306142434203828,0.0132530197711833,1
0.288389302253305,0.00774841917263417,1
0.396998347753311,0.0101513317706212,1
0.442022803100687,0.0116519556028591,1
0.50289110593873,0.0139498671606901,1
0.536226542865233,0.0154927655698756,1
0.530707283296969,0.0152797911571953,1
0.566027052411652,0.0158103639284038,1
0.556793407116939,0.0240226266536189,1
0.339494953604426,0.017280018888007,1
0.257619171256304,0.00913768459144396,1
0.153873007137458,0.00797235125407123,1
0.139984493765079,0.00858180845732007,1
0.180406946881766,0.0113709377572712,1
0.215395871217841,0.0131231138836413,1
0.220184247019235,0.0128700149722362,1
0.201750502160048,0.011313289181505,1
0.223930229702935,0.0147816270265593,1
0.227100039489553,0.0153006382056565,1
0.228234005167982,0.0143605447318007,1
0.177570212574988,0.0213257885332126,1
0.0999656295777905,0.00830686389679615,1
0.0966202795315501,0.00880584672227528,1
0.0845242131364951,0.00992598708321806,1
0.0873710508039915,0.0105598084968413,1
0.0972263321214469,0.0119232287742452,1
0.101350222637984,0.0138433901368942,1
0.0862492371559917,0.0105331193726654,1
0.105351692376323,0.0118786936015432,1
0.132068894385711,0.0156999572844677,1
0.15904922576387,0.0195913937357064,1
0.145225104374381,0.0298551252770175,1
0.0980892376944226,0.0244284559000853,1
0.0895792643400725,0.0215041244384256,1
0.0919419651723293,0.0207695140093416,1
0.102272067552177,0.0286737836283049,1
0.0538564750533858,0.00705395452806744,1
0.0788760514653132,0.0144549390465689,1
0.220778208452673,0.0194712180751038,1
0.521324609201323,0.0409209495540434,1
0.697229912874479,0.049285510551439,1
0.850839885248953,0.0406226794976717,1
0.777232679422947,0.0397451625720248,1
0.732527344579951,0.0365984120179866,1
0.622066504695215,0.0298264579410848,1
0.42585630957282,0.0223452677138193,1
0.294320429303712,0.0170281745061548,1
0.250949390400101,0.0127511569390113,1
0.246223994796241,0.0187943548293761,1
0.214475618890773,0.016387329968123,1
0.170812108399282,0.0173808045241422,1
0.0849911476212261,0.0119205935808737,1
0.0917848728165813,0.00630964052733479,1
0.143750493388942,0.0123806727393847,1
0.207863232362957,0.0214635775821083,1
0.21664830901892,0.0138099204119273,1
0.221944808908848,0.0153594447321313,1
0.228425027626724,0.0169660522861155,1
0.253818633398236,0.0167531530421302,1
0.241460761665559,0.0177910709863099,1
0.287471069388629,0.0159328828025543,1
0.352800844838929,0.0207157386456985,1
0.341211998756521,0.0249582943803706,1
0.374841534650962,0.0264328235910661,1
0.371287526588838,0.0262924693534469,1
0.385794381226874,0.0281209316359715,1
0.425457767344076,0.0233249667302388,1
0.422660999172764,0.0228334270434206,1
0.464194873737594,0.0266235734708606,1
0.548499777724172,0.0277671084394887,1
0.577481571649959,0.0380145813405851,1
0.534615242710908,0.0338590623326609,1
0.504381284056583,0.0298146613318414,1
0.37597834768182,0.0221549380241316,1
0.25018504425806,0.0141449568710179,1
0.0936678215617002,0.00648013021799882,1
0.109606257489254,0.00699455136668571,1
0.18109804306062,0.0145155501158024,1
0.181236653138557,0.0109131332122577,1
0.170906061917488,0.0104627252111185,1
0.174870494646694,0.0110965265261358,1
0.171854262502139,0.0109026829980504,1
0.149485189076198,0.00968816105006867,1
0.169166164267185,0.0106268901105816,1
0.189145397897191,0.0137752040395621,1
0.224984246310823,0.0148802975446077,1
0.210211393340907,0.0180848373105498,1
0.2060759945197,0.0179968746026107,1
0.205899967514021,0.0195870522035476,1
0.192525940419748,0.0138525753305749,1
0.165332474785167,0.0118476328298412,1
0.156432061283049,0.0124933262739011,1
0.169734646140407,0.0136849960558379,1
0.17188886956198,0.0144014306915611,1
0.204233119149595,0.0223108956981095,1
0.104437760716565,0.0131540987716045,1
0.115577579360179,0.0117206175897132,1
0.19822685294464,0.00972553495612939,1
0.215945920872054,0.00427199993209051,1
0.235788785566182,0.00510205804333955,1
0.267968008760931,0.00568202788809903,1
0.2737101007771,0.0058297792255112,1
0.277364863658932,0.00540441629067092,1
0.30826265224574,0.00627219782164512,1
0.341645597445094,0.00745344496627856,1
0.359564037437912,0.00786382883070743,1
0.406384101110313,0.0098036082230007,1
0.300539801974779,0.00749556211488537,1
0.247877683436272,0.0113472536688532,1
0.304111766630911,0.0145241786408775,1
0.280615399929361,0.0160097847718824,1
0.231809367023471,0.0123001952753374,1
0.174583970652885,0.00751915586366965,1
0.181215668869185,0.00909182518443955,1
0.18827569538237,0.0100582038398235,1
0.191078757184362,0.0105108936216418,1
0.188750302261206,0.00758098354884593,1
0.213822458235487,0.0131866935377661,1
0.186717963504408,0.0163010019259798,1
0.15838973106297,0.0189728428469073,1
0.133876736568007,0.014002161193036,1
0.092910216073932,0.00467586049497089,1
0.0970238822865288,0.00501221826708392,1
0.103034080109819,0.00514935104531288,1
0.115457792374523,0.00538869584820506,1
0.137876233415409,0.00730838556566403,1
0.142754630699745,0.0112803984462928,1
0.157130912626372,0.012732143282191,1
0.228018100265911,0.0177687073707637,1
0.283752268509078,0.0201925729515146,1
0.245016111948035,0.0195048892579911,1
0.240229288661962,0.0277549181608426,1
0.223635477929032,0.0550301202229809,1
0.11238436592315,0.0380523963988622,1
0.0714428339522043,0.0387193170492915,1
0.0494292589195163,0.0344552983193543,1
0.00703723842422916,0.00819791937560624,1
0.00221469671267185,0.0564761355858043,1
0.00843271770125741,0.0825163663323731,1
0.0184438784823081,0.128362076826544,1
0.0365302555847616,0.139384820949618,1
0.0441504423927665,0.0747822104617322,1
0.0525702572553674,0.0492496294372389,1
0.057709186166033,0.0279736397938912,1
0.050147812922018,0.0241414248025259,1
0.0501699024246516,0.0217281141597871,1
0.0553126086020879,0.0234264987312051,1
0.0520418044536424,0.0222217102098314,1
0.0526193110122925,0.0209939220406065,1
0.0459178689542569,0.0168086657877172,1
0.0490262016107711,0.0160681320871618,1
0.0454965745130251,0.016496617826292,1
0.0684830125044978,0.0220100862687004,1
0.066810869724063,0.0236130355485318,1
0.0377462654800648,0.0149497293806651,1
0.0404872600316567,0.0118800259970425,1
0.0747790484764587,0.018567221980421,1
0.0772073756056317,0.0123550844279494,1
0.100808223745674,0.0155063453331507,1
0.0882721087660275,0.0115707459581139,1
0.084987770551744,0.0107908401944045,1
0.0967612420564187,0.012012891044997,1
0.0898249159357787,0.0117337463753705,1
0.108891817273171,0.0125609524393788,1
0.121728381860618,0.0135582182901122,1
0.11956442830037,0.0178513731045324,1
0.0638654710360232,0.00359185920885017,1
0.0859340075818898,0.00787723889443022,1
0.0856925095943835,0.00631107280027495,1
0.0817513491430893,0.00572203094658051,1
0.0809912054469183,0.00549261563930878,1
0.095434625102695,0.00575881540105001,1
0.0997339417911773,0.00633649527322364,1
0.116555607065023,0.00920314163702028,1
0.144686127570785,0.0121845410553526,1
0.175944204181436,0.0149397173500951,1
0.183737083389699,0.0241366627689175,1
0.101893532387639,0.0168033610200742,1
0.0994999810896364,0.0206073481969453,1
0.0822891425417017,0.0268265067150357,1
0.0192347495703163,0.00796679128265606,1
0.0126129751189254,0.0157520330816591,1
0.00827543786683256,0.0108163291225397,1
0.00680694654240125,0.0151768481618517,1
0.00709443839511709,0.0130596201404217,1
0.00920600110126881,0.0166184889121695,1
0.0116269811657849,0.0275801751242789,1
0.0107299805343054,0.0291407895594929,1
0.0119945271009999,0.0440181706910108,1
0.013020077237233,0.0666384288932128,1
0.0116028799567193,0.0773684672345898,1
0.0122010514787031,0.104743678794832,1
0.0079261245896111,0.13428977113663,1
0.00390354003688067,0.0952168471674608,1
0.000862492854865527,0.144163628006126,1
0.000726195705894622,0.328883939387068,1
0.000346452162493622,0.426715797891212,0
0.000149543739745179,1,0
0.000101897791653882,0.844245768724064,0
6.67925219157209e-05,0.729210705999057,0
3.8146438243084e-05,0.607982229486855,0
3.36623250115093e-05,0.61513201857337,0
2.46208994612802e-05,0.524052066486919,0
2.22332188707279e-05,0.470384538660031,0
2.58573658992328e-05,0.509157876973811,0
2.47537086255842e-05,0.669751337979811,0
1.11710854843122e-05,0.545339098760944,0
8.55076849390593e-06,0.49095275987758,0
9.7726629129285e-06,0.502704531032933,0
1.14948560157843e-05,0.555757592573594,0
1.02969609158417e-05,0.540531604346023,0
9.1907167126809e-06,0.510321197589154,0
5.51877554500952e-06,0.336302322679637,0
8.68195683987921e-06,0.51697643559867,0
1.54719553752399e-05,0.655783808018853,0
1.70282511697088e-05,0.539679516238777,0
4.22157316458896e-05,0.302725921217933,0
9.9757363968404e-05,0.259760280307562,0
9.98955073492906e-05,0.213830549921398,0
0.000101010328095405,0.218775735775811,0
0.000106109107538636,0.230946498820705,0
0.00011087656102299,0.231426907166591,0
0.000120896715135773,0.239308721327566,0
0.000128621959643708,0.2463711114291,0
0.000131978652853059,0.239908992983151,0
0.000135543866927062,0.241479805268332,0
0.000105288096669579,0.368355150138121,0
6.88703658396204e-06,0.208981806428086,0
8.58033635851666e-07,0.312261845394808,0
1.68625800861783e-07,0.160891054053038,0
9.50820312457208e-08,0.148384523227863,0
1.2751995129407e-07,0.165016532051159,0
1.43141881161873e-07,0.176687039407076,0
1.26452280325621e-07,0.177612477855826,0
1.2076131128272e-07,0.174972445037714,0
