Activity,Complexity,Tag
3.54202673310711e-05,0.085952245277298,0
1.64317598709289e-06,0.367205317085571,0
8.16514005224814e-07,0.287811636027892,0
6.56172934043725e-07,0.300377818415868,0
6.87687289921423e-07,0.290835764118986,0
7.74393523471071e-07,0.309211939715895,0
5.9321493620813e-07,0.265036246025194,0
7.11416379961951e-07,0.297243533113895,0
7.33946700695372e-07,0.293492926500957,0
7.46328852366699e-07,0.303005258294232,0
7.41150861667781e-07,0.31217479345735,0
8.27650822232321e-07,0.337415531462206,0
7.85726992522214e-07,0.330130981033101,0
7.88432786101115e-07,0.322515094913276,0
6.233712961974e-07,0.297355965037274,0
2.94387820697623e-07,0.209186593580413,0
4.12136599155301e-07,0.246706923240801,0
3.77072115875334e-07,0.234903902021751,0
3.75246061184411e-07,0.23768109813249,0
5.44391352113712e-07,0.26583668285407,0
7.26288816123259e-07,0.29460123065398,0
6.8086556137243e-07,0.284730365987061,0
8.6575388745662e-07,0.303289362179499,0
1.12445147884109e-06,0.350215231469889,0
1.2264815631258e-06,0.353607407867486,0
1.16567297982392e-06,0.335035832760017,0
9.18544474347181e-07,0.300132934209475,0
8.33052018773333e-07,0.2832496628238,0
8.12125990029961e-07,0.27701642976449,0
1.11684429663053e-06,0.289270931686233,0
1.26924025003193e-05,0.503133148885607,0
4.7224395051723e-05,0.477708691165943,0
0.000424453084533768,0.129866976681511,0
0.00182062052736008,0.176714324280844,0
0.00233590980187748,0.155935844372591,0
0.00283968254892071,0.163263292877999,0
0.00289644468729234,0.152827039021646,0
0.00271060689599001,0.128189314263308,0
0.00236059496297076,0.0832819973307784,0
0.00210660549628507,0.0788072593268818,0
0.0020189608792063,0.0747251511724908,0
0.0021673831889567,0.0800799378555795,0
0.00245755096272442,0.131696072676189,0
0.0022080541004883,0.17617138547302,0
0.00213861249054653,0.201611425107748,0
0.0015845743554993,0.193803646767191,0
0.00100832628351562,0.157224528327856,0
0.000218224756661744,0.0933327880399318,0
6.75262863833279e-05,0.576227333622047,0
4.02003411823263e-05,0.512595684560332,0
2.52055728260444e-05,0.250076014246546,0
5.45333742572538e-05,0.364966196800466,0
6.3213520131457e-05,0.407048540639684,0
0.000115574422595298,0.279185450608513,0
0.000308354760016776,0.3900242162723,0
0.0004498724176502,0.476316567627095,0
0.000465087640259315,0.28087987031313,0
0.000403492506508532,0.246193838184945,0
0.000334027076270196,0.21888475972505,0
0.000270230446365985,0.187510833013252,0
0.000287568701059327,0.214187677251902,0
0.000357732133968609,0.248162758070062,0
0.000422526477054123,0.261225818694805,0
0.000476056286288635,0.448512319455191,0
0.000372404607712739,0.279734271176146,0
0.000345883505833912,0.18304766912592,0
0.000938867754955861,0.183233618845554,0
0.00162736732480238,0.165614176206095,0
0.00180124131933563,0.15629989705975,0
0.00175622243198509,0.139828527690723,0
0.00166404615588042,0.135587765087749,0
0.00151416492993289,0.105553068976547,0
0.00161629904401457,0.0969282535210736,0
0.00159626144716084,0.0927832471650616,0
0.00136216799430348,0.065746026581035,0
0.00145268615184824,0.058299280035763,0
0.00139133377985002,0.0590059120954919,0
0.00125854287645312,0.056653570297488,0
0.001271819972718,0.0507405095087783,0
0.00331596975820101,0.0285320043652822,1
0.00797667248011644,0.0468531785069767,1
0.0124141865937381,0.0554420448806155,1
0.0159480800157536,0.0456230963739445,1
0.0167382527641281,0.0422527677084614,1
0.0198998744701864,0.0450546919781045,1
0.0173255210694369,0.0424568404123719,1
0.0143412905088638,0.0290573074598271,1
0.0104272899781208,0.0218702203370454,1
0.00568090310135233,0.0118717951314351,1
0.00446963386300807,0.0131165986895194,1
0.00449290001951405,0.0126296109975497,1
0.00435579653651154,0.0142026675278096,1
0.00392399044926827,0.0165736314197553,1
0.00401515498832252,0.0195220392474235,1
0.00255938480626074,0.0149651546397268,1
0.0021479136468341,0.00985368427005569,1
0.0028779806244712,0.0164010837115841,1
0.00359805267338153,0.0267201752195919,1
0.00430484669847202,0.0321647985710848,1
0.00400915741694328,0.0331760153591609,1
0.00365892429347676,0.0352084646394002,1
0.00364978219540403,0.0349281468376317,1
0.0036527152699672,0.0329238931221934,1
0.0036845432439072,0.031171928773993,1
0.00301250632744813,0.0307982611980358,1
0.00301652971896707,0.0373260849157305,1
0.00452824255415989,0.0584988666534712,1
0.00475188413869867,0.0369052582177933,1
0.00491987357895592,0.0302925549400706,1
0.00499876279756155,0.0313932091376219,1
0.00447061623280813,0.0264622163868497,1
0.00383604362773869,0.0237732076725339,1
0.00335306558743614,0.0227873653945551,1
0.00248282144794635,0.0213471270442219,1
0.00254556844391169,0.0212412231735831,1
0.0023108859370791,0.0202709365884308,1
0.00203143549457118,0.0176490955856952,1
0.00168916173980768,0.0250206795760856,1
0.000918913710687276,0.0197849211242012,1
0.0012168468122379,0.0295555367128072,1
0.000924869488311931,0.0239415620337766,1
0.000734337216345181,0.0204949201242705,1
0.000750200724832943,0.0213761371120724,1
0.000817741682767174,0.0214298481477307,1
0.00106075599322109,0.0202857491379945,1
0.00114457444298195,0.016660632568427,1
0.00214717584810086,0.019206235370243,1
0.00236179308526956,0.0126249749275073,1
0.00286386571189733,0.0171332487536296,1
0.00324915487039891,0.0202290118344312,1
0.00332840004305767,0.0185824101916364,1
0.003472782192373,0.018829297154969,1
0.00358964045350577,0.0178583348770336,1
0.00402938998400387,0.0168821674032135,1
0.00399731344495941,0.0140738503330542,1
0.00419130422689289,0.0163595431930584,1
0.0028002562113251,0.0157527922121352,1
0.00240222829903244,0.0240776606636093,1
0.00227849569982991,0.0230083429399638,1
0.00195949394581329,0.0189926860357958,1
0.00204969591342567,0.0231612422743467,1
0.00176324906955832,0.0202717700093439,1
0.00422239486217307,0.0242740633812375,1
0.00745028591671061,0.0398050431845168,1
0.0169906252360061,0.0722600059144083,1
0.0367255908298198,0.0952995826838618,1
0.0531160554625615,0.0873013199658971,1
0.106271361115018,0.0806349934357885,1
0.113199861792586,0.0355596867289407,1
0.101084016150964,0.0333999819562259,1
0.0889721130873585,0.0307299990555412,1
0.068686195648093,0.025630021542922,1
0.0545931714756433,0.0226138335497206,1
0.0404217447435566,0.0192237727480328,1
0.0385935572722267,0.0152498726020992,1
0.0825103974149316,0.0272504676948693,1
0.0981993474083838,0.0278210816035946,1
0.140723869592702,0.0360000476442814,1
0.151847608933457,0.0374923549191324,1
0.125592336479058,0.0287642331616492,1
0.111814871070295,0.0266628959416258,1
0.100707719364153,0.0259216699589379,1
0.181708278903367,0.00393285925250091,1
0.482544309453795,0.0130472148504016,1
0.469932665186489,0.00943730200113857,1
0.476073328941345,0.00888027903356825,1
0.60334364584404,0.00897876590345818,1
0.757734250108501,0.0109192143333603,1
0.754296469372716,0.00991801562234644,1
0.685101560996274,0.008981167905694,1
0.558975908454072,0.00675976802847661,1
0.456223122648264,0.00419304371070721,1
0.430067516211561,0.0101909836939132,1
0.321129254496317,0.0080241410978903,1
0.313182631051605,0.0105815734319106,1
0.275879283060395,0.0106552382469237,1
0.222154381074783,0.0170136684277449,1
0.145795097562801,0.0112738506931963,1
0.204158328860127,0.0200481733569714,1
0.207319624067992,0.0213836252700484,1
0.159398518775361,0.0167143451188827,1
0.155060314613009,0.0192596983025001,1
0.157917473991469,0.0208649482261475,1
0.161501799065499,0.0252794511124739,1
0.160377411284314,0.0288811217156318,1
0.157796196645657,0.0161014338800072,1
0.222460669990361,0.0236773656463729,1
0.231325868562509,0.0270939711573762,1
0.250405670769604,0.0298664198976333,1
0.261857948267786,0.0334643925047833,1
0.263545528125759,0.0328933685867737,1
0.277762164189905,0.0343724764924547,1
0.211155430529133,0.0286027425609483,1
0.150154450631857,0.0214024399599368,1
0.0697061115505297,0.00920814415121399,1
0.0263997535075694,0.0109083882552001,1
0.0273720409587915,0.0123393014288007,1
0.0249477527554398,0.00869940858138816,1
0.0366937578224919,0.0117568318551496,1
0.0227114424556283,0.00657879966625451,1
0.0230510848394132,0.0116060852409883,1
0.0282455673963755,0.00667221026541378,1
0.0325016242610158,0.00671959995205536,1
0.0361327986624095,0.0069163930528921,1
0.0369726958481732,0.00654960339243515,1
0.0376389323278831,0.00655725582319168,1
0.0373408512024716,0.00656991900074387,1
0.0364480420560606,0.00742386724829495,1
0.0300488713938016,0.00599719032285179,1
0.0312979591892942,0.0071625514054682,1
0.0239760227752397,0.00691430209140809,1
0.0166112094842843,0.0120106292406804,1
0.0124373849336708,0.0110508353272752,1
0.0117227582341109,0.019602784077005,1
0.0104056752361103,0.0206948813688423,1
0.0130291728341145,0.020592754896736,1
0.0250438869973903,0.0289429489989648,1
0.0439530268126941,0.0418046598487774,1
0.0435345228850379,0.041276611319055,1
0.0426229108131626,0.0343084473240205,1
0.0629181916905538,0.035327202758053,1
0.0499549984819075,0.0251190357116082,1
0.0962721656993837,0.0205618698827906,1
0.130548959410978,0.0161038816988415,1
0.102575148375478,0.0130284134124408,1
0.0850033682218581,0.0106482360919429,1
0.0759982381451284,0.00975691735445285,1
0.0734763721394214,0.0094820664787996,1
0.0637197039572426,0.00692507037908224,1
0.079674004644772,0.00981000748126751,1
0.112144275552806,0.0062409604424522,1
0.140140466652639,0.00617150826197791,1
0.130927762812096,0.00677529397294145,1
0.180499950357255,0.0120392274749629,1
0.179192551323279,0.0103948778805361,1
0.232819248302737,0.0115622071725227,1
0.222715178707725,0.00976009428908687,1
0.229747011943397,0.00921846177094286,1
0.223244229799625,0.00772819039900151,1
0.157015959439017,0.00224737024623104,1
0.174935166618629,0.0042877157766485,1
0.200084654050925,0.00505138080423095,1
0.214956915038075,0.00339733508321985,1
0.237886149450197,0.00324626970665019,1
0.279792852402862,0.00475785558434497,1
0.271389464388199,0.00438848981313229,1
0.269835083516535,0.00445862294976153,1
0.310997772918718,0.00561467760632268,1
0.347456120955085,0.00728890014403142,1
0.370353924295586,0.0116947311495001,1
0.276153732870315,0.00810958219151648,1
0.270779903678707,0.00880367143980773,1
0.205421870946327,0.0142812844223542,1
0.0917442618223751,0.0113834427060573,1
0.0933084929032176,0.0145592291715968,1
0.0922911128228225,0.0161090521079143,1
0.104787664930117,0.0181422367899982,1
0.131190192354073,0.0290475308183376,1
0.150515019255565,0.0331707519667093,1
0.170982030356119,0.0432048583068359,1
0.159951621402386,0.052502108070463,1
0.152360155355202,0.055867583617125,1
0.147052850089303,0.0665855788187109,1
0.101856899085027,0.0514762176459274,1
0.0538883457928107,0.0317822164405434,1
0.0220035503496747,0.0205276516455288,1
0.0204558122851413,0.0280226622008976,1
0.0256137041831057,0.0187560042227737,1
0.0313077017070414,0.0125720420320055,1
0.0337971989592539,0.0127526083413442,1
0.0435321225024734,0.0124080226000826,1
0.0452809615226468,0.00784409874072276,1
0.0467136548512901,0.0088354272160135,1
0.0544155683650392,0.010284111362846,1
0.0565345381468111,0.0105000557499126,1
0.0636278509345731,0.0117783273281072,1
0.0652328043474158,0.011034099795596,1
0.0588701946861594,0.012480402413179,1
0.0497253885339171,0.0129078726436419,1
0.0494207611787905,0.0126523887348074,1
0.0564856906273537,0.0128436399426381,1
0.0612583931102917,0.0187082023489981,1
0.101565263598347,0.0219153810466794,1
0.118461612850501,0.0211880738321835,1
0.115261790890392,0.0213316274893875,1
0.0973113250197807,0.0186199990676711,1
0.0975064989647959,0.0191840003836161,1
0.102740097730518,0.0203178581043323,1
0.0832709017601506,0.0108467923574541,1
0.0634562608926646,0.00808216493147173,1
0.0615289521042083,0.00973640447627414,1
0.0684308403955388,0.0121831307350789,1
0.0917492627146318,0.0220915938760829,1
0.0934924144367681,0.0196001575408722,1
0.117071795382691,0.0102626357219293,1
0.178836697636281,0.0158765502014862,1
0.215583383215178,0.0195113887006681,1
0.231588501253648,0.0126725973399874,1
0.264386063679943,0.016356027280982,1
0.222823154195661,0.0124546590042455,1
0.199938955090566,0.0104480184080606,1
0.201060023724778,0.0103806127574315,1
0.200381276779382,0.010014220192414,1
0.185402182226729,0.00861588319038606,1
0.201707436097463,0.0188792789358003,1
0.159718389223906,0.0106207766527606,1
0.127508062544114,0.00756499002175553,1
0.133648211130747,0.0118617195608322,1
0.100982856431788,0.00780512055691806,1
0.100377881290055,0.0097615108736457,1
0.134075041033273,0.012559255589379,1
0.218079700772521,0.0217813618573825,1
0.324914320405009,0.0278700604800456,1
0.325442278970409,0.0267223565240149,1
0.265075796728374,0.0231091676472141,1
0.207692661130324,0.0157076826122785,1
0.217252419174603,0.0166821032279035,1
0.221443226363648,0.0223181034419464,1
0.155756182970355,0.019722225177192,1
0.16222469757807,0.0175458545263094,1
0.17882633324262,0.0232439783803502,1
0.161651084702062,0.0227578027391126,1
0.103204980804932,0.0163469989756449,1
0.159972734137813,0.0244861037403623,1
0.127136032476574,0.0131186491922302,1
0.100406355100931,0.0132883686606371,1
0.149970684666236,0.0181269578865713,1
0.190580314633649,0.0195327628490698,1
0.170571168342464,0.0183367891066369,1
0.16209482920199,0.017651440565226,1
0.145468506504785,0.0161194054332944,1
0.106516411924307,0.0108160644269475,1
0.0975914398297634,0.00911891708084611,1
0.0990410856340321,0.00867340126074138,1
0.0864978157716185,0.0145255203959527,1
0.0358066929831992,0.00611237534512271,1
0.046609715912087,0.0104028571366145,1
0.0455183148598835,0.0117408092647326,1
0.0501602322405295,0.0121207510185959,1
0.0596041362235841,0.0146230644675354,1
0.0634422623012177,0.015789205126772,1
0.0644340278996286,0.0167610461768585,1
0.0347392894514607,0.00957530595260061,1
0.0279142701659417,0.0115152214180837,1
0.0341152158491452,0.0149723834883301,1
0.0316459296681161,0.0166328858553641,1
0.0292497289958993,0.0141879724357228,1
0.0311188890235614,0.0150584572533116,1
0.0346555788584187,0.0105293842109602,1
0.128407745578816,0.020124592821179,1
0.205438320410751,0.0231058028028769,1
0.191867481159927,0.0197170664267536,1
0.190166783600637,0.0188595140623498,1
0.206167589991097,0.0199234539410718,1
0.204610446176788,0.0191735001029605,1
0.178850724348874,0.0187313291868608,1
0.134600515463696,0.0126894050740613,1
0.119015816766396,0.0102728939788019,1
0.101728424651656,0.0120097333734135,1
0.0861685844986692,0.0168654891123213,1
0.06128795391101,0.0147384475619006,1
0.0682585970734247,0.00972837978331523,1
0.103812726822546,0.0159783913442889,1
0.0947579450140746,0.00958581834650447,1
0.0984637060286908,0.00999373149859737,1
0.102397477825056,0.00867268525262609,1
0.113107741071742,0.00998888164971783,1
0.114181998763549,0.00578865773212981,1
0.14723620018386,0.00809302844597713,1
0.150443599207919,0.00872747120256945,1
0.190475822733721,0.0109828038074847,1
0.185710835167431,0.0121497461352568,1
0.139267620118137,0.00931462640583856,1
0.145583350201482,0.00963013559738021,1
0.154667925300145,0.00744075467042722,1
0.17802628100075,0.0106460003633041,1
0.153826780241714,0.00875325367826461,1
0.139995381266957,0.0131838525135815,1
0.119373113274045,0.0116677389726778,1
0.117204944308644,0.0121125093228085,1
0.0773190145403001,0.00788055187224612,1
0.0833923432145936,0.0108389225019469,1
0.0857120304687828,0.00626615160761211,1
0.0828649527594378,0.00553255078686329,1
0.0861591394581232,0.0125986003832422,1
0.0744634858682214,0.0099101213215228,1
0.0613631919930071,0.00849212860201107,1
0.0685828895782681,0.00627802868878598,1
0.139493059202894,0.013520791319526,1
0.169813528843363,0.0147678765268268,1
0.197179951342434,0.0177756597450679,1
0.178522114947123,0.0159319396500211,1
0.18792385443406,0.0240933791653122,1
0.197146689672729,0.0454963281562686,1
0.144722968590882,0.0348449979528558,1
0.0899322027456988,0.0252285036483859,1
0.0404336572600342,0.0122474109834114,1
0.0134940088836756,0.00742551109532198,1
0.0152185835365667,0.0164576755770695,1
0.0242930272604835,0.00762466233423232,1
0.0419515937495909,0.00941521003708855,1
0.0440488165502814,0.00874470032599675,1
0.0673553977962765,0.00894065741812625,1
0.0756816521863283,0.00542831235708665,1
0.0759940004613772,0.00561408889685054,1
0.0789854907173059,0.00576763645917546,1
0.0796320596432181,0.00549114378770291,1
0.077146967183102,0.00572696783857865,1
0.0668629471140052,0.00419983487072997,1
0.0647994716738328,0.00565518883250562,1
0.0583392266629445,0.00558891904026174,1
0.0524213053644639,0.00475396952907313,1
0.0421117038862352,0.0058680336745163,1
0.0467098911636168,0.0145952644933148,1
0.0481478924206045,0.0125499462894631,1
0.07957114807149,0.0183808069307677,1
0.0862163066682442,0.0199957569128849,1
0.130106876422723,0.0247275407762902,1
0.234475395143831,0.0382509676798336,1
0.261915559438465,0.023741838353214,1
0.236733721471658,0.0265101346178834,1
0.201971269802955,0.0217147470515368,1
0.187456911870224,0.0171079990499193,1
0.193141155348986,0.0155038153487034,1
0.170863407396695,0.0138696866153902,1
0.172310216158405,0.0145044822182668,1
0.170740856667712,0.0146674167220783,1
0.175588245202845,0.0147959219452081,1
0.119295272999749,0.00952402221753045,1
0.082396201772537,0.00729997798619304,1
0.100025886183134,0.00689289919677155,1
0.117447849372826,0.00742811316458847,1
0.1306312373452,0.00731207655470434,1
0.13229402990857,0.00438470003376317,1
0.151091141837376,0.0066171918501633,1
0.191123106585829,0.000885683788810856,1
0.545527228793144,0.0110988091467458,1
0.751858477721656,0.0124554310068486,1
0.774569217169704,0.00813669538950889,1
0.861332038623243,0.0103846234704306,1
0.850153016313165,0.0098807181365268,1
0.763543156585863,0.00893493637607595,1
0.76612869711441,0.00952263708256222,1
0.747306964907851,0.0108138962910901,1
0.682100793711454,0.0093555307813694,1
0.657818359494676,0.0192224560179302,1
0.408307303775401,0.0176692793890862,1
0.145388175426564,0.00654193723018448,1
0.0832267191763121,0.0112322735344133,1
0.052296108691951,0.010835168849015,1
0.0434222299885525,0.01221697253436,1
0.0766674702527425,0.020450023754852,1
0.0765100926030754,0.0143036688574877,1
0.0733787656180747,0.00879951791397021,1
0.117786586277087,0.0147000394283601,1
0.110686313753085,0.0118746144352774,1
0.0998838345997126,0.0111552170607454,1
0.0992243281788744,0.011158536348992,1
0.107480619402648,0.011331707595059,1
0.0913237673543514,0.00956829996575293,1
0.0737584348917062,0.00796650277541485,1
0.0772550152316983,0.00825151953246395,1
0.0475947976689934,0.00791279833363497,1
0.0231719481659994,0.00781883349485774,1
0.0577292669556922,0.0130874806180573,1
0.0749380561115875,0.0136272075707949,1
0.0734147063233075,0.0146131369618838,1
0.0752644941546873,0.0135022184387199,1
0.0765943600503409,0.0117307079993729,1
0.0775790483765485,0.0112449810778436,1
0.0707603091949205,0.0109626149676501,1
0.0652840322024744,0.00999102472515714,1
0.0600001554032711,0.00935325567615727,1
0.0500235900308719,0.00846675919931214,1
0.0317435582137221,0.0090606343391348,1
0.0196295434244664,0.00867667078451344,1
0.0246078609848258,0.00802664866255908,1
0.0249151408598769,0.00646865501863924,1
0.0235134732298732,0.0105633408704491,1
0.0225711960079883,0.0101531387130368,1
0.0231874614225736,0.00990778712863214,1
0.0465465699450112,0.00660706664616774,1
0.133116592842914,0.0203209483214886,1
0.17086866268502,0.0203912881867408,1
0.173194085495215,0.0207818885501428,1
0.169335473518721,0.0167579204183335,1
0.170532958083789,0.014151963392536,1
0.197322115819041,0.01717879799749,1
0.192919012659697,0.0131575448350508,1
0.168928481704836,0.0126283587701765,1
0.124621883282167,0.00932928539872941,1
0.111328193112613,0.0130227719621429,1
0.104273304348627,0.0095904860913402,1
0.152693710749038,0.0160995431948371,1
0.162291954535818,0.0107009542620322,1
0.140499330708074,0.0102554738515457,1
0.126407527524015,0.011590352911734,1
0.128210834816036,0.0120436273565226,1
0.121479998304379,0.0108010403568146,1
0.126405157808394,0.0110241778562611,1
0.123994154794732,0.0104304654832169,1
0.1324194594933,0.00910177783878801,1
0.172125961219787,0.0158617490046977,1
0.11594244598453,0.0103873522947087,1
0.0936826647290423,0.01394742170202,1
0.0842898220571617,0.0130775149289702,1
0.0854468762882077,0.0141301248438975,1
0.0707353040870134,0.0064018538375848,1
0.11504848892559,0.0154959770232532,1
0.129723915464326,0.0180503901829702,1
0.143152512304395,0.0197190587525148,1
0.149947622358334,0.0236054812775355,1
0.107394093471795,0.0180110762211064,1
0.0918577848262678,0.0149512638943515,1
0.142770782115711,0.0205654552740366,1
0.228809838913914,0.0289704052225029,1
0.246699736825107,0.0234838026846437,1
0.238462386492348,0.0367808459355145,1
0.187885656408316,0.0281147556189814,1
0.19575353893729,0.026864935808393,1
0.160405721112016,0.0120295205115237,1
0.125395222220378,0.00851419232517987,1
0.121146299199846,0.00605827449982078,1
0.116502150239036,0.00523274621196427,1
0.113740894794987,0.00689584292140536,1
0.092532321539153,0.00440730173890951,1
0.104681249556827,0.00949892097489647,1
0.0843174119332652,0.00620034309187272,1
0.0812690788761257,0.00806215025540469,1
0.0822246102999945,0.008178097147559,1
0.0714308521586962,0.0111305964337374,1
0.0308210295153821,0.00371513761612012,1
0.0360727657236421,0.00640282408064197,1
0.042150091645893,0.00589948632774271,1
0.0437482655660235,0.00650501630875326,1
0.0354783494042133,0.00577362523470352,1
0.0345854966116316,0.00534775719684733,1
0.0396524130251204,0.00716113363104945,1
0.050875954454374,0.0102788322007705,1
0.0514365350024126,0.0115627404694091,1
0.0493061607895457,0.0137560258074855,1
0.0550568425478188,0.00962815981775152,1
0.073106420367165,0.0167928948798817,1
0.10251809598706,0.0235726692809778,1
0.157350241775027,0.0361536491123047,1
0.219585603458047,0.0427985596833583,1
0.193942199986736,0.0326309682013573,1
0.195752726831023,0.0267540350388844,1
0.191371232694135,0.0225885636600818,1
0.175041659643691,0.0215701686179675,1
0.138048655338856,0.0161995082467308,1
0.129928105764691,0.0207217310089962,1
0.131643059023736,0.017336746379313,1
0.128944320017102,0.0187908194301129,1
0.134518243617798,0.0175034676366119,1
0.107571132613201,0.00942200492077115,1
0.128824817522658,0.0107212170205323,1
0.13501512593594,0.00392759408688893,1
0.195209483562306,0.00713870821953248,1
0.19992533909558,0.00651960509481563,1
0.199123162004518,0.00675715450871711,1
0.22114925246231,0.00790440231183037,1
0.233152851416539,0.00637686292214253,1
0.244643981332757,0.00588283681343464,1
0.244922240101883,0.0061634059139036,1
0.229384591850223,0.00594714933741858,1
0.198400819655003,0.0055186267833368,1
0.228771431656456,0.00861470513452645,1
0.389805514401791,0.0171269229304302,1
0.517571140604373,0.0151404927267287,1
0.498223169480456,0.0150671708342724,1
0.391536718776563,0.01154816572641,1
0.427707838072456,0.0139357311084719,1
0.537316172552206,0.0193753055696872,1
0.532402542253854,0.0118280976580843,1
0.531535040167828,0.00905060836057663,1
0.567033865901432,0.00984874568059101,1
0.593816853499096,0.0139020126647929,1
0.430496309706294,0.00978473287496046,1
0.26249801681181,0.00686566364002678,1
0.259817691108006,0.00702687116846949,1
0.246920234755187,0.00668984522755672,1
0.28245679978997,0.00928636103789876,1
0.243798094277947,0.00578712788105506,1
0.211189576446868,0.0116482981984184,1
0.157142909078622,0.0163370264721407,1
0.145636990242942,0.015027343261381,1
0.135736479734681,0.0126184243019605,1
0.144666489905747,0.0164035692483447,1
0.208084454870255,0.0197813515635072,1
0.278730348003837,0.0260772447681251,1
0.354178433521086,0.0303631846198467,1
0.287292191989733,0.0129000216380973,1
0.217081952476707,0.0082936460083004,1
0.241576596390879,0.00982277290245059,1
0.250101937661264,0.0107062168450915,1
0.232361813235617,0.00904400221743508,1
0.223148610206368,0.00862001149624016,1
0.222878696931655,0.0061647185339344,1
0.23868859404461,0.00711406781940964,1
0.236285105063587,0.00705093360608475,1
0.214544176304602,0.00609864624260016,1
0.17281366619829,0.0109333963052585,1
0.0692748469041844,0.00591025762300528,1
0.0661225275170083,0.00639535927355936,1
0.0586968481191419,0.00487144587299405,1
0.0594200908728464,0.00481233977586544,1
0.066059251921889,0.00567420319769988,1
0.0613281992057527,0.00826026749251179,1
0.0425631844731148,0.00561030447699816,1
0.0412622383264792,0.0046141479617931,1
0.0430584806842886,0.0052862235384533,1
0.0485673955691397,0.00695272233381247,1
0.045529184171905,0.00563752972788723,1
0.0771347476014815,0.00847188127905777,1
0.135667846389364,0.0143413392807263,1
0.253917370659639,0.0213152625096819,1
0.257756454442057,0.0167206686898265,1
0.257764925564704,0.0159169273398708,1
0.290372132543084,0.0184770946455167,1
0.286699485483722,0.0141992449628849,1
0.267184863398778,0.0124707078817167,1
0.229743519769468,0.00961530971366854,1
0.199979143384791,0.00904364483863832,1
0.211036817404812,0.00629228441657841,1
0.234042452479163,0.00476600194808213,1
0.250779798119259,0.00537865672913298,1
0.232693728956162,0.00548013633533268,1
0.242997788584785,0.00523313196818899,1
0.286520515593214,0.00564004028302524,1
0.254077764250385,0.00565019152044186,1
0.216364588402154,0.00395775165069857,1
0.220412634761304,0.00420895671280108,1
0.204841223598125,0.0024438580391868,1
0.207169471008597,0.00524093750280177,1
0.155169612121633,0.00376990101129436,1
0.151351036116096,0.00452911312777178,1
0.154433627414597,0.00506693702301015,1
0.178407754408719,0.00486473211924326,1
0.215588295443628,0.00514116082244215,1
0.236698698016979,0.00585894117283276,1
0.251159489171623,0.00266133186190114,1
0.30917316675376,0.00521857161309684,1
0.307521410175217,0.00456487148305684,1
0.341468540548348,0.00521032036930589,1
0.409582977532349,0.00841283758017134,1
0.41253549540326,0.00615810562531756,1
0.426189565232957,0.00657839947182691,1
0.411391284548837,0.00844173158418324,1
0.35435672389258,0.00925190468670944,1
0.315220990422666,0.00718802172514271,1
0.299354711548249,0.0162057350017883,1
0.206889240047201,0.0128412064414796,1
0.194667230656853,0.0190237243028476,1
0.164502863343202,0.0184168020803626,1
0.0995027006401091,0.00913051324393588,1
0.151846534767945,0.0169026063372039,1
0.129153808951982,0.0107922438843413,1
0.117807058803801,0.0107712590910321,1
0.131803700906063,0.0120668612245336,1
0.164150692925795,0.0153892076887725,1
0.231250044683707,0.0211787991044483,1
0.27738502710006,0.0230585246285207,1
0.244341589419351,0.0196098924642487,1
0.222770149169049,0.018322212849379,1
0.114920768309819,0.00960414561876991,1
0.101949508031803,0.0149475822787486,1
0.0766550928829677,0.0154506536585664,1
0.0531996879287483,0.0101419131700502,1
0.0338534111039992,0.00577955663975863,1
0.0290681250475721,0.0052536097926329,1
0.0308727571634376,0.00685987883569781,1
0.0361276728787874,0.00340280852379255,1
0.0778426728870798,0.0103260811150552,1
0.078665266259004,0.00857678226226857,1
0.072874755628332,0.00800573970082564,1
0.0685282900143388,0.0084642921969018,1
0.0766605091920836,0.00932923523126903,1
0.112518116809913,0.0143020647213395,1
0.124962447649239,0.0116334910968871,1
0.114928468623609,0.0109333489186672,1
0.0888253109335686,0.00792333980438824,1
0.0814951712162657,0.00999218830868283,1
0.0831562987085988,0.00963127945210366,1
0.0796214710563184,0.0107582476669344,1
0.0786826724258066,0.0112211034523307,1
0.0704233583175202,0.00882213165874805,1
0.0683859567970975,0.0106765073756551,1
0.0580172456546154,0.00807147244442741,1
0.0521147867756542,0.0080083884142227,1
0.0580506566617284,0.00942801986275604,1
0.0630411935181587,0.0107034425621493,1
0.0688826667648274,0.0131902120607589,1
0.0602380369601157,0.0176273936972167,1
0.113626503251078,0.0167319767256312,1
0.187602651725645,0.0233225305216323,1
0.187804436600822,0.0136982481316979,1
0.198269880746664,0.0153895353244079,1
0.152554155290595,0.01190057859172,1
0.147562018686627,0.0123543175193617,1
0.150400199891383,0.00977584791433175,1
0.167566813685558,0.00933731985847148,1
0.173492445737127,0.00933440971797211,1
0.176128754086661,0.00889732727694984,1
0.164742802535128,0.0129921905500676,1
0.177529750298098,0.00484147994880122,1
0.338801673535694,0.0173772551315756,1
0.317989252262982,0.0121117864340414,1
0.320534268576457,0.0134377053635387,1
0.314149794531887,0.0078977810906222,1
0.433402663427318,0.0135830432988725,1
0.538629375599132,0.0169895434813141,1
0.601008522658034,0.0167144277118984,1
0.595517215036903,0.0162502368748882,1
0.589431159281426,0.015698641860418,1
0.52799853112393,0.0267987198055368,1
0.328954876392301,0.0157033864088795,1
0.296598018400056,0.0188120119633142,1
0.366891410548379,0.0203316498460837,1
0.42875502012777,0.026036819328312,1
0.366146385579492,0.0265370713842783,1
0.279592676108306,0.0214531184412789,1
0.188997011672673,0.0158995456812536,1
0.172793006014632,0.0134523615512222,1
0.202512276033836,0.0154343126845748,1
0.168244702978669,0.00839282434508282,1
0.190536740800259,0.00884038638966294,1
0.249878125024852,0.011406052876296,1
0.224854689893108,0.00965434213641247,1
0.200729838085703,0.0138240497174571,1
0.224247810882413,0.0132355803766473,1
0.292688579700862,0.0180705067479313,1
0.335383116677738,0.0204804230446905,1
0.383899035428793,0.0268585821675743,1
0.311602063766852,0.0274784532214466,1
0.1702165433561,0.0196701009862892,1
0.168463280853035,0.0224508727346879,1
0.186428238616937,0.0210433879572785,1
0.128027320151042,0.0167664989388157,1
0.101496857305517,0.0106667955108657,1
0.102553979121541,0.00826979337275587,1
0.121353884750756,0.0097678188579973,1
0.132929861115293,0.0108079145244993,1
0.148501754670746,0.0122328768755405,1
0.143353268443473,0.011717064272875,1
0.141907832825054,0.0125171944029441,1
0.149378725055078,0.0133075096746738,1
0.105121747245696,0.0111722091365751,1
0.0839209835115356,0.00894418937038482,1
0.041287003451835,0,1
0.049654321222408,0.00785807266604914,1
0.0469927155901557,0.00637859725916906,1
0.0489670494517125,0.00587798706198952,1
0.0532474504068932,0.00465680923979709,1
0.0991232730753143,0.00572424259339056,1
0.182921173572738,0.00853146056009006,1
0.178601915082721,0.00852182737039383,1
0.180206016135951,0.00838273932413591,1
0.176809683729661,0.00838511093190332,1
0.170199604355276,0.00936940160816162,1
0.177237708097662,0.0102295855524998,1
0.179698294826281,0.00988235444811177,1
0.166509584207736,0.00976037811693468,1
0.202784731130402,0.00817394702543786,1
0.296654372198829,0.0164128909987856,1
0.337109481656799,0.0217976313977588,1
0.339321822023618,0.0203775137691661,1
0.390111186188333,0.0187083609171559,1
0.391070224705036,0.0204187082066932,1
0.313908700514592,0.016502510413622,1
0.206079224186033,0.0102976415084697,1
0.281342598398288,0.0116031848347849,1
0.250597911374903,0.00494841196970942,1
0.258323338154421,0.00781404642997213,1
0.266266489109361,0.00812445157512009,1
0.277794799435493,0.0090613722872224,1
0.270601588922456,0.00976280665464652,1
0.255763743974634,0.0108498360329945,1
0.287563797023012,0.0102655062228681,1
0.383432110757406,0.013696566006624,1
0.447279690780108,0.0164915804467852,1
0.282142110238803,0.0163920065926161,1
0.133397341279636,0.02327434042053,1
0.139231618345807,0.0164331245993672,1
0.152897394498369,0.0175496683068084,1
0.161046994233606,0.0180661085359335,1
0.177390502044013,0.0110794621564586,1
0.390815172751603,0.0219687151573898,1
0.477774515677019,0.0207361212005418,1
0.408841151430003,0.0173040175880009,1
0.396849417257085,0.0100742427223903,1
0.506432239642834,0.0129145989806564,1
0.440391052960433,0.012084479770024,1
0.394039524313824,0.00905592248026373,1
0.4811967370115,0.00731951343717677,1
0.563817667341677,0.00888796640328102,1
0.623254862286073,0.0126847358809025,1
0.580594055326429,0.0107663325959899,1
0.557923402462129,0.0122438683148516,1
0.517287613406929,0.0116960615157827,1
0.501458293635758,0.0162313404334843,1
0.466261985998054,0.0149547451843944,1
0.528069719265228,0.0183806861425458,1
0.351162760432275,0.0125132917040467,1
0.35005944633858,0.027648771667403,1
0.407169046878609,0.0324146468773771,1
0.427296024111573,0.0275329486561192,1
0.415392313165948,0.0329470408550242,1
0.357691098274945,0.0325488552213826,1
0.198507419177826,0.0182447617158204,1
0.0851797188087423,0.0100929467479203,1
0.0774572722766097,0.0118540748783282,1
0.0779174152794116,0.0120414422731661,1
0.0738944868340916,0.0090650744506713,1
0.152291015291061,0.0159465943400146,1
0.178197386426215,0.0123964372670972,1
0.168143408242857,0.0126303180562582,1
0.160536140472101,0.0157536755972571,1
0.149218169791818,0.0153402325088614,1
0.138626270358052,0.0147122393249853,1
0.131570497619944,0.0138358488385413,1
0.124601274695906,0.0130612173326169,1
0.123014161047707,0.0130865769936026,1
0.134126848957213,0.019213298872557,1
0.0629809928956176,0.0166334262805392,1
0.0228155623753235,0.0175727917164876,1
0.0224822307004141,0.0174319637851948,1
0.0252415781647619,0.0205105783246118,1
0.0218111105819399,0.0101266264514896,1
0.0343240614398472,0.0123408704061898,1
0.0347480276596204,0.00847673174280518,1
0.0350667877206749,0.0086790189301356,1
0.035576852871598,0.00846455956677285,1
0.032871533391143,0.00992338466547953,1
0.0250196066150888,0.00711464769269256,1
0.0244862338778653,0.00822002914414392,1
0.0239468479121425,0.0101780034726902,1
0.0198571682996704,0.00594870255824381,1
0.0211968416007412,0.00534331241202713,1
0.0300196293703755,0.00808447300029224,1
0.0318857542757838,0.00822024975890528,1
0.0293112846357815,0.00754220911642251,1
0.0316918370714434,0.00849768836005702,1
0.0326469694938957,0.00812685482975545,1
0.0329876124575176,0.00861183451328656,1
0.0333023478995172,0.00899325185501095,1
0.0342653109863357,0.00935282387814548,1
0.0342839005121986,0.0109703973384399,1
0.0320804633726971,0.0161928881581553,1
0.0139841090403518,0.0095081146035367,1
0.00856914659180524,0.0107238687891122,1
0.0105939454447297,0.00990184308306373,1
0.0168507859700843,0.0149310213956442,1
0.0159125008054666,0.0130102455748927,1
0.015485656933718,0.013542038784768,1
0.0158940657208249,0.0137277997671489,1
0.0150797288546084,0.00965672531980177,1
0.0140737815751557,0.00622359340838117,1
0.0128577362774904,0.00463434520897384,1
0.0154009554922289,0.00722438913442152,1
0.0194976001198555,0.010782871000074,1
0.0216775527468293,0.0151809886728925,1
0.015494731322972,0.0127067452314579,1
0.0199999642733246,0.0181128192083379,1
0.0269722329562406,0.0223812722179159,1
0.0273415438128367,0.0239174789610612,1
0.0290056213275024,0.0308845558421395,1
0.0303831959041712,0.0654091844735014,1
0.0208277922917479,0.102629440211065,1
0.0206137711206814,0.102827459009471,1
0.0185174219787325,0.0858885945327733,1
0.013592338230973,0.0682078570323727,1
0.00660792264812759,0.0445968421552182,1
0.00341801607984485,0.04996755243013,1
0.00286235415317961,0.0396978569771139,1
0.00287366422833432,0.0386103489860618,1
0.00357566463973399,0.0425225135904855,1
0.00444739437958311,0.0642620738545232,1
0.00294789564274755,0.0430842323728979,1
0.00219424241305091,0.0352986000043635,1
0.00480778827592989,0.0234830613387715,1
0.00813882399033456,0.0214423724253174,1
0.00783357796403031,0.0185790206127629,1
0.0071491933819722,0.0163981115160936,1
0.00606179688079045,0.0136756371694327,1
0.00965517310796234,0.0162759043436119,1
0.0118747467925941,0.0106617662670624,1
0.0145241546493785,0.0115214973842201,1
0.0171761405420092,0.0141381346210342,1
0.018336633519203,0.0141916646061966,1
0.0177751084570751,0.0197794939204268,1
0.0168646824684298,0.0218644730797423,1
0.0183289047058754,0.0248354950707042,1
0.0194577561380566,0.0273314810877193,1
0.0190450657848338,0.0261493862655623,1
0.0101707973802944,0.0243504146046935,1
0.00149292622953924,0.0132297085509693,1
0.0015934620148828,0.0392815406168964,1
0.0019854584404382,0.0452037801030811,1
0.00205758651654576,0.0818016136992607,1
0.00145525165603354,0.0823503101300138,1
0.00150934544091242,0.0958058003440549,1
0.00151973632217922,0.0932272132406526,1
0.00154626590280135,0.0961667238431306,1
0.00104400462413519,0.17747564017079,1
0.00011769001422823,0.174089068222593,1
1.70610864336866e-05,0.686583332480999,1
4.35969662710291e-06,0.426170845209743,1
2.3219680431598e-06,0.406319019301245,1
1.90227996704504e-06,0.342755218034165,1
1.40934785594133e-06,0.313423969299264,1
1.38373623628346e-06,0.308468359371275,1
1.82293365751019e-06,0.346661310757533,1
2.53402100127389e-06,0.414035422700669,1
3.1272836573517e-06,0.431349528853144,1
9.26006428446266e-06,0.597938442592702,1
2.53466363205935e-05,0.770312937356237,0
2.528245502005e-05,0.480242307007704,0
2.29631207096175e-05,0.378166721497915,0
4.0185810482006e-05,0.391230173514997,0
5.35261001691566e-05,0.389349891955726,0
4.80801616322589e-05,0.351567200613111,0
5.09976628736834e-05,0.344209695324895,0
4.4095976604325e-05,0.264912595533752,0
3.49990993617395e-05,0.228465114918663,0
3.20438840297544e-05,0.222139145575083,0
3.92651164007063e-05,0.231721247417534,0
3.80144294147278e-05,0.243479873382135,0
3.18106998282154e-05,0.191843838420537,0
5.96123082238487e-05,0.198611553421175,0
5.96109124176603e-05,0.163508022394442,0
6.40686505753429e-05,0.167779608147963,0
6.35255780618858e-05,0.144073243051669,0
9.04341960695999e-05,0.159351287243825,0
0.000107374766645853,0.153819198216582,0
0.000107587871269079,0.152217745595655,0
0.000104118941245484,0.155018620150705,0
0.000101610632017869,0.160640303796547,0
0.000108711008912153,0.190955924536009,0
8.00449308323303e-05,0.207155185200996,0
7.65298921581142e-05,0.246169447661535,0
7.73979719081711e-05,0.260781452357626,0
7.86343945014892e-05,0.339340567199468,0
4.63988417871499e-05,0.444853757956168,0
1.25287560584869e-05,0.353741221659218,0
1.02764369931171e-05,0.27851210898246,0
1.77597453490505e-05,0.364268217472175,0
1.97824520836112e-05,0.370987523398523,0
1.93888747615978e-05,0.261920503728079,0
2.87914752181203e-05,0.355290799005784,0
4.01024307851788e-05,0.447290584699803,0
4.98761843619658e-05,0.49671546943688,0
5.84893322125914e-05,0.535037117000838,0
6.50072911760222e-05,0.560141793446471,0
6.81596076571931e-05,0.562131622295279,0
6.26616656226265e-05,0.783398068060145,0
3.81284492124813e-05,0.663873126891492,0
1.49403585649421e-05,0.433957180481134,0
1.99636613616775e-06,0.366102113623107,0
1.61415701480416e-06,0.378494930598884,0
1.53466331244599e-06,0.371398096297937,0
1.48936176260475e-06,0.35906768384173,0
1.34903850329231e-06,0.341869928840547,0
1.37544259989904e-06,0.329482488973197,0
1.43559840232221e-06,0.327686057069609,0
1.39589826081396e-06,0.311244077886758,0
1.40383245882508e-06,0.316119935925129,0
7.09965541988341e-07,0.23912661859567,0
6.57695255612454e-07,0.26783906351376,0
5.86155570404838e-07,0.251883655329719,0
5.8505185599945e-07,0.250812702028472,0
7.47358293103941e-07,0.283986356595929,0
7.43178475082491e-07,0.272897085512269,0
6.68273673177067e-07,0.270674408488614,0
5.05722094483931e-07,0.251286261182612,0
4.79014842011498e-07,0.260871341106173,0
4.5193804917722e-07,0.266310840456587,0
4.78268545581706e-07,0.276023284647133,0
6.12586990485337e-07,0.27616177916191,0
8.00962619224e-07,0.311211152761847,0
8.29536815388599e-07,0.324702430154665,0
1.63841025373595e-06,0.402896916877654,0
2.96563991069564e-06,0.471288634441559,0
2.84109480297444e-06,0.440628347927044,0
2.77924609969029e-06,0.419743766678602,0
2.71306701065069e-06,0.402013076463194,0
2.59168892444245e-06,0.392006399304474,0
2.23426017339376e-06,0.37178782618121,0
2.17149651857585e-06,0.377660205208824,0
2.20019049546174e-06,0.380192966258238,0
2.20659919699345e-06,0.378364817557935,0
1.73076042017988e-06,0.37217736334755,0
6.82446185846464e-07,0.262168081646993,0
6.58208629049269e-07,0.257051604489824,0
6.7568304883102e-07,0.255523379792339,0
6.16879469731397e-07,0.25018735099865,0
5.6967104929089e-07,0.243073376647198,0
4.91947311534884e-07,0.225973468554187,0
4.57617387136118e-07,0.229874789817224,0
3.66964354767414e-07,0.214206448259768,0
4.32482100290399e-07,0.235872156120038,0
4.08381257071487e-07,0.235402392818038,0
1.98829455111245e-07,0.177845289943234,0
1.93952503670909e-07,0.187503663786422,0
1.81753534725162e-07,0.196299685475589,0
1.07819197185773e-07,0.167712704613335,0
1.29648439914307e-07,0.16886726808152,0
1.0311195915296e-07,0.155291689673015,0
1.31537511771856e-07,0.166575580829621,0
1.20680952789358e-07,0.162882601526361,0
1.97127799193523e-07,0.179281389306128,0
2.70279665563193e-07,0.194979164664338,0
2.64410121591442e-07,0.197763048653868,0
2.55439844393467e-07,0.196294085673119,0
2.77750903870796e-07,0.198058458435332,0
3.57150128583727e-07,0.220044452491496,0
3.56263943664965e-07,0.219714476399484,0
3.37240167468956e-07,0.208992137802901,0
3.2405178090248e-07,0.205478113855356,0
3.57853323195736e-07,0.212541747740964,0
3.53455687059414e-07,0.222363142151247,0
2.08982723272318e-07,0.180303980907087,0
2.16107126639944e-07,0.182675359392575,0
1.71837711399558e-07,0.175017757695715,0
1.66915349115486e-07,0.181982249448931,0
1.96753736989186e-07,0.187838436256763,0
1.90404685294593e-07,0.187767876186085,0
1.08124344586363e-06,0.375451347253538,0
1.47798365238519e-06,0.405453992540627,0
1.47058562944217e-06,0.386487208156135,0
1.36064357152114e-06,0.36141380075436,0
1.31591773881744e-06,0.3638533154949,0
1.31802664918757e-06,0.35575983016984,0
1.29358416633707e-06,0.354129140479054,0
1.11067275130605e-06,0.317519531836983,0
9.65032478690447e-07,0.298716074131037,0
9.90995455130793e-07,0.303825269447672,0
5.65474779459526e-07,0.235904245604724,0
1.02588493348543e-06,0.310402800272899,0
1.09660953253174e-06,0.321419033270856,0
1.15142513518282e-06,0.32233164161212,0
1.1606612389936e-06,0.320406347472973,0
1.17797239139861e-06,0.33100470924236,0
1.14120452043146e-06,0.328979412393402,0
1.14781458826812e-06,0.339041455761636,0
1.08266378545278e-06,0.32252341326364,0
1.25184996538333e-06,0.319271860076528,0
1.44547689639491e-06,0.337958994886085,0
9.42402485003401e-07,0.280399481074112,0
8.19731632889895e-07,0.264050047705621,0
7.66999252695224e-07,0.266815223223869,0
9.15849841060386e-07,0.282148137844048,0
1.01613612970374e-06,0.281956458762923,0
1.03895979294256e-06,0.283733437149957,0
1.0480515826313e-06,0.280495863317312,0
1.25037190014536e-06,0.313983849693848,0
1.16826101307923e-06,0.319078730007842,0
7.6869792612109e-07,0.282964101892858,0
6.83636392515664e-07,0.272044009876407,0
6.84716728033281e-07,0.266224681226331,0
6.65020351819135e-07,0.256034778124909,0
5.96620749488354e-07,0.249154470377048,0
5.48809769483609e-07,0.250441606961914,0
4.39849913477205e-07,0.222307726931641,0
4.24875880173978e-07,0.228344804110491,0
3.0745065397792e-07,0.194487958097896,0
3.03625079021378e-07,0.203189816351931,0
2.18235759940084e-07,0.183372326202208,0
1.95730068816825e-07,0.192679932960649,0
2.6270865809255e-07,0.214502800909663,0
2.74818056073215e-07,0.210979250242446,0
3.57291460213914e-07,0.232741132351327,0
3.89039316341079e-07,0.232928950848979,0
3.96194699140236e-07,0.229410495691892,0
6.07758817218252e-07,0.272099358001102,0
6.6667784761551e-07,0.268097949270865,0
6.92112826788007e-07,0.269099101254154,0
6.29767298086364e-07,0.256297692730692,0
5.57793034952569e-07,0.24149437852028,0
5.01722188067959e-07,0.244936493953082,0
4.58770456971246e-07,0.245504047768967,0
2.81620350320439e-07,0.206366256904111,0
4.18326712896817e-07,0.251605793464982,0
4.59613155234565e-07,0.267906637714679,0
4.48700025116225e-07,0.269315461841293,0
4.51639799991665e-07,0.296157617173218,0
4.63847908831807e-07,0.277413297325583,0
5.84095053370302e-07,0.29635801431754,0
6.30310304022906e-07,0.284241017485022,0
6.87918096307278e-07,0.280912057958777,0
1.03361776519159e-06,0.320112310176867,0
1.13534729126479e-06,0.301959333368601,0
1.02552616857803e-06,0.288353827586351,0
9.79253288486022e-07,0.280554354381145,0
8.9895354365154e-07,0.270210116173787,0
8.36248384157766e-07,0.260311713784108,0
7.7932319767066e-07,0.259020623408708,0
7.64182241032937e-07,0.255782987474974,0
7.95265578732798e-07,0.264358443643304,0
6.70537288286025e-07,0.247389679655978,0
4.39264960235855e-07,0.216523312488071,0
6.06391777644842e-07,0.276244696667047,0
7.3896527239414e-07,0.272738636498678,0
8.44679888633446e-07,0.294897195850887,0
9.25846768922579e-07,0.312729545449684,0
8.91172126190958e-07,0.301394645552619,0
8.78022512018605e-07,0.298390264033732,0
9.05876292085965e-07,0.297620125804288,0
8.84089092871652e-07,0.302822156874493,0
8.53447260175826e-07,0.30035667694568,0
8.64114479030208e-07,0.303770369810027,0
5.67450054952642e-07,0.268687998850349,0
3.19030900177759e-07,0.234822142545656,0
2.48755214260415e-07,0.212073028779154,0
2.04637136429346e-07,0.193316791640732,0
1.67136534559871e-07,0.180467291053624,0
1.49091592948975e-07,0.178419407086841,0
1.39247830474978e-07,0.179875096929094,0
8.40208363666641e-08,0.153305969503356,0
1.05718753244139e-07,0.169650240395457,0
3.45928358663044e-07,0.237889655416437,0
3.47189471670874e-07,0.231624951511698,0
4.02359317386858e-07,0.243258101885239,0
3.98752618848748e-07,0.232264628035452,0
3.66894314313514e-07,0.225517179959655,0
5.35155248302933e-07,0.267260838347529,0
5.8083701775105e-07,0.275000288118052,0
6.01501260677033e-07,0.289966969814646,0
6.02640476356445e-07,0.2919473482002,0
5.51264648908982e-07,0.278939551706969,0
1.69181561878641e-07,0.174885180705794,0
3.03559175572312e-07,0.231083708351397,0
5.85426591669689e-07,0.312933528344401,0
6.41482045047947e-07,0.306499945288005,0
6.81206623747525e-07,0.301769112701956,0
5.89863866084866e-07,0.281219490062787,0
7.0854048813787e-07,0.292226621043584,0
8.1307317171764e-07,0.30229866174721,0
1.68641682748077e-06,0.414363613564536,0
2.50772119567269e-06,0.491277491883544,0
2.5717653978002e-06,0.473474162950937,0
2.34465422314503e-06,0.4582315864372,0
1.90392514803634e-06,0.411146529313254,0
1.7957330431592e-06,0.409879300303022,0
1.63573245709672e-06,0.408180827881559,0
1.33873476360665e-06,0.377779655659484,0
1.31449932341658e-06,0.389873433438025,0
1.44058358935407e-06,0.395229174958864,0
1.23400360000436e-06,0.356870431932314,0
9.02291914132064e-07,0.309396291650761,0
9.25848693110873e-07,0.339875275269787,0
9.42699868304224e-07,0.340713535178119,0
1.00977601392645e-06,0.354356120577322,0
1.04809160574781e-06,0.369238141830504,0
1.05024429140163e-06,0.373844036503484,0
1.04476737805125e-06,0.370779648417123,0
1.07105631198858e-06,0.373833112699062,0
9.99746663491507e-07,0.394430628746166,0
4.67137597348495e-07,0.26368359378105,0
5.9100067652891e-07,0.298233179701385,0
6.2697414635892e-07,0.299299817412918,0
8.09032376300425e-07,0.320472309887126,0
8.24587803096657e-07,0.31914621138558,0
1.07018205703725e-06,0.358729073813976,0
1.17819973424554e-06,0.343641244989996,0
1.25989509284959e-06,0.328274005375914,0
1.27308453771963e-06,0.337564843751294,0
7.83052370793678e-07,0.269957578503921,0
7.36327691290259e-07,0.276525007692523,0
8.14782235760293e-07,0.282819818053065,0
8.20623975211197e-07,0.282908622470868,0
7.5492449010385e-07,0.276184377702186,0
7.52030510909807e-07,0.27081728093053,0
4.81169451853607e-07,0.219921526488202,0
4.11132846331782e-07,0.215591745569761,0
7.51256698587408e-07,0.302396870453361,0
9.7603296695733e-07,0.334020111624838,0
1.08096973007882e-06,0.336337326455451,0
1.03649837127699e-06,0.327102388518134,0
9.39473870420066e-07,0.312007354475061,0
2.00133294720141e-06,0.34578562398531,0
5.45375737982053e-06,0.470637046828758,0
5.33924316188492e-06,0.405296377106701,0
5.08617151223419e-06,0.394375415260163,0
5.14147778290021e-06,0.399846511873256,0
5.57835578755747e-06,0.418558352566857,0
5.69188520592425e-06,0.420023517801429,0
5.68819230375057e-06,0.421763554978136,0
5.22378609168529e-06,0.403614186406115,0
5.26238174911283e-06,0.404453053876674,0
4.72723429377248e-06,0.47144045434765,0
1.36271322845007e-06,0.307339953665969,0
1.28666622837338e-06,0.366996361778836,0
1.29551913008543e-06,0.366120517804857,0
1.97959885558401e-06,0.416696213953937,0
2.55838459240433e-06,0.451299205113724,0
2.53456160197506e-06,0.456446540438224,0
3.41915175347845e-06,0.374040954345176,0
0.000131916889065307,0.0926295134273434,0
0.000796139264124402,0.143693980397595,0
0.000866611178763959,0.0786931929022995,0
0.000848504097416299,0.0797772292883177,0
0.000837174813955741,0.0806726601500977,0
0.000833857853533526,0.081052761182783,0
0.000839311412625744,0.0755485533840173,0
0.000842678592823078,0.0784977314211646,0
0.000827724030381198,0.0804296101341908,0
0.000808599837244159,0.0764464059216009,0
0.000778450569139476,0.124718713644481,0
0.000289014003912891,0.112569962243676,0
0.000427378217490804,0.484321204760755,0
0.000663920188695661,0.61945355060292,0
0.000988022123950858,0.758945119703371,0
0.00141285779330375,0.849865812471506,0
0.00165755264074677,0.792999245113999,0
0.00145294639725669,0.402123449210676,0
0.00112775497504435,0.184781743617151,0
0.00120642820620785,0.191228972985727,0
0.00147750776213634,0.210572976314061,0
0.00179456223615638,0.24420145163584,0
0.00202552652638652,0.289691984750641,0
0.0021369008168235,0.312733005502374,0
0.00208722152002582,0.276513806910046,0
0.00160855593512252,0.195327908298697,0
0.00107867315910832,0.119335508985927,0
0.00103900771677621,0.0853128626860734,0
0.000988840993547392,0.0910546015738996,0
0.000982888004841251,0.0937161819095894,0
0.000931489762524352,0.0904325761054526,0
0.000841374923601055,0.0840830364308733,0
0.000804295680484181,0.0837576140113607,0
0.00079261000954707,0.0830937448920183,0
0.000808598367164303,0.0887761056175866,0
0.000811764630547066,0.105440672073828,0
0.00061513644155254,0.0998995968712093,0
0.000188764537979874,0.110292678877697,0
0.000185082749917783,0.142074153566254,0
0.000179114279577466,0.145116827038778,0
0.00018078895452693,0.141624380711596,0
0.000193859002070189,0.09632616016337,0
0.000261506024245673,0.103558987411421,0
0.000259097057203715,0.0979824167435627,0
0.000225439578888023,0.0895667801611691,0
0.000183734192269146,0.0691340779751486,0
0.000179189198329737,0.0846944387425828,0
0.000146731529825972,0.0599625731186776,0
0.000265087210452241,0.0758170424599126,0
0.0002627706209002,0.0663259219256971,0
0.000229543939865528,0.0574466135273735,0
0.000235386288033399,0.0754322547261287,0
0.000280136629508237,0.0889199520054678,0
0.000309751758528456,0.100561858826651,0
0.000344133587136775,0.113962859441421,0
0.000357253218895761,0.130605399101417,0
0.000355013575324568,0.135732968013685,0
0.000355184370125912,0.164354660705222,0
0.00018808157207077,0.166425065543187,0
0.00013496015063557,0.140950661502248,0
9.90795860041159e-05,0.139243072138877,0
9.93878150884682e-05,0.132348263913009,0
0.000101197418450525,0.114976325755831,0
0.000102808464630115,0.109850510368278,0
8.45565289445477e-05,0.100563300209223,0
7.35100417057766e-05,0.100752172819943,0
7.14212499749838e-05,0.100521934005308,0
6.4791037811072e-05,0.121903464458661,0
3.85317837084955e-05,0.092555777102481,0
3.70956964661372e-05,0.114144187250643,0
3.79236877734881e-05,0.104111304634376,0
4.19736038432174e-05,0.125599005824877,0
3.52934578385657e-05,0.172814127543337,0
3.28340250140134e-05,0.190284171073314,0
3.41124396495166e-05,0.171805240911557,0
3.59661963982599e-05,0.172270860552372,0
2.95359124009753e-05,0.159283455358365,0
3.45677152994991e-05,0.188699958836812,0
3.81934910100297e-05,0.164112373576064,0
3.09509478688852e-05,0.120847319774881,0
4.03732910745597e-05,0.153074151615696,0
4.13592490047371e-05,0.123494212756275,0
4.71065844106117e-05,0.105960450549447,0
5.36126463102402e-05,0.109376232937754,0
5.19383582188324e-05,0.108777315168202,0
4.41800767172494e-05,0.101705289034801,0
4.42471477637726e-05,0.104330189440005,0
4.49378922040554e-05,0.102187653400137,0
5.09720458662982e-05,0.0996080873043775,0
5.55123720135345e-05,0.087085671439943,0
5.99621814571425e-05,0.0903374027927241,0
5.5432862244204e-05,0.09616918390646,0
5.83627326490288e-05,0.103593934412144,0
7.21074016664372e-05,0.106989125351214,0
7.17150311953217e-05,0.104485895606696,0
8.00262522555142e-05,0.10834738593293,0
8.93630139156969e-05,0.113332275584791,0
9.89907742275256e-05,0.121618915854961,0
8.39369817801656e-05,0.156860271500473,0
4.79184182126492e-05,0.158573213968042,0
4.99263803733608e-05,0.174725879090114,0
3.34679520223536e-05,0.14676785214385,0
8.07936686722315e-05,0.197862633229622,0
0.000116265442483135,0.1778885899042,0
0.000114363368500447,0.177879980490881,0
0.00011467204293818,0.161227139593632,0
0.000157386825640005,0.154869146505851,0
0.000154814994531174,0.125386071995179,0
0.000135979746455826,0.113331741711507,0
0.000128845951125138,0.113769945672818,0
0.000146576904075071,0.123404537736677,0
0.000148206487211218,0.124592904012588,0
0.000120303587908233,0.138143465453891,0
9.91454475058777e-05,0.157587779205999,0
0.000100689548480858,0.173728718113304,0
0.000105696221480263,0.224236157484177,0
4.51761482773089e-05,0.241100596133876,0
2.03935319536154e-05,0.309708120279544,0
1.65665882257305e-05,0.263407873455942,0
1.65530123076416e-05,0.257492245036974,0
1.59569771848605e-05,0.258715381656774,0
1.417108877006e-05,0.328680032799758,0
5.71969588417383e-06,0.25883527876447,0
5.89598231890891e-06,0.294919546458068,0
6.07331859077716e-06,0.302932068191813,0
6.3353038502806e-06,0.311979896078994,0
6.3934270363995e-06,0.313512525279674,0
5.88387965558728e-06,0.323743728786582,0
3.29068380308246e-06,0.302700035139131,0
2.29279657894877e-06,0.320991575236389,0
2.07257601878352e-06,0.309838242449609,0
1.98099187169939e-06,0.317601788992096,0
1.80620062747809e-06,0.400585844015853,0
1.43427234795946e-06,0.285757417872122,0
3.00251495895076e-06,0.332128549900253,0
2.83356324136383e-06,0.320600539111639,0
2.59017843663172e-06,0.30462668703378,0
2.62371011151676e-06,0.307734388492614,0
2.70453900813207e-06,0.31365643451684,0
2.78960352422935e-06,0.318023944996184,0
2.91111909369119e-06,0.325773261161004,0
3.22668914880351e-06,0.344912612264129,0
3.14482994556623e-06,0.34093310581816,0
2.33336231656103e-06,0.410811320085493,0
5.30016222416966e-07,0.263527601453741,0
5.47271958199114e-07,0.264074459757484,0
6.13385047580237e-07,0.264893178536002,0
6.75824669089452e-07,0.265088686077648,0
7.63680027888225e-07,0.266461198591466,0
8.38376536410833e-07,0.276570290975761,0
8.42280425830937e-07,0.27857840856315,0
7.71090077008083e-07,0.263941291144385,0
7.55154623023801e-07,0.264442890329694,0
7.7006640883572e-07,0.270301516276049,0
7.49453734156012e-07,0.266851520120308,0
1.07664925389309e-06,0.325264077986925,0
8.04716325747763e-07,0.28735527081979,0
6.9292098587145e-07,0.295568321648129,0
6.29660313217222e-07,0.292299526074651,0
6.42505713220309e-07,0.297851146734468,0
6.21188112159126e-07,0.287525183980727,0
8.61886268985856e-07,0.32126999691849,0
8.22081740262665e-07,0.292030791806739,0
7.33111121928741e-07,0.276330428400905,0
7.20331432955892e-07,0.277127685325957,0
5.4282429316715e-07,0.249188268174982,0
5.16032376409786e-07,0.250786132613934,0
5.69589752335472e-07,0.26588992877735,0
5.7946978575881e-07,0.275661233788226,0
5.35786382063336e-07,0.268679870464508,0
7.20065606343087e-07,0.270531363907166,0
1.11533188463151e-06,0.322685103947919,0
1.04239485388486e-06,0.322288182199428,0
1.15425484648785e-06,0.339833304294683,0
1.1727289782977e-06,0.339744561288024,0
1.21217522316056e-06,0.332564555043522,0
1.19073553235213e-06,0.330449050914878,0
1.11505412805129e-06,0.320073818518721,0
1.14471039150297e-06,0.318556220245781,0
1.12933352938041e-06,0.313493716282229,0
9.70987841460106e-07,0.339014838146743,0
2.50990351382623e-07,0.200177052756284,0
4.18926289969201e-07,0.253818944206486,0
3.09237840065306e-07,0.226324949242183,0
2.75155558699967e-07,0.230325508858368,0
2.65942064101641e-07,0.228352262689568,0
2.75924464342214e-07,0.231408648003502,0
2.96031750966527e-07,0.229040203503494,0
2.39969851557484e-07,0.217910917647568,0
3.50644832799667e-07,0.253217576919366,0
4.6865000934751e-07,0.268138067355001,0
4.52705415468834e-07,0.272722645810143,0
2.76590522120152e-07,0.230680740478833,0
2.63426861373253e-07,0.230339961961352,0
3.50863901636929e-07,0.237546100274352,0
4.26126121517947e-07,0.255291424019152,0
4.57601993629768e-07,0.260808914186528,0
5.01116357383621e-07,0.270127371221746,0
5.9233413901659e-07,0.284182806864918,0
5.12622714752973e-07,0.268132314615053,0
5.05461174551275e-07,0.261466403124499,0
5.98868971090962e-07,0.254426743701867,0
3.8667141022659e-06,0.42586890002528,0
1.2808930958561e-05,0.773861528074761,0
2.47394058854807e-05,1,0
2.73427687640929e-05,0.896059772867608,0
3.57232507895059e-05,0.672495604057544,0
4.61494281156553e-05,0.504398632800201,0
4.08117751029765e-05,0.421196082369095,0
3.5469786316815e-05,0.358922327824357,0
3.09724190201722e-05,0.277119635165106,0
2.2104730305924e-05,0.199301218562226,0
3.53457264893815e-05,0.204204422298877,0
4.21943782809831e-05,0.155630087397138,0
4.98793546545988e-05,0.166612993734225,0
5.54067918018475e-05,0.172794974235107,0
5.36707490999632e-05,0.18096790392082,0
4.90327510587186e-05,0.179136602771374,0
5.38179487347721e-05,0.190212332409179,0
5.73776786063026e-05,0.202274003073185,0
6.17577685506196e-05,0.237174595486522,0
6.76635334428148e-05,0.273382224175734,0
3.54987548753704e-05,0.257588809512874,0
1.34267739655805e-05,0.306036027054165,0
1.42492123541435e-05,0.336609834825807,0
1.44105224465494e-05,0.344137722629391,0
1.10676570621714e-05,0.271895615089847,0
3.84271793489017e-05,0.524254645009404,0
5.60131250841682e-05,0.432527333028481,0
5.36702877758197e-05,0.37647977209219,0
5.24050965471099e-05,0.291371814406823,0
5.17893840975788e-05,0.230343931428738,0
5.42773456112424e-05,0.228718317436184,0
5.77562092569046e-05,0.229572071760094,0
5.22581914093193e-05,0.189013049365099,0
5.01345027920469e-05,0.170146678514183,0
5.34867389734163e-05,0.192028300694612,0
4.62790644331834e-05,0.196661437710923,0
3.74525973161275e-05,0.198782408342459,0
4.31490596849558e-05,0.229865764190829,0
4.07438743464609e-05,0.292476009019997,0
2.4875542207275e-05,0.273965325982893,0
2.44242238429379e-05,0.286630793413341,0
2.44791864535746e-05,0.272893954027389,0
1.7416760036383e-05,0.343557270126069,0
9.1689257793874e-06,0.318455942339157,0
8.9263495185764e-06,0.313911218754293,0
1.03692426149302e-05,0.340861270512137,0
1.51495885464101e-05,0.407982502955627,0
1.29330811266348e-05,0.322156827981965,0
1.11934797347103e-05,0.309343890725758,0
1.17399376650517e-05,0.351400623197193,0
1.27138856777832e-05,0.438357009487035,0
1.24116972939514e-05,0.513226850257158,0
1.28281608153233e-05,0.539188580957363,0
1.14515508103863e-05,0.462780323265463,0
2.30913144631816e-05,0.376221438143073,0
7.74598993107565e-05,0.48049369456799,0
8.64931717396114e-05,0.310877382758204,0
8.61537861021947e-05,0.326562510064858,0
8.59050130891926e-05,0.323490729117426,0
8.39453327573612e-05,0.306991752235776,0
8.18227798922293e-05,0.298123865973769,0
7.48743997303803e-05,0.28676006705739,0
7.32063521664473e-05,0.266431966493585,0
7.93475810384721e-05,0.283202116843102,0
7.57879567086697e-05,0.350702514726121,0
2.38447873456365e-05,0.243482295118083,0
2.00539442764278e-05,0.34600753154458,0
2.51867228040513e-05,0.229130200620801,0
2.67395611332368e-05,0.240619061727437,0
2.74486400092594e-05,0.26145942751218,0
3.56289015838434e-05,0.202691114277005,0
6.24460276130926e-05,0.229646641452517,0
5.99741659753029e-05,0.197221592340091,0
5.89359810529863e-05,0.192434069964463,0
6.34130776994186e-05,0.205066131665595,0
6.66743089143803e-05,0.212774945413823,0
5.97821904788946e-05,0.215781984498598,0
5.80681424999321e-05,0.278361422382775,0
6.51905081521544e-05,0.25857637888174,0
6.10512081484456e-05,0.212929381628913,0
7.22087331741618e-05,0.281192106632586,0
5.47061163371515e-05,0.23278197721699,0
6.10688144713349e-05,0.227520064116464,0
5.92139230287547e-05,0.178466160460914,0
4.5618567559415e-05,0.146350029830384,0
3.4322031378384e-05,0.1133632804488,0
3.02736816941353e-05,0.10507730743539,0
3.09496489455774e-05,0.10563475442448,0
4.15973349797454e-05,0.132634825457428,0
5.41679508886816e-05,0.174465131991431,0
4.51979553918721e-05,0.169153106498685,0
4.31491943781364e-05,0.192108008079452,0
3.67698833794799e-05,0.24363482992869,0
2.64656684193142e-05,0.281221773846641,0
2.35660297064504e-05,0.268224611805071,0
3.4243299847009e-05,0.268855449428831,0
4.06199150578658e-05,0.214760696494253,0
4.00965394016699e-05,0.223503233419596,0
3.91308142151937e-05,0.23738730743442,0
3.58601390840855e-05,0.230855726122664,0
3.46440055169761e-05,0.232279095499934,0
3.56398925473783e-05,0.23137870626378,0
3.52300978777955e-05,0.243956251034851,0
3.28713142437989e-05,0.232349083942166,0
3.25481375837324e-05,0.227854857634877,0
1.63026075829662e-05,0.200718865164508,0
8.62110167535735e-06,0.210157013918368,0
1.08406745195037e-05,0.214357047798569,0
1.06594951625654e-05,0.1876887542983,0
1.33319618002145e-05,0.194532248945508,0
1.43146870940581e-05,0.18591625342095,0
1.51693884439545e-05,0.200380824388075,0
1.69715721359502e-05,0.212677468017142,0
1.76330806517141e-05,0.217117608733818,0
1.91089000733157e-05,0.284765198249581,0
1.48170234830295e-05,0.289365762584589,0
1.48127425489132e-05,0.302691764618176,0
1.30532038724001e-05,0.340252030835307,0
1.23642976091945e-05,0.359480452242124,0
5.62753852139694e-06,0.266554636562198,0
3.91403143176384e-06,0.26493833484107,0
5.1935589215668e-06,0.260396435863961,0
5.26881161671577e-06,0.234652831009723,0
9.35178601100981e-06,0.284808315388833,0
9.17328647110847e-06,0.231011756332139,0
9.53201318337082e-06,0.255505081123707,0
9.41560748834229e-06,0.270100477451589,0
9.82243679134532e-06,0.241651979705814,0
1.35636595662965e-05,0.248815091410266,0
1.4735102994395e-05,0.236800393339669,0
1.62495854200145e-05,0.26445563612835,0
1.91121503159724e-05,0.315357722879394,0
2.14677377770034e-05,0.358279203772932,0
1.81953892755454e-05,0.369160112878725,0
1.71415621455405e-05,0.436338335170781,0
1.71177168345271e-05,0.436327417867868,0
1.75208328389605e-05,0.442919678067559,0
1.48080379085346e-05,0.536381902722122,0
2.45051921469951e-06,0.288584876379204,0
1.37151764061711e-06,0.350872630282006,0
1.37092075740834e-06,0.347559539972052,0
1.11963485070377e-06,0.318303615060112,0
1.00770289345859e-06,0.275459406644065,0
1.51930752018526e-06,0.33918034912281,0
1.29898103345442e-06,0.32960667831465,0
1.07406189410368e-06,0.316716876821063,0
1.21939814496884e-06,0.336162529421996,0
1.37498262268737e-06,0.338375858659621,0
1.19657621349947e-06,0.3168733545708,0
1.2071579983936e-06,0.324129807705871,0
2.45161985040362e-06,0.445162776621682,0
2.7348974078922e-06,0.448030750079419,0
2.64194131455451e-06,0.479498257549178,0
2.25363597983814e-06,0.435871411318084,0
2.50436108186445e-06,0.46402547815661,0
2.70382869402337e-06,0.471911808555971,0
2.39174603777493e-06,0.43051942811247,0
2.31457916011118e-06,0.433098096548495,0
2.52580279307059e-06,0.433146978452742,0
2.46388847496561e-06,0.441544838853256,0
1.57498814168386e-06,0.356278456723516,0
1.47493035040041e-06,0.329522949467033,0
2.11120409878381e-06,0.382057409993584,0
1.97445819413799e-06,0.38070043477314,0
1.52688343433605e-06,0.327111778495229,0
9.81566932490622e-07,0.258931072499674,0
2.81551243097863e-06,0.337678871485609,0
1.15853450101893e-05,0.656034068900492,0
1.43221329330802e-05,0.513112143515342,0
1.39976217522226e-05,0.495198174910026,0
1.28907561998749e-05,0.444023978980725,0
1.21291252401008e-05,0.397334468698314,0
1.95473301282509e-05,0.366169023060822,0
2.20243762027702e-05,0.296451724490826,0
2.17078207708326e-05,0.275938684039235,0
2.64122813340525e-05,0.306853588163172,0
2.89640968438308e-05,0.338860781463121,0
2.47854378571983e-05,0.32747580944372,0
2.46967490362401e-05,0.375698715866055,0
2.54893582730331e-05,0.316381557137153,0
2.65199535232526e-05,0.308802394408185,0
2.64833544035988e-05,0.318545877855622,0
1.78664769950125e-05,0.344153194368575,0
9.2040219155648e-06,0.291085767693538,0
1.09095419882181e-05,0.336432991033653,0
8.90650113148703e-06,0.293978030866543,0
7.913028091509e-06,0.292630009582286,0
7.86250583398871e-06,0.288693595154205,0
6.43643678177328e-06,0.24234925254039,0
6.57423560225353e-06,0.311163044006659,0
5.54278072091371e-06,0.294222130701622,0
5.4139289911625e-06,0.297970951421798,0
4.79053614405621e-06,0.290134636261398,0
4.41457284168524e-06,0.269235002837121,0
4.306634056197e-06,0.25354346262366,0
4.37506925601122e-06,0.243576361365952,0
5.20506017983718e-06,0.24596941335211,0
5.5414195501146e-06,0.228761824456707,0
6.66024460617488e-06,0.277201831041155,0
7.50045181532854e-06,0.33044394320659,0
7.97225816694396e-06,0.358703488580801,0
8.26156949787518e-06,0.360762079949189,0
8.63714401800136e-06,0.322870624391033,0
9.31679127955549e-06,0.344532175696601,0
7.28153643208304e-06,0.340928516238422,0
7.39627501037372e-06,0.375862550735326,0
4.9056826502652e-06,0.318487560589427,0
1.35681140621969e-05,0.41248364487004,0
2.44419195443734e-05,0.35701408156177,0
2.23486077990688e-05,0.307298667796286,0
2.1018173502715e-05,0.307120768991426,0
1.9795432657842e-05,0.287301170034879,0
2.13155407365669e-05,0.322068730368967,0
2.267178859614e-05,0.349194018647369,0
2.4515281820733e-05,0.362623199131991,0
2.48282171810239e-05,0.371220635820949,0
2.54381232961687e-05,0.391643269413825,0
1.93855497642259e-05,0.494672031174284,0
5.30115953096239e-06,0.427074439429603,0
4.81268355131913e-06,0.541341529504681,0
1.45049315906772e-06,0.326644187584231,0
2.41852766012492e-07,0.188473137181349,0
3.73181022307385e-07,0.219927592818343,0
3.56915473821284e-07,0.21286945408231,0
2.73222422930488e-07,0.19711133471506,0
2.49190080814839e-07,0.199264069235477,0
2.50563662628448e-07,0.202441663784128,0
2.71908587163405e-07,0.206028854848369,0
7.15003066941804e-07,0.280099330789213,0
1.30241041804125e-06,0.362329200881917,0
1.344819046992e-06,0.357988177079209,0
1.34928556906925e-06,0.362210022455327,0
1.06661037872609e-06,0.327183595695003,0
1.28800748382365e-06,0.249061670553342,0
5.76227210992499e-06,0.367960374830367,0
8.28422681503599e-06,0.441150106149599,0
9.45185967684668e-06,0.42940205804473,0
1.76326280826274e-05,0.480866424703396,0
2.1484256548669e-05,0.504901153370451,0
2.77721675450611e-05,0.568735050140336,0
3.0951637113132e-05,0.537950940172233,0
4.32007664727898e-05,0.542331521670183,0
3.73490096976282e-05,0.297902056621072,0
3.29422880252292e-05,0.288409371275589,0
3.78759903205927e-05,0.332210864514148,0
3.93429098902879e-05,0.338807597804065,0
3.82618315397799e-05,0.350895061544571,0
3.73623066084145e-05,0.377044877211067,0
3.96510571004282e-05,0.373385959220448,0
3.99932305018451e-05,0.382725070854241,0
3.78668015518141e-05,0.423179175077325,0
1.44848639423318e-05,0.294843548558149,0
9.388031657274e-06,0.436956623529133,0
8.77305482492762e-06,0.381704288287027,0
8.49326245348639e-06,0.347836458523024,0
9.34359907086629e-06,0.329292089769902,0
8.29525703201201e-06,0.280276802875917,0
5.0803835538461e-06,0.220028387590516,0
6.1454961444042e-06,0.274537298783095,0
7.11828608441097e-06,0.279274179670697,0
6.46627719004469e-06,0.248227051890376,0
7.71189961622419e-06,0.268656209566403,0
5.59883540461665e-06,0.23224764046401,0
5.80203777004464e-06,0.261819014146832,0
6.27889578939749e-06,0.289681230284652,0
7.82585052803675e-06,0.383764343300734,0
7.62719348019664e-06,0.376826172241761,0
7.70825414529195e-06,0.385437049569874,0
8.9420062538863e-06,0.348373387758048,0
1.05792480442808e-05,0.329172736655378,0
1.05724926040185e-05,0.352926856312203,0
7.33874495529643e-06,0.308851186561178,0
6.97299639890253e-06,0.268893345652539,0
1.25336045319405e-05,0.249691184876745,0
1.30853594640268e-05,0.212102586377694,0
1.2705888366396e-05,0.213917537545752,0
1.2371058437184e-05,0.228516483780316,0
1.12310507618714e-05,0.215042789842446,0
1.08043511360324e-05,0.230523274758028,0
9.94022896024903e-06,0.24236314007552,0
9.9532064557785e-06,0.247776644528994,0
9.25804263603166e-06,0.242523046161941,0
8.02675454675708e-06,0.252506475353466,0
3.19071519792643e-06,0.245007897964618,0
2.41617245365317e-06,0.288868086735523,0
2.78179439845733e-06,0.315024223666016,0
2.60269720567192e-06,0.322023222682568,0
2.27038257539772e-06,0.288826993142851,0
2.40218745313301e-06,0.297035745080482,0
3.0753739638621e-06,0.241751542855324,0
6.6302787408267e-06,0.273549798730244,0
7.04155089839096e-06,0.239316874497607,0
7.10653843382956e-06,0.225549453315958,0
8.52449972624977e-06,0.234828610594092,0
9.00552496019074e-06,0.232404198160023,0
8.78601692695073e-06,0.225990862520405,0
9.10023851090668e-06,0.229712711673353,0
1.06225142839541e-05,0.251983108938473,0
1.19252940499384e-05,0.27706517850058,0
1.13731593792923e-05,0.336157152068021,0
4.92690644714705e-06,0.279572768328454,0
4.68594419547699e-06,0.347893483629553,0
3.03324626640225e-06,0.344038032609696,0
2.70478578528076e-06,0.401009170092723,0
2.51240034055642e-06,0.466367081469869,0
1.43240011274948e-06,0.332823739217947,0
9.06330400523327e-07,0.279538610670589,0
1.58218614525373e-06,0.349681620964093,0
3.61791819142307e-06,0.507770246526631,0
3.96043717705754e-06,0.490546509520998,0
3.8359421944414e-06,0.385009554955696,0
1.60771927727109e-05,0.431992364717381,0
2.39004774918672e-05,0.407765445440095,0
2.39693472696076e-05,0.394075984805574,0
3.79417135694255e-05,0.416638864705973,0
3.96612899337753e-05,0.388788343557416,0
5.23659459537784e-05,0.31296741505508,0
6.95033499284158e-05,0.191559971818602,0
7.43747950153203e-05,0.179675657092217,0
7.70787421431332e-05,0.179169587922754,0
7.30269650946955e-05,0.17957714998574,0
7.97699596108688e-05,0.217558493129318,0
8.87286200992767e-05,0.243794588980727,0
9.91733989385007e-05,0.267769821240441,0
9.39484588148864e-05,0.288440584562252,0
8.97825781702949e-05,0.289199938209353,0
5.68126407137952e-05,0.298265337440634,0
4.91848744989528e-06,0.210092564185601,0
4.40461526347366e-06,0.294601909487031,0
4.70315413557774e-06,0.286555032996777,0
4.80426330334498e-06,0.290841656098919,0
4.90916389172655e-06,0.28748460168999,0
4.8409491076814e-06,0.277444969227698,0
4.01770563873628e-06,0.252846858537041,0
4.30403976932973e-06,0.262477195944021,0
5.40246804463688e-06,0.292163384070568,0
4.58949618143291e-06,0.294431020009863,0
3.48858195105945e-06,0.272623269317812,0
3.77605789498651e-06,0.302292783243061,0
3.04735210594726e-06,0.288744629921756,0
3.05056501935102e-06,0.292431080881394,0
2.96410056006051e-06,0.293874263616599,0
2.76787943839108e-06,0.266418003488097,0
8.10091209013857e-06,0.359671518718002,0
9.27853610724656e-06,0.340911686840904,0
7.65184416022054e-06,0.311561019656727,0
8.28612358364672e-06,0.382190797358269,0
8.58122335401308e-06,0.424290434760409,0
8.3860736203857e-06,0.420334482544825,0
8.75902210453776e-06,0.428927516991924,0
9.14515820558102e-06,0.440889550742004,0
9.50019297776379e-06,0.422449200176278,0
1.05598891706934e-05,0.447217971647759,0
5.70540503392436e-06,0.38275158642259,0
3.79909283410001e-06,0.360203039554166,0
4.1951196478116e-06,0.325222954313176,0
4.23724272721954e-06,0.296507442444098,0
5.23033631726601e-06,0.270745495404808,0
7.7051538931128e-06,0.323591895505393,0
7.31893033771162e-06,0.301211685121526,0
7.19058976858069e-06,0.297062162511531,0
7.23364107642161e-06,0.313447212829451,0
6.74426890608047e-06,0.310219621165586,0
9.65649585118187e-06,0.31661723745319,0
9.31125846853518e-06,0.244325317949824,0
9.89592308164048e-06,0.266974736458944,0
1.05079745705236e-05,0.285988947609408,0
1.09031186628554e-05,0.348835266151197,0
8.24478172468611e-06,0.299540987134888,0
7.82923786910936e-06,0.297648105776098,0
7.92183625584321e-06,0.304583843707655,0
8.2782043943043e-06,0.312589044324824,0
8.32644927876933e-06,0.335727564317885,0
2.66590669491753e-06,0.294649115570528,0
4.11760997600329e-07,0.245717337846662,0
3.97762527762116e-07,0.238436946865758,0
4.21377224808571e-07,0.242890993267119,0
5.30731250786983e-07,0.239622228590795,0
1.35073178899095e-06,0.372077671716854,0
1.57324569297431e-06,0.399778174219858,0
1.58144725694886e-06,0.405684237395717,0
1.43263101534475e-06,0.368935935903956,0
2.16320249735377e-06,0.405168389075046,0
3.43431050885789e-06,0.380542073835132,0
3.18294080375312e-06,0.346780519716519,0
2.80894931333634e-06,0.323768719946631,0
2.61046467276737e-06,0.310372255129673,0
2.51710238328083e-06,0.317612524312087,0
2.69810077031005e-06,0.313645337753004,0
3.04872395599141e-06,0.304192504974169,0
3.43770400733303e-06,0.32513762619754,0
3.67481095533742e-06,0.341748645433989,0
3.52887522360929e-06,0.369188387559471,0
2.15208068901496e-06,0.357437488199965,0
2.23806342776609e-06,0.387323112020467,0
2.15947726881675e-06,0.3942804813521,0
1.91847893861617e-06,0.376072605436296,0
1.8545947327453e-06,0.377434616354182,0
4.12412912594306e-07,0.209737112960197,0
1.5985588710278e-07,0.183288596778002,0
1.58167508084287e-07,0.180715083444527,0
1.5272667326442e-07,0.182504822129707,0
1.35557622164913e-07,0.180277303088946,0
1.20000078761556e-07,0.180359156436097,0
1.51581877438956e-07,0.181015691010899,0
5.09500526827271e-07,0.281808535388868,0
7.48242938672068e-07,0.336104795777059,0
7.69516764449564e-07,0.332765263710798,0
1.10023595399986e-06,0.387699288021713,0
1.28320894305629e-06,0.424341036331941,0
1.30329275458342e-06,0.409656017225307,0
1.31128015640087e-06,0.388345399297379,0
1.1412781206337e-06,0.365088754418767,0
7.05546451152541e-07,0.289403198230294,0
5.28609159727042e-07,0.251799160677836,0
7.41468352736276e-07,0.256399053977489,0
8.31775800887396e-07,0.250322321508201,0
1.07262693068349e-06,0.292903167077651,0
1.14733969859718e-06,0.312890076129122,0
1.12495523133644e-06,0.318994687752099,0
1.10182100410697e-06,0.326207379369305,0
9.0571514131635e-07,0.295432847938307,0
1.52782628660007e-06,0.344364115444692,0
2.72876069037583e-06,0.411407959048718,0
2.53160450940498e-06,0.400707431786418,0
2.30116756770261e-06,0.42779379134063,0
2.22433059212185e-06,0.451209127316441,0
2.02500200256717e-06,0.430798356913694,0
2.17911630421974e-06,0.432885264110292,0
2.55148445318236e-06,0.452003432439583,0
2.56863897666025e-06,0.450858958852785,0
2.64464980199702e-06,0.460449884812705,0
2.39594307728161e-06,0.446989338078094,0
1.17896796642188e-06,0.324491041118623,0
1.09897705380857e-06,0.322119660375236,0
1.09480695293801e-06,0.319461681478406,0
1.0750355333804e-06,0.323002426346868,0
1.14243600093956e-06,0.327821752600003,0
1.04884348232366e-06,0.321440736993218,0
8.91537240919729e-07,0.285970868175282,0
1.46631970399457e-06,0.359193577290465,0
1.51129029344925e-06,0.331175696636867,0
1.24052813767136e-06,0.316036920489121,0
1.12189230841019e-06,0.321159291306892,0
1.07840988618202e-06,0.315910078017336,0
1.10871652527704e-06,0.31210914508916,0
1.22515146796763e-06,0.322587575181758,0
1.07350003112185e-06,0.307261734312657,0
1.12655605978756e-06,0.305767661495297,0
1.3544781835992e-06,0.361322072767475,0
6.93721544411132e-07,0.261056285949994,0
5.55119182899349e-07,0.273508650075041,0
1.32277939427353e-06,0.331022229507049,0
3.83061988962044e-06,0.493815355192062,0
3.93822126869135e-06,0.472659162034068,0
3.87678915217282e-06,0.476697005640146,0
4.06389000616677e-06,0.481180613021624,0
4.28241112323084e-06,0.468218703841336,0
5.43756754814379e-06,0.466640693900367,0
6.41052344939092e-06,0.423087461463194,0
6.33837793349896e-06,0.401201728766923,0
6.64046010213687e-06,0.349927706983906,0
7.94986253939112e-06,0.374364108551609,0
6.7154945943333e-06,0.338855387597345,0
6.95285091714058e-06,0.35193122315223,0
7.36234387399887e-06,0.362078727012736,0
6.90354503525029e-06,0.350245738081558,0
6.6370985451874e-06,0.344098540021186,0
6.08190749385528e-06,0.378052901883736,0
4.63871624452529e-06,0.365294494355419,0
4.54548662782163e-06,0.378175837955901,0
4.29634542138945e-06,0.475388299154306,0
1.04486426093185e-06,0.285037040488611,0
6.52660809360261e-07,0.249688027990226,0
5.92860885562049e-07,0.252353177454927,0
5.75486715990411e-07,0.255616822029701,0
5.25007560287912e-07,0.24495517478834,0
5.50587719467184e-07,0.250384159551959,0
6.65557970028453e-07,0.289513331195755,0
5.32763578463014e-07,0.271769116554732,0
5.35205277198575e-07,0.271457578291016,0
5.48078096884848e-07,0.27859011386603,0
5.07143396167228e-07,0.279928213700842,0
3.1286839853826e-07,0.223346681540431,0
3.87390768020269e-07,0.240292344786041,0
5.59189899444534e-07,0.286139671411359,0
5.87157591458893e-07,0.282047488742292,0
7.38126326297995e-07,0.308957571944554,0
5.69659888998786e-07,0.271590537996038,0
4.71062941468076e-07,0.243556672102398,0
5.47133801479611e-07,0.263173594355905,0
4.79126829770204e-07,0.257272964685198,0
4.37196361610485e-07,0.252402973336349,0
5.28670733752447e-07,0.281947117472803,0
6.71293205657288e-07,0.314134209056935,0
6.08930166842171e-07,0.295267446154894,0
6.39536786892217e-07,0.312198331543275,0
4.55938051802607e-07,0.276382165502893,0
2.76852211728125e-07,0.214203083595874,0
2.27650428424539e-07,0.201015230751567,0
2.28691414291545e-07,0.202191593770163,0
1.66617869605247e-07,0.184995136066852,0
1.26109087966484e-07,0.17670134896337,0
1.25430138126978e-07,0.180776532883115,0
1.60988368123162e-07,0.190342181397169,0
2.49969088445629e-07,0.239953927054145,0
3.19895534187629e-07,0.243965561196536,0
3.38709189021943e-07,0.244914117237251,0
3.31864755051082e-07,0.25815657668788,0
3.50082969817844e-07,0.263977210745361,0
3.87727885809363e-07,0.254453906673877,0
7.04376063622769e-07,0.327776996082864,0
8.14541327385895e-07,0.338088222900314,0
8.4077186220851e-07,0.339043050074662,0
7.28278811656825e-07,0.33434434285449,0
3.47212561930401e-07,0.225206344257198,0
3.04709840172072e-07,0.234276534696313,0
3.70159950476528e-07,0.260620274445921,0
4.11674793964762e-07,0.275433119213059,0
4.95639347823829e-07,0.287396956032176,0
5.28705369141737e-07,0.302630229256322,0
5.89303446244264e-07,0.307371914477503,0
5.67656327937749e-07,0.307869094042249,0
5.15150617124102e-07,0.294269038058967,0
3.22906215401699e-07,0.233661892441977,0
3.05764776404209e-07,0.226596471503,0
3.15267187874866e-07,0.224941724878161,0
3.87963021618879e-07,0.238214484685861,0
6.84078955823263e-07,0.295107593014978,0
7.24189045647527e-07,0.302651534871524,0
7.66883801397589e-07,0.321645974481076,0
6.70035171350728e-07,0.289686729177936,0
8.28463214530011e-07,0.309404535745721,0
8.13204305149871e-07,0.284105856601227,0
8.25184782514843e-07,0.278653169548998,0
9.0913480875229e-07,0.298337209702386,0
7.45997891980145e-07,0.272870874149425,0
7.65765847998826e-07,0.278052524124108,0
6.97846907903865e-07,0.268665295990451,0
7.18003165120257e-07,0.274611743296545,0
5.68020384362958e-07,0.251636364977871,0
5.10959061554057e-07,0.251100713714498,0
4.05947543717347e-07,0.230898397174846,0
2.81299491922429e-07,0.217237154646964,0
2.93942563526411e-07,0.23148580420816,0
2.82426681425004e-07,0.231461080079898,0
2.67679317502799e-07,0.219784331791205,0
2.71213570351644e-07,0.217322715671578,0
4.64839731687904e-07,0.265381382290416,0
4.39515393342308e-07,0.265700666780371,0
2.98214550167141e-07,0.223241334745905,0
3.04808454822135e-07,0.23182566510721,0
2.0253236306405e-07,0.19720966462404,0
2.26341980384678e-07,0.200596684238549,0
2.23448770865951e-07,0.197965363289844,0
2.22501589178273e-07,0.199229700115205,0
2.01234017012733e-07,0.198315088550427,0
1.76979142520892e-07,0.194050734131069,0
3.88981590692261e-07,0.260595948851638,0
6.20223612776802e-07,0.302258680818608,0
6.44198710290708e-07,0.289586404130625,0
8.25483705166302e-07,0.310723047920502,0
8.25418282764309e-07,0.313706759540659,0
7.48241399321434e-07,0.29666218204531,0
8.57202506050229e-07,0.30807678608028,0
1.00370058180725e-06,0.332974591680451,0
1.07510143682946e-06,0.328352769333269,0
1.08717841223738e-06,0.328644194572698,0
7.30787472145012e-07,0.289437124055071,0
3.61538817244481e-07,0.219680067628453,0
3.33361003868428e-07,0.222703530710774,0
2.84486621203052e-07,0.208356523195074,0
2.78553194179943e-07,0.202255959918384,0
2.33118971555838e-07,0.192536011839814,0
2.27250485887649e-07,0.189155225738572,0
1.99172441674634e-07,0.175822782412865,0
1.52094769828699e-07,0.165242604448266,0
3.10228412199012e-07,0.212583784291116,0
4.00699897402188e-07,0.227437813631184,0
4.08483720098138e-07,0.223617713939259,0
5.47923392146018e-07,0.250950442787778,0
8.86862386975902e-06,0.33027033610561,0
3.70211672657867e-05,0.579943626690176,0
4.11679162834283e-05,0.463175026765385,0
3.94561582809544e-05,0.438796480145691,0
3.72044670782249e-05,0.413789542865932,0
3.43657975221761e-05,0.391154670828809,0
3.29815525305077e-05,0.375422326162937,0
3.08999815087066e-05,0.368489560773729,0
2.81217194389099e-05,0.352139066000315,0
2.83764042318168e-05,0.356422728216774,0
2.60105678704665e-05,0.528980570609773,0
7.6727393057418e-06,0.33215407343289,0
2.79737262688485e-06,0.267986337504882,0
2.71837930969252e-06,0.28361002380666,0
2.51564452201995e-06,0.33136106492121,0
1.98597782840658e-06,0.31690663656652,0
2.10327605817523e-06,0.323095470144781,0
2.04469635838361e-06,0.325038799310408,0
1.88350248695065e-06,0.332759739233459,0
2.06107476051314e-06,0.374296878067252,0
1.10379531750594e-06,0.351766139778022,0
5.9066731090699e-07,0.284849599839687,0
5.91025979604975e-07,0.281473912690595,0
5.72929469747801e-07,0.259465411968148,0
5.72195872960747e-07,0.238091830596554,0
6.14606522309213e-07,0.243190150333634,0
6.03787196370202e-07,0.239083451880275,0
5.83487490916499e-07,0.243440789380022,0
6.99074636244797e-07,0.258701879358099,0
9.58663800275256e-07,0.237330922236403,0
1.65080116046401e-06,0.285744637630281,0
1.63781519850605e-06,0.285121370673156,0
1.63899905535388e-06,0.290370115740405,0
1.79759748540659e-06,0.237644480647255,0
1.64930406500381e-05,0.413654442641321,0
2.28307674382184e-05,0.322301134390302,0
2.20704917804692e-05,0.316504241412044,0
2.16490848269515e-05,0.316518825152983,0
1.99577064799549e-05,0.296270292575372,0
1.96075669390012e-05,0.313215471699892,0
2.09936790667806e-05,0.31976859157657,0
2.07153683203257e-05,0.315287427065102,0
2.06938809096475e-05,0.315123270204888,0
2.09717802646452e-05,0.351556213222788,0
1.05745731326113e-05,0.415748536230645,0
3.09729046852976e-06,0.423879557858891,0
3.26200098648867e-06,0.439483657317325,0
2.42556489776283e-06,0.447097288722244,0
8.55147761580574e-07,0.296076987573285,0
7.91828208764552e-07,0.302145766844106,0
8.61724637169167e-07,0.317158735543162,0
9.02428916338591e-07,0.325219109381803,0
9.74307066267105e-07,0.320094779390742,0
1.03639398406205e-06,0.337577408240601,0
1.06666771953724e-06,0.352490202420651,0
7.06985743996388e-07,0.293229946605604,0
7.23381752448816e-07,0.317776301269643,0
6.91349789920056e-07,0.300739708344277,0
4.81127985595873e-07,0.268238709296812,0
4.90531878625882e-07,0.264675465861241,0
4.25684327885665e-07,0.24794970548485,0
3.19815199326358e-07,0.222023688944883,0
3.39072764400077e-07,0.232802503854635,0
2.65176237160663e-07,0.204188661247474,0
2.17398353194573e-07,0.185301383832073,0
1.31345573989538e-07,0.154762738686761,0
1.36636322122479e-07,0.164428642531217,0
1.27384343758275e-07,0.165746800861787,0
1.28885980302844e-07,0.162332745892039,0
1.44431112691704e-07,0.174652432703437,0
1.53861174682511e-07,0.181390508412459,0
2.60896553766758e-07,0.223728210157989,0
2.79830085531783e-07,0.23996354131585,0
2.72448225770432e-07,0.233495083277203,0
1.60746690073447e-07,0.204806513987456,0
1.71914678931315e-07,0.205552587274061,0
1.81929790372885e-07,0.203576698585919,0
1.94943845479932e-07,0.20991109783717,0
1.93587292732724e-07,0.21027326836398,0
2.14578262831015e-07,0.208626178988565,0
2.29865072941417e-07,0.216177935507454,0
2.1882023213436e-07,0.208293886055646,0
2.08704870482677e-07,0.191403641268599,0
2.11709298084792e-07,0.194176875544088,0
2.22019098963574e-07,0.183421788489641,0
4.42106986345964e-07,0.253349196959296,0
4.73042450175438e-07,0.250510165393916,0
5.07076049576941e-07,0.258582574165559,0
5.09773761565007e-07,0.262684385244813,0
5.09682555039874e-07,0.27348940726,0
4.40299692490907e-07,0.261323135517532,0
3.15041288169161e-07,0.23155755989958,0
3.09131624871483e-07,0.238762430179543,0
4.22374435391891e-07,0.286333181428073,0
4.27831722021672e-07,0.300047413944768,0
2.61051258505589e-07,0.237011884215068,0
2.27529204562022e-07,0.22936818628359,0
2.27528050049046e-07,0.240664426152572,0
2.35175832632616e-07,0.233479704312017,0
2.2067409134613e-07,0.225443794230862,0
2.00806847211484e-07,0.207759903056045,0
1.48562729796393e-07,0.184169424159948,0
1.44044447054043e-07,0.184004845346829,0
1.40594762280717e-07,0.179635292908149,0
3.32207260567398e-07,0.266375479938885,0
4.71210622919634e-07,0.283331653931004,0
5.08114726417995e-07,0.291820463709851,0
5.94993655867022e-07,0.301138023124458,0
6.59113093756823e-07,0.326756164642305,0
7.78301165058348e-07,0.3562525752988,0
8.18871135884857e-07,0.369923684279319,0
8.45683160409892e-07,0.369649538672078,0
8.83328653657896e-07,0.377085908111733,0
9.36810312774219e-07,0.375199315948891,0
7.29182699107889e-07,0.31314479617886,0
4.32906961065695e-07,0.258143075498884,0
4.50344725060447e-07,0.261803064368413,0
4.79520903532797e-07,0.264897240361463,0
4.91531686863399e-07,0.267790483177305,0
4.38751971636698e-07,0.252800308722218,0
4.61762858396524e-07,0.246131397175763,0
1.15741850067128e-06,0.367257593239054,0
2.07812643612672e-06,0.468663677687168,0
2.75768431913461e-06,0.280735167112605,0
3.32473103535802e-05,0.384270683759349,0
4.74924542039951e-05,0.332646066886386,0
9.28022352417091e-05,0.350102857309009,0
0.000125319865301089,0.392741178518956,0
0.000138219172593742,0.426253612803618,0
0.000161450587495231,0.395612189783358,0
0.00023692571563606,0.34682739776669,0
0.000214289042417981,0.270794226024655,0
0.0001829434178421,0.244371473778016,0
0.000148098901995329,0.171233739701056,0
0.000356158436283805,0.224860824582061,0
0.000433141711267877,0.233507102815231,1
0.00041797597233565,0.152650110992509,1
0.000379036223379592,0.114687868691219,1
0.000327451347497827,0.0871927050649928,1
0.000309911125094476,0.0835806784436118,1
0.000309750843288294,0.0852199398662269,1
0.000280438390722267,0.0547860255738684,1
0.000428658046981959,0.0482060101535457,1
0.000405354127126205,0.0454799579173373,1
0.000401812959514308,0.0472763959304004,1
0.000466754401503374,0.0517143715300475,1
0.000483810247891289,0.0554877771206632,1
0.000511568082253958,0.0635563606784582,1
0.00063033263538257,0.077636871119516,1
0.000789816843195796,0.090155084161414,1
0.000900504129333491,0.098128350383687,1
0.000898864840206751,0.153904362227649,1
0.000359756907377607,0.172229269571119,1
0.00039560910100718,0.0889092888081955,1
0.000580848780025462,0.0727549958916645,1
0.000585658298575665,0.0633040628885726,1
0.000709702516993693,0.0642252419415069,1
0.000714260028643838,0.0591656755208673,1
0.00068956246067306,0.0568211183680462,1
0.000651715058498998,0.0519309162995133,1
0.000587576263756007,0.0488655288229282,1
0.000504932929544183,0.0393733511844489,1
0.000425539317207459,0.0310864506167504,1
0.000387768326570945,0.0380968740364444,1
0.000312411199854497,0.0449076742932678,1
0.000288998240192712,0.0473392239379364,1
0.000258458848876421,0.0481855087587112,1
0.000309355380261753,0.0647402981592806,1
0.000334095281529509,0.0732961395077155,1
0.000400574466494386,0.0994881497699513,1
0.000388824592320984,0.0973946468674211,1
0.000420338472539336,0.124439611632342,1
0.000388666441457129,0.231914162144307,1
0.000229219442346407,0.228322508102167,1
0.000205423572966301,0.229545968378586,1
9.98190846615052e-05,0.204976979480179,1
3.1566110866449e-05,0.265792746261241,1
2.81061120590297e-05,0.266918712574065,1
2.33327072519824e-05,0.253012641318174,1
2.42089888546421e-05,0.201869779828669,1
0.000111296726503063,0.21150109940293,1
0.000352510760616626,0.29370070400545,1
0.000638365793724178,0.318608277672159,1
0.00123066130571907,0.0784345729530515,1
0.00479091605502328,0.104722568078885,1
0.00634476291219424,0.0949555298560113,1
0.00648728962253921,0.0877785239768799,1
0.00587214068617377,0.0834250591776041,1
0.00515751002711542,0.0643590422100047,1
0.00805414166738788,0.0503344033994461,1
0.00776394814384379,0.0231088020979734,1
0.00661110349637657,0.0202958101578839,1
0.00604120777279929,0.01614102201563,1
0.00514549723829957,0.0119097064212034,1
0.00575830963205003,0.0149211569942952,1
0.00632253906145223,0.0167612822228395,1
0.00721936343764896,0.0190508965620836,1
0.00725749274495321,0.0152156696031811,1
0.0082013255937971,0.0170185142314295,1
0.00592403298240355,0.0138018510471635,1
0.00515040985649412,0.0202630611719519,1
0.00536965067087489,0.0211149389630273,1
0.00422458920159677,0.0232826087956413,1
0.00385152451571363,0.0290185700866584,1
0.00409404000142221,0.0205557277403069,1
0.00509110949430915,0.024074968631619,1
0.00473509300741619,0.0232322860318628,1
0.00451425647070656,0.0285968760246531,1
0.0034262905128301,0.0267896123779178,1
0.00326560496345485,0.0335553313853351,1
0.00373199884557594,0.0318560323125734,1
0.00354485705437983,0.0247915257525517,1
0.00370215892325828,0.0225654290842977,1
0.00287139408599383,0.017323429888403,1
0.00267227050667568,0.0217471222517243,1
0.00273655565845143,0.0176177648562621,1
0.00330693204320622,0.0181811329230143,1
0.00406917565058268,0.0235570907302959,1
0.00475643947370702,0.0272262982960739,1
0.00561116941165372,0.030812568598708,1
0.00522506117670537,0.0288105840938856,1
0.00497856323302406,0.0302633860631808,1
0.00464947729305449,0.0365598789230358,1
0.0038843009323581,0.0311185865582887,1
0.00367042999392822,0.0326813570440177,1
0.0023967996527909,0.0246109931630077,1
0.00279363785831848,0.0308535738545706,1
0.00313235507159045,0.0326993446590617,1
0.00330946099118127,0.0347365591094672,1
0.0031975084600338,0.0389328003632662,1
0.00335667942384694,0.0554502234973969,1
0.00369530319815051,0.0635500187091039,1
0.00410448669165387,0.067056879786276,1
0.00408784041798042,0.0926163715764214,1
0.00177165736832318,0.0615560931379257,1
0.000613496382654274,0.0826899006088436,1
0.000982674403007769,0.0784642947403991,1
0.00275225539898487,0.0975310271174641,1
0.00324659614253131,0.079750139900291,1
0.00583341035557722,0.068268344764635,1
0.00733298812459858,0.0560664509245182,1
0.00829138452918169,0.0345139385735677,1
0.0163431958302142,0.0489181793916154,1
0.0252156611913343,0.059435283622511,1
0.0710101011364344,0.0313833274982788,1
0.150916353066795,0.0455524344175119,1
0.156272299555883,0.0362772774380894,1
0.152217085470362,0.0377602937317035,1
0.130933832772304,0.0332444509008549,1
0.112726407837907,0.0245160042365859,1
0.1144556917322,0.0240213526912931,1
0.088874069197724,0.0203734341624369,1
0.124429759572076,0.0219370893681916,1
0.111601911369138,0.015908512723414,1
0.125673212159137,0.0170504723768249,1
0.137657571016459,0.0150273904550503,1
0.133201287456614,0.0137869478433784,1
0.124762755360677,0.012109506030867,1
0.110404067274202,0.00770569084276163,1
0.12163161379046,0.00805498340427174,1
0.122448262007819,0.00782976186765905,1
0.125476015722704,0.00738604035014484,1
0.156445764521285,0.0110850761737136,1
0.16591968819645,0.0123650212189084,1
0.181413979866642,0.0140275370032647,1
0.252674390988705,0.0208493966426302,1
0.275645076850489,0.0110657224840626,1
0.295035731844927,0.0110902216316553,1
0.28494784518684,0.0131243360354238,1
0.337930876726609,0.0164165174016131,1
0.368171830181446,0.0184180405843291,1
0.409975883884517,0.0216574013204559,1
0.438327941633642,0.0223773221074355,1
0.445487145839099,0.0223255617654825,1
0.424596663119539,0.0238392254147452,1
0.208010160839868,0.0165634954983505,1
0.0371114593035949,0.00753128246666558,1
0.0470122924841864,0.0150730233606889,1
0.0793048012597684,0.0230168121731131,1
0.101973204782299,0.0274552608520499,1
0.122452961958566,0.0322611693705448,1
0.140831306520635,0.0358229465761663,1
0.144888344394539,0.0321687062805897,1
0.127157226387733,0.0312465897688056,1
0.0951009526396296,0.0288641120574002,1
0.0343129713144232,0.0165667840118262,1
0.0278113602696498,0.0103942015237461,1
0.0219435228790656,0.0108615339202627,1
0.0233373166532183,0.0105206683711289,1
0.0262769270875261,0.0115292954306241,1
0.0249781669388617,0.0104710669865926,1
0.0254325114194818,0.00943919021019969,1
0.0329375608633811,0.0122666828553318,1
0.0318929757976489,0.0123852801908387,1
0.0317268748626719,0.0142436580530876,1
0.0269761569222565,0.0165542365700721,1
0.0265468377996049,0.0207333316230638,1
0.026862873255446,0.020852727691373,1
0.0287267078980466,0.0243401295212134,1
0.0272920085349906,0.0127129424888091,1
0.0308614006883102,0.0179792469944135,1
0.0372965062997851,0.0215311508208837,1
0.0308400619688977,0.015513845549515,1
0.0327208695401869,0.0163824076840561,1
0.0342331294271145,0.0156137115846197,1
0.0383266716469901,0.015296447324313,1
0.0356331735759681,0.0141498827932147,1
0.034768655970158,0.0107393793328395,1
0.0305358171612609,0.0085514680841893,1
0.0250262398321613,0.00774702836049048,1
0.0252459577584581,0.00626249961587416,1
0.0373643582179966,0.0103807665234133,1
0.0398046241706268,0.00739532062110361,1
0.0415600670738147,0.00687972837169158,1
0.0432708599420203,0.00742190718113965,1
0.0452842071649541,0.00888137885661136,1
0.0388184360436464,0.00693148770023657,1
0.0340826798686793,0.00683900680222062,1
0.06522104184085,0.00760040940210151,1
0.147506821902275,0.0193135265685715,1
0.153909445923737,0.0147178822992104,1
0.161280239286156,0.0127028770871614,1
0.166897268652589,0.016757099649435,1
0.165961625148355,0.0176407517531094,1
0.169708000857706,0.018367269804149,1
0.171249113874597,0.016397703041236,1
0.164142372352217,0.0125098954135603,1
0.18086637809949,0.0144811375149747,1
0.256932073916275,0.0100704263427042,1
0.370012714035075,0.0168492396301975,1
0.612981896747226,0.0278580847048245,1
0.603790825313896,0.0202545058190746,1
0.550412475309061,0.0185186104165835,1
0.534639005781301,0.0173665592709523,1
0.550793365835082,0.0179912216500616,1
0.543673383244554,0.0171323411223795,1
0.530911676768884,0.0178880974464527,1
0.454731235509267,0.0155101812240185,1
0.419931585841645,0.0262008525928156,1
0.328015860360261,0.0198342693890771,1
0.133672131812216,0.00890633727971164,1
0.120985678611068,0.0174088107363182,1
0.121516074101003,0.0181655660492842,1
0.107358292505446,0.0187146287580897,1
0.0872061550019756,0.0139425934891909,1
0.0896850548313195,0.0206783468413904,1
0.0972229857242587,0.0206780468561958,1
0.116953755503408,0.0332286989399867,1
0.0771125846992113,0.0153560736180456,1
0.0381278793864386,0.00686008235640573,1
0.0635121949128286,0.0137262533764244,1
0.0684134207173747,0.0118811915253188,1
0.0670528328957458,0.0103385438783696,1
0.0626380306253935,0.0101180673804717,1
0.0506338984402003,0.00806745778117013,1
0.0435802110974381,0.0053382665074816,1
0.0578582329351817,0.00839019317993678,1
0.0634598013129217,0.00940588155617799,1
0.0590759591083008,0.0107753451052507,1
0.0535021941828098,0.0140871468446034,1
0.0452358705567421,0.0119036827374944,1
0.0434859242948375,0.0146360158951447,1
0.0412095996434789,0.0192940568852572,1
0.0412859805861454,0.0146766230123203,1
0.0430409122420283,0.0113175339877626,1
0.0421581999298371,0.0129536642430716,1
0.0293059324539927,0.012322088748791,1
0.0284407292250657,0.00871068018091388,1
0.0409510395345784,0.0168588207356341,1
0.104805264929065,0.024605398785386,1
0.126479238219052,0.0171091707993872,1
0.11351814723807,0.0157506604191729,1
0.108932021895486,0.0149489179157877,1
0.110281049752629,0.012382823023732,1
0.120547239150027,0.0158140474414288,1
0.109926237094504,0.0145928458719503,1
0.101703672697081,0.0106310654491805,1
0.0947495906958147,0.00915020913583298,1
0.118087539942771,0.0106709488438315,1
0.108803046534232,0.00974580084409653,1
0.106653311731401,0.00743957111622085,1
0.240681647716029,0.0148067784081579,1
0.305379688475587,0.01706107709658,1
0.315769198325582,0.0183662730092039,1
0.302747137640065,0.0138999693527245,1
0.297708744891536,0.0132258577591861,1
0.291697192805124,0.0140648574675664,1
0.30844623561578,0.016172819289451,1
0.323582727467814,0.0108938970748378,1
0.325384133984102,0.0134329981044629,1
0.293316488885837,0.0139857705688727,1
0.272880784945239,0.0202203267977779,1
0.207910638131195,0.0146905580634946,1
0.147704977406587,0.0104540954185484,1
0.137990339797791,0.0131841413098082,1
0.145211007236392,0.0146357091649884,1
0.156549529134801,0.0170357123223933,1
0.153599432176389,0.0167320859876215,1
0.161691741832942,0.0441686758285283,1
0.069164706538167,0.0243761825518056,1
0.0218202795739114,0.0123368433564359,1
0.0173701373174044,0.0219725193661141,1
0.0167314865845862,0.0233937410828383,1
0.0187093376325962,0.011982485852084,1
0.0376812966265181,0.0223541157403269,1
0.0465030338424515,0.0239661769702135,1
0.0471295740317236,0.0226227818362958,1
0.0489881584091887,0.0245229830397277,1
0.0632138332461516,0.0260408027542301,1
0.0718962930446174,0.028371310650808,1
0.0584136176191212,0.0240331107887299,1
0.0475129131775925,0.0195982652630182,1
0.0304556312918139,0.0135789700183244,1
0.0193010128143783,0.0147554287629595,1
0.0245439772053551,0.0191360086113997,1
0.0294684174404736,0.00823340105241261,1
0.0456651862969593,0.0117807725641055,1
0.0443814642190656,0.00978917327546277,1
0.0453531187903264,0.0116702478127321,1
0.0497557120181261,0.0145308091629627,1
0.05478840465718,0.013812725225969,1
0.0570742847994168,0.0126528607836853,1
0.0599082330366077,0.0114177353751691,1
0.0521379479512369,0.0104561767947002,1
0.0377574381412806,0.0065565929864938,1
0.0324739861123195,0.012297668009715,1
0.0300117719133229,0.0140367364349794,1
0.0356726607505288,0.019444102974772,1
0.0431691680606707,0.024701460999968,1
0.0453927803432967,0.0184906554480269,1
0.0466908035640193,0.0180409623240591,1
0.0368722561079187,0.0142701255875693,1
0.0315412079962461,0.0133343262836074,1
0.0422653029024812,0.0192609461222963,1
0.0452373501728759,0.0155220435878176,1
0.0525298927821847,0.0174712467994178,1
0.0609652158387819,0.014579179668694,1
0.120896239122693,0.0163691511909056,1
0.123846586977941,0.0116088488062235,1
0.133077238027013,0.0117065718337259,1
0.130358010364252,0.0110473679075131,1
0.129855201743395,0.0116101441204242,1
0.111763558269154,0.010166180476073,1
0.0928048392435144,0.00754242019085243,1
0.0797206076605434,0.00675531074032342,1
0.11565688653022,0.0080326068485858,1
0.178896058164274,0.0139959011737396,1
0.187584057686599,0.0193559095250701,1
0.160584639507205,0.019436253078406,1
0.171343180383422,0.0227402141869528,1
0.178668567671013,0.0246036855820785,1
0.163160572453632,0.0237750172975208,1
0.167417846226229,0.0108185470000264,1
0.325491869931282,0.0186599252929832,1
0.397047260731176,0.0113596786535165,1
0.392901491652699,0.0157308737190697,1
0.377322841299854,0.0156604553575299,1
0.373209618654035,0.0157862134435745,1
0.369012547345139,0.0169956221797999,1
0.344330038530002,0.0163050664104972,1
0.305041545985321,0.015046002342786,1
0.297115655404804,0.0142453626529212,1
0.302616748306168,0.0275317808467344,1
0.182162423186434,0.0264431913746517,1
0.0812715386438553,0.0465684083300119,1
0.0816524515833983,0.0570112082018407,1
0.0689520506648988,0.052270051810641,1
0.0517250067622713,0.0238888376204566,1
0.0287620638404365,0.0159606742059876,1
0.0415049799236503,0.0211429375471918,1
0.0498866004439418,0.0131846170280805,1
0.0561011481321284,0.0097158816461521,1
0.0667183861239914,0.00541392999559329,1
0.0943682242958047,0.00749208186189656,1
0.0934277638163091,0.00668829720485959,1
0.126935434715511,0.00931365547728091,1
0.150450586357396,0.0114350241691015,1
0.171853777197288,0.0150392534906544,1
0.156788284558007,0.0134062189748011,1
0.106557823396648,0.00867774114431814,1
0.10006147901119,0.00917003747560856,1
0.0575616830518759,0.00610182609677456,1
0.0356616200260415,0.00619318707995394,1
0.0618902883448334,0.0145981097351362,1
0.0478968890895135,0.00887874825037249,1
0.0483697018523148,0.00634150635976268,1
0.118092219502029,0.0144249282213631,1
0.118176955590741,0.0082313323425217,1
0.114159275344075,0.00744436417370823,1
0.106028973614769,0.00677409755083089,1
0.0989955756753567,0.00606786708656081,1
0.0855263685489641,0.0047288544808174,1
0.0762848695617549,0.00415336578814674,1
0.0734844349547961,0.00346843703431238,1
0.108473383944278,0.00494478619423241,1
0.216157847844775,0.0141680028189604,1
0.227657109449224,0.0102760779583202,1
0.214225013246169,0.0128371947621332,1
0.194475832986974,0.0124560468381102,1
0.191155910517789,0.0128994201327328,1
0.177897482957391,0.0119025558680612,1
0.176844479859484,0.0118601843591986,1
0.16929461605954,0.00979059581322443,1
0.154591883155181,0.00790652175546226,1
0.148142470728177,0.0106970945552733,1
0.107861150784215,0.00675044338667238,1
0.100658576066552,0.00672098675424099,1
0.273014173965634,0.0137614410861077,1
0.362465501645376,0.0124853046693936,1
0.337963136836296,0.0113299022240056,1
0.322108458363951,0.00954211512229988,1
0.437605841317382,0.0128702900096418,1
0.460740101251891,0.01090428986162,1
0.464424274364614,0.0111951974419947,1
0.477604186205593,0.00991604595346199,1
0.549770514304299,0.0115992735910301,1
0.577761391693217,0.0108198097580024,1
0.393717463319296,0.0119884343841496,1
0.193777895055728,0.00678152445647075,1
0.164362953014697,0.00530109270168827,1
0.159540224514992,0.00709290696751507,1
0.130678932105001,0.00574897453301268,1
0.124361208658024,0.0182407153306925,1
0.0514829210502718,0.00779230205740123,1
0.045060876390221,0.0110499345285849,1
0.0738785070179463,0.0141302879584212,1
0.0747457062513583,0.0135200965163072,1
0.116523504689843,0.0125131055041384,1
0.191635029140511,0.0143353452457338,1
0.216701646437504,0.0101055334155366,1
0.25235012224624,0.00995556918900815,1
0.257049168491591,0.00822106636459833,1
0.243195246662432,0.00679935455660377,1
0.236837754099108,0.00615822840029109,1
0.248182664238385,0.00717103477402755,1
0.240879067782491,0.00665802512328542,1
0.265175328647175,0.00593428169156375,1
0.285423794181159,0.0102275602873779,1
0.194866292782985,0.00677837091960129,1
0.203576663286224,0.0125363304768371,1
0.202254077545339,0.0164816693193259,1
0.144378905802714,0.0203647454589575,1
0.0895952797788421,0.0144022452396936,1
0.0646222490599188,0.00881494965569399,1
0.0654580187791482,0.00916080555972553,1
0.0359266203034946,0.00460804178154261,1
0.0220541698217094,0.00989799148753309,1
0.0215309265347557,0.00750908132633112,1
0.0236614351495773,0.00721393935646497,1
0.0253220841012846,0.00787048342426996,1
0.0250433189654608,0.00836516077206043,1
0.0256447499814313,0.00879048524570701,1
0.0237902398970964,0.00766747090532887,1
0.0232131779948691,0.00780308957768863,1
0.0209195580526707,0.0073644740472452,1
0.0188733476978152,0.00763612469021843,1
0.0165460835789261,0.00851000280742841,1
0.0148401531250145,0.00815631207170171,1
0.0313512288620293,0.0187084019928662,1
0.0299715728078543,0.00728922042515945,1
0.0321191689666024,0.00796237167294272,1
0.0326914535138565,0.00699048462642906,1
0.0436869064378154,0.00975199799608717,1
0.0468625190897508,0.00946884094613258,1
0.0559739251177044,0.00909593126896,1
0.0700708233191544,0.0125036785985912,1
0.0829281439496527,0.0143354778133789,1
0.106047909334433,0.0148138736530091,1
0.157150335309684,0.0184264773530988,1
0.14016450094694,0.0206199153504758,1
0.106529949589533,0.0142805739803403,1
0.105463524818009,0.0129911121473873,1
0.236546901958141,0.02504677783832,1
0.234531526314019,0.00868955496926625,1
0.237647241301184,0.00955521999922096,1
0.229157677867924,0.0085996041215874,1
0.241068997889064,0.00743454806664226,1
0.284714716883355,0.00954999836526957,1
0.281887446179891,0.00761789756103709,1
0.305509455592508,0.00858334750124109,1
0.3230063484857,0.00789038659858579,1
0.356994145741305,0.00937648760085245,1
0.254888210976949,0.00400708872661479,1
0.229770416187448,0.00945396286975233,1
0.265985626013626,0.0104638317653384,1
0.316907690858088,0.0126334164312652,1
0.29881680824542,0.0135259526250146,1
0.204022934878632,0.00957451891661503,1
0.211625424648656,0.0119737869943401,1
0.245038089434414,0.0157423509490001,1
0.278005037868652,0.0215281605119383,1
0.299818848039914,0.0264787163550259,1
0.294654101114938,0.040101729470608,1
0.314766830762256,0.0544811548239319,1
0.248123815269608,0.0264210640593419,1
0.193027701986855,0.0214779851756045,1
0.154004720458465,0.0134790397341153,1
0.140200896195765,0.011574914453863,1
0.131812576520413,0.0109970664817227,1
0.136183442541031,0.00879629399494944,1
0.156161446585973,0.0108120083680493,1
0.146448906932854,0.00966483684484184,1
0.154029464901876,0.00935013759457177,1
0.177828880831164,0.0117304799646598,1
0.172560766320928,0.0111878342109736,1
0.106044553638849,0.00482510404212717,1
0.087555506359518,0.00572432760470827,1
0.0878137173634174,0.00493709818317301,1
0.110669531939492,0.0081376393006375,1
0.109646002598759,0.00823626408537464,1
0.103778399250949,0.00764196984878627,1
0.105749327462397,0.00881987137035799,1
0.10814426796061,0.0100611387390644,1
0.10652674393003,0.00925182633461809,1
0.079788639359227,0.0157088980245978,1
0.0313523571221503,0.00946627226606176,1
0.0412119605941338,0.0114914333958606,1
0.0372831642666872,0.00823403930020635,1
0.0332466075645871,0.00907307076081381,1
0.0338637579620507,0.016921649218981,1
0.031460802130503,0.0164948950246374,1
0.0343436981465013,0.0130385982150411,1
0.0442399661650625,0.0159939369345877,1
0.0470897703099087,0.0154104120026284,1
0.0464485366030072,0.0146799154945968,1
0.0500591155114719,0.0144982125172454,1
0.0414877957588215,0.0115745479277457,1
0.0434587495689007,0.0133192746528926,1
0.0532909787946124,0.0176661063443392,1
0.0667539802539534,0.02117331836873,1
0.0785828970299365,0.0254254425316974,1
0.0838652667090434,0.0225553783627037,1
0.0836201895388557,0.0224492686344765,1
0.0927040850052663,0.0195502774366025,1
0.0874929061307261,0.0116964850509981,1
0.0905906351106078,0.0120610018383777,1
0.0620620060280611,0.00794553745341614,1
0.0460959916388854,0.0080280815303093,1
0.052532846012524,0.00989515663017641,1
0.0563081852316492,0.00985691081888445,1
0.0551061069368975,0.00881750385686992,1
0.120636979031132,0.0135813243595445,1
0.228525987286682,0.0228746135563697,1
0.254263088212699,0.0236131238701852,1
0.256590524298701,0.0193061717344748,1
0.250952001524857,0.0182403965564758,1
0.258044533091402,0.0199051025874859,1
0.310760242842477,0.0225211171731752,1
0.325083239128058,0.0180743198159038,1
0.332303641351842,0.0176110377030905,1
0.362766688140538,0.0194667646460124,1
0.343123581684175,0.0295287886575086,1
0.200094530276765,0.0202508799417008,1
0.106740202856741,0.00847062055065148,1
0.06952860465011,0.00927415513567528,1
0.0843774511298778,0.0111861620832442,1
0.280856852609873,0.0217376204813197,1
0.421201352774724,0.0215955314968758,1
0.4180107114841,0.0198010348052878,1
0.414908862533456,0.0210179682929306,1
0.395437941352796,0.0196736686273879,1
0.351741651991755,0.0175166990451476,1
0.287502195571766,0.0146366217773059,1
0.285342221362081,0.0116302000354107,1
0.426141220273768,0.017283207908278,1
0.524417425826305,0.0218717140197068,1
0.407744497854341,0.0269110208877715,1
0.224432725057273,0.0199993841124238,1
0.22203482308011,0.0265320863476746,1
0.189940514976948,0.0248173743326696,1
0.183838820557945,0.0242877394296632,1
0.138053251930674,0.0228425486050626,1
0.0458243667247002,0.0057899206355446,1
0.0173401362408536,0.0265823136691482,1
0.0171231533954361,0.0242492921157193,1
0.0166683652600126,0.034667582089402,1
0.0113193190550378,0.0294582106719962,1
0.0108214668040875,0.0272145240603455,1
0.0257752611814848,0.0151129040477339,1
0.0410974643626445,0.0178487094305356,1
0.0492177261095085,0.0199938688943831,1
0.0683041773899488,0.0273644392571249,1
0.0660573836275128,0.0229645878032054,1
0.0613720850707124,0.0186880755997433,1
0.0673241452185194,0.0189541977472176,1
0.0648352198524817,0.0150568412385942,1
0.060473430509266,0.0143463984322625,1
0.0497461116813459,0.0110337336653177,1
0.0474414420520797,0.0166665824662358,1
0.0584155858263972,0.0206927926779813,1
0.0652160358017745,0.0227404679592972,1
0.0528504178938492,0.01735838360965,1
0.0526552468279008,0.00983963313118853,1
0.206856847863635,0.0203017160410045,1
0.261343296055069,0.0107478179886929,1
0.264253736681892,0.0113179357117538,1
0.256034457556973,0.0110266061858736,1
0.296053868864918,0.00705211350906388,1
0.421443215694389,0.0106586290421528,1
0.374861226819839,0.00993230592983952,1
0.321859881806725,0.00807773014699218,1
0.298769918051858,0.00722152014097375,1
0.272998724884973,0.00700106722143728,1
0.220073566229253,0.00672580717359068,1
0.197645066331663,0.0113964973079469,1
0.156161414659841,0.00927275513440625,1
0.121935807766526,0.00619072786387866,1
0.105895964312923,0.0169707031111415,1
0.0538339811101208,0.0183221032310516,1
0.0794316648243702,0.0144346959207355,1
0.137454284678972,0.0186326043504477,1
0.125076544598477,0.0157644992641813,1
0.206401078672343,0.0206428563615533,1
0.21534143116105,0.0103635839899848,1
0.232640385072776,0.00994747880158965,1
0.249283616949061,0.0107199164924901,1
0.32287593762206,0.014460998724409,1
0.415924390675941,0.0185719960911463,1
0.445745882834781,0.0187947396101129,1
0.464064326453167,0.024000309875954,1
0.401207142698749,0.0204215882680361,1
0.381630743346878,0.0206586990369519,1
0.206242136945548,0.00983464325402574,1
0.187285760825429,0.0216580152853851,1
0.210844899787988,0.0157549293423735,1
0.210206791876865,0.0163758395113466,1
0.203709965437984,0.0163386506560698,1
0.180869057582873,0.012409504657737,1
0.188570537159835,0.0134729650127567,1
0.176081437800169,0.00936416475266528,1
0.176881479906955,0.0101225420295254,1
0.185383902839708,0.0107337199404292,1
0.192530113720588,0.0170903517582753,1
0.138626906599282,0.00600986379199442,1
0.174090016125588,0.0102455092644349,1
0.177599787709566,0.00924680363032182,1
0.274154560798402,0.0138874901149739,1
0.278698081069824,0.00870246431759874,1
0.305878788042634,0.00970719510757891,1
0.304686453415909,0.0109503705093282,1
0.303539143948619,0.0102095580323632,1
0.359110443051052,0.0120767758550844,1
0.385901346939268,0.0120473039290939,1
0.383607524377349,0.0177483094342254,1
0.349021981244328,0.017756966678037,1
0.347868306843382,0.0204732681257255,1
0.108304285329539,0.0034531831707349,1
0.0622583568868755,0.00867555980450983,1
0.0710334133571423,0.0101759730398187,1
0.0575805077193209,0.00799467687150014,1
0.0460734917964286,0.00712159918114291,1
0.0460106931503428,0.00787190300327505,1
0.0523635523559018,0.00653874216068981,1
0.133186137670261,0.0187742668026231,1
0.142465433807254,0.0116819294708933,1
0.135663705648047,0.00961595452980286,1
0.174240233761223,0.0132665965104317,1
0.203264588685301,0.0157238533519922,1
0.165193925012479,0.0113984284643906,1
0.130901851987797,0.00850222923203938,1
0.124652869123459,0.00668711660393725,1
0.134071567396974,0.00727819053935519,1
0.124856973887016,0.00825446450167085,1
0.101390004064709,0.00723463796789011,1
0.118558981450199,0.0119917604372568,1
0.135110641872019,0.014524513113586,1
0.128521523260863,0.00629507301704253,1
0.151479144038547,0.00871934785661382,1
0.153374327774554,0.0100144359234836,1
0.158607455740468,0.00929452302154387,1
0.169208967451853,0.0114631431975628,1
0.164899556414326,0.00782366354181764,1
0.182318910839943,0.00771746229131479,1
0.184889495847994,0.0082793086940481,1
0.161245748647682,0.00405273852222102,1
0.225596725714371,0.0072339797589156,1
0.223799673505347,0.00734193424438684,1
0.275282666780315,0.00185866335084344,1
0.699681147637682,0.0110515262252848,1
0.716716085849954,0.0105959909293135,1
0.665104913560704,0.00943349853745588,1
0.655302380792044,0.00839402759483271,1
0.658742553330918,0.00658554114951512,1
0.629609083954427,0.00618778268654472,1
0.552006992711206,0.00568922817207936,1
0.559880864074012,0.00534186126005768,1
0.518829777395358,0.00539520285588105,1
0.482807548214218,0.0103284068645756,1
0.321473583043366,0.00724975826247064,1
0.325715928055924,0.00797932436776315,1
0.292341529046773,0.00689832137320584,1
0.270584498262787,0.00495328353630884,1
0.350269685937316,0.0185301841258651,1
0.230945152861406,0.0113359932717548,1
0.173191590898908,0.00648212251535851,1
0.18763670130976,0.0101017381232834,1
0.199873880517934,0.0101267012856584,1
0.186173418984707,0.00927126335416779,1
0.183227341972266,0.00942490121129426,1
0.170898184351501,0.0113681669822996,1
0.0814418276834667,0.00359389395321395,1
0.047618258049506,0.00967918585150059,1
0.0455784470166302,0.00989938148617837,1
0.0370593153998303,0.00799030724124554,1
0.0752355338124159,0.013127707907167,1
0.227349620737399,0.022683770318069,1
0.555591234692725,0.0488616473346868,1
0.72122475185663,0.0463915906079157,1
0.894001616062803,0.0544329569293456,1
1,0.05641879386216,1
0.909311019275584,0.0337115553965017,1
0.756818822359405,0.0313834586930672,1
0.629348958238958,0.028076255777965,1
0.482561930892627,0.0194104448684999,1
0.45985379922549,0.0163249070158326,1
0.597842915896829,0.0241076461439796,1
0.537752684439151,0.0224320399474865,1
0.553306300798944,0.0208279617719618,1
0.551222699637366,0.0242695687940674,1
0.41587323579149,0.0179838848107117,1
0.369907482694119,0.0203036092458773,1
0.381425924771037,0.0205750560661507,1
0.371304273924539,0.0168016585519256,1
0.267176981855795,0.0180457715656596,1
0.148072696957637,0.0169495962873424,1
0.149813040264903,0.0111344773856778,1
0.121344518843224,0.00984867758745925,1
0.16093205745555,0.0203742440414983,1
0.21136692087768,0.020359696061855,1
0.171530233913929,0.0130767317965681,1
0.145794528300931,0.0103297293708935,1
0.122087413693336,0.00827289708536952,1
0.122830358351063,0.00945036362038225,1
0.133981525802374,0.0101442303595152,1
0.12089005714442,0.00988597246765699,1
0.113582220732116,0.0137795406385254,1
0.111321188264067,0.0109953121786054,1
0.0927513741915862,0.0125847685213949,1
0.0485040142619056,0.00574506302471129,1
0.0538371358937962,0.00917117277174687,1
0.0509514951309511,0.0114956488322922,1
0.0474720390103955,0.00921254997347257,1
0.0511399269655185,0.0108385934260134,1
0.0492440480325958,0.0102774929856641,1
0.0586846980171707,0.00771717027052605,1
0.0790656175377437,0.0102745033894135,1
0.0735258497616591,0.0122231886092343,1
0.0447547227584529,0.00439522606242707,1
0.0507500879735515,0.0100748891928644,1
0.0504707535819183,0.00967465879290819,1
0.0483428744193709,0.00750045265037208,1
0.0745008061875981,0.00927758570974636,1
0.1256424929226,0.0171895356101609,1
0.155812605185663,0.0224376640692623,1
0.156854745224584,0.0325628950198907,1
0.219010411553487,0.0299628506928675,1
0.195696945764105,0.0189785702181659,1
0.199396024992923,0.0182748988493378,1
0.232090783868484,0.0205142740206967,1
0.190714411582641,0.0183908718324767,1
0.114586328531431,0.00868666604649668,1
0.119024073646936,0.0122774924928765,1
0.184147850996008,0.0172974719427897,1
0.204629460131927,0.016919434231606,1
0.261669285834549,0.0185781249556804,1
0.275706225076114,0.0193158035115992,1
0.26499778340461,0.0171585351269542,1
0.248406993155971,0.0187926699352683,1
0.180597125726019,0.0104053662094777,1
0.165010022210901,0.00916648619694021,1
0.161173383837438,0.0084977496257783,1
0.158623710465683,0.0066046757902204,1
0.193348519664711,0.00581446841614656,1
0.295564887372147,0.0101294673377589,1
0.288542387332903,0.00904702936812139,1
0.247121403132749,0.00750569386435835,1
0.247232233356252,0.0117307478749122,1
0.253642235122888,0.0076702396067707,1
0.320548270713028,0.0174227454747115,1
0.326883679093683,0.0190120680377887,1
0.260928880307217,0.00672242542154208,1
0.265698039622157,0.00814704917078918,1
0.263053839861537,0.0107553520200656,1
0.278403098393146,0.0105520834704557,1
0.294569857968535,0.00958871613896354,1
0.266324775418446,0.00971237179667291,1
0.216253009977563,0.00726530961411812,1
0.223530304789102,0.01074112522682,1
0.203116781268007,0.0100446443582166,1
0.175067952832394,0.00742254244520889,1
0.174984282764104,0.00789561975986427,1
0.185888514091535,0.00869523912185837,1
0.247718766912935,0.0129774716950952,1
0.216155670096088,0.0131387921976796,1
0.177978471273776,0.0163088037813026,1
0.201742319748221,0.0163513724007016,1
0.254352942624185,0.0195392170233702,1
0.262344425534073,0.0182101883414152,1
0.25271485266429,0.017071554586473,1
0.119495876219349,0.0083031695090392,1
0.0850848025065944,0.0146548881574165,1
0.0805426410608668,0.0105027745181454,1
0.0809476332371108,0.00980906291171271,1
0.0858375848956195,0.0105318570412299,1
0.0619588932891308,0.00594467072892099,1
0.0564794505316667,0.00952684153527833,1
0.0618586600712361,0.00999247035099852,1
0.0502591458510543,0.0101420347458946,1
0.0385051117918168,0.010375321454084,1
0.0468233296009734,0.0149547551726593,1
0.0462917645766932,0.00942708888569198,1
0.0395815524634102,0.0107689823897882,1
0.0291627877420876,0.0077433524035676,1
0.0274207029000051,0.0114539949675238,1
0.0236666806549444,0.00938898763557748,1
0.0262951314473675,0.00985128150632747,1
0.0324605156536995,0.0132751717000642,1
0.0445641520703554,0.0184382027480498,1
0.0533389051247025,0.0219264365912913,1
0.0419221196124854,0.0211445355792879,1
0.037517626616554,0.0458505923294027,1
0.0382548292915819,0.0703724348866884,1
0.0228200331176267,0.0753624008289818,1
0.0121408342199815,0.0622425340038307,1
0.00368503089325555,0.0346157139584895,1
0.00176512004028796,0.0485292793220012,1
0.00162636924833432,0.0543762845063975,1
0.00168732382028311,0.0617191304325786,1
0.00175586229205274,0.0630371682091177,1
0.00187497927537226,0.0649813611981344,1
0.00201708256356131,0.0690060061557918,1
0.00202757098943707,0.107272497991999,1
0.00062879696995286,0.118419515780498,1
0.000105521634777258,0.221649870090573,1
5.43240857804616e-05,0.254259419042499,1
7.27393051021581e-05,0.300685562755546,1
0.000240300436438691,0.296735987145514,1
0.000326883742738135,0.242491260449984,1
0.000400799958272173,0.257213566206618,1
0.000751393431407574,0.247164725111128,1
0.0012099214714408,0.293057050451818,1
0.00213451735403149,0.314912518119493,1
0.0038045473075665,0.261762048591943,1
0.00508437069721732,0.109515972725353,1
0.00460637516037744,0.0937715355638954,1
0.00474300103646651,0.0716175782599908,1
0.00805988574187186,0.0801938892357789,1
0.00863702915598638,0.0541159828081929,1
0.00658395185117452,0.0417955178174422,1
0.00518440068821314,0.0317849993591973,1
0.00519216160883518,0.021627864104032,1
0.00701684635619971,0.0274040739512243,1
0.00732329906686341,0.0262936034089774,1
0.00727091096349659,0.0275556229287834,1
0.00868764110300175,0.0284739222939931,1
0.0109840182002713,0.0427146660213161,1
0.00928402070195661,0.0479123959604165,1
0.00676459897830415,0.046135577449145,1
0.00612590350272033,0.046728083422985,1
0.00381275208878389,0.038961020097216,1
0.00345212732803697,0.0470430882039834,1
0.00430159472029373,0.0536034598237663,1
0.00570435156940764,0.074087317972735,1
0.00578427267131513,0.0572380860936154,1
0.00572982200251912,0.0753262085977119,1
0.00532832434386599,0.0719945428904478,1
0.00472153523673196,0.0663561363451704,1
0.00410077359781792,0.0575903117236943,1
0.00341348296776816,0.047020215772846,1
0.00270103225587853,0.0338717093577158,1
0.00264520410291885,0.0393455871243117,1
0.00248728563146136,0.0365650805573504,1
0.00141209311770084,0.0253994830652035,1
0.000971511555484813,0.0310246472990992,1
0.00128233159410639,0.0370344408598087,1
0.00162922881765395,0.0422800046528579,1
0.00193365685044459,0.0499208060921118,1
0.00218149723862833,0.057936730014536,1
0.00206498331195286,0.0710343891125079,1
0.00182253080338779,0.0828421146981271,1
0.00176422018814837,0.143832589196913,0
0.000490435593783005,0.130706546337807,0
9.94625428650506e-05,0.588331398797709,0
6.12980998825528e-05,0.623487950532161,0
2.49153444269723e-05,0.413711208710867,0
1.42599547125507e-05,0.484613039832357,0
1.3372552167437e-05,0.467848425403168,0
1.34212407697226e-05,0.482383417316888,0
1.00763622033421e-05,0.356837590381552,0
1.73508546631282e-05,0.603067229604329,0
2.12305755085856e-05,0.581104408576241,0
2.27199702710196e-05,0.473046307867648,0
3.17731481391467e-05,0.46188086536913,0
2.7468850143748e-05,0.364043508264428,0
2.47851947360074e-05,0.339110483855592,0
2.17004391034901e-05,0.308123721091922,0
1.97748361463439e-05,0.298567308879283,0
1.67146460485185e-05,0.273863631038652,0
1.69202743343381e-05,0.353196580374227,0
1.7468028109286e-05,0.369087517069263,0
1.85375453592677e-05,0.388710375633668,0
1.79934931453408e-05,0.480047764725405,0
9.14565166366897e-06,0.435322814929616,0
7.132488903046e-06,0.457730365600194,0
