Activity,Complexity,Tag
3.16290819278704e-07,0.0728692884467356,0
2.35750312513293e-07,0.0697124298510656,0
2.37071259718902e-07,0.0688371491311139,0
2.2117488637376e-07,0.0677339095007046,0
3.70665091357857e-07,0.0791386636189527,0
8.03973793029524e-07,0.109154078922137,0
7.52723725091851e-07,0.106148270597405,0
5.56379682997776e-07,0.0919085957778594,0
5.33429343483636e-07,0.0914391102986781,0
5.28372918598964e-07,0.0933621153731181,0
5.04325268539307e-07,0.098387541856192,0
4.58373618988914e-07,0.089800071613442,0
5.11725498803682e-07,0.0952346369257744,0
5.8062124467812e-07,0.0961348654915496,0
4.99168300339534e-07,0.0981747122266194,0
2.1745161552906e-07,0.0678618398486216,0
2.1152300767003e-07,0.0684837515508049,0
2.17563433859106e-07,0.0686283934243375,0
2.27737504164151e-07,0.0687218889692075,0
2.26970803147803e-07,0.0692007991579238,0
2.3185530735003e-07,0.0671169611437497,0
7.61130227144696e-07,0.0542707950224226,0
1.15996436857104e-05,0.119277412801366,0
1.46718933037739e-05,0.0972368184757119,0
5.46270992870309e-05,0.090855763300614,0
0.000137514983655061,0.125505103726315,0
0.000184059991210198,0.143136396845271,0
0.000191778214634744,0.121512346215911,0
0.00020854405703019,0.102876620401759,0
0.000183565594663911,0.0691308124257956,0
0.000211991237981631,0.0674553060429447,0
0.000302265227722585,0.070051470655788,0
0.000337396657759116,0.0459661939025243,0
0.000665930954640641,0.0412813662431812,0
0.00069463239265123,0.0274422550568365,0
0.00067993649269745,0.0233102419479314,0
0.000792225015839302,0.0203439977818399,0
0.000778868436240486,0.0184023566582222,0
0.000739550525411126,0.0175289702739183,0
0.000544171503925839,0.0120014196250916,0
0.000529730849344507,0.0117034429237042,0
0.000543908568713652,0.0105422779509521,0
0.000564187977857631,0.0101009637843419,0
0.000524463342109566,0.0116676432445872,0
0.000502418971012297,0.0129539528564809,0
0.000397561651532698,0.0110578818740758,0
0.000448107110706787,0.0150235734924245,0
0.000648909164746818,0.0200103302213769,0
0.000810775566373305,0.0257379759683956,0
0.000843463139249777,0.0311535663057277,0
0.0008738043610159,0.0236017674569244,0
0.000855847116211572,0.0192893980603189,0
0.000914532074368656,0.0192819297904347,0
0.0010270210773399,0.0206053566491333,0
0.00089399410276147,0.0199256903739982,0
0.000632308173878992,0.0173052664452667,0
0.000641190702217409,0.0168807318010234,0
0.00074909057805071,0.0168281957927989,0
0.00066435459573282,0.0139506557059565,0
0.000634507073884788,0.0108973023401549,0
0.00102797693546154,0.0144441560568665,0
0.000885510617515665,0.013283389297711,0
0.000827833329621633,0.0147550485431336,0
0.000697935550475388,0.0130768221057075,0
0.000688661704945509,0.0115685227528433,0
0.000901530312408372,0.0124817346042837,0
0.000935926987366359,0.00965862789183214,0
0.00102202071220227,0.0106922577232182,0
0.00102037639877937,0.00948181069103925,0
0.000992001600747231,0.00994602259867981,0
0.00071886217986142,0.00916969105505883,0
0.000696184849179638,0.0112844860085602,0
0.000628388935819969,0.00994632529391606,0
0.000587866869794367,0.0086287096432469,0
0.00056201060483719,0.00906245240336028,0
0.000358032414030019,0.0076028168112296,0
0.000418886915408528,0.0130917548288954,0
0.00028908732505608,0.00905812500593545,0
0.000564794176427124,0.008726253870512,1
0.00147114762704501,0.0197257478130557,1
0.00443165960978561,0.0182151032268021,1
0.0109220031089314,0.0320564914533079,1
0.0258182116483898,0.0323886582079657,1
0.0343222154265574,0.0284439325385278,1
0.0333492223724832,0.0217968553294121,1
0.0303771197480847,0.0177654393186813,1
0.0342236775884891,0.016618336780684,1
0.0274117155713021,0.00849419353255914,1
0.0189723510292846,0.00674106933549165,1
0.014346816256339,0.00484991178429841,1
0.0111286091777222,0.00366902165611297,1
0.0107493978952626,0.00337209731057982,1
0.00934877177098355,0.00391857350574447,1
0.00918671027618936,0.00382475611856895,1
0.0107736738480681,0.00350092280402121,1
0.0148113317214878,0.00558319938584604,1
0.0178378238170583,0.00631377263257716,1
0.0181780349656665,0.00769187442353083,1
0.0345466578345331,0.0089873306499295,1
0.0454883492329272,0.00769317629833162,1
0.0438312865464334,0.00823441326781226,1
0.0409016717808595,0.00782107603933081,1
0.0405242530267399,0.00627799352861776,1
0.0263904379872281,0.00354591926858874,1
0.0217260863089287,0.00307649674034684,1
0.0221061234409466,0.00314207801337818,1
0.0210847393240087,0.00336137180103257,1
0.0225499633439899,0.00323141681889308,1
0.0227011667250632,0.00444867341876517,1
0.0214376165317231,0.00494915351822853,1
0.0257625828334453,0.00411702006521196,1
0.0265078640512531,0.00403239853971013,1
0.0179382462913,0.00314263320963931,1
0.0173798682369531,0.00367016704629738,1
0.0198717964458792,0.00371789492520151,1
0.0203557611470647,0.00283106175566008,1
0.0173982522415391,0.00204525407340249,1
0.0211246465983193,0.00278462571951455,1
0.0264671993311293,0.00290731698740972,1
0.0212154733068111,0.00271619191459643,1
0.0157630888775479,0.00265591324723895,1
0.0175140392323208,0.00247679096793475,1
0.0231335438275068,0.00363353645988931,1
0.0226847826691171,0.00343428117263548,1
0.0233307893393799,0.00394223295132435,1
0.023188093701421,0.00498077368984406,1
0.0250574109654251,0.00496763115913286,1
0.0229141399086624,0.00402300667903999,1
0.0176132446574082,0.00312505686634706,1
0.0172047531564095,0.00322835329015459,1
0.0236273880513455,0.0036037408060973,1
0.0276945142601265,0.00296915491369357,1
0.0252842837471339,0.00289236313904346,1
0.0255456723753972,0.00277199943455511,1
0.0260852878749177,0.00298948101300508,1
0.0254900721633952,0.00281115095189392,1
0.023896200452384,0.00283141366169474,1
0.0220800572136861,0.00438002131455911,1
0.0160744413268462,0.00267774548953452,1
0.0195997351066066,0.00358764409872116,1
0.0157629897826529,0.00284030733562682,1
0.0133345560222935,0.00636201682685622,1
0.0108439973858921,0.00521683919723606,1
0.00981502176057711,0.00678482077513076,1
0.00833625639182939,0.00614850684259365,1
0.011933661789434,0.00568804948074321,1
0.0153539485160255,0.00669220571003407,1
0.0155268546534136,0.00595855351986599,1
0.0165855380725777,0.00613597701629063,1
0.0132640974506042,0.00520231116211183,1
0.0233425886264939,0.00838866194297088,1
0.0278313043446501,0.00505946628347235,1
0.0300353677812794,0.00373511783709022,1
0.0337195005541554,0.00298904457242842,1
0.0277739420463827,0.00230644842543687,1
0.0282218366459806,0.00230532795383134,1
0.029258347014445,0.00230116632743062,1
0.0239670083930841,0.00174785894469469,1
0.0232367948474161,0.00169256137584851,1
0.0233179902017382,0.0016331684987794,1
0.019500999908813,0.00141271794597214,1
0.0230846029191574,0.00248985700861642,1
0.0295000904148574,0.00477538776029179,1
0.0324217578950143,0.00554964798956522,1
0.0323140696495343,0.00328921515148443,1
0.0705758991989981,0.00536649917834951,1
0.0749835753927637,0.00434807105169127,1
0.067165620564894,0.0039968715289515,1
0.07065724144319,0.0040052877512896,1
0.0718804161709511,0.00401084800931346,1
0.0748753750700231,0.00403232944909475,1
0.0819255816364457,0.00459762527226494,1
0.0839643937783386,0.00500465607711405,1
0.0833661653331566,0.00485441718148124,1
0.0826064327412101,0.00554226104577607,1
0.0427386647135528,0.00390457602070537,1
0.0377131379920302,0.00296814360900834,1
0.0322463166594111,0.00194687130848502,1
0.0311326928177059,0.00204742909482191,1
0.0527532234236906,0.00347999432281594,1
0.0961794034592375,0.00635006647376972,1
0.123523996081915,0.00820760424239651,1
0.130441499580246,0.00823201283237376,1
0.106571556002486,0.0085048484638356,1
0.101288253752951,0.00924544742862167,1
0.0742300096602716,0.00894171856511121,1
0.0734773788718666,0.0119536192982695,1
0.039508893294347,0.00945993724427924,1
0.012288977302808,0.00109592404389996,1
0.0270527642878154,0.00964143047406425,1
0.0312953311740398,0.00608291532330835,1
0.0292647470695358,0.00615443295832322,1
0.0312696442542162,0.00626170274305456,1
0.03086058885282,0.00533193027468398,1
0.0282713374969176,0.00485351097223228,1
0.0220472188283529,0.00391885065594001,1
0.0164960578790186,0.00320632885034215,1
0.0157175956846416,0.00275247659660512,1
0.0151183367657117,0.00296306829413017,1
0.00899012695554173,0.00143057753314791,1
0.00724644894673871,0.00180933244372703,1
0.00916618575716591,0.00290559001186463,1
0.0119583035382017,0.00435795350892107,1
0.0106963116670068,0.00413283232433977,1
0.0105261572151868,0.0045546059733902,1
0.0157405425622603,0.00329324609544172,1
0.0217181815641433,0.00433173893914615,1
0.0269334877444829,0.00480323203783315,1
0.0260713412316685,0.00466023538329528,1
0.0346896693995291,0.00594522791652412,1
0.0368867897308749,0.00555468743954737,1
0.0412256234677481,0.0044383118043493,1
0.0648083988372977,0.00579947759353712,1
0.058141401443848,0.00487933981965214,1
0.0338804390049063,0.00270761876816003,1
0.0274889565744664,0.00269201813219886,1
0.0345645127044381,0.00344810358923662,1
0.0365714537082824,0.003919969745059,1
0.0240149838870378,0.00183805152382253,1
0.0375323570543395,0.00297095524395962,1
0.0424111196617895,0.00174076085996583,1
0.0500063478768376,0.00173088923869281,1
0.0648354237499131,0.00232869793405582,1
0.111289349150844,0.00430182708682304,1
0.185414613867846,0.0071090674487888,1
0.230127211763738,0.00765383787479258,1
0.244926129252926,0.00874035356707381,1
0.24322540846542,0.00557961492111443,1
0.270051038056191,0.00638278869134954,1
0.282897730413301,0.00445262074342072,1
0.253084290402114,0.00500573156803695,1
0.186828728832216,0.00419745370304096,1
0.205625183504328,0.00432750336025709,1
0.226710340480142,0.00442433223559889,1
0.206635556995263,0.00405352444870247,1
0.186891835705032,0.00382223248692016,1
0.181379385759029,0.00347510099450312,1
0.171270772985247,0.00510089567729157,1
0.0866886428432433,0.00269798653414739,1
0.0635938084455047,0.00261637755758178,1
0.085663204281808,0.00428675803607733,1
0.0816679422988728,0.00476711484573118,1
0.0688975842237865,0.00565465523912408,1
0.0479839671531285,0.00582178836696226,1
0.0967733309585568,0.0106109592670082,1
0.0988933673955921,0.00628427869666745,1
0.0907894363353631,0.00590799476755258,1
0.0839110653862437,0.00543392252007194,1
0.0648083509059046,0.00410353628382701,1
0.0519029782328687,0.00474960414279721,1
0.054165261324561,0.00490810424217533,1
0.0429463233695639,0.00395911017153506,1
0.0396686530159922,0.0032395893570942,1
0.0397429106017471,0.00287061269147402,1
0.0283707321507672,0.00190289185059961,1
0.0212632601761943,0.00432921365523215,1
0.0159873940704553,0.00238840814576684,1
0.0175596218735548,0.00265998485283503,1
0.0480460372145207,0.00481044359473423,1
0.104985913730041,0.00918133271438615,1
0.135770090868787,0.0112913395865254,1
0.152147290250904,0.0116978618047769,1
0.162721382186516,0.0137357503057747,1
0.163371432011445,0.0145933303975505,1
0.157636173292612,0.0153749935686597,1
0.111154217726967,0.0120166970616481,1
0.0737474175999057,0.00911250663577168,1
0.0262151325460413,0.00256278063433085,1
0.0105872818184938,0.0105265894864347,1
0.0102241657295453,0.0109409605042225,1
0.00613395995681293,0.00981733777803773,1
0.000615294428661741,0.00466830133406931,1
0.00169402212137861,0.00643814695428549,1
0.0111249024372607,0.0157833209579273,1
0.0150839298592834,0.0127790207155403,1
0.0155158304483793,0.0119062384507352,1
0.017639249708208,0.0114580787008271,1
0.0162712599203421,0.00979355893596777,1
0.0164443731328843,0.0103730457094589,1
0.0195879149582922,0.00884582041949667,1
0.0225950231994945,0.0051173307265271,1
0.016553649222226,0.00316062602899481,1
0.0125908081398934,0.00250951678966827,1
0.0123462466972817,0.00276197626513021,1
0.0123688472521936,0.00252267217972382,1
0.0156405196575892,0.00309418648969884,1
0.0158426895124856,0.00336969363902359,1
0.0135903963999225,0.00248567220118682,1
0.0158464011236603,0.00288937242336269,1
0.0154986138961137,0.0027376021729487,1
0.0146428849383315,0.00450432856140176,1
0.0119220150389223,0.00426090667619809,1
0.0244989271571222,0.00431309841067801,1
0.0622795621668044,0.00776813970168999,1
0.0771845692340626,0.00806587056975562,1
0.13770438456429,0.0116665265530419,1
0.141020996656454,0.00528489739350763,1
0.137701052514753,0.00544628497501128,1
0.11400746487533,0.00458408803452449,1
0.096057523612329,0.00405545157174663,1
0.0896487699294941,0.00351297917527172,1
0.082922897244919,0.00278077930079127,1
0.108765730719591,0.00332168068045898,1
0.119373133267327,0.00344465856524809,1
0.204269022819374,0.00589815934571819,1
0.203200065057097,0.00448941345265434,1
0.203540393001069,0.00517473302477901,1
0.202486005959896,0.00518710130610048,1
0.225568577248087,0.00491891662136177,1
0.255447745213943,0.00387080965450531,1
0.225566844772155,0.00293552645528675,1
0.298598451764464,0.00311529039632763,1
0.320626909527877,0.00165336147539017,1
0.330601775761871,0.00190832959245281,1
0.416017896241662,0.0026643977988062,1
0.400723097404128,0.0025746612121447,1
0.374228783617383,0.00261804336476831,1
0.374954894302614,0.00250525908546529,1
0.370396793236155,0.00266186367339922,1
0.377059895741385,0.00295040364224082,1
0.423087181280723,0.00350843204618335,1
0.236664123376299,0.00199264930519383,1
0.174876757345017,0.00457752674139365,1
0.167964871117371,0.00450615583211156,1
0.133364465205335,0.00329767176357794,1
0.184635739822146,0.0066748534761428,1
0.194415005088595,0.00655698800139186,1
0.161036646125701,0.00558152665628204,1
0.106198506703177,0.00420752962717991,1
0.102866846232754,0.00525677171254681,1
0.103977106929362,0.00662081007550099,1
0.087972948603679,0.00794737528860664,1
0.0515218479149107,0.00478919120495468,1
0.037904398955477,0.00263620570149701,1
0.0344081307821478,0.00331632008746742,1
0.0295306401374612,0.0025923242096776,1
0.0299021624102463,0.00292287599270138,1
0.0411169570984147,0.00454361599091384,1
0.044691063566309,0.00470269697171047,1
0.0422328823007524,0.00560312569142233,1
0.0406147899744294,0.0041209837557221,1
0.048824230636955,0.0048327151562142,1
0.0492009230732482,0.00575711956007813,1
0.0749446143660688,0.00640393535482607,1
0.127108397186645,0.00957156740351937,1
0.170791399731057,0.0137422446681422,1
0.200797583804943,0.0164664717683294,1
0.17976001333311,0.0171769132247072,1
0.159093806143305,0.0169280229885064,1
0.131671319442972,0.015282913080058,1
0.0906640671041904,0.0143574009463765,1
0.0704076013558074,0.0124757421291856,1
0.0213128006405453,0.00417142952824175,1
0.00433317796424859,0.0164699295360127,1
0.0128612309963235,0.00777881969553819,1
0.0430902987790261,0.0124624396270521,1
0.0776002519865577,0.0102698799918348,1
0.0741181694846514,0.00997790542424117,1
0.0736630374090709,0.00864227710890534,1
0.0768226436807445,0.00703804672851207,1
0.0672080920851038,0.00521332483384679,1
0.0614057537178036,0.0041790016754524,1
0.0673129972580764,0.00381923586849487,1
0.0557688829941401,0.0016481303297556,1
0.0551680578981067,0.00205571636586165,1
0.0539338700192055,0.00227768548499564,1
0.044255184925042,0.00188277197224818,1
0.0488511808635919,0.00208963026532983,1
0.0471817125439075,0.00217603147198776,1
0.0392632879016425,0.00184517591026788,1
0.0407222517444615,0.00232078357772834,1
0.0414790779446825,0.00169085095845758,1
0.0326214261679355,0.0010318450736797,1
0.0294833531948794,0.00173940510710758,1
0.0372756695324693,0.00183075574446288,1
0.0434044492188879,0.00247823797142082,1
0.0514477941297101,0.0031728664239791,1
0.0446575682920823,0.00239050682789876,1
0.0469639481706457,0.00281880594286451,1
0.0467702784237217,0.00275715841436669,1
0.0371208669229544,0.00206292199458168,1
0.0517515333018388,0.00516169859703529,1
0.053921109583472,0.00492128950177745,1
0.042695174680336,0.00417382807109182,1
0.0425162390123369,0.00527583623987991,1
0.0515857188731265,0.00352872494960154,1
0.219361146002046,0.00566962028173195,1
0.442182945315558,0.00897363450905462,1
0.41249229377389,0.00352325645778718,1
0.393125334718539,0.00332539882223435,1
0.376507042260141,0.00319062199238197,1
0.373487097112606,0.00296336165144446,1
0.351272022930888,0.00327061701027057,1
0.290338779439569,0.00238926302646862,1
0.263063945160394,0.00209690432758193,1
0.243618310192691,0.00196329571577051,1
0.203581616069251,0.00333507915811696,1
0.0758497871970126,0.000509018592399216,1
0.0562332153772734,0.00484347446959904,1
0.0360077015967843,0.00361543455081813,1
0.058661055746828,0.00393012857021115,1
0.0910779102548788,0.00297332732312083,1
0.107216812255836,0.00225676436361045,1
0.103930555108343,0.00261128456168986,1
0.0965125476591959,0.00244498597785291,1
0.0965704819395306,0.00290460212775875,1
0.0944045152754732,0.00259703549556543,1
0.11211884180932,0.00289511792392823,1
0.126482559931512,0.00165228054095934,1
0.142008801133819,0.00220549524238709,1
0.11669634545422,0.00166088351381554,1
0.104817328627517,0.00269124288405722,1
0.110063627568195,0.00372171364585768,1
0.117373087034734,0.00257698677307531,1
0.129852529305807,0.0029084295983895,1
0.16954418243864,0.00411712675550797,1
0.218595326705379,0.00552800077642566,1
0.235701367325004,0.00588330795597535,1
0.223002702613255,0.00918067896740267,1
0.204373901868603,0.00890758053226512,1
0.213607059705003,0.00768670993332984,1
0.198453566091084,0.00705202622128834,1
0.133615319818132,0.0046155106340693,1
0.16085252414157,0.00497261047979949,1
0.211533368109437,0.00599366437935068,1
0.208158909335791,0.00389711731808978,1
0.221369974094147,0.00418400371109024,1
0.221833124137747,0.00431040263277414,1
0.232286380635557,0.00444558482560204,1
0.276451412206715,0.00568417255681707,1
0.311696012991115,0.00699014093780962,1
0.356044253670038,0.00733323174368764,1
0.414312529535979,0.00824587863507699,1
0.338592914462708,0.012860966693764,1
0.183995452404426,0.00755932544365704,1
0.0957924220294869,0.0108557523379221,1
0.0939590303374061,0.0100323659116718,1
0.0664480741349221,0.0102689578784004,1
0.0121306841074477,0.00214082392067519,1
0.00381303328766617,0.00763906929660489,1
0.00400189101354539,0.010873670490679,1
0.0036320147360241,0.0191269190939876,1
0.0103548389185853,0.0174063052743949,1
0.0363533508820878,0.0194341625130702,1
0.0387560730906295,0.00613578766431449,1
0.0361023511223892,0.00555105624009283,1
0.0429957005761711,0.00491914000421726,1
0.0436325961167948,0.00372312973577187,1
0.0368487783710139,0.00311338217558304,1
0.0322893047057602,0.00240834315868752,1
0.0342799013747905,0.00244307742485664,1
0.0323579574286579,0.00159926618924707,1
0.0328272676542013,0.00196052662478577,1
0.0248252746929026,0.00121315363447497,1
0.0226255414571658,0.00254368738082129,1
0.0178722476102909,0.00194592891083463,1
0.0173350548886844,0.00283328013137733,1
0.0185418793706351,0.00347873259475767,1
0.0173217683181693,0.0033909464276893,1
0.0154552284265469,0.00385077731878218,1
0.0159295395050354,0.00282817959195602,1
0.0238695551171535,0.00682273658979307,1
0.0212007075211465,0.00518530799767031,1
0.0545862585709124,4.54005503984779e-05,1
0.302659772819998,0.00642623350666981,1
0.353925981536533,0.00556449990674348,1
0.354732641590039,0.00572593328182259,1
0.343343404004918,0.00576217806922083,1
0.316671511025045,0.00532014845995314,1
0.26218198516911,0.00402819640510333,1
0.230999998690607,0.00368348224935132,1
0.242422617415122,0.00387581839101667,1
0.204922049057226,0.00296427426264798,1
0.18054633702206,0.00598316790364101,1
0.0689671865361771,0.00318871758433536,1
0.0502385948533273,0.00363469337674095,1
0.0528351197888352,0.00357782296335959,1
0.130958335309423,0.00630905339211379,1
0.151488077934729,0.00396964350889197,1
0.146941146828218,0.00445791454605976,1
0.146796645362992,0.00441401710491907,1
0.109454153607327,0.00325508492862814,1
0.104571939138862,0.00354386911524583,1
0.105311552661882,0.00353126179767398,1
0.127714392810062,0.00420802719018657,1
0.138702925596458,0.00390877526335816,1
0.136191173181678,0.00382196992447613,1
0.0937579525590256,0.00335374376052484,1
0.0799748141400702,0.00979229407386676,1
0.0854405401576351,0.00900424030118548,1
0.0964401166824237,0.00493573004360196,1
0.106464916162594,0.00517115381219399,1
0.0987187717275915,0.00496191816289347,1
0.104949237895141,0.00369089881181845,1
0.161390223148807,0.00539859763791393,1
0.226075051190075,0.00821679046641698,1
0.275776478012215,0.0098101874325596,1
0.279749934412376,0.00815818305621494,1
0.254509460658597,0.00827100036754413,1
0.189760211249783,0.00736397049091116,1
0.141600143045034,0.0065288208862869,1
0.154001838417744,0.00426368898746863,1
0.182792658830426,0.00492672745029365,1
0.190074547781344,0.00535889900579767,1
0.189871891358676,0.00466057577987172,1
0.236899359807083,0.00564423817225902,1
0.257171827719388,0.00592351626363476,1
0.307684003187732,0.00735078194701859,1
0.394280288030649,0.0085378283695061,1
0.395937213224299,0.00758144035592945,1
0.418233209618443,0.00868540303788531,1
0.419549192714051,0.0101101057363341,1
0.331180099681067,0.00773662424033954,1
0.210243525154218,0.00457267881987141,1
0.177066285984045,0.00470032691814497,1
0.186084845107597,0.00481618533602034,1
0.192489231894677,0.0039951959607019,1
0.190516539640017,0.00399319411988948,1
0.189542858173039,0.00390108470336068,1
0.259875051958752,0.00570904610394458,1
0.33542807116939,0.00702185081565704,1
0.386953476010564,0.0103561188906384,1
0.294746139763978,0.0120010463079707,1
0.226806587799483,0.0115636338966215,1
0.219105777258199,0.0114772585611753,1
0.131915257415183,0.0101704691780214,1
0.073518678296034,0.0122582888412296,1
0.0306914772167892,0.00611262455725722,1
0.0104865242833285,0.00361030274978554,1
0.00746881353290091,0.00301093058975235,1
0.00868893515294436,0.0038369018105957,1
0.00917504049259249,0.0044646274350059,1
0.0137362958010444,0.00226115657155713,1
0.0414708071900824,0.00559288077425184,1
0.0396397462840004,0.00404742794245983,1
0.0352983091216693,0.00365393353003912,1
0.0361452601380585,0.0038899457770288,1
0.033015577003515,0.0039580646161837,1
0.0256133687317727,0.00286788289293315,1
0.0263624680025804,0.00268432524589171,1
0.0292161103828011,0.00303125506626345,1
0.0289433310630631,0.00298304820535821,1
0.0258394428339136,0.00480677974304767,1
0.0190783974793041,0.00539560763329483,1
0.0179422121657094,0.00659128959136264,1
0.0167620277690254,0.00280154201793357,1
0.0196927203571666,0.00247864511775097,1
0.0185766318329761,0.00244086553830127,1
0.0144051864676084,0.0018237867328188,1
0.017527597978249,0.00292401474755993,1
0.0346113394293303,0.00573493842463456,1
0.0474381743805126,0.00763265607811563,1
0.0504743513896488,0.00777451070762554,1
0.053250408320776,0.00575819423594966,1
0.0475272597360938,0.00452123489009949,1
0.0423433725458558,0.00552061971639949,1
0.0404497779106307,0.00647964417263849,1
0.0436350754161723,0.00627629343714504,1
0.0834183806180374,0.00609917422169936,1
0.167596544833859,0.00848912679415945,1
0.193124843024268,0.00858614791430528,1
0.301852867730785,0.0113445351429872,1
0.33294758632797,0.00791189638043392,1
0.281078017762705,0.00717518925254795,1
0.220749659983078,0.0058074370567883,1
0.172654158764369,0.00458451659571594,1
0.104348283406943,0.00254554333755852,1
0.0739886276145837,0.00133746848444019,1
0.083268381616822,0.00255101576936584,1
0.0831099036301168,0.00251464897229205,1
0.0920755956651128,0.00188759840467923,1
0.164666654400134,0.00343106272366883,1
0.182789933094631,0.00265736810363147,1
0.183563847956207,0.00284342420372604,1
0.173929318277501,0.00262045083770111,1
0.174456473820902,0.0026192247172657,1
0.17684639186268,0.002343508930461,1
0.195690635497414,0.00274746367877703,1
0.173045293425173,0.00212613774738122,1
0.188378762329348,0.00233849880110194,1
0.204687578020954,0.00316171130805997,1
0.120462093663968,0.000962045381799021,1
0.127282767160155,0.00275634997061618,1
0.120282721531288,0.00228016425898711,1
0.141601299710612,0.00267080844612034,1
0.176814572417407,0.00338717094623816,1
0.235290058680732,0.0057903122171171,1
0.240295097000459,0.00566933517705599,1
0.25725938718806,0.00596769597906848,1
0.272073256152811,0.00436652661428164,1
0.293206392591944,0.00495547313720502,1
0.238136435823368,0.00686179550079706,1
0.165629174386254,0.00457403105450692,1
0.17422535710344,0.00546261107174769,1
0.186457361166815,0.00434252129988994,1
0.210452567067733,0.00461622156273278,1
0.198678847495938,0.00419448506069831,1
0.176914066562081,0.00380746108480247,1
0.15589174666801,0.00346272513219064,1
0.139718608600302,0.00569584871386059,1
0.113333829056666,0.00371224070791434,1
0.119998998431011,0.00347521654425682,1
0.121681054659971,0.00338872666781728,1
0.121389244283598,0.00331112299828902,1
0.104027451827265,0.00390280702306983,1
0.0951086479136249,0.00466459554480976,1
0.118209133160254,0.000890700224574019,1
0.334870021777163,0.00376767556243063,1
0.346312505624375,0.00250587278045647,1
0.359082631965383,0.00258699750869529,1
0.371098887206241,0.00304489024293689,1
0.369995031957349,0.00302925938483088,1
0.391539532994366,0.0035774886377092,1
0.389015960380487,0.0035120240621508,1
0.453393073857613,0.00406774569255484,1
0.52963777286808,0.00473998851644987,1
0.55055583324676,0.0100254629621078,1
0.159489791714171,0.00447797451180606,1
0.0876501153196276,0.0102154464312497,1
0.0718813047330744,0.00862944160475596,1
0.0669403066342312,0.00865629436183913,1
0.0517460123127929,0.00765734208771987,1
0.0422173588136765,0.00802308948128024,1
0.0137416422118589,0.00344161720389262,1
0.0111516287841258,0.0103431374052062,1
0.0113171305320737,0.00956305878786473,1
0.0112358590416756,0.00974113469403836,1
0.0100796257875392,0.0139283149907322,1
0.00466028635415809,0.00839519793801083,1
0.00270104486358349,0.0271811175105893,1
0.00963450526438467,0.00453043592051248,1
0.0460259721108903,0.0178977497494335,1
0.196675003256949,0.0168129920301977,1
0.282451193609242,0.00846796377794968,1
0.267392920897313,0.00825644225457297,1
0.247082048498735,0.00763050276348482,1
0.225873793280285,0.00714211839441878,1
0.201818855492743,0.00646460380543255,1
0.18050172089188,0.00587092199982438,1
0.159475843655209,0.00529073123022064,1
0.145998007246683,0.00544918890672103,1
0.151518351808594,0.00527978129413872,1
0.0811144688633549,0.00345110876548441,1
0.0203029853135408,0.00275354764004891,1
0.019428057821636,0.00197596973915079,1
0.0360741009096381,0.00356722299396873,1
0.0518168993783798,0.00331761385480929,1
0.050341919740705,0.00328312333872262,1
0.044859106856935,0.00283312285553437,1
0.0418137558877195,0.00213469769265183,1
0.0470693307892512,0.00253464037184795,1
0.0469092998240123,0.0028422351499877,1
0.0443260325873402,0.00344056592423864,1
0.0418843087818975,0.00360712071385323,1
0.0414318534694108,0.00337289897064294,1
0.0391300146275307,0.00389448024509794,1
0.0453716746623462,0.00578830464049972,1
0.0520372356086418,0.00615501847312178,1
0.0488385121672504,0.00463062946437748,1
0.069349468114043,0.00341771341272386,1
0.176280846526493,0.00764690023761971,1
0.223896349496248,0.00390288082069537,1
0.227557142502334,0.00385888129115677,1
0.310596331501911,0.00507233849594846,1
0.32019959035707,0.00492494541723363,1
0.351473891802615,0.00546325464510601,1
0.306644085282386,0.00262295786724338,1
0.260705540459627,0.00145857015469591,1
0.222776334388931,0.000997183772832824,1
0.236340747580274,0.001325570843321,1
0.223699066793971,0.00106725071023694,1
0.245049000747742,0.00157103678043825,1
0.280014614107827,0.00219124356929395,1
0.304279965473344,0.00244950817339702,1
0.389622155990521,0.00300178146498427,1
0.385289646355206,0.00291092969498944,1
0.369305210588602,0.00359464948825268,1
0.467674300918004,0.00497321624883701,1
0.6356282722943,0.00592719774002634,1
0.518482505136337,0.00533822361199641,1
0.395232059101382,0.0041102210922723,1
0.39929768588795,0.00476514509926782,1
0.433861746708426,0.00564972200687983,1
0.415782572154066,0.00288722839632254,1
0.533754108252293,0.00425277740556777,1
0.416506685350288,0.0019651228997039,1
0.365563642570628,0.00248465070115025,1
0.44522932356648,0.00329371572167351,1
0.581851712979536,0.0044984611201104,1
0.787212603359009,0.00596353014231545,1
0.859042443096643,0.00649031674056605,1
0.73105366877436,0.00579400130598684,1
0.474828122769319,0.00367599406444541,1
0.364011533487862,0.00497260206992954,1
0.364214887016004,0.00482155056289265,1
0.299132877863251,0.00834079083793546,1
0.0855591595114691,0.00326472241659146,1
0.076669894885368,0.00510921709496475,1
0.0962973093603167,0.00705003333740506,1
0.0908092093727767,0.00416176415256248,1
0.0894461838113891,0.00394246383260926,1
0.0977173454504077,0.00430108634001581,1
0.119746239659306,0.00495606721636908,1
0.12834223958977,0.00512528582078706,1
0.126325336705531,0.00492427380287267,1
0.102563834584785,0.00423247291224097,1
0.0655763831486373,0.00247450638351029,1
0.0644440271960439,0.00306859913349526,1
0.0767847875458778,0.00353091708514615,1
0.075357392980071,0.00420097725089376,1
0.0438785258041815,0.0018734905368312,1
0.0476419316393587,0.00150153506091388,1
0.0495111503315913,0.000964051250472687,1
0.0670450161255921,0.00190791487627697,1
0.0764626857792052,0.00243084003921947,1
0.0771323871308053,0.00243489778315469,1
0.0831029819960959,0.00239088961591841,1
0.109120915959019,0.00411509097367609,1
0.140015053427975,0.00562512619322635,1
0.132526288856391,0.00646893566124737,1
0.140283259801992,0.00798034116758421,1
0.117210545999577,0.0120931054163222,1
0.0669786816754766,0.0137187560680974,1
0.0685517463738286,0.0163527083491155,1
0.058055657736476,0.0149833509622531,1
0.0230750821049547,0.00736336217133309,1
0.00657302159974713,0.0137454315325371,1
0.00421543219186345,0.010378268969041,1
0.00375269838780372,0.00791435172522037,1
0.00349800658131773,0.00638213161787939,1
0.00257195439395743,0.00496835544844769,1
0.00257167523101691,0.00644077421439531,1
0.00725179834533902,0.000122893704250388,1
0.0661524472704472,0.00742639979252898,1
0.0797444688407741,0.00589696989570306,1
0.0768329947746546,0.0056201784142675,1
0.0794371660437191,0.00566741027528456,1
0.072942386550402,0.00511026316591177,1
0.069703568845752,0.00490171618686416,1
0.0628688345086778,0.00359657332217742,1
0.0732907887636683,0.00427607274310113,1
0.0607749996207938,0.00200149396761301,1
0.0491313884821383,0.0021855170091988,1
0.0543759810796662,0.00232624703960255,1
0.0634926171771008,0.00185836506230854,1
0.064525304060524,0.00162937012583163,1
0.114554160007333,0.00268975375012536,1
0.117112574262398,0.00146006667130205,1
0.115825885943983,0.000876791899034668,1
0.125161431104236,0.00124534656873557,1
0.12473463872272,0.00128257145425701,1
0.132870823155094,0.00163048807055883,1
0.121118601140958,0.0010335698290896,1
0.121211711010531,0.00117554361306596,1
0.11845537448952,0.00137503633978118,1
0.124454894563197,0.00163596086927918,1
0.122697244736646,0.000805543417462324,1
0.138004890011814,0.00175995517908473,1
0.135635829795554,0.00279504352179787,1
0.128778929333994,0.00247548156689315,1
0.136183273679495,0.00157081622442394,1
0.155132527174132,0.0028828762465577,1
0.213630091316315,0.0048810759684755,1
0.226997692662212,0.00441970356681773,1
0.228452030716856,0.00483770036713673,1
0.209743125491791,0.00479504549523703,1
0.193752830175956,0.00888615813548753,1
0.154181102396287,0.007281902871709,1
0.140693742291442,0.00601834194731115,1
0.0714587251865345,0.00213226773334095,1
0.093044638676669,0.00307521279270792,1
0.0970612874736002,0.00237018263459594,1
0.0882494095228315,0.00225948595001359,1
0.0954284322092528,0.00322705488191622,1
0.109551680173091,0.00328799282185831,1
0.109228814480267,0.00335406982904975,1
0.126263775273761,0.00222824245602716,1
0.164056707478945,0.00170701095069004,1
0.184502285444738,0.00166165504366847,1
0.251516635762222,0.00230678627877203,1
0.240371753100109,0.00226802707507946,1
0.287650212748336,0.00313296480543703,1
0.343755124050537,0.00383660920051657,1
0.390879547500563,0.00457648468971449,1
0.322169060446252,0.0034435681239803,1
0.273061477174888,0.00245294931323188,1
0.306938703417027,0.00364541409858459,1
0.367271139472433,0.00630767564399578,1
0.36296298555497,0.00811720172880157,1
0.398235707493361,0.0133041894451864,1
0.400782336442984,0.0101567500482294,1
0.37822061791424,0.0101435197497734,1
0.326346482062753,0.0109517714273861,1
0.184669420830812,0.00679290286017392,1
0.111091333843755,0.00478170370656473,1
0.115740131092797,0.00700163659912815,1
0.11868376330042,0.00400211927187779,1
0.118690241997715,0.00281177182003398,1
0.100319897869972,0.0015816820183906,1
0.120640689476553,0.00195692002509679,1
0.127662230568722,0.00309745467185292,1
0.124790009858473,0.00296471485322312,1
0.129035041021189,0.00318135176608573,1
0.158573701921476,0.00382947994404093,1
0.191739124363019,0.00471691690987053,1
0.134787514569261,0.00254347002505243,1
0.132760216362397,0.00195184825914872,1
0.16156792649597,0.00239000044515821,1
0.126323306960568,0.00159665043107884,1
0.136397526453359,0.000869801537903241,1
0.15128572667649,0.00101148441173191,1
0.149847711341338,0.000985842901825062,1
0.155962221702432,0.00105447622059881,1
0.180554073711443,0.00153140167883448,1
0.221071400714081,0.00224295280899862,1
0.213199792726816,0.00225746823502327,1
0.221388139485045,0.00404042794771303,1
0.238782648608731,0.00673943795488201,1
0.128734484045077,0.00480881517454738,1
0.0786660470106059,0.0108936717630264,1
0.0700944569531019,0.0180702035379623,1
0.0255313606624459,0.0133166866225484,1
0.0105980204819109,0.00850036379306547,1
0.00523769668479797,0.00740636292571228,1
0.00498332288964263,0.00983463693534753,1
0.00537648966726307,0.0102297109619554,1
0.00543654445661784,0.00915460082015534,1
0.00547345530345637,0.009214353748957,1
0.00561517124884391,0.00948138851389891,1
0.00403195201745823,0.0133662884291658,1
0.00341236897714782,0.00680338185230635,1
0.00928529924179138,0.018628115784388,1
0.0471913985584179,0.00579577203116152,1
0.100390665958619,0.00610001576266775,1
0.0963711142715533,0.0059375273790753,1
0.158363522917579,0.00427941784424455,1
0.231230799690878,0.00384882577412458,1
0.215307799096283,0.00343350609995168,1
0.205121530968407,0.00327497241844745,1
0.182523226778793,0.00268802850440226,1
0.164472811331537,0.00199870318555353,1
0.16527196669307,0.00199943125164617,1
0.163304382361693,0.0026128780818718,1
0.152307158561193,0.00267192751127429,1
0.149473170189172,0.00244766586428721,1
0.110419956101221,0.00375615856458882,1
0.0417571925756817,0.00257241533345036,1
0.0507155966240258,0.00418065324721238,1
0.0417034548038213,0.00286485045590835,1
0.0392655565778703,0.00393719981478447,1
0.0366306427746872,0.0055787242053645,1
0.0525887506170204,0.00358092265784298,1
0.0786419764307999,0.00363595309323773,1
0.0802398886023082,0.00386635318547334,1
0.0806100201399247,0.00399209111748442,1
0.0713167008901746,0.00364519782949147,1
0.0741697690743251,0.00395064658479099,1
0.0782875570522594,0.00266205363377927,1
0.0939153089315644,0.00318961542137849,1
0.0779838867012378,0.00253151820648249,1
0.0601813011597985,0.00189259868335433,1
0.0761518327528735,0.00388093408793541,1
0.0731547622921115,0.0044581135991297,1
0.110080629982955,0.00504899067180813,1
0.141951157520388,0.00645433553744778,1
0.135818209885574,0.00630936250549886,1
0.102514159567574,0.00439423863557334,1
0.0720714711709976,0.00420347663512485,1
0.0825092391662396,0.00448288714884173,1
0.0762993005164016,0.00320575780629696,1
0.0823279823166908,0.00291666201040987,1
0.0868614772077068,0.00263816866680924,1
0.0844496500688272,0.00237784988110088,1
0.0812604341278026,0.0029762503710341,1
0.0758337440793479,0.00253131937805462,1
0.0669802119990575,0.0020313635196323,1
0.0612531201205594,0.00197061423486682,1
0.185519388262573,0.00196558597733793,1
0.368996045639897,0.00389278205905318,1
0.341789235968843,0.00344957463531586,1
0.342492523368138,0.00307464495735392,1
0.361179996985902,0.00313165980436821,1
0.374246377533124,0.00315882378999188,1
0.355534930253998,0.00229452472245696,1
0.414051676666701,0.00279939674573211,1
0.402104300163778,0.00228725098247703,1
0.339981381987511,0.00139152472962629,1
0.438604548276865,0.003731311252581,1
0.432106486819397,0.00430833204096829,1
0.403330659389708,0.00414970803919062,1
0.332877888449112,0.00395982253100125,1
0.33677071871874,0.00455848160332951,1
0.238818642505288,0.00299976167898732,1
0.325551719712332,0.00753522027690338,1
0.413832820987911,0.010417123079909,1
0.440942676967205,0.0113589078114798,1
0.506193322320384,0.0191480902177953,1
0.379774377683515,0.0180906578042603,1
0.261241307119766,0.0114421722471888,1
0.168256656248892,0.00791171854786607,1
0.123911098960163,0.00569294918513574,1
0.076267739467448,0.00342189547455912,1
0.0428639053696732,0.00205539260382694,1
0.0446683335379778,0.00219684325034282,1
0.0458691140942916,0.0022969565791788,1
0.0374020282426469,0.00205403058828486,1
0.0366601025325576,0.00267637918428923,1
0.0407376742913604,0.00148146062743042,1
0.0821374012340361,0.00293681926944605,1
0.0818854632860279,0.00298490489002279,1
0.0886802813604615,0.00267823442597201,1
0.112474283402334,0.00331772765776205,1
0.112287187950947,0.00316252866834252,1
0.15414995548208,0.00404612948521501,1
0.180855404691707,0.00397284937441813,1
0.182083325430053,0.00359976263477032,1
0.203682539817892,0.00360513592382208,1
0.206125981432616,0.0041540271513305,1
0.12246432738914,0.00316636802471364,1
0.0990627790274365,0.00238268059588036,1
0.103021140266878,0.00291745370512612,1
0.122229266305525,0.00259432722404913,1
0.170915138234734,0.00397047539136747,1
0.204948968142645,0.0053021130601844,1
0.233345346385754,0.0074894717588898,1
0.244802494697898,0.0100358328820788,1
0.166925563848199,0.00852916556952289,1
0.159280111395799,0.00841210526636481,1
0.14875612764027,0.00731858706135615,1
0.118522783725124,0.00905497515167543,1
0.0195585843765908,0.0004878670994227,1
0.00203826309562881,0.0113183698802282,1
0.00189534815210641,0.0132654743521087,1
0.00175598173002206,0.0150744641750793,1
0.00116932019529368,0.0171564872135645,1
0.00117679759315808,0.0279565010561012,1
0.000758368592447479,0.0148113606856911,1
0.00516193433657336,0.0121821858841845,1
0.00937126351342841,0.00965830705576257,1
0.00917633193140671,0.00875578951597735,1
0.0122322148878903,0.00754146549917893,1
0.127279789948663,0.00342394600088116,1
0.356434144280916,0.0133576553616871,1
0.855167271685817,0.0182010575176247,1
1,0.00676158724086225,1
0.924357940212456,0.00649742179298468,1
0.837824252795714,0.00584024639402065,1
0.770033409426729,0.00517790653508591,1
0.719615175843273,0.00485447024074612,1
0.616503412617114,0.00414777435309773,1
0.589119183689485,0.00380708035730342,1
0.635596823577575,0.00550709375000793,1
0.589983397863926,0.00438063996186001,1
0.273007365419914,0.00208067891872722,1
0.0859525326756291,0.0028779812840025,1
0.0914665444936362,0.00208395740387998,1
0.131337823645184,0.00319633921511241,1
0.110546633436239,0.00175159209560098,1
0.110660015189955,0.00197726180096938,1
0.112300508767969,0.00209055435234389,1
0.107598709470865,0.00209936552027621,1
0.108887801617155,0.00247601686066309,1
0.111696254077678,0.00215511224209104,1
0.105974641566928,0.00255243532316639,1
0.0943643759225913,0.00222275913462827,1
0.0931242532962594,0.00257101682561046,1
0.0677702631270673,0.00169839163853961,1
0.0592217932100571,0.0035621403451737,1
0.0543702481198733,0.00305039066527446,1
0.0541109617210353,0.00260491866649706,1
0.0585646800338599,0.0012339542601977,1
0.0831943158622146,0.00213929706784281,1
0.085457756386373,0.00183079108846431,1
0.0845147839556308,0.00149840667502113,1
0.0820518809617717,0.00136373338473148,1
0.074033026286905,0.00144946449141116,1
0.0699387780903322,0.00160732682034788,1
0.0717522261167504,0.00158349623055197,1
0.0709890581447863,0.00153400589144799,1
0.0718444073566174,0.00135463589578029,1
0.0830793655189147,0.00500438280055528,1
0.0327329258633567,0.00116545046267988,1
0.0283806349139285,0.00424135982389348,1
0.0273082597055235,0.00564947588502029,1
0.0227667946011148,0.00244861097030287,1
0.112559636429879,0.00568688595254897,1
0.150106811157315,0.00389989143615751,1
0.148956354551418,0.00405477576270285,1
0.156286887316185,0.00435442158879609,1
0.155641202648795,0.0050503798828999,1
0.136414717253118,0.00458137983381185,1
0.211637760368747,0.005828265423895,1
0.247526651969179,0.00579690364214256,1
0.208855538333341,0.00528919685019551,1
0.228838371025402,0.00493959159883492,1
0.288766736238376,0.00768635735289596,1
0.286685061918996,0.00639169331900215,1
0.249566723355339,0.0058916851889003,1
0.226583957632953,0.00408607181820755,1
0.198502256685995,0.00393784772397573,1
0.190642287032582,0.00355179440974493,1
0.185386260090915,0.00376580488785575,1
0.194298742485441,0.00397233268416892,1
0.197840553982723,0.00349299310670057,1
0.188774010104609,0.0041572437642688,1
0.165052341668387,0.00340779836675279,1
0.152268115019653,0.0053190433623477,1
0.151335728375052,0.00470562743684276,1
0.150274612103981,0.00407976934903337,1
0.157770340827668,0.00196187711744313,1
0.240936747358945,0.00348430669224138,1
0.273330981898838,0.00300758653751918,1
0.256180328407045,0.00150895982396278,1
0.29162220154065,0.00190333641648161,1
0.295602030858432,0.00186295584378858,1
0.299995784438148,0.0019525580821355,1
0.300651483339089,0.00177713756016537,1
0.326317901705264,0.00171037102995957,1
0.477134046874599,0.00350727623404824,1
0.527963487484344,0.00230949149920365,1
0.449202000930479,0.00226124962303854,1
0.371329175558232,0.00172730464414586,1
0.365712029185349,0.00222891215392598,1
0.337563693250143,0.00203677566149903,1
0.316283173597515,0.00185089465516237,1
0.335202983881157,0.00193144182166038,1
0.36775059309614,0.00247630122126566,1
0.382875368672431,0.00318428997667566,1
0.233101344858894,0.00168700344108598,1
0.15912905716025,0.00282431472912758,1
0.153270645615037,0.00269146929967598,1
0.122079045927498,0.00266089799079177,1
0.0993264817859857,0.00311288803826845,1
0.103833045391831,0.00340299694827148,1
0.10125510219215,0.00356340570201182,1
0.119053800100889,0.003818893830626,1
0.117777483912207,0.00362691553853821,1
0.125701970427417,0.00398008136813947,1
0.124458244146874,0.00446277713250008,1
0.116968592490007,0.00447571024889166,1
0.120861904531425,0.00522023226161823,1
0.0990895739276039,0.00346153344038411,1
0.0886530037223928,0.00221465059656051,1
0.0808493889322687,0.00227119184005993,1
0.0814385620172037,0.00245503304104948,1
0.123864679985191,0.00356267816389156,1
0.138774664386365,0.00204646651146803,1
0.144377572938551,0.00242570602243684,1
0.162564929576591,0.0024500395116197,1
0.20674726343877,0.00342553162825536,1
0.260069595192265,0.00449059853593104,1
0.285542671124828,0.00546333472018346,1
0.291767782052108,0.00662833217760882,1
0.310384819277255,0.00696342614330994,1
0.318298281339567,0.00830069812981441,1
0.161583606890068,0.00696653180902333,1
0.0561183877289657,0.0109790268833997,1
0.0237893822541482,0.00244966983678244,1
0.012611049707944,0.00863679405958953,1
0.0487149016677,0.0111509435808268,1
0.0733674601154321,0.00720976138694763,1
0.0700374710222879,0.0071340667124612,1
0.0657014063438241,0.00693473385057185,1
0.0797295176819365,0.00354276385229491,1
0.195643370553039,0.00761166246031393,1
0.223323978000351,0.00685690276819688,1
0.217928961948265,0.00697697375302913,1
0.199421281418846,0.00641274081276218,1
0.172548287868383,0.00491129813554844,1
0.164422699350656,0.00523637205352587,1
0.155211794572555,0.00618633134000862,1
0.11517077598851,0.00480821545857009,1
0.0726259828166941,0.00131337456819514,1
0.0917984200135379,0.00408662804691524,1
0.0753839908282931,0.00308341673335698,1
0.0712872985741258,0.00298651599531762,1
0.0869205253533839,0.00387733304222323,1
0.100451967270669,0.00450499969772651,1
0.102968467105225,0.00407747412752169,1
0.105411587193889,0.00395459233298035,1
0.107238347795293,0.00381138460849079,1
0.0691272565693428,0.00213497782933588,1
0.0522656958729459,0.00227547828647646,1
0.053057718884406,0.00206068090113338,1
0.0457209004118361,0.00228777399641011,1
0.0248970465665919,0.000967494136348611,1
0.0261291114629584,0.00108009805970266,1
0.0430439758546949,0.002451614362071,1
0.0603104621915431,0.00508326709199593,1
0.065395810842705,0.0067802357955591,1
0.0771962132625435,0.00932769276670768,1
0.0735122828547539,0.0100947675803739,1
0.0753249363609666,0.012576374071847,1
0.0576498364922352,0.0185582795224216,1
0.0386002540385172,0.0150680469565857,1
0.0168049139772963,0.00793268545903036,1
0.00317533345950585,0.00169644049422698,1
0.00336982452753223,0.00604905795567831,1
0.00345545685192014,0.00476113117699473,1
0.00339336497113771,0.00356280555158388,1
0.00321515491063907,0.00242328158579205,1
0.00308014809366113,0.00279638585831144,1
0.00310729730912317,0.0033423693762284,1
0.00287441687788013,0.00373286415649124,1
0.0027142238766992,0.00403015008916346,1
0.00274396644958993,0.00429028370142039,1
0.00293849868763453,0.00514615532352493,1
0.00443904744619947,0.00683281705221265,1
0.00924457913199188,0.00890808069444603,1
0.0299512672278675,0.0147507462447787,1
0.0352793366643623,0.0141935502295102,1
0.0318248985345494,0.0135927706678014,1
0.0342970989892242,0.0114136714366797,1
0.0307745764054669,0.00512672557515381,1
0.0305726661188395,0.00511323699824329,1
0.0289816171135973,0.00406328271959071,1
0.0266705815894079,0.00365958701871036,1
0.0262395062860264,0.00243600130016799,1
0.0338402179135706,0.00409056787421581,1
0.0282740266636461,0.001269986911867,1
0.0380523684560521,0.00245262025850278,1
0.0388513303253764,0.00190136241469815,1
0.0338388560900563,0.00154521116094265,1
0.0323881850311666,0.00241432228630798,1
0.0306406041801331,0.00230424623480192,1
0.0450756923547955,0.000468035892647746,1
0.0955847776982425,0.00256933126325634,1
0.0994625103126703,0.00196784196476226,1
0.0998624097510543,0.00199757976724483,1
0.103947097507338,0.00290770984447385,1
0.0991496085248046,0.00251305091918522,1
0.0988932668499474,0.00265015549322645,1
0.0994727424421273,0.00263239626483345,1
0.0983817822925291,0.00266336863491591,1
0.0967048978785411,0.00239785084050169,1
0.0894845648634288,0.00536502753525609,1
0.0354184299720392,0.00225870873632304,1
0.0325933273345601,0.00596492111200317,1
0.0296986540745642,0.00506571855314437,1
0.0258802249548044,0.00268148982935668,1
0.0242903965399098,0.00257094309912287,1
0.0249089947866829,0.00298347577287174,1
0.0310206464346419,0.00369438669374868,1
0.0341375846773179,0.00388933727906297,1
0.0339316172119556,0.00538852145246858,1
0.025354825058517,0.00440902756405946,1
0.0264267740975411,0.00514279098474883,1
0.0266685388958818,0.00662650423873112,1
0.013174226047106,0.00404585640798717,1
0.0102229090725681,0.00752598420985794,1
0.0100567432402172,0.0106863608181577,1
0.00414710957083967,0.00728226607862925,1
0.00349177279691552,0.010373943038509,1
0.00150229215458282,0.00779138498427169,1
0.000815505984916728,0.0200408738149746,1
0.000819281314648621,0.0193455248077039,1
0.000668741183254548,0.0299926506225943,1
0.000240665954486342,0.0321962942292211,1
0.000239347402336182,0.039520411690554,1
0.00024594716170308,0.0368419767089059,1
0.000282166946382347,0.0409277903700468,1
0.000323184499835227,0.0433511460554788,1
0.000361369218082869,0.0458063806159629,1
0.000368073088049141,0.0760084333915523,1
0.000172701761808145,0.0658599532783963,1
0.000113341411339845,0.0409769286578673,1
0.000199485792022451,0.0439918624517828,1
0.00019937120106373,0.0419368734906052,1
0.000158895503397321,0.0395120087019188,1
0.000200994802750086,0.0359810570837271,1
0.000293790293597206,0.0408526012409397,1
0.000371456748827742,0.0406674078969335,1
0.000337893859734122,0.0292051599657617,1
0.000329432927220487,0.0282199373340377,1
0.000336956138266068,0.0285388839934313,1
0.000356651482999441,0.0392941054931089,1
0.00035033426991618,0.0482815834674589,1
0.000377719014290436,0.0561025169338691,1
0.000401642214276029,0.0559364854015377,1
0.000387734358475981,0.0986682418860235,1
0.000271632398008539,0.0858549368979565,1
5.49235773891365e-05,0.0583472820616707,1
6.50087813809248e-06,0.133126912818281,1
5.69174318367581e-06,0.119084669927527,1
5.98904650505719e-06,0.130053305833796,1
4.34334271440265e-06,0.116594493378476,1
4.29097259952569e-06,0.123443033380318,1
4.28966097051424e-06,0.123423629681971,1
4.31025147735471e-06,0.122814381873765,1
4.50946785280183e-06,0.12500759842833,0
4.4379041215725e-06,0.124167700979301,0
4.39810946882025e-06,0.129927041924813,0
2.12506645564861e-06,0.108999656435252,0
6.59075873678468e-07,0.0909746646242799,0
7.43161766961867e-07,0.0980494056262306,0
8.18764096726627e-07,0.0987429594834922,0
8.07668363836178e-07,0.0994525889813659,0
7.47984864264509e-07,0.0982809137585353,0
3.75755807197077e-07,0.073624004561216,0
3.40190123687166e-07,0.0728421094656559,0
4.60208464603025e-07,0.0916862186899601,0
3.63244547430191e-07,0.0845088520899732,0
3.55718707908398e-07,0.0865065486226953,0
3.38255666577374e-07,0.0892750241224817,0
3.43667673751592e-07,0.0899521699030213,0
3.61355935835717e-07,0.0971773995056139,0
3.9099040239223e-07,0.0996933538939711,0
3.85003183091868e-07,0.0970149827526578,0
1.81142806034053e-07,0.0683375459804495,0
1.34113134600077e-07,0.0630095340959311,0
1.74118005812808e-07,0.0700746859754621,0
1.75143007171561e-07,0.0693122438343627,0
1.48923379232706e-07,0.0674033819884648,0
1.34647905763521e-07,0.0602404604363744,0
1.43453226526864e-07,0.0582756303369427,0
1.53423042015691e-07,0.0606763686582928,0
2.07476675033438e-07,0.0650798822332289,0
2.56666303876133e-07,0.0713839123908337,0
2.53188008356174e-07,0.0713082652474188,0
2.70123360351324e-07,0.0758475980248682,0
2.7567141316043e-07,0.0782826640091349,0
3.11444333308693e-07,0.0829168073792165,0
3.54508926759244e-07,0.0829402122148641,0
3.64563258269198e-07,0.0827835168938543,0
3.46801661996952e-07,0.0841475003140481,0
3.24742887301043e-07,0.0810052422268839,0
1.37822698381153e-06,0.0875269124954696,0
8.35347630982676e-06,0.140778856200001,0
8.66468461327712e-06,0.123943074431794,0
8.3246883080287e-06,0.122133307194827,0
7.67442381193978e-06,0.118529246656103,0
7.16575365582266e-06,0.115106438491219,0
7.02528700370938e-06,0.113715367808368,0
7.12222762539678e-06,0.114524481298119,0
7.03423619739072e-06,0.112952237742968,0
6.71167917207818e-06,0.110679251476557,0
6.34047055045436e-06,0.14198840600439,0
8.92811219884335e-07,0.0841802935618997,0
3.62702880803061e-07,0.0678160164939453,0
1.07619262888591e-06,0.104956605479396,0
3.91147003963459e-06,0.183636439031458,0
6.66368562663921e-06,0.180164784218071,0
6.58117963317742e-06,0.177558921978554,0
6.19599008620214e-06,0.172393743144086,0
7.32942466142317e-06,0.102089209875971,0
4.18606362659351e-05,0.1416709690947,0
5.67178478585509e-05,0.0986702580742701,0
5.27465863214742e-05,0.0906849038003613,0
5.02827917668038e-05,0.0872232217535447,0
5.12056857515662e-05,0.0863192243281944,0
5.38027396147048e-05,0.0880388924416253,0
5.41875481407205e-05,0.0900161145860581,0
5.25167859554846e-05,0.0905064229236684,0
5.28971839938355e-05,0.0952507963254628,0
5.494967438964e-05,0.11674794498216,0
2.60669143841434e-05,0.1283498971679,0
3.35300084477602e-06,0.101419374729335,0
3.96440791208236e-06,0.143882111569706,0
5.3002206192145e-06,0.166019022160173,0
5.67377397803744e-06,0.166517016502849,0
5.76591600927287e-06,0.168698143017074,0
4.76297901613183e-06,0.178937538815144,0
2.38328889795121e-06,0.130215993919838,0
2.01630113874079e-06,0.126838267982836,0
2.03657929971266e-06,0.12585727859606,0
1.7093788318811e-06,0.118042125045154,0
1.50982103779956e-06,0.119855746590016,0
1.40398573386672e-06,0.112083534625673,0
1.27997547856822e-06,0.109868064352366,0
1.27959305987947e-06,0.109851429942516,0
8.02550438869981e-07,0.0883880064406469,0
6.5484774307361e-07,0.0892632832057764,0
7.3441803946199e-07,0.0929717072724485,0
7.58156325475186e-07,0.0956232608880534,0
6.6040138679922e-07,0.0853746137981555,0
9.1774419157213e-07,0.101355959861876,0
9.50193405041721e-07,0.0892731188444748,0
1.53112839331756e-06,0.113293523760771,0
1.42428746986984e-06,0.108038030311614,0
1.41202034679022e-06,0.113129814087905,0
1.39417041403724e-06,0.114612915634255,0
1.33827904676519e-06,0.110062287712559,0
1.31554787117793e-06,0.110338078132586,0
1.34105670726547e-06,0.107625540086611,0
1.37410946017148e-06,0.111120688551675,0
7.58062025350181e-07,0.0809062220499646,0
6.19385584700934e-07,0.0799818519102651,0
5.44100632629618e-07,0.0771508424255212,0
5.46629590527488e-07,0.0768796026692044,0
5.99914286162286e-07,0.0816317028467662,0
6.01596499755885e-07,0.0821474637028172,0
5.74043997322882e-07,0.0837871299089382,0
5.19367163479014e-07,0.0791968328002664,0
5.1488511208301e-07,0.0799024384754205,0
5.43815029978293e-07,0.0850440989691757,0
5.56961883769547e-07,0.0904800393252361,0
5.59406698374058e-07,0.0997262401321108,0
4.21315067590951e-07,0.0873532546474808,0
7.3848776076595e-07,0.113650318632289,0
9.14387032576386e-07,0.105760973156909,0
1.29511167363293e-06,0.120574404431911,0
1.24508443231625e-06,0.110308124268103,0
1.39291916692402e-06,0.114153909392253,0
1.40851437623357e-06,0.120476738932055,0
1.35907921297449e-06,0.120805867141259,0
1.46725925410645e-06,0.120414125625472,0
1.4894894835751e-06,0.115468164004226,0
1.3610139496301e-06,0.113413901946287,0
7.76671577291942e-07,0.0881163435904587,0
7.96117530342446e-07,0.0973840369201612,0
8.22423817487086e-07,0.0948160576056262,0
8.44130457625291e-07,0.0996470717287901,0
7.8772742831134e-07,0.097725913286557,0
8.01989390398976e-07,0.0959793268727573,0
8.9633573364738e-07,0.100593808146419,0
7.61552154976736e-07,0.0945500192169829,0
6.64805538091958e-07,0.0912772703205726,0
6.92479829322767e-07,0.089913721371222,0
7.24368087503296e-07,0.0876914215541112,0
5.82405865225651e-07,0.0794717402775649,0
4.37461634449568e-07,0.0704194069676473,0
6.14356089397414e-07,0.0846406612725299,0
6.33988406331328e-07,0.086070104805597,0
6.78737263378193e-07,0.0883161357553426,0
7.01865021309339e-07,0.084810662168965,0
5.64613705276526e-07,0.0774587813556564,0
5.7328409858828e-07,0.0796691752400968,0
4.61308477424851e-07,0.0728570462580195,0
5.16031902239572e-07,0.0771301532651576,0
1.02438831475897e-06,0.110354555311362,0
1.53030242858629e-06,0.137590350819671,0
1.34988290078375e-06,0.127593640693606,0
1.39439097569325e-06,0.128748861549691,0
1.31612187193884e-06,0.121061836979867,0
1.21806958968689e-06,0.113975271804113,0
1.26747940745783e-06,0.10984651608152,0
1.32206762527514e-06,0.104402459942052,0
1.35365406714649e-06,0.103857392133812,0
1.55573858275929e-06,0.109685702021305,0
1.70395377923504e-06,0.11449592687633,0
1.32108781715811e-06,0.100326562789791,0
1.68730729125917e-06,0.113639405087718,0
1.58252233417323e-06,0.106894630763111,0
1.60289116117437e-06,0.110590343877407,0
1.75899551356262e-06,0.118787804355155,0
1.54413659237956e-06,0.116783673180099,0
1.20802783773907e-06,0.107672975395834,0
1.3233279110367e-06,0.117242761716899,0
1.4424751871615e-06,0.129132614534498,0
1.2327356818557e-06,0.119820561022638,0
1.18919958778012e-06,0.124489081825489,0
6.90219235417008e-07,0.0959991777813798,0
3.72048377282466e-07,0.0761823794597655,0
3.57451146568575e-07,0.0800021350676755,0
3.30775765752842e-07,0.0805279336976771,0
2.56420396731974e-07,0.0749541119285041,0
3.13160651492955e-07,0.081748286862006,0
4.49343916109947e-07,0.0915249756184332,0
4.42683550462709e-07,0.0887257070386313,0
4.68726039530383e-07,0.095948278831581,0
4.15797951186489e-07,0.0852516867591977,0
7.13981003279513e-07,0.108102905246845,0
8.1919273365847e-07,0.114495543680785,0
7.55730613168725e-07,0.10450376839981,0
6.59201110208119e-07,0.096921213959164,0
6.49599363389025e-07,0.0944163130875309,0
6.36995573954028e-07,0.0952516333053012,0
7.71092215350421e-07,0.105515178505691,0
8.03455794615587e-07,0.109957982222412,0
6.54403358393619e-07,0.0965238142948555,0
6.33524360261637e-07,0.0926045820293789,0
5.65390842670344e-07,0.0869801721798469,0
6.64915026873461e-07,0.0865394305831186,0
7.10659160239676e-07,0.0887748355171132,0
7.13971685085343e-07,0.0877561669690553,0
7.04251969928051e-07,0.0831292639754572,0
1.05614360230869e-06,0.101078914780382,0
9.01055305812789e-07,0.0892088264143839,0
9.91592744012064e-07,0.094430280287029,0
1.01358107316004e-06,0.0923349261091145,0
1.49861432521654e-06,0.104887599654299,0
1.77915412210329e-06,0.109594078317453,0
1.57846714925217e-06,0.107325457681572,0
1.65180730101817e-06,0.110696216048508,0
1.87814316241519e-06,0.112052008136304,0
1.85581052599261e-06,0.11250072658059,0
1.35136076637919e-06,0.0972309791761309,0
1.38785333066324e-06,0.0996536715887684,0
1.43186176400132e-06,0.093838863199,0
1.90389427155115e-06,0.109380599458345,0
1.6004386124687e-06,0.107584385504875,0
1.33959999397079e-06,0.105873412855682,0
1.38628116494279e-06,0.102870659119199,0
1.70326749423438e-06,0.109041026195775,0
1.20731220042677e-06,0.0917995984925882,0
1.56919731650943e-06,0.103685352793657,0
1.62593393717469e-06,0.100047615154107,0
1.70244749314738e-06,0.104513414796566,0
1.68813633099452e-06,0.108221492801702,0
1.74288771039175e-06,0.112559601392319,0
2.08273278134879e-06,0.116053289405956,0
1.97642029269247e-06,0.108526219544739,0
1.96610551765545e-06,0.11376570195476,0
1.86938154398251e-06,0.116132259528881,0
2.14969630648003e-06,0.127196245612992,0
1.7467424609562e-06,0.116907282321477,0
1.66321612523274e-06,0.122541872720585,0
1.41936448152569e-06,0.108445359058726,0
1.45160962654295e-06,0.113950712678515,0
1.15876739062068e-06,0.104819354073661,0
5.63005291780758e-07,0.0724649923035818,0
7.10521250965954e-07,0.0851878429449582,0
7.49911960000907e-07,0.0848370191181477,0
9.93144782433101e-07,0.0941058917909638,0
9.86354707523009e-07,0.0906776926734029,0
9.35514640128838e-07,0.0849278705788432,0
1.51675610381095e-06,0.0962153842215898,0
2.53633129173504e-06,0.125932904520623,0
2.52449038285678e-06,0.121943752935109,0
2.52873249075289e-06,0.120923229864433,0
2.43538235564325e-06,0.121715639652428,0
2.41389683625271e-06,0.120195498256618,0
2.36174299666244e-06,0.123257568724008,0
1.8818152763739e-06,0.111495979893004,0
2.11496926044547e-06,0.126344531544708,0
2.41326142859223e-06,0.143157052434297,0
1.98030858875593e-06,0.156925905233194,0
6.94299486280382e-07,0.0949937632380117,0
3.52900979173184e-07,0.0754054905252686,0
3.79968376417671e-07,0.0788292112744139,0
3.80595024975636e-07,0.0867657389134947,0
3.27055942639983e-07,0.0850473236020464,0
3.5625552907456e-07,0.0798733523014915,0
4.40324183698742e-07,0.0912421784007171,0
7.05845847040912e-07,0.11286935779055,0
1.0707388762018e-06,0.122974602734106,0
1.07262003324094e-06,0.11961010958344,0
1.10138669637436e-06,0.118383316050115,0
1.09985711480127e-06,0.119906881771498,0
9.89704039235648e-07,0.111286501919694,0
1.28081607286434e-06,0.114542298733983,0
9.70000158570506e-07,0.0889756213696489,0
1.20308844937317e-06,0.102129450592948,0
1.30165118230178e-06,0.105702839095277,0
1.5418451552511e-06,0.115128178770362,0
1.55478393376652e-06,0.121717369282939,0
1.53897207644251e-06,0.120256443059219,0
1.82280501633104e-06,0.128273037031671,0
1.85689842516202e-06,0.121579062790518,0
2.10621006474327e-06,0.125132385978759,0
1.5305640834786e-06,0.109826717418954,0
1.45354967456924e-06,0.111744440660258,0
2.15548989370553e-06,0.115247070807045,0
2.75411239860997e-06,0.120702948436534,0
2.37895137174679e-06,0.114830103824801,0
1.71210412413014e-06,0.0968322535913248,0
1.64278132541687e-06,0.0933891214557549,0
2.1034098542131e-06,0.109418377750742,0
2.38225867840372e-06,0.118965283162897,0
2.26051786929545e-06,0.120266728976338,0
2.25278302267841e-06,0.121656450105216,0
2.45366688897235e-06,0.123925041149912,0
2.38136972267986e-06,0.13074684176135,0
2.25916039476869e-06,0.127472828325808,0
2.6719009532659e-06,0.13501348076625,0
2.63843372708319e-06,0.133632002239738,0
2.57253573745534e-06,0.134381788949135,0
2.66429805227832e-06,0.136823364910244,0
2.89935509114533e-06,0.143155162679761,0
2.92735440098881e-06,0.139789899610643,0
3.04623172902849e-06,0.138125401818997,0
2.25580435395625e-06,0.12771672328725,0
8.30436439472344e-07,0.0866834468336291,0
8.01044991419798e-07,0.0911475886221773,0
7.11462854486881e-07,0.0845317335296663,0
1.46463375971697e-06,0.107203922132529,0
1.95232716984526e-06,0.112116595591662,0
1.82497727375607e-06,0.107281991276821,0
1.54321642070522e-06,0.099117858578305,0
1.77775872252626e-06,0.106041965681883,0
2.08297505439722e-06,0.118955926113198,0
1.78355827339602e-06,0.109535943228383,0
1.78915068080938e-06,0.107818833817563,0
2.48002144436279e-06,0.125958999750019,0
2.33101112637848e-06,0.121041109035823,0
1.90531436434274e-06,0.122191494323159,0
1.56756709843931e-06,0.125307475375871,0
1.551776486598e-06,0.127737859095384,0
1.56117025132321e-06,0.128901349342096,0
1.2590930327044e-06,0.112780615438552,0
1.56656958575335e-06,0.124830278746631,0
1.7867465867134e-06,0.120979717125234,0
2.24052894507063e-06,0.134434037206262,0
1.93755671390174e-06,0.121509753306097,0
1.90274179729615e-06,0.125372596592678,0
1.94023448336052e-06,0.129226687238609,0
1.97223688941963e-06,0.12504606610347,0
2.15124079716379e-06,0.130332184548409,0
2.35177886527206e-06,0.131443094043443,0
2.6418198656628e-06,0.139556358032,0
1.89711174437834e-06,0.116304337194813,0
1.62437966238705e-06,0.116708006575874,0
1.25491857489796e-06,0.102412560848266,0
1.11665735298095e-06,0.0989222191804417,0
1.15281800318865e-06,0.0992142525349794,0
1.08530172277921e-06,0.0952273362717253,0
1.05361045122344e-06,0.0968628605522034,0
9.61342158456999e-07,0.0886043383352859,0
1.94436132519474e-06,0.126017045314746,0
2.6417901406234e-06,0.126779658881231,0
2.42537769010823e-06,0.122782125077531,0
2.17797655987775e-06,0.118256135032611,0
2.12002857397034e-06,0.120254188806431,0
2.01387943325783e-06,0.118430788164759,0
1.99815032149804e-06,0.121182187056391,0
1.9367028877699e-06,0.120974252017532,0
1.89144889141705e-06,0.119514016210557,0
1.83714953761903e-06,0.121269113451164,0
1.15083201646509e-06,0.10289502234227,0
4.9432870983321e-07,0.0857160341091156,0
1.09167266531551e-06,0.123852373894591,0
1.13072642844926e-06,0.116846642265426,0
1.1477607396665e-06,0.11294939939497,0
1.24610496094181e-06,0.118852359768578,0
1.2081807493054e-06,0.111034354180222,0
1.12848027774446e-06,0.105309738345932,0
1.10165515354841e-06,0.101109744390289,0
9.51657945619496e-07,0.0899815925330377,0
9.2845144894761e-07,0.0890405095109642,0
8.30794258128491e-07,0.0888668805072767,0
5.20981726982934e-07,0.0662995368174134,0
2.2590866878528e-06,0.130712114614275,0
2.77281727567809e-06,0.130443437652873,0
2.62525062551661e-06,0.125602099814806,0
2.82570333896628e-06,0.132466932131253,0
2.88897564784077e-06,0.133973726372396,0
3.00285898289672e-06,0.139615742334727,0
2.96189983541899e-06,0.143895005885942,0
3.04902495091303e-06,0.148364793157666,0
3.0856268176147e-06,0.151282855639398,0
3.0934773030214e-06,0.172960147707121,0
1.19673567731551e-06,0.125210902878726,0
1.78417420603069e-07,0.0536174443817171,0
5.12490988454787e-07,0.089581205900467,0
1.02522769768985e-06,0.121956162759007,0
1.14937539635236e-06,0.121193015152174,0
1.25521899347802e-06,0.116456311796906,0
1.41061329947048e-06,0.11860477317198,0
1.49831353390872e-06,0.120919345982393,0
1.55803411989319e-06,0.112936919798551,0
2.41358150856199e-06,0.124014692743546,0
2.22953869413819e-06,0.106326556288832,0
1.99544059063327e-06,0.0989283862513564,0
2.0553626359757e-06,0.0991982566665606,0
1.91571039403292e-06,0.0928686395838291,0
2.25969833411815e-06,0.103683708371413,0
2.33038718009682e-06,0.108236563458502,0
1.95234515396001e-06,0.102081154726151,0
1.56525804992386e-06,0.090766104434316,0
1.41897460828159e-06,0.0903340875675406,0
1.16199754262987e-06,0.0887500899879445,0
9.9856834416809e-07,0.0935644647853585,0
1.18667202761138e-06,0.106504973526366,0
1.1305220804511e-06,0.0939190731520776,0
1.10208229956918e-06,0.0915932028283232,0
1.2207811841905e-06,0.0956110795325778,0
1.47799828652405e-06,0.105278716908835,0
1.67014289805131e-06,0.110566872186418,0
1.81639782601942e-06,0.107429228947742,0
1.9694912835073e-06,0.102496070623482,0
2.0273945420827e-06,0.0985037685535395,0
2.14110903146028e-06,0.0984740922611243,0
2.07415025860806e-06,0.0979802449353473,0
1.86255643266233e-06,0.103865944894229,0
1.68598569177997e-06,0.10004072689641,0
1.73732363028867e-06,0.0984200253589979,0
2.17981783504584e-06,0.10571296856817,0
2.15750197137277e-06,0.103770407221234,0
2.05274823023729e-06,0.1087665362369,0
1.21955258028912e-06,0.0942361770622488,0
1.12911764222572e-06,0.101231145263622,0
1.07531438908534e-06,0.102039727090148,0
1.30036666923538e-06,0.0985166958954159,0
1.80425733719857e-06,0.112814800925768,0
1.35231457673448e-06,0.0983256579328498,0
1.28782512533744e-06,0.0955249191809062,0
1.08346221806801e-06,0.0883821864320563,0
1.07747173739969e-06,0.0901741628651514,0
1.05222996075708e-06,0.0882488269697591,0
1.02375505028315e-06,0.0840851666088649,0
1.02969549224877e-06,0.0817625470741993,0
1.01097197879231e-06,0.0815139220306133,0
8.33522159471901e-07,0.0834940725919804,0
1.07343071613377e-06,0.0941224911437765,0
1.29643886402864e-06,0.101402867590499,0
1.19910100772374e-06,0.103551483338144,0
9.95065355433579e-07,0.0980588672027406,0
1.13171331839385e-06,0.10216692656796,0
1.20033482981385e-06,0.101578587982124,0
1.43376220970239e-06,0.114215539280443,0
1.33485889677685e-06,0.112333355482671,0
1.47014090565367e-06,0.120063489206616,0
2.02125804531173e-06,0.138225900582498,0
1.6157119713516e-06,0.115128501963181,0
1.42798427704309e-06,0.108119387915559,0
1.45138561715508e-06,0.107546012237097,0
1.59111193874152e-06,0.106891289429756,0
1.84787627002033e-06,0.113831911769807,0
1.9076766197469e-06,0.105680250232092,0
2.06353422635351e-06,0.103434866049673,0
2.28189613627109e-06,0.109645495008137,0
2.43503804836865e-06,0.107565566604199,0
2.78137147110854e-06,0.118674548522601,0
3.14293371176319e-06,0.135265144710118,0
3.14002494427093e-06,0.137701204224948,0
3.09447910207666e-06,0.138023450017172,0
2.9584864877124e-06,0.142104492267925,0
2.26193348935383e-06,0.126599677116393,0
2.25999754133297e-06,0.135380030125047,0
4.67303561281093e-06,0.142494552269196,0
7.14500315558829e-06,0.1455755844838,0
7.07471741468944e-06,0.148713531514185,0
6.63279134023085e-06,0.143740787858098,0
6.49938089065317e-06,0.134531952594043,0
6.8381172828678e-06,0.124241870101563,0
7.10964946099575e-06,0.123160260027619,0
7.42006171111813e-06,0.126176953565067,0
6.8521206650672e-06,0.121078569337312,0
6.39377108701924e-06,0.118595278107827,0
5.62839660879378e-06,0.146981859582828,0
3.44430796581378e-06,0.132368363004983,0
3.6052890883031e-06,0.136659258551643,0
3.59942281916306e-06,0.137543387612068,0
2.56497980016637e-06,0.134358653942549,0
9.16091796199878e-07,0.0909218115211082,0
1.09543059984252e-06,0.108750151312453,0
1.09143784682241e-06,0.105465058736085,0
1.27649466713584e-06,0.113958186952031,0
1.435893560255e-06,0.120523022965191,0
1.25146227031624e-06,0.113017972354196,0
1.36851994139831e-06,0.123335903494791,0
1.37820340878028e-06,0.122688967885285,0
1.32947978282805e-06,0.121545159090273,0
1.32207107300698e-06,0.116322872991511,0
1.11769279071717e-06,0.106919105817883,0
1.15941220965727e-06,0.0980049091090034,0
1.32435104875662e-06,0.0996992957046523,0
1.27926030716564e-06,0.100902395659976,0
1.15677562661673e-06,0.0992402496962076,0
1.33252040276783e-06,0.107134953088453,0
1.38254270544159e-06,0.0970190517336494,0
1.72644342722939e-06,0.102663171277233,0
1.70872469465032e-06,0.101118156288139,0
1.83527434422416e-06,0.107171765926619,0
1.68962798751733e-06,0.107105611051663,0
1.47076149738543e-06,0.10977189657433,0
1.32650094251563e-06,0.112717265953539,0
1.18984990455128e-06,0.10729871441228,0
1.1383292362549e-06,0.104808529125212,0
9.89519632173014e-07,0.0976408113101384,0
1.00981121134449e-06,0.111521785989203,0
8.61598996690876e-07,0.109017739578621,0
1.04232397489832e-06,0.121069735676051,0
8.15307046689378e-07,0.110958236590482,0
6.02318380258272e-07,0.0964538430833057,0
4.79700635896615e-07,0.0816609019028402,0
4.94262084744891e-07,0.0830214790052443,0
5.6552120420679e-07,0.0857940959032111,0
5.25689278677863e-07,0.081311453448243,0
5.78300268874136e-07,0.0808652671906998,0
8.38199147489952e-07,0.0963287665271551,0
8.7300446635555e-07,0.0935403620502453,0
2.16049562761392e-06,0.132444185468922,0
2.38321957058658e-06,0.12579708472173,0
2.39416686464389e-06,0.124823159663787,0
2.31199390344176e-06,0.126789384512815,0
2.08525577560239e-06,0.117177923699135,0
1.68952502147175e-06,0.105296910607066,0
1.38511825431032e-06,0.0966168069784387,0
1.17924775640604e-06,0.0924980216836486,0
1.16636358250845e-06,0.0955888396840688,0
1.09816493073991e-06,0.101036651543903,0
4.72451080831976e-07,0.0783376570896337,0
4.91739742764882e-07,0.0825240204745915,0
5.93505698121534e-07,0.0802755856831853,0
6.02463744087331e-07,0.0795129587946084,0
8.97875565234053e-07,0.100444567556252,0
1.04152820111617e-06,0.107802958902652,0
1.02370510476239e-06,0.101934630096606,0
1.06356899169732e-06,0.0976545458989635,0
1.55535802770937e-06,0.111799479313699,0
1.76462267784024e-06,0.113389050803777,0
1.72365989626678e-06,0.112466390404164,0
1.87943140275926e-06,0.126472702332618,0
1.81580938205755e-06,0.127039677926476,0
1.87946308461944e-06,0.126582770616751,0
1.89500471431251e-06,0.130261650157239,0
1.76222529284406e-06,0.123298593870651,0
1.85840797261764e-06,0.129933069158256,0
1.79949834907183e-06,0.134791691316908,0
1.27618269399501e-06,0.120164604073349,0
1.03284960779354e-06,0.115456749532351,0
1.5456998126336e-06,0.135387875165307,0
1.69867474269163e-06,0.15007361556686,0
1.19547110518463e-06,0.124753144362336,0
1.19664147037244e-06,0.127058508267138,0
1.32687357710051e-06,0.11488361175652,0
1.50196095465287e-06,0.11107681561541,0
1.25487198392711e-06,0.0887811429064531,0
1.65786850678024e-06,0.0992462382143379,0
1.65819277993737e-06,0.0975365466117981,0
1.71581500177659e-06,0.0984703777583197,0
1.78520722103643e-06,0.103272387591283,0
1.44927737572401e-06,0.0900207511870367,0
1.20989818567297e-06,0.083750781034955,0
1.09174059495101e-06,0.0807984707931256,0
9.79855080725211e-07,0.0812136705924349,0
9.10023788156057e-07,0.0881646939787438,0
7.09048324013426e-07,0.0894585480545532,0
7.65592523969059e-07,0.0933995726231704,0
7.47071681235801e-07,0.0920411987031653,0
7.54783418731295e-07,0.0920507599780932,0
6.15006499350514e-07,0.0830333526141821,0
6.62585478330839e-07,0.0883367226669945,0
1.09885634074736e-06,0.106565000501824,0
1.01985072692571e-06,0.098122829017542,0
1.05176917605535e-06,0.10159266567334,0
1.04678813536152e-06,0.0979296766692277,0
1.11872524663126e-06,0.102955617019377,0
7.3131135352555e-07,0.0896366734971806,0
6.8582058185883e-07,0.091547908149166,0
6.60212693367268e-07,0.0910528241524334,0
6.39170720019244e-07,0.0895382966502362,0
6.08952934507658e-07,0.092039456935531,0
3.42412326632944e-07,0.0697735775389596,0
1.00692406206271e-06,0.118494501761345,0
1.48872399392399e-06,0.135942316259148,0
1.45881557245886e-06,0.143365731752753,0
1.46775544794603e-06,0.142586336850484,0
1.4567066787542e-06,0.13037264945493,0
1.50273483067873e-06,0.119409315168846,0
1.69684315844548e-06,0.126514324479853,0
1.8671052023286e-06,0.134303843226184,0
1.95478940947287e-06,0.131316019599839,0
1.96486945919874e-06,0.132416617353036,0
1.66720654870431e-06,0.126173850161688,0
1.1017400422973e-06,0.100630899812246,0
1.11448854328777e-06,0.0983929095209129,0
1.11933176788982e-06,0.100998213209309,0
9.69414230521066e-07,0.0967495542294338,0
1.17941548390111e-06,0.103838706415935,0
1.41428466797365e-06,0.107493567451949,0
1.11573596994137e-06,0.0930524301801926,0
8.35262052687415e-07,0.0822643905599398,0
9.599604566254e-07,0.0867778356075288,0
1.09120675560699e-06,0.0841950078484478,0
1.39234320934234e-06,0.0789664207162953,0
2.26225850796649e-06,0.100407359774672,0
2.84709604914288e-06,0.112442936746782,0
2.88658730149293e-06,0.111401146461314,0
2.59961487562448e-06,0.111732777956549,0
2.06610651385427e-06,0.0987027235681981,0
2.15420072154205e-06,0.099792043515682,0
2.0402499227603e-06,0.0962897284493823,0
2.16683432919839e-06,0.100741289566479,0
1.95628628418442e-06,0.101714105203121,0
1.71058414029705e-06,0.118399376753343,0
1.27155788786431e-06,0.100453544376773,0
9.25763429475248e-07,0.0836731011416989,0
8.94153785300418e-07,0.0845240242700525,0
9.53041045180222e-07,0.0846622762531508,0
1.19251490808404e-06,0.0963969690627303,0
1.43993905425412e-06,0.0956263642872666,0
2.41409261151224e-06,0.124378542663775,0
2.65825240790051e-06,0.12705365251911,0
2.64717745458306e-06,0.131222003664101,0
2.37582269487211e-06,0.125137655524956,0
2.29759682753865e-06,0.119198845328919,0
2.51497911570308e-06,0.123733413075387,0
2.63843372708319e-06,0.126038211185465,0
2.71879411315528e-06,0.124509907364684,0
2.19085887013651e-06,0.112278475396242,0
2.20283079282481e-06,0.129559766147582,0
1.6854843729336e-06,0.113933938996905,0
1.66319478656809e-06,0.116841224570868,0
1.88494963734702e-06,0.123568281014816,0
1.75935109585217e-06,0.118501258130789,0
1.52063014303732e-06,0.12051239181472,0
1.01841423411239e-06,0.10155972503648,0
5.44006332504613e-07,0.0767182230483129,0
5.83756537470664e-07,0.080956623888599,0
2.19873973285619e-06,0.144774822094651,0
2.35373708377699e-06,0.129542565521785,0
2.42714255608412e-06,0.123823045199445,0
2.4711087780026e-06,0.115368519780823,0
2.4718463130712e-06,0.116617295234022,0
2.50044198734159e-06,0.116020954628201,0
2.62102808582825e-06,0.114444295334782,0
2.69640808348011e-06,0.109120400443702,0
2.66329727822441e-06,0.104794805721309,0
2.78972793445869e-06,0.107631389124778,0
1.75646329429679e-06,0.0829337032003313,0
1.7132379619968e-06,0.0847441776168634,0
1.95915228116544e-06,0.0942856387826664,0
1.74978811272083e-06,0.094380487865788,0
1.65837616199865e-06,0.0918713634477702,0
1.72684178003018e-06,0.0947424323237634,0
1.65718343314482e-06,0.0941448266381358,0
1.6526376453007e-06,0.0991283759616193,0
1.2251678172782e-06,0.0890250092401496,0
1.27836454916003e-06,0.0944733358602805,0
1.00265865868117e-06,0.0870413847847211,0
9.33304364471599e-07,0.0893348391474537,0
9.85747161263094e-07,0.0891745680113545,0
1.09962742131497e-06,0.091720912822131,0
1.15994744673043e-06,0.0928925770650973,0
1.37059230778183e-06,0.0991812751709602,0
1.39340399256671e-06,0.101699837192206,0
1.61981048587555e-06,0.113568331735106,0
1.56397092776309e-06,0.113510018595147,0
1.5267217261124e-06,0.121023077693815,0
1.36158953448401e-06,0.120675422360932,0
1.18407607189742e-06,0.114703088821424,0
1.13470483145035e-06,0.122156778956584,0
9.97388194876399e-07,0.118534157573737,0
8.74107740545336e-07,0.112165308246934,0
3.38789878649168e-07,0.071079057883536,0
3.10014083685465e-07,0.0740317873701243,0
2.6003352652158e-07,0.0690679654522198,0
4.03901226325146e-07,0.083452036660097,0
4.92932471618704e-07,0.0902841560837522,0
5.06474137296963e-07,0.0860148805712561,0
8.61830553816012e-07,0.1123200488371,0
1.05794313196689e-06,0.123227896093831,0
2.59420389345162e-06,0.143118255129726,0
6.107810151128e-06,0.200291583666786,0
9.84507319619546e-06,0.200315992626155,0
1.44952210877571e-05,0.168569806504766,0
1.37854133309188e-05,0.147640189319927,0
1.28113083214523e-05,0.142257040895929,0
1.24777616974809e-05,0.140544509701669,0
1.21619780675109e-05,0.139378856409623,0
1.21785984645431e-05,0.139050671966144,0
1.28592727941254e-05,0.143995856300368,0
1.3059129422694e-05,0.16376287609767,0
1.13386209396957e-05,0.155981201250162,0
8.30069777849932e-06,0.17413599438903,0
9.33208200707759e-07,0.0837572181135062,0
6.42733252014503e-07,0.0897861308623054,0
7.62841047594397e-07,0.096020405007468,0
7.2699889326345e-07,0.0917381873018552,0
6.41358632010473e-07,0.0963768230715603,0
2.93521625459239e-07,0.0674155435714291,0
3.24489805147374e-07,0.0745024542767998,0
4.09406508623011e-07,0.0843648328595355,0
2.69250059193665e-07,0.0683608924606045,0
2.99521797049498e-07,0.0742892101709649,0
2.80754301716547e-07,0.0734573815684144,0
2.60536709006786e-07,0.0709214517796098,0
2.66047861766978e-07,0.0690120415044356,0
3.33082950629453e-07,0.0780509781649784,0
2.97585849028638e-07,0.0732707074646858,0
2.96574731779199e-07,0.0739415164840754,0
7.17309089509444e-07,0.106120337782421,0
1.48268720183064e-06,0.132096180604906,0
5.55952760613661e-06,0.209523912016132,0
6.1222679816571e-06,0.154681570258145,0
6.09207889618356e-06,0.155729808709514,0
5.68907212331684e-06,0.149939818423329,0
5.49019651423053e-06,0.147372468706059,0
5.79240716938986e-06,0.151907426245424,0
5.5013515108359e-06,0.147264114180203,0
5.1721590926365e-06,0.142689831191545,0
5.13738731926993e-06,0.143551445899974,0
4.93139484620396e-06,0.153923802336328,0
1.72243091963764e-06,0.105544561537183,0
1.30156536173347e-06,0.131189822008143,0
1.4437967866407e-06,0.134286098144905,0
1.57667209232717e-06,0.13834947311133,0
1.35315088466128e-06,0.129964683519685,0
8.04900394257837e-07,0.0900492576597541,0
9.87344765653624e-07,0.089580160347429,0
1.000876647228e-06,0.0866976719535249,0
1.49896049612998e-06,0.0977825998337562,0
1.90926714230986e-06,0.109707886152714,0
1.96308157728325e-06,0.114566181114041,0
1.74322064946947e-06,0.105422474361048,0
3.89499547234117e-06,0.129592184123003,0
1.28569257273778e-05,0.217456142939157,0
2.80688213356213e-05,0.118312100626234,0
0.000151485113039933,0.138523788852344,0
0.000341157876390485,0.178300403005113,0
0.000389001890531236,0.105910676449145,0
0.000479945902414924,0.0999897992731387,0
0.000620453447982414,0.10207694716087,0
0.000597714944846814,0.0661534461717092,0
0.000483304863922147,0.0563988664213665,0
0.000394876243670618,0.0379244226519318,0
0.000413336950505977,0.0240401765045879,0
0.000285275209982242,0.0151053859579281,0
0.00043048878399946,0.00848314505365211,0
0.00107765651495372,0.0115852706215543,0
0.00114364978945334,0.00738622559573244,0
0.00307945778553014,0.0101454153247961,0
0.00328848918336999,0.00840219861703143,0
0.00325323763854924,0.00830995210528035,0
0.00295245698514917,0.00725077287824828,0
0.00275987511475136,0.0067736825280711,0
0.00333566371088463,0.00684288516078947,0
0.00268167662613601,0.00396220044011376,0
0.00237880983061371,0.00425953100454282,0
0.0023843090337217,0.00431144951416384,0
0.0024804513761509,0.00538524081419762,0
0.0018887907594934,0.00491375381787322,0
0.00198238511189269,0.00603734155351795,0
0.00197068981992564,0.00612049774867484,0
0.00185851912273998,0.00619322347729085,0
0.00170396103400829,0.0062783668850607,0
0.00125489444077506,0.00647959640851654,0
0.00108099439646937,0.00923972171924898,0
0.0010595417442133,0.00798790382025018,0
0.00177137256608115,0.0110137108979075,0
0.00198196921777774,0.0138870836715282,0
0.0018848336258296,0.0156978989662736,0
0.0020575723540322,0.0172144489510099,0
0.00210640946888033,0.0181105297036521,0
0.00223111735053997,0.0189457531836709,0
0.00215526060052885,0.0183912238275187,0
0.00137653565702404,0.0177340254907181,0
0.000864569434321703,0.0184764071541882,0
0.000190109090774407,0.0117651083925871,0
0.000106874189400913,0.0385208550106184,0
9.33040790963112e-05,0.0333512534859606,0
8.15942402167975e-05,0.0374668395878324,0
6.29711751230326e-05,0.0319582732860045,0
5.73529734572988e-05,0.0356723992919223,0
6.44772445626772e-05,0.0412460267715323,0
6.63091769365621e-05,0.0356123139481376,0
6.89321524317901e-05,0.0278077943967298,0
0.000140305116465057,0.0286983534706645,0
0.000133586696138588,0.0235875252251744,0
0.000119042926234201,0.0226132201387857,0
0.000120930184454154,0.0239802264168243,0
0.000117119476893546,0.0252140409079455,0
0.000105586790396595,0.0231932135184469,0
0.000113917998738266,0.0213095360408497,0
0.000132562842781356,0.0175130434953221,0
0.000162367135290265,0.0171413124019316,0
0.000178447280663107,0.021055207899373,0
0.000118578897589534,0.0178068653844711,0
0.000125305130196814,0.0199952669261058,0
0.000124129050067334,0.019936958802121,0
0.000134781023249074,0.0196546490583197,0
0.000143458874843442,0.0176276450295789,0
0.000160785834012256,0.0187382763483035,0
0.000150753596033862,0.020469009582233,0
0.000206590956543411,0.0181024251897339,0
0.000318860795867313,0.0162928148737892,0
0.000320000942524159,0.0158919162674624,0
0.000345993575991652,0.0183442252446008,0
0.000379179213335183,0.0195278759677483,0
0.000396816989909202,0.0203314980295383,0
0.000385738873996653,0.0196382062998776,0
0.000378186322473541,0.0197977044335983,0
0.000404358129439913,0.0209568327673892,0
0.00043201401695769,0.0217764953448385,0
0.000359568383877481,0.0369347382232939,0
9.42397192525155e-05,0.0383349062460387,0
9.34738178304097e-05,0.0471207086333899,0
9.9809128617206e-05,0.0472708403452421,0
9.54811069708405e-05,0.0447283919259826,0
0.000100767691251524,0.0354456852517286,0
0.000151797296678767,0.0352816079585684,0
0.000153583184500706,0.0358441603400805,0
0.000142001403513674,0.032134035747407,0
0.000141814720482114,0.0310619586899608,0
0.000127795034517914,0.0262762058445932,0
0.000132054325164078,0.0220617148962483,0
0.000155377933552573,0.0242231034164188,0
0.000176059553695636,0.0271265719353774,0
0.000186980331899616,0.0281869369106349,0
0.000201531902809799,0.0348291874567159,0
0.000172733078861023,0.0180054269852408,0
0.00047036719017182,0.0236015575577514,0
0.000477092124475105,0.0196874552722799,0
0.000471176258687512,0.0183851523419753,0
0.000481155959755354,0.0175545733189227,0
0.000511872167179925,0.0182149961432492,0
0.000555226431978104,0.0183265820249067,0
0.000593415648583981,0.0181572913314759,0
0.000633797738933121,0.0185295002321914,0
0.000666064498899486,0.0184474826196431,0
0.000637678925680339,0.0295536659184475,0
0.000209383783616068,0.0261450998844134,0
0.000162863882257849,0.0349649529556178,0
0.000145260905970871,0.0455116649796112,0
8.4380549492179e-06,0.0253458670083422,0
2.89371767685413e-07,0.0848710537002311,0
2.61548758075642e-07,0.0781886909847622,0
1.98150374034024e-07,0.0659714397192529,0
1.13471750419442e-07,0.0524602183391953,0
1.22734035424905e-07,0.0551494884898287,0
1.31125628367078e-07,0.0560503885011406,0
1.53295941847206e-07,0.0571313165283989,0
3.03216740583921e-07,0.0794520761156878,0
3.34671236825813e-07,0.078969073176591,0
3.13033644506411e-07,0.0758640882637173,0
2.65417672295228e-07,0.0681510230986124,0
2.62759657408097e-07,0.0697825411783,0
2.67005772127704e-07,0.0723584522688552,0
3.54091378478464e-07,0.08128293879276,0
4.5820067330511e-07,0.0907339608092135,0
5.0877340170853e-07,0.0968185430873302,0
5.69046183879543e-07,0.109887218005098,0
3.53774559876668e-07,0.0866383165327785,0
2.35025450188771e-07,0.073512149556926,0
3.13184506070031e-07,0.083165910894811,0
3.53318806999789e-07,0.0852368670073062,0
4.10349416691123e-07,0.0864048508232463,0
3.95597317590118e-07,0.0832181257912663,0
3.9110520254441e-07,0.0861508488035493,0
3.80757813827794e-07,0.0856735877224686,0
4.41086132436062e-07,0.0894215575643893,0
4.9410134589545e-07,0.0953550484878877,0
4.70768587692552e-07,0.0949849912629012,0
4.76724031950795e-07,0.0951549078489341,0
3.46935005355531e-07,0.0803418872020685,0
3.38301605274634e-07,0.0793603489031259,0
2.99915397571259e-07,0.0806744889122725,0
2.96190449451607e-07,0.0819526840809685,0
2.80768838099453e-07,0.0790442623289422,0
2.83896396790835e-07,0.0781783304161924,0
2.85783517474242e-07,0.0825003117551744,1
2.34546495008409e-07,0.074392699880594,1
2.34099221688225e-07,0.0751442714275734,1
2.30641705741266e-07,0.0746745983043255,1
1.97405570773977e-07,0.0779832683688112,1
1.23754564050457e-07,0.0645867365659018,1
1.51478893983962e-07,0.0668441523069902,1
1.44695621355615e-07,0.0646352019904174,1
1.67866895253537e-07,0.068082578052703,1
1.73529841396766e-07,0.0722905834628617,1
1.32267666244612e-07,0.0639851993982927,1
1.56468880144198e-07,0.0668909036736307,1
1.94223221100872e-07,0.0707859215875895,1
1.99005784258875e-07,0.0735276264442284,1
1.18693386886757e-07,0.0580105779655407,1
5.82573499538778e-08,0.044744001743183,1
5.88910803394127e-08,0.0468382689867809,1
4.02150896732161e-08,0.042097156300849,1
4.21741468156192e-08,0.0426980361355162,1
4.45685499896671e-08,0.0421821499035993,1
9.15289872409567e-08,0.0535280083151268,1
8.12494349779017e-08,0.0504663527727939,1
6.29918312299601e-08,0.046580629374143,1
5.74057601886373e-08,0.0433074068157996,1
7.75535596240618e-08,0.0470641178942984,1
6.82860564298634e-08,0.0461819930409231,1
7.03543228079443e-08,0.045354897659326,1
7.74052139728675e-08,0.0464189561203157,1
7.6055100819506e-08,0.0466830688857137,1
8.21119270303219e-08,0.0493057538330603,1
6.15187179135479e-08,0.0468569343594114,1
6.76441260334585e-08,0.0507110729088373,1
6.72192163792844e-08,0.0513864247590497,1
5.28405905006327e-08,0.0469337753600848,1
6.58408690975861e-08,0.0495395581168056,1
6.85000021680178e-08,0.0473399618147373,1
1.53377476046198e-07,0.0551405019021226,1
9.23251896600479e-07,0.114874144086918,1
9.41810757565952e-07,0.109747169764676,1
9.41232749981558e-07,0.109739167691158,1
2.83043726115071e-06,0.0599648228789482,1
5.14350845033871e-05,0.117415100429036,1
7.06166636125245e-05,0.0699473562266994,1
6.93855079236723e-05,0.0691851867967904,1
6.96715041755195e-05,0.0684628697394408,1
7.05841304421254e-05,0.0689347664689901,1
7.03676090619205e-05,0.0691270852256321,1
7.01406641633524e-05,0.0668698256042327,1
6.85751497699069e-05,0.0672789305984708,1
6.71091439060983e-05,0.064343000324234,1
7.38455355813902e-05,0.0681509367157176,1
4.19079585286661e-05,0.0643768238251705,1
2.72177049346444e-05,0.0868851529944639,1
2.74684132783499e-05,0.084548011436487,1
2.42102116410589e-05,0.0777933196873963,1
2.42673223872201e-05,0.0720160635372913,1
4.05710656564657e-05,0.0642605165699102,1
7.85833743891959e-05,0.0654300573025844,1
7.15431399770357e-05,0.0576376316133739,1
6.18809579596466e-05,0.0462479289914864,1
0.000157859968099604,0.0511872547865506,1
0.000294905204813782,0.0500185040301392,1
0.000283644445493209,0.0372392002085423,1
0.00034454397620641,0.0263649634770229,1
0.000484622061020511,0.0240167366816126,1
0.000452567290903344,0.0196413167573635,1
0.000465423420297848,0.021067922016069,1
0.000470893937997355,0.0197276396164126,1
0.000430381027656617,0.0172731572611685,1
0.000418826406130589,0.0169153217031797,1
0.000413765158800887,0.0182701464226833,1
0.000360713930893759,0.0183969970160373,1
0.000417355456498863,0.0219932393500403,1
0.000447436845545549,0.0316978919481985,1
0.000330356959609031,0.0283976471574152,1
0.0003230731545899,0.0310807250499937,1
0.000278303234976476,0.0283347620961321,1
0.000293636040676818,0.0324764257505711,1
0.000317034239811918,0.020149708319028,1
0.00079796547882847,0.0240140404663422,1
0.00115764429625916,0.0276685272643027,1
0.00180775544515616,0.0328121005453356,1
0.00208263265558197,0.0268705315597188,1
0.00218638338396739,0.0219360122832635,1
0.00212630583138245,0.0204417961852865,1
0.00197553772375207,0.0190908436174012,1
0.00200767911207497,0.0189094816828849,1
0.00183104435967139,0.0176968117569555,1
0.00161181719439092,0.0181281524739513,1
0.00166176221904406,0.0206361016400994,1
0.00174360057731174,0.022644677395971,1
0.00117641263144095,0.0212030719002477,1
0.000694228390695225,0.0185849808920078,1
0.000729792380623346,0.0268663032889768,1
0.000768591242319195,0.037218488831743,1
0.000658327979107505,0.0386841636999217,1
0.00066718671884166,0.0401983421319795,1
0.000592060622878654,0.0430839115879306,1
0.000110087976424782,0.0308065360404668,1
5.44310431771367e-06,0.18239979015908,1
8.76747398589952e-07,0.0937297925434783,1
3.93246430382846e-07,0.066377377650853,1
4.94134891394464e-07,0.0756685575751956,1
5.20046925743751e-07,0.0731397531502297,1
6.90827527132457e-07,0.0638487689505534,1
2.16817285051821e-05,0.0916205046451735,1
0.00011413760770211,0.173626012101164,1
0.00019069541102664,0.134955903260351,1
0.000430918478266795,0.100139564205145,1
0.000511916665657095,0.0576026861535958,1
0.000942631576417675,0.0502424481684756,1
0.000907828259100184,0.0289384574144648,1
0.000840505406231245,0.0268427508006759,1
0.000730536082006932,0.0196740332417801,1
0.000651427318105365,0.0140730517248938,1
0.000595173761944102,0.0120857287722627,1
0.000618765110751154,0.0124220222625709,1
0.000648920011218014,0.0136914413364469,1
0.000656956969344624,0.0147384520432445,1
0.000728699421674507,0.0191359964119239,1
0.000385747271180512,0.0153996846372265,1
0.000308991327638779,0.0197745078652809,1
0.000298896550786573,0.0187058579032158,1
0.000278900849625499,0.0268132825431075,1
7.62571029622823e-05,0.0252821501366563,1
7.79153105581484e-05,0.0299620844401995,1
0.000119250428534269,0.0365725361622981,1
0.000160947819263349,0.0329403797129629,1
0.000165750354666008,0.0309406968251259,1
0.00014221860158114,0.0277611669136347,1
0.000119340509846863,0.0263242316692256,1
0.000124255045750264,0.0279790983709482,1
0.000143072317385563,0.0331254614824475,1
0.00016308530267864,0.0396652505614586,1
0.000262951390900897,0.0362010956542768,1
0.000338567382629224,0.0219145138730426,1
0.000348720357940397,0.022340614327814,1
0.000370582413350531,0.0247931146399151,1
0.000359949054752557,0.0255364268086629,1
0.000356731154305054,0.0244304293279765,1
0.000345940774910295,0.0253989302097799,1
0.00034312645672733,0.0237523813878787,1
0.000350076310340135,0.0225015959492886,1
0.000370956170870988,0.0222534735363404,1
0.000315144112613163,0.0230460789526904,1
0.0002906057132416,0.0398096737784884,1
0.000373490528569198,0.0470344812977972,1
0.000415113215242432,0.0508022228179705,1
0.000407867371148622,0.047981985187737,1
0.000404216313233738,0.0518625767744424,1
0.000344317360706006,0.0472353551145726,1
0.000287573973540873,0.048701864823026,1
0.000260450819856567,0.0543572429779547,1
9.77648845436965e-05,0.0373896363454969,1
5.97948170487799e-05,0.0730622521630746,1
6.69993711992187e-05,0.0779725210906168,1
7.1316803649729e-05,0.0800487575605396,1
7.70935074255749e-05,0.087247575003987,1
5.28614361396296e-05,0.117404861494107,1
3.19645466089299e-05,0.158931969829364,1
2.12943220666317e-05,0.14724624634574,1
1.6779069199343e-05,0.171580452617724,1
3.23060198479543e-06,0.096493026914536,1
3.90538190429136e-07,0.0752117374869157,1
4.2070015995764e-07,0.0779303852993148,1
3.87229113315313e-07,0.0745984206211844,1
3.50990376640469e-07,0.0772531320906822,1
3.41341852486639e-07,0.077552647558157,1
3.56334174633358e-07,0.0796283691093405,1
4.0476008428184e-07,0.0832301416622199,1
1.60865027108144e-06,0.110951257005875,1
1.35961040595137e-05,0.224324175857727,1
2.41817590010691e-05,0.301662315628264,1
4.84041184923222e-05,0.197482013137586,1
0.000128898872924356,0.268155940202613,1
0.000185020071685164,0.218639920800277,1
0.000451083455234082,0.0374090042538604,1
0.00119658159389307,0.0294094037480318,1
0.0011319791501667,0.0228151637288348,1
0.00103889968101586,0.0208532859013117,1
0.000897993004764732,0.0182466716426911,1
0.000786530993052604,0.0163552501343147,1
0.000656159717696869,0.0140423598054147,1
0.000636213826010914,0.0118664866579404,1
0.000874782984324538,0.0131721720088532,1
0.00096581714899137,0.0106797558184026,1
0.0019893807058184,0.0192402173941223,1
0.00357450676754543,0.0297156423398496,1
0.00784793269904741,0.0352131056425473,1
0.0111418421382435,0.0139640605915647,1
0.00998779822448428,0.0119015604025621,1
0.00924403075775586,0.0105499155234938,1
0.00745925047773993,0.00718312779222572,1
0.00662108916295695,0.006704483774121,1
0.00601348078833165,0.00568528727823174,1
0.00562114237748658,0.00522943862575453,1
0.005693179368616,0.00528254983188472,1
0.00735901619495913,0.00625937791795274,1
0.00715710538539478,0.0058200273252824,1
0.0114872882527162,0.00489774222759811,1
0.0186997617009098,0.00585331301479757,1
0.0188464703626885,0.00472596975996834,1
0.0181016683181068,0.00484840450551564,1
0.0174654193900857,0.00470504178463353,1
0.016312048998383,0.00339252209598894,1
0.0172117996832118,0.00353706517492275,1
0.0184387484065258,0.00302179646781193,1
0.0205554810665429,0.00356571841479029,1
0.0220966666208401,0.00375868577234452,1
0.0189774086956323,0.0072662107477534,1
0.0105960959618166,0.00505540236704368,1
0.00995038715610993,0.00581605761057255,1
0.0100455125962752,0.00568246943383001,1
0.0105423736617926,0.00545513432610664,1
0.00947381521619029,0.00755249512097217,1
0.00403420338076085,0.00305449922694205,1
0.00338026524131802,0.00484112587760082,1
0.00428851377604123,0.00592846721029619,1
0.00442502021091389,0.00449068758117051,1
0.00472134224733766,0.00392788215334812,1
0.00456363587597121,0.00354833359309605,1
0.00429424117380399,0.00299807850689249,1
0.00425981713615519,0.00325880860624614,1
0.00330231277213107,0.00249152577251558,1
0.00382154711248628,0.00375847714805753,1
0.00388116371273518,0.00341685558307236,1
0.00399952187050482,0.00364943234360356,1
0.00360554266022105,0.00323448078487476,1
0.00342924421262692,0.00376923099876158,1
0.00352889202839392,0.00452123923803328,1
0.00312635889234824,0.00507460550996635,1
0.00318752410369317,0.0065937844002153,1
0.00348424479780904,0.00643141189495173,1
0.00337700520520784,0.00625366244970509,1
0.00202440092162341,0.00442759303145262,1
0.00192836918774311,0.00648594014017166,1
0.00198089501849695,0.00696910929492482,1
0.00204319309302544,0.00779916133088172,1
0.00132853432353156,0.00731454574792316,1
0.00157829309060326,0.0110282440714664,1
0.00163399652928073,0.011985149772036,1
0.0016484594565825,0.00922762547426205,1
0.00204739984853151,0.0135544829089626,1
0.00148702787609378,0.0135410646121733,1
0.00144324220276008,0.0152841811791921,1
0.00222137206187832,0.014445765303014,1
0.00291776616778763,0.0150885546902575,1
0.00300431567056636,0.015259692154593,1
0.00271783413872136,0.0117563138877869,1
0.00219778400304609,0.00833698162403899,1
0.00189819854400083,0.00698258729058584,1
0.00180999072711928,0.00766218512875765,1
0.00191942112454509,0.00694117648318705,1
0.00183589667743323,0.00639641597572161,1
0.00225378486469056,0.00614107111357639,1
0.00250006160896462,0.00731925941655136,1
0.00215234302920674,0.00742051643433797,1
0.00302793577010243,0.00529988543540999,1
0.00355681243745326,0.00521124597118505,1
0.00354858963987121,0.00563060492853796,1
0.00333358403540279,0.00502515397707265,1
0.0037838746860041,0.00571332676079172,1
0.00397137063598496,0.00620801105042147,1
0.00427050554533977,0.00715158224875985,1
0.00433350736874889,0.00814092096615083,1
0.00406214825622989,0.00834064233017117,1
0.00419908154648885,0.00731564419712965,1
0.00346750206928742,0.0129384835598928,1
0.00221620241310719,0.0139994777015707,1
0.00154276289496993,0.0114869417407592,1
0.000816832634577623,0.00857311769824971,1
0.000963811371914307,0.0104655371458443,1
0.000980299542280304,0.00774401377197933,1
0.00116631242711337,0.00791975643989076,1
0.00128667030522705,0.00838977726886729,1
0.0011261631806388,0.00842063891174432,1
0.00091263015462245,0.00949202240155725,1
0.000922800324238233,0.0105979124190888,1
0.000973109390703503,0.012324627590653,1
0.00107301950422503,0.0145698807689806,1
0.0010695474929884,0.0167709973569752,1
0.00111242700548452,0.0194574571161079,1
0.000934085734561937,0.040464548146158,1
0.00015294744138523,0.0300212597113608,1
9.49117646547502e-05,0.0798892687742621,1
9.67511991999437e-05,0.0796143503044214,1
7.40020772366309e-05,0.0993729095774498,1
1.52953520575107e-05,0.0678874769092181,1
1.56577426856271e-05,0.110642042264946,1
1.829843383843e-05,0.129323034836214,1
5.8633091317874e-05,0.0878657160331089,1
0.000153766107081826,0.138065376310065,1
0.000193930003714453,0.132141779207934,1
0.000362228821029187,0.113893246403121,1
0.000373433072211215,0.0703457416439013,1
0.000709501022852164,0.0290310480267136,1
0.00150254008042057,0.0226240450412353,1
0.00135712041758016,0.0169438334303311,1
0.00117920142159235,0.0156141531924581,1
0.00101912269641517,0.013111064391122,1
0.000897245340446347,0.0115780213961604,1
0.000820595036246924,0.010484835585295,1
0.000718172513381281,0.00886349720688879,1
0.00107098745058586,0.0112261567675696,1
0.00115059759949298,0.0119722563670871,1
0.00117290315090693,0.0173431412247704,1
0.00105577430587369,0.025368796380579,1
0.00107009833011633,0.0353662228081953,1
0.00188178751570301,0.0260512522026351,1
0.00258697681163495,0.0162867485230486,1
0.00240565474264736,0.0165028472531217,1
0.00190222075938046,0.0110889296699721,1
0.00238786880203375,0.0125362980042867,1
0.00299736875777563,0.0133638391623926,1
0.00386837509347107,0.00506839531950291,1
0.0135759076548866,0.00995507107285675,1
0.016359220022443,0.00896128405279666,1
0.0251534921410846,0.00831082578702519,1
0.044043667725216,0.014205923209694,1
0.0604100838482505,0.0204595729459306,1
0.10154957791422,0.0119968263223548,1
0.228612071833615,0.0197332254660894,1
0.29116024266902,0.0258908683121729,1
0.285428514135748,0.0212855346898866,1
0.243155570933481,0.0176353158658491,1
0.212756390046209,0.0153376508492309,1
0.192395079276033,0.0111854440291169,1
0.152333222413153,0.00850612678766114,1
0.135976737354965,0.00733193322227501,1
0.0939994727048238,0.00508238229184605,1
0.0717856422661836,0.00496548633386289,1
0.0771204134343987,0.00605587323672389,1
0.0808485283490484,0.00442120889669813,1
0.113926638889938,0.00538989965678658,1
0.124358690993803,0.00198177512824367,1
0.135784082863035,0.0023659405459911,1
0.135322537088104,0.00275298698095846,1
0.132752127890777,0.00272006552826903,1
0.144075160332499,0.00288459085945679,1
0.167351104385398,0.00345898410701885,1
0.197205344026736,0.00398464903669934,1
0.193747374841788,0.0031568160172534,1
0.197568552339809,0.00411782456490432,1
0.16757415169552,0.00372105780882901,1
0.148220915165659,0.0100034272025185,1
0.0950489002504592,0.00555681110047518,1
0.106782696569104,0.00506604377358412,1
0.102170496764256,0.0036052295199953,1
0.100813165537535,0.00446878683746834,1
0.0991890045596535,0.00370934790800192,1
0.104482287341998,0.00453584890935804,1
0.111358762505259,0.00311325277619085,1
0.117199455027166,0.00357784478376253,1
0.130148103963235,0.0041137086562191,1
0.145150936357597,0.0051555011278368,1
0.122227934285975,0.00420249399478455,1
0.114283493456364,0.00445343344695598,1
0.116835394803782,0.0053784209174979,1
0.137914592938297,0.00578595764094128,1
0.153214035257394,0.00735432521636336,1
0.0725529940312006,0.00323548062796612,1
0.0478383626805863,0.00577108187348927,1
0.0492910961149849,0.0045596903170834,1
0.050619244174209,0.00432615088342965,1
0.0646001120473154,0.00403110620049478,1
0.0604051947539058,0.005986815710617,1
0.0375710312440951,0.00401032122156749,1
0.0366412272314022,0.00301392918362727,1
0.0615057417713102,0.00573693476597633,1
0.0836234141858391,0.00852403170921029,1
0.0906012882202541,0.00941976755091267,1
0.100178189295276,0.00956656879080547,1
0.0936315357892301,0.0119798632090907,1
0.0524046314288136,0.00817085472023648,1
0.0446126386441776,0.0117032513323424,1
0.0361108665720228,0.0124344350611421,1
0.0157392487631475,0.00648046286427268,1
0.00145042509546363,0.00470126702736301,1
0.00244426052837817,0.00985289861168762,1
0.00587743561888636,0.00252172805299317,1
0.0527376707664739,0.0101339290291251,1
0.0621665667773801,0.00409944799446272,1
0.068904235318576,0.00213890013433046,1
0.112961713030878,0.00342267739853258,1
0.107288983092016,0.00279514295557932,1
0.100264852852285,0.00258669057538519,1
0.0875793505311119,0.00213317101777727,1
0.0769405910425696,0.00174311524704431,1
0.0688416968655743,0.00141310185414562,1
0.0616331348688772,0.00131256124734961,1
0.0509449787828451,0.00110645900770055,1
0.0477207518633278,0.00185913704284817,1
0.0464636321665006,0.00510713821205635,1
0.0129464546745674,0.00325459680309978,1
0.0118637721470785,0.00701944439949979,1
0.0201407135399042,0.00954564759208244,1
0.021774941132073,0.00646241328304632,1
0.0218707453553472,0.00654311793415883,1
0.0286729233472076,0.00291776145333436,1
0.0681551822488659,0.00601416636747179,1
0.0793089787602835,0.00545840554916232,1
0.149760121350082,0.00877932949037862,1
0.136241180009813,0.0045746575281049,1
0.113225144084956,0.003790112876616,1
0.105113630359689,0.00370134077796724,1
0.104773803399574,0.00364273875195718,1
0.0960801040288528,0.00346462431658459,1
0.0809478907547712,0.00253949942324774,1
0.0859076818920744,0.00293081277121742,1
0.11118465492986,0.00423316639723035,1
0.145148092553106,0.0061329256240633,1
0.154095086517416,0.00707157656252397,1
0.186856510595771,0.0205336281616161,1
0.180750209640896,0.0188781657004472,1
0.14905485340151,0.0117887583969366,1
0.118889553344943,0.00937451065154624,1
0.0897130262538367,0.00738993559491034,1
0.0315078988135219,0.00287149394064064,1
0.0269890044921152,0.00167261911942755,1
0.0724638585041325,0.00565469672667351,1
0.089387552013157,0.00539459321220313,1
0.0828532002043256,0.00501371481272896,1
0.0887348609631424,0.0030135015961575,1
0.15787945705435,0.00511856004686914,1
0.188481311220625,0.00540822431786002,1
0.287081372493566,0.00618652428578004,1
0.286839249472253,0.00602240827472422,1
0.292010488967216,0.00580787632394637,1
0.293030557277237,0.00611191740036765,1
0.217240496828144,0.0047990859598457,1
0.159654509560741,0.00337199029965651,1
0.185156118084984,0.00397345853955372,1
0.188019932993908,0.00518791435099936,1
0.189660516934737,0.00444756592034158,1
0.233125418627013,0.00688930604838071,1
0.125232528848229,0.00434817562322622,1
0.110422810806508,0.00369318663745429,1
0.0797819017898525,0.00271122898766225,1
0.086654974486728,0.00358600129722906,1
0.0786808001113196,0.00276409831093721,1
0.0630182481409354,0.00214671779153546,1
0.0707940372706098,0.0023979978772107,1
0.0616957064886865,0.00181803331278621,1
0.0540254821762681,0.00260306539646067,1
0.045381823433754,0.00208492301532351,1
0.0458354738207636,0.00257208293764888,1
0.0480152887167578,0.00200762049635215,1
0.0780167334922344,0.00266151779633912,1
0.0891557255585702,0.00219787613378819,1
0.091367435390722,0.0017096896857814,1
0.0938260668550459,0.00175880267675887,1
0.0923765825177566,0.00176984273707094,1
0.098207831646329,0.00209241097493975,1
0.0961842141953965,0.00222525502230651,1
0.108126811064802,0.00238635113808621,1
0.124704138778096,0.00275269841573517,1
0.115030660947551,0.00356965081988622,1
0.0967832947491808,0.00347073024650313,1
0.140263029762412,0.00628022658514464,1
0.154271270351315,0.0137559841794923,1
0.135927610476333,0.0137871473275587,1
0.139367195375286,0.0126194900129463,1
0.130688151053928,0.0131309982487524,1
0.0865859369380656,0.0104874079995834,1
0.0628538993977274,0.00936514479081151,1
0.0404352490091165,0.0082591764626624,1
0.00396124059274964,0.00192194227153853,1
0.00247452920092085,0.00102575461451831,1
0.118210234185684,0.00214160225944348,1
0.368713330482999,0.00892239905617631,1
0.516952035134286,0.0121031991399276,1
0.588828318271649,0.00926525979377167,1
0.556835839947056,0.0092696765648558,1
0.512145541961623,0.00793447298594842,1
0.485976002819424,0.00769385358519114,1
0.463339966034908,0.00742026271598654,1
0.413183757833576,0.00654561738500894,1
0.352464787254509,0.00547492366324958,1
0.354483854027316,0.00924582315455665,1
0.272055678385408,0.00585470751646227,1
0.178113889636671,0.00405121593322827,1
0.0868373627834676,0.00224174644517762,1
0.0852141366200575,0.00170198353782366,1
0.0855843463606185,0.00212112438637499,1
0.0787621606743357,0.00172819770414437,1
0.0726010633962697,0.00144119114413109,1
0.0780795724398526,0.00130459697459832,1
0.0847598807241179,0.00187737899858561,1
0.087263455728749,0.00499548012723586,1
0.106914158567042,0.00755411066992953,1
0.119580436984098,0.00616073740614111,1
0.109426851277162,0.00507866311522621,1
0.145939675430567,0.00522396873850155,1
0.149830586896813,0.00304553253015371,1
0.120888681475992,0.00234534223321334,1
0.111118853941609,0.00199596883917063,1
0.122792543676555,0.00194217099504948,1
0.127647101134939,0.00151031653895784,1
0.128763009345456,0.00149850212925388,1
0.12549527882655,0.00143283321281316,1
0.126871350422595,0.00146159151543767,1
0.138522360658143,0.00204482578694248,1
0.126502462480829,0.00213772766232719,1
0.165420418195223,0.00539746606401909,1
0.167172490606683,0.00536301634986394,1
0.110222626144239,0.00340860510014156,1
0.104988773378257,0.00528245394570614,1
0.109636518224298,0.00851377639196974,1
0.130741692327437,0.0100323293746539,1
0.142556717708132,0.0051352278501501,1
0.157126965695203,0.00670779182278141,1
0.175969240005915,0.00697178397498522,1
0.23694973939094,0.0085901675290462,1
0.37630317711897,0.0106935552599197,1
0.505296464738791,0.00971179570654072,1
0.527642036236554,0.0106971084583998,1
0.561607693342486,0.0116952408932478,1
0.469399003317901,0.00906478267850608,1
0.292528911253413,0.00532837860567418,1
0.213587695662233,0.00586992714125396,1
0.292618657375002,0.00801143761884486,1
0.397589889930258,0.0103137812460665,1
0.495923802232503,0.0135676525531622,1
0.523887719344023,0.0171511803212052,1
0.405991387863852,0.0127205018255453,1
0.377865427528559,0.00849165799657862,1
0.273286235287848,0.00551425764373922,1
0.226097398862056,0.00403976908767711,1
0.320372795203057,0.00605044945133808,1
0.335095162217773,0.005891240477041,1
0.357318250641352,0.00643604596733209,1
0.331766887549822,0.00413015687368697,1
0.35020997101202,0.00441684714689363,1
0.322252729888099,0.00406377515975076,1
0.322980701842455,0.00445317490055652,1
0.316976838746329,0.00547096262378628,1
0.320875911156263,0.006346932032866,1
0.338688504317385,0.00941968929631494,1
0.217942694044287,0.00530002773814368,1
0.179974609061898,0.00461993545223209,1
0.0818599679851766,0.00155613042699821,1
0.0634474121317378,0.00375674939830183,1
0.0633401289281243,0.00347084834310397,1
0.0528778114984392,0.00249573483936203,1
0.0815222506679492,0.00437445201827819,1
0.0834378061712313,0.00407133770335215,1
0.0797598887442877,0.00431092546696304,1
0.0775716547558693,0.00410521430092092,1
0.0820594408830546,0.00347236191389544,1
0.137885703521094,0.00591859058521556,1
0.160351353920395,0.00602790531347089,1
0.165830657896607,0.0065725235039887,1
0.180048720558496,0.00618491607610311,1
0.179075254309376,0.00668042116587052,1
0.133709754557497,0.00573842948314738,1
0.10426237273915,0.00413783630954783,1
0.121022438901575,0.00451017450987011,1
0.147833707971625,0.00549129450504405,1
0.178327554105507,0.00990364230332213,1
0.165149846460606,0.00865335903841466,1
0.169613309470294,0.0041573063392014,1
0.284053169293248,0.00687377935462357,1
0.290428008010577,0.00310709060209586,1
0.317394514480903,0.00347823082204052,1
0.302994836504219,0.00265416889900019,1
0.308819315102141,0.00294182233899848,1
0.316494808221217,0.0031573884266624,1
0.298924375958004,0.00282699737455419,1
0.281442919648344,0.00272631072174872,1
0.275365518216999,0.00220827150289893,1
0.269565034538221,0.00279085004164687,1
0.149027607504565,0.000578969522688507,1
0.131896900316975,0.00173921535531225,1
0.154284134178656,0.00151436476787903,1
0.212490706542514,0.00332039885119113,1
0.21482513101958,0.00335375011938803,1
0.255981477566558,0.00370358992732407,1
0.288046288494536,0.00440679673507069,1
0.262578460610675,0.00358619338187989,1
0.277992635991234,0.00457983355671407,1
0.28959106172933,0.00866075121086245,1
0.144118505114637,0.00515470085721321,1
0.0335782648819136,0.00207390622087926,1
0.0200896298121689,0.00658548317753336,1
0.021020581690897,0.00781148907894066,1
0.0130458218044283,0.00500837945267839,1
0.0104899600674762,0.00644462647757346,1
0.00941689609636266,0.00849555236210565,1
0.00242393340029593,0.00220162788900179,1
0.00424789129566434,0.00719738150934481,1
0.00461848645882041,0.00710847790294357,1
0.00521172712914289,0.00792638205959034,1
0.00840640730777679,0.0100786407623975,1
0.0223573131454175,0.0157057976750689,1
0.0327511703296622,0.0149420279742166,1
0.0288093851975961,0.0106827515017676,1
0.0287660911878756,0.00953313888637235,1
0.0250621272748248,0.00842606134522075,1
0.027538386984701,0.00856054215448764,1
0.026414917175253,0.00589183494926326,1
0.0218754148805167,0.0047613554489816,1
0.0186091555099989,0.0020990825153532,1
0.026024101166592,0.00359309768520766,1
0.0473969329244584,0.00544521200413426,1
0.163542392668766,0.00881377632248583,1
0.306581640433161,0.0144162527321581,1
0.331393175896126,0.00980853951789896,1
0.309064241048561,0.00753400804671089,1
0.311130844174549,0.00745671362287665,1
0.29100921084699,0.00719438580850673,1
0.222931086822393,0.00476038232744323,1
0.186695121287922,0.0044640291373226,1
0.192820878912051,0.0046027153118273,1
0.194160545545553,0.0044551486249553,1
0.164954010210522,0.00630879611581099,1
0.0788787805151555,0.00309713344941523,1
0.0551779772897719,0.00244193043052198,1
0.0578571686863385,0.00355331900475006,1
0.0586465579258709,0.00469021173943174,1
0.0394373420205183,0.0043967421919454,1
0.0291301346444739,0.00482638261881351,1
0.0303437635534037,0.00447228583767762,1
0.0636900197450867,0.00522682668144322,1
0.138687106594968,0.0118863694171897,1
0.201853317799936,0.0155495360185767,1
0.227396384537177,0.0178058366679831,1
0.211493440324756,0.0179066039533967,1
0.178629379115553,0.0130307904038839,1
0.138461012574721,0.0110055508553681,1
0.12503446687171,0.00888435342622762,1
0.10826129707626,0.0078820954909605,1
0.097773869148752,0.00664435862426172,1
0.117925244830317,0.0117147483544857,1
0.0956463468108138,0.00910011103586969,1
0.08323899910762,0.00786299454222005,1
0.0758716914001059,0.00239713090413953,1
0.0970256674478728,0.00362740264335266,1
0.114674260430357,0.00413530987876811,1
0.114124433686621,0.00406803777657534,1
0.111703310141652,0.00434752788334444,1
0.114668005555248,0.00305538361452417,1
0.26253592365764,0.00570239032203542,1
0.330437490202728,0.00502456607492814,1
0.313613655245464,0.00405383977608477,1
0.259939449519709,0.00297159587945484,1
0.25817920977116,0.00380196168216452,1
0.261182501379456,0.00325817662624037,1
0.263932649172049,0.00321807147195304,1
0.264428035131647,0.00280570505577475,1
0.26173178707697,0.00254971942716566,1
0.25359155708537,0.00295769378094332,1
0.176666478406376,0.0036715666268681,1
0.0872307706959191,0.00118435085430744,1
0.0849426011048978,0.00172520340441214,1
0.0735356722675774,0.00166765977820602,1
0.0679098602970848,0.00198616118502537,1
0.0538038036346971,0.00183127771549954,1
0.0528838869814452,0.00101659106449168,1
0.0809584688649573,0.0030930683379827,1
0.102334060759248,0.00484998377778061,1
0.112983770506897,0.00126124797643781,1
0.297372460598259,0.00434331677286516,1
0.367951946347829,0.00240320351659454,1
0.381888440020801,0.00257658013951975,1
0.385651825259508,0.00203851064167208,1
0.392996689567369,0.00207623241282621,1
0.414675425333965,0.0019891835016803,1
0.447214482598364,0.002604531063852,1
0.414549580599817,0.00229752415191906,1
0.407710353854453,0.00222366822214699,1
0.400373406990959,0.00365645981696735,1
0.205043326006163,0.00199048595975204,1
0.0797556933019079,0.00176694866313555,1
0.0830982456764334,0.00180274920469865,1
0.0894560289336922,0.00345991496789263,1
0.0443610761756921,0.00159022934269856,1
0.0447579256722149,0.00252442685822648,1
0.0377999770758633,0.00239695463777471,1
0.0409930304557384,0.00286029188741208,1
0.0487818994343062,0.00385302281742487,1
0.0402968765500452,0.00362940445481464,1
0.0343215962563162,0.00293448080071733,1
0.0334179865338082,0.00205981010680285,1
0.0317689729598139,0.0023605615280623,1
0.0534597247907823,0.00168679076712752,1
0.101413427753885,0.00360632075351792,1
0.104698731047228,0.00344640554272412,1
0.105105738699046,0.0034163763154686,1
0.0990008755426493,0.00385479611300869,1
0.0893473667592234,0.00364217186405833,1
0.0916824749527306,0.00337766351515862,1
0.109974815508447,0.00418304143988301,1
0.105371247065325,0.00486304777461265,1
0.0967631460246351,0.00525380205464718,1
0.0828913880799501,0.00872172470307946,1
0.0471132010758879,0.00571744265801967,1
0.101411411799849,0.00902343712675778,1
0.106823205051439,0.00535994856779264,1
0.110633759246871,0.00481014315841336,1
0.115522421083743,0.00461342338723348,1
0.112748314596858,0.00482692886180542,1
0.0965513994369596,0.00403217294145558,1
0.0793983011096902,0.00257007115933605,1
0.086820664649587,0.00233011936754659,1
0.115844507952487,0.00314452579550248,1
0.122448630964954,0.00251738281981827,1
0.0998872747510815,0.00111973337541011,1
0.116174360844382,0.00164199024498617,1
0.126333603267224,0.0012622955700767,1
0.137342018641688,0.00184437123823965,1
0.140994556999114,0.00162312828830772,1
0.125053504681892,0.00118638699146034,1
0.125694153191471,0.00139879148053646,1
0.143737705557629,0.00197531933472898,1
0.174337812797968,0.00317712686210872,1
0.160248413420082,0.00429918678869948,1
0.121911020529761,0.00406066223378459,1
0.129124837449752,0.00469828497972523,1
0.121462965831288,0.00848778649369648,1
0.0453073568483585,0.00407551701784108,1
0.0300944260040245,0.0060358889467294,1
0.0207840328229342,0.00453809175307794,1
0.0106646000564423,0.00234192284273806,1
0.00977812453693846,0.00276803897692138,1
0.0105434549032986,0.00293441950461081,1
0.0105774718510351,0.00289496365765742,1
0.0107078564421835,0.00293727327301524,1
0.0116084700790108,0.0048094699766257,1
0.0134283959142342,0.00448819397506204,1
0.0315689780942507,0.0149209700055717,1
0.0421820998683459,0.0129565698071635,1
0.0401410846635439,0.00967053101173718,1
0.0415168929470833,0.00776422323436458,1
0.038236194679116,0.0071008794714327,1
0.0397598858563929,0.00657971478943771,1
0.0333514730891031,0.00526016438383297,1
0.0266853458319795,0.00372082711537988,1
0.0235982277384902,0.00324917794125401,1
0.0229903032675164,0.00265767021223637,1
0.0262433009214725,0.00158014154763646,1
0.0305787713287486,0.00198641987853591,1
0.0283915216599442,0.00148645975802228,1
0.033209918675357,0.00196568317608306,1
0.0374033050699735,0.00206536914516983,1
0.0375068385063641,0.00200288062011393,1
0.0347624185072775,0.00199087014897317,1
0.0543043649312651,0.0027863702410942,1
0.0658138904095501,0.00114375533026757,1
0.0754140995275692,0.00171624018472408,1
0.0738060796278506,0.0017621040261799,1
0.0727743465633554,0.0014094860772117,1
0.0707534247565075,0.000638712393642789,1
0.167104399353345,0.00290771869200028,1
0.199135165626495,0.00225555985854258,1
0.200949707588036,0.00214182045200064,1
0.217297897089946,0.00202897203845535,1
0.223422122068213,0.00230727353688488,1
0.214647416069029,0.00300335790144441,1
0.177237028689922,0.00231539771201564,1
0.177895111956012,0.00185027301519753,1
0.227913779299207,0.00290698639778005,1
0.220020652050624,0.00233078411437653,1
0.186437475679764,0.00258223560359016,1
0.178102262466201,0.00339301648518579,1
0.181324199371385,0.00415320951091802,1
0.179565217795605,0.00534659090020948,1
0.144454604096822,0.00366492812765019,1
0.153804727006985,0.0039452270806005,1
0.123876024891532,0.00177656502558079,1
0.178212456626058,0.00250246788236865,1
0.348316486019419,0.00559560003568024,1
0.412899005126795,0.00670785066075094,1
0.408506209915522,0.00343776874655359,1
0.422138522139461,0.00345941906816283,1
0.423764475477116,0.00339020999412103,1
0.466999166689457,0.00384490228517192,1
0.466847332079095,0.00410110532827382,1
0.402222235021238,0.00352670785073455,1
0.395843201830156,0.00462739744575953,1
0.36384637539389,0.00525970970996307,1
0.189771075821106,0.00228460167419749,1
0.0962309384519278,0,1
0.215331808274222,0.00360764055424225,1
0.218108534298933,0.00179073657139098,1
0.228346617314198,0.00153558206177483,1
0.218476932153631,0.00136084826748262,1
0.226268835481833,0.000903170458278406,1
0.301838908248089,0.00169304526008442,1
0.312391937300884,0.000668086569111853,1
0.415488041319724,0.00161200677389521,1
0.427882360753677,0.00126075939194725,1
0.436882969708848,0.0015782191212112,1
0.404477997217448,0.00130241727117894,1
0.449127101096764,0.00268105649485911,1
0.444621962939436,0.00258403337349505,1
0.393876733672983,0.0016441766934824,1
0.407842184826883,0.00294478113172956,1
0.373314256776112,0.00177046456028347,1
0.356721895479428,0.00440202209571812,1
0.181099214137133,0.00162056050712859,1
0.117553830227123,0.00200973022985229,1
0.13448376441797,0.00227842112815553,1
0.157809147821818,0.00304596562685869,1
0.180409069708458,0.0034061093901057,1
0.182773392249724,0.00429587363165989,1
0.169304609176696,0.00448555967978115,1
0.169981598134393,0.00451933990967447,1
0.142499032297755,0.00738003733501442,1
0.0755690723027779,0.00499073211791717,1
0.0678064019190279,0.00353294818225464,1
0.0757219329735117,0.00347891123669487,1
0.0851649127914853,0.00453541512270057,1
0.0798164807067907,0.00415275437931534,1
0.0668221750454641,0.00340840493619185,1
0.0681791309769763,0.00339868142891525,1
0.0718622068294853,0.00382096345427644,1
0.0648267503661133,0.00312479009721765,1
0.0603399480150117,0.00483664496891112,1
0.0413052994589221,0.00348365847616957,1
0.0284859111117679,0.00316755025843801,1
0.0243529126795637,0.00299037761756597,1
0.0236992166499145,0.00252498237345669,1
0.0325401191233153,0.00228692006080326,1
0.0430988745114124,0.00289373604650733,1
0.0586282459150509,0.00558665831217472,1
0.0713749731425301,0.00640801163940543,1
0.0824866195331638,0.0074750396491807,1
0.0927834064560652,0.00819898689726321,1
0.0915748297529282,0.00534182197052173,1
0.0938955481354625,0.00514078210042872,1
0.0923452051910716,0.00489704207147168,1
0.0831602743456615,0.0047999485344823,1
0.0399172551332329,0.000864142931184896,1
0.0771716104016751,0.00384529530817949,1
0.082091982956895,0.00176178307157385,1
0.0959168846398759,0.00212380911262293,1
0.119889318683461,0.00292447613521009,1
0.139663781241841,0.00331505747047189,1
0.150407806397545,0.0048683083181797,1
0.131341051021862,0.0037750367175115,1
0.136180288630284,0.00459134234968736,1
0.145634939494003,0.00477858537715568,1
0.130143014066186,0.00896524536834625,1
0.0375255416786686,0.00211108085458407,1
0.00445079685926326,0.00364883514885,1
0.00298583481220429,0.00432462430830995,1
0.00308691235568246,0.0042118682098261,1
0.00307900260506993,0.00351558927008052,1
0.0108653872550445,0.0013936575392612,1
0.128444163370363,0.00778669148906468,1
0.196470045113127,0.00642704599884831,1
0.198310230024542,0.00688385624135026,1
0.190985887427947,0.00614137740274885,1
0.182082877664825,0.00581826180866536,1
0.165514357058313,0.004692075494573,1
0.178680910499027,0.00463258060605231,1
0.161872942858649,0.00246710750917201,1
0.140337038841246,0.00198549151014884,1
0.128617446633985,0.0017730245917654,1
0.0986875333906248,0.00166025767808853,1
0.0800626382904636,0.00157789318950997,1
0.0807366012223765,0.00110372200794456,1
0.08347999498563,0.00144941002318128,1
0.0745460402902236,0.00104942096629259,1
0.0648169436958976,0.00106771509123885,1
0.0424567059866919,0.000239303771395306,1
0.036360614629228,0.00233647759479138,1
0.0281756179627035,0.00165900247888683,1
0.0243252750322247,0.00295551098164793,1
0.0134394308746077,0.00185683753158992,1
0.0114838921169256,0.003205516292133,1
0.0102021868504439,0.00743529265077554,1
0.00332411428676776,0.00290419355971131,1
0.00503865624207497,0.00548790534583426,1
0.0052130442805821,0.00384422009894445,1
0.0151210034253672,0.00362046276234568,1
0.0428692830928816,0.00618050527712671,1
0.0434563515044152,0.00477939190233575,1
0.0486465281679383,0.00519101939241942,1
0.0536209663977988,0.00334891153007867,1
0.0713768473143713,0.00442637900515827,1
0.0717432899699387,0.00332933933273596,1
0.0721356006509561,0.00284929870252862,1
0.0625498466354716,0.00225279248718084,1
0.0556408743837231,0.00205050563640929,1
0.0531807588627024,0.00307960893333993,1
0.046226308454538,0.00222616738772654,1
0.0618590476153042,0.00375477201172412,1
0.0695552637659754,0.00359323877784242,1
0.0664991956580917,0.00481895659896666,1
0.0459029877875586,0.00324299259406169,1
0.098966066735145,0.00589522265249069,1
0.132818197253178,0.00539600921519981,1
0.141624557392125,0.00618063725609883,1
0.1465736100288,0.00584014461328339,1
0.15217001278191,0.00567990991224938,1
0.143221291434899,0.00608307462057893,1
0.103949789844116,0.00439820602194289,1
0.0706098332882338,0.002999756788998,1
0.0699835164400901,0.0019987313226665,1
0.0732447507433103,0.0024410470066648,1
0.0780245021078939,0.00381131033615422,1
0.0712931464719801,0.00458916921273117,1
0.0822301328207076,0.00367608366604029,1
0.0976962204303314,0.00426232690178727,1
0.100069076124123,0.00368307328566628,1
0.10059994273172,0.00364724242792618,1
0.187124801676273,0.00482541011824699,1
0.176153225606627,0.00350443677253829,1
0.159710291296104,0.00315518618347419,1
0.197541512716095,0.00384946752753935,1
0.213388653195878,0.00424963895796223,1
0.238797512904388,0.00490551250776938,1
