Activity,Complexity,Tag
1.61907805657079e-07,0.23026761002527,0
5.28423147991014e-08,0.149618427214764,0
1.05362164291612e-07,0.189997039630282,0
1.03224519276642e-07,0.186185583138748,0
1.01437311558812e-07,0.186944247342307,0
1.0941052873603e-07,0.194236576251411,0
1.1135701931693e-07,0.19344631775712,0
1.15492074434469e-07,0.197675272415389,0
1.23823903029389e-07,0.208714642442838,0
1.23223967575266e-07,0.207015152139364,0
1.26251841812222e-07,0.200959844673888,0
1.80984628219195e-07,0.248969927754404,0
1.23172748085871e-07,0.208152233866799,0
1.35222751649646e-07,0.217163168507676,0
1.49831479925254e-07,0.228448396732923,0
1.65621181142302e-07,0.237767616837796,0
2.18949668635037e-07,0.270804514397617,0
2.11287068039191e-07,0.251502506961209,0
2.4897883785568e-07,0.27484509340621,0
2.8324752595481e-07,0.27263758979567,0
2.98958260667709e-07,0.277105461316838,0
1.90707707132225e-07,0.228245664969756,0
2.01897778214448e-07,0.226382731531073,0
2.59745279515361e-07,0.245685805629131,0
2.89557947028997e-07,0.258707962639027,0
3.00234323378628e-07,0.270934832297388,0
2.46570771934764e-07,0.238210157279295,0
2.60187431945049e-07,0.259400516078184,0
2.43121068081629e-07,0.235649587317499,0
2.10912108380364e-07,0.23580570137781,0
1.72485042672916e-07,0.228887122686066,0
1.64640286674812e-07,0.226540488696532,0
9.0491864158007e-08,0.184846166348631,0
8.93558113836946e-08,0.183881670818422,0
9.15905709503005e-08,0.179075801237678,0
1.04991329189033e-07,0.172228759538271,0
1.6509773745858e-07,0.221912842830038,0
2.07349991621512e-07,0.238075694565925,0
1.82201897255609e-07,0.234911503835255,0
2.20622363673062e-07,0.24251229048428,0
3.35937082188906e-07,0.288661260367047,0
3.49306418808228e-07,0.288686851078857,0
4.27316325875492e-07,0.315346285826526,0
3.97311754008468e-07,0.289752991365557,0
3.44326954539013e-07,0.270457701810022,0
2.81410148634629e-07,0.254908906005747,0
2.85079428863973e-07,0.252385058688607,0
3.57582153438188e-07,0.284448691995998,0
3.67645245769842e-07,0.28449389150952,0
4.59052236471181e-07,0.33541880493215,0
4.23848623958732e-07,0.32334361914711,0
4.06383378010254e-07,0.328691891589834,0
2.02322232548239e-07,0.242331925231471,0
1.29649276288918e-07,0.221127834100845,0
1.29516165610034e-07,0.223830028809191,0
1.01570572221559e-07,0.204182617119976,0
1.13677269685748e-07,0.220382700861111,0
1.1892842972375e-07,0.218460306100187,0
1.49132555121201e-07,0.248580732677052,0
1.38108366192043e-07,0.228387969059698,0
1.92014141575509e-07,0.258268589736797,0
1.87646911437224e-07,0.234201624483705,0
2.94788709261559e-07,0.281540660955796,0
3.71658513990194e-07,0.291972605726379,0
3.99157155465349e-07,0.300245465450156,0
4.46499262021056e-07,0.319681164777781,0
4.66252061856104e-07,0.326515406754625,0
4.5906790978492e-07,0.3310010517987,0
4.05358388286885e-07,0.321477835660913,0
3.85849987157459e-07,0.343655485381734,0
3.16064220271102e-07,0.322556389719433,0
3.64193442142617e-07,0.344999461940005,0
3.12939831417964e-07,0.345741522627343,0
1.82614952815773e-07,0.279739193708226,0
2.55221766191278e-07,0.329016926037959,0
3.23915575559201e-07,0.374598485490736,0
3.28526754451518e-07,0.371111505669467,0
3.45537924253159e-07,0.362571751077443,0
3.74820173833419e-07,0.355156542391618,0
4.5815113341909e-07,0.374284694604026,0
4.61056995783063e-07,0.370408292583616,0
4.1879536762866e-07,0.370796583428499,0
3.30064089052707e-07,0.316492293360786,0
3.03528568957214e-07,0.302213730792057,0
2.90066092358639e-07,0.287178777957868,0
2.39731807725497e-07,0.251688410976344,0
1.7872099675886e-07,0.221455322898459,0
1.34397840400228e-07,0.208918521211493,0
1.27532778998705e-07,0.204260895011673,0
6.64832721952779e-08,0.156041715172354,0
5.01188328131811e-08,0.145178914558949,0
7.98820056518523e-08,0.167609288731735,0
2.08909148874845e-07,0.245352893476013,0
2.01119961898178e-07,0.240700996051688,0
1.98116685014841e-07,0.249808117005498,0
1.63936862354853e-07,0.236571095833475,0
1.68410506044312e-07,0.242379971114215,0
1.64674782963424e-07,0.225712537324327,0
1.29063739285694e-07,0.20777996239538,0
1.59818305462302e-07,0.226248574724315,0
2.05913071216958e-07,0.253991241080303,0
1.95754439164235e-07,0.260236523918321,0
9.28898061681342e-08,0.194128091062846,0
1.21985100862504e-07,0.221267073704769,0
1.33293884172711e-07,0.233367387385011,0
1.81373986328921e-07,0.257115272985118,0
1.83459886910972e-07,0.249107265970177,0
1.59871024790334e-07,0.234776924239016,0
9.88504648725673e-08,0.184975635603822,0
9.5040199811504e-08,0.188662255468955,0
1.31636262512971e-07,0.209836951667424,0
1.72785910303158e-07,0.239532083535757,0
1.56512961077815e-07,0.226298940105684,0
1.57830644310863e-07,0.239201964355088,0
1.82051013488898e-07,0.266313507730474,0
1.40654492259339e-07,0.240461289176346,0
1.312283813961e-07,0.234590922664982,0
1.18289498465109e-07,0.238715308910156,0
5.55375248267463e-08,0.185030230867668,0
3.17332108861458e-08,0.153983644349363,0
3.77995332224361e-08,0.160925781523037,0
8.40631808074267e-08,0.207438240038121,0
1.41364590861225e-07,0.237354993833543,0
2.51968316223572e-07,0.280131244379041,0
2.66891710644867e-07,0.267138677293295,0
2.59896838209459e-07,0.266373896112727,0
2.83117039993539e-07,0.274913559821684,0
2.94260841053863e-07,0.265253005278102,0
3.50637900556721e-07,0.283833894506925,0
4.27629417190612e-07,0.308222061609831,0
4.75097510191685e-07,0.314176418692416,0
4.06686870358108e-07,0.296567030717109,0
2.74810858639282e-07,0.251382316775117,0
2.34327289187035e-07,0.253656132451034,0
2.34910951391964e-07,0.257615363431447,0
2.24317366135002e-07,0.251041330305427,0
1.40012561323428e-07,0.202357920284199,0
1.290236186022e-07,0.20297221473277,0
1.42693747859833e-07,0.219604996994568,0
1.36213845019857e-07,0.217702806429372,0
3.10929147743472e-07,0.226032702588389,0
4.05036132957703e-06,0.489682991119008,0
4.58666575463692e-06,0.370033069141593,0
5.74269577963628e-06,0.241899966613193,0
1.75687734351606e-05,0.318411620162827,0
1.81077234255893e-05,0.288546641220295,0
1.98453569770072e-05,0.30552044878996,0
1.82451095444866e-05,0.271019021244762,0
1.75390686060449e-05,0.276708599094671,0
1.67159351903529e-05,0.274068901455378,0
1.62938416025733e-05,0.281229025671687,0
1.73921258153312e-05,0.315596660155041,0
1.66276055685635e-05,0.336123567381165,0
1.70939863165745e-05,0.416630111324219,0
1.76989268072149e-05,0.464663663454563,0
1.75599433601711e-05,0.450169123788545,0
1.55422934601624e-05,0.432702014508796,0
1.53193772432804e-05,0.474865665204397,1
1.43676696356334e-05,0.430935873867077,1
3.40484100234162e-05,0.237268508885791,1
7.66459042426491e-05,0.281337119027261,1
7.53614893053304e-05,0.250014351497847,1
9.70628164271537e-05,0.252074473671809,1
0.000172425270728662,0.295861091549833,1
0.000188052118266817,0.176659674419681,1
0.00017608937711465,0.176192646301473,1
0.000174763649122122,0.130007399831145,1
0.000160588430831026,0.0937272389998103,1
0.000139482093820385,0.0829089129828839,1
0.000135416959380218,0.0878215842940267,1
0.00016014129781219,0.0925071074189837,1
0.000179528154418352,0.0996363392467752,1
0.000242227579635297,0.101742201343084,1
0.000375960210779082,0.118291344293759,1
0.000405451183528227,0.0865181779635908,1
0.00110636867019202,0.0670118486874589,1
0.00116600388593124,0.0368981057649053,1
0.00118176852446974,0.0392015875513173,1
0.00116122064465078,0.0391772064648022,1
0.00124497091052411,0.0415454752151746,1
0.00140075130571725,0.0455586393535885,1
0.00153702245207217,0.0474779402711494,1
0.00162028197666839,0.0522292671567175,1
0.00153564024578103,0.0513875268144467,1
0.00150826781692691,0.0624123827422783,1
0.000366296295700731,0.0530001046524749,1
8.17161493199362e-05,0.217117351283045,1
0.00017091867981982,0.303937478553609,1
0.000463581905357999,0.403309289839159,1
0.000752670131498344,0.23189907566003,1
0.000917406085380509,0.0406871288678926,1
0.0065308772211675,0.0443785209515685,1
0.00748542335922266,0.0204449299539714,1
0.00717965640296414,0.0195793925515698,1
0.00658326845867212,0.0170751615748455,1
0.0059099621741983,0.0154896724926088,1
0.00546140508864943,0.0144093426723618,1
0.00538639475446401,0.0137931844393247,1
0.00592872576326059,0.00978359317355339,1
0.0133829587585433,0.0167812531745073,1
0.0461507305901082,0.0195916397745694,1
0.141406238894894,0.0360797583052231,1
0.22781073546548,0.0583615308388874,1
0.257154783691945,0.0766573897389361,1
0.251161657379513,0.0570110452104021,1
0.220720014757399,0.056044357422399,1
0.18104484671363,0.0352252284036992,1
0.150552476309894,0.0278900732074365,1
0.138623459836429,0.0270176507173224,1
0.130191034589431,0.0269096216594781,1
0.138688953894852,0.0376241506234378,1
0.130240187999512,0.0455586288413448,1
0.0944138867004021,0.0367987419180159,1
0.0708419373805483,0.0284174145697393,1
0.0498147847082196,0.0238978238511087,1
0.0337176394625964,0.0190844933242387,1
0.0105673594171733,0.0128326131276005,1
0.0100406576883531,0.0193813481997254,1
0.00953829755991802,0.0197496005647431,1
0.00591272666297238,0.0155344119427052,1
0.00271057991862851,0.0171493720659186,1
0.00297738406831889,0.0157594831068122,1
0.00347770887035577,0.0236221421780421,1
0.00549818853331584,0.0301763239205742,1
0.00612576534155923,0.0131908826795521,1
0.00883833179023586,0.0182971634512115,1
0.00931805099378864,0.0186044891003479,1
0.0111918381227354,0.0211910255221618,1
0.0124237451192804,0.0138515217948533,1
0.013261808534683,0.0150770953282774,1
0.0138060274870344,0.010848823515369,1
0.0213829828903542,0.0197247696235204,1
0.036333098860855,0.028765799857209,1
0.0427315485062203,0.0320801140986386,1
0.0426264103687011,0.0333432511830818,1
0.0426700836749008,0.0303239062687947,1
0.0432528255735191,0.0311111812481909,1
0.0436709397197641,0.0281634541295353,1
0.0420745967617437,0.0348331780822966,1
0.0542908960155924,0.0298329859893283,1
0.0699312596255799,0.0266834603255533,1
0.0696004299636187,0.0217854837794453,1
0.073128461626394,0.0143114431556412,1
0.111308418886255,0.0236235646637569,1
0.139788561196787,0.0327522497183626,1
0.161368574164037,0.0425511377458665,1
0.153422708474325,0.039983341639335,1
0.117724226957561,0.0350684697929228,1
0.100563382568716,0.0304368143751618,1
0.104371051474719,0.0350737124126657,1
0.10762423393998,0.0285930522259617,1
0.0638328686580905,0.0180874256811807,1
0.0314100011622453,0.0109355704514833,1
0.0370867869736307,0.013040697529436,1
0.0526786333982619,0.00971042681103612,1
0.0733680244187286,0.0082338888990291,1
0.0805361888430671,0.00735197658848535,1
0.0817131326587178,0.00713598068225672,1
0.0829082657774671,0.00684351323830765,1
0.0904165474148125,0.00869200237956411,1
0.0892695441900124,0.0109834472187771,1
0.105511296206602,0.0153498543279588,1
0.0977365427058912,0.0149099615375025,1
0.109675680592087,0.0156597227667459,1
0.134160363223431,0.024727354170796,1
0.159577623072448,0.0461851931863331,1
0.122276120816238,0.0553925246705209,1
0.11360519111554,0.0535769073280696,1
0.0807501454246236,0.0462072418628649,1
0.0709330662093015,0.046561254309913,1
0.039837038962694,0.0295621431266834,1
0.0301038295971795,0.0222091827823366,1
0.0116146983165124,0.0125478222622939,1
0.013811949292719,0.0236363342427247,1
0.0126332107236623,0.0239382057240124,1
0.013481243992053,0.0279573477828293,1
0.0148373243880007,0.0298051828509186,1
0.0162850133786096,0.0402057618185466,1
0.0123094665582864,0.0319252630246437,1
0.0108626293710337,0.0260451378860148,1
0.00625004749628621,0.0223621377433115,1
0.00274112852216423,0.019655700294395,1
0.00375389198835636,0.0229702793978158,1
0.00403870210626997,0.030127950663382,1
0.00306949328646895,0.0221882285958646,1
0.0030496411847176,0.0211339893418286,1
0.00288894924012342,0.0191616900438382,1
0.0031635559878226,0.0196432844878352,1
0.00487145071560711,0.0263901454410919,1
0.00552552450589222,0.0167245206709797,1
0.00611862309497951,0.00211547375159305,1
0.022922992750642,0.016809754727626,1
0.0225402045538725,0.00963812397632447,1
0.0215656551861255,0.00780511582460097,1
0.0236049305820896,0.00910641848538542,1
0.0239695224117455,0.00909538805310097,1
0.020698961709775,0.0065045012348033,1
0.0265524087521004,0.0088202391787454,1
0.0321699168950287,0.00999506188339495,1
0.0324389392086462,0.0077036556751965,1
0.0510144042204116,0.0162394980840491,1
0.0630568647222304,0.0198623206675189,1
0.107323929166406,0.0342173562785235,1
0.107948912029002,0.03043020794055,1
0.11409549911469,0.0278518168387745,1
0.0973924413529551,0.0224087831404407,1
0.0860438657642209,0.0170528516238681,1
0.0731872855168721,0.0130457387300186,1
0.060406655344179,0.0108621684297443,1
0.0395469258011245,0.00801088501386798,1
0.0600893991725225,0.00753876012832718,1
0.114074596225466,0.0163286883579987,1
0.118656492506366,0.0139476067414586,1
0.125823631397965,0.011646915503804,1
0.153643686414943,0.011986279215915,1
0.167841814242346,0.00969411935184838,1
0.234068176814226,0.0139962553598946,1
0.258268446030401,0.0155269594283674,1
0.254511481945365,0.0142786207285832,1
0.249172085587161,0.0152542717368949,1
0.25715774201904,0.0126650850319593,1
0.317096676038513,0.0175308084603733,1
0.335285148461676,0.0136732199303325,1
0.332056811007889,0.016554368987967,1
0.299481176672428,0.0156592530608762,1
0.301439386665535,0.0207150519912781,1
0.247140420751367,0.0170911755261919,1
0.221239211811207,0.0145045486729133,1
0.222507772895086,0.016169055698731,1
0.245252080864748,0.0144188991137169,1
0.248290590054535,0.0327838448098166,1
0.0933609997663401,0.0132413153518948,1
0.0320576297211602,0.0142561572460477,1
0.0287909113376023,0.0124071934473128,1
0.0313348247229558,0.0121668893185949,1
0.0430314259973648,0.0102948611782477,1
0.0592553488449847,0.0185701900943749,1
0.0680611448151606,0.0210068258603878,1
0.0744960559360324,0.0216342789439192,1
0.0909905384131229,0.0291870872154303,1
0.103050250023154,0.0374119762552334,1
0.106757708005429,0.0362126718284005,1
0.107115974877574,0.0361533355947865,1
0.08372231829558,0.0288668095974691,1
0.0231267369808753,0.00662223698205848,1
0.00653752531171249,0.0229211606358836,1
0.00655111052618094,0.024401633653439,1
0.00346463717191414,0.0218830051872629,1
0.00193199966757405,0.0514378582576815,1
0.00249647013230503,0.0677848654159782,1
0.00239299141385218,0.0554041462986928,1
0.00239119094906065,0.0598432796184012,1
0.00257558608697481,0.061266953349384,1
0.00269897000371646,0.0512552753171586,1
0.0138324520808643,0.0328988028020525,1
0.0238910860803814,0.0360399838293143,1
0.0326104838674931,0.0439597743797742,1
0.037455434324361,0.0469406117244582,1
0.0366698865285311,0.0384231411410657,1
0.0292171882477065,0.0311503470112155,1
0.0283305743067346,0.0210005450770465,1
0.0372214227758041,0.024979151037675,1
0.030771687797752,0.0121417010665079,1
0.0236984980556238,0.00940717488800472,1
0.0232065080308646,0.00964631811955496,1
0.0252501232494407,0.0129219034298194,1
0.0435549484462375,0.0183229068649191,1
0.114812111055994,0.0202568707315954,1
0.246097730268014,0.0406148534448858,1
0.269795291609092,0.0413167892069064,1
0.260833271388076,0.034623903623063,1
0.26508811213099,0.0305963857169819,1
0.252796982160631,0.0349790416553602,1
0.193578770020006,0.0247344850275067,1
0.255863737738245,0.0246087954036552,1
0.240460113728283,0.00576728909385902,1
0.238341429455564,0.00701377070237936,1
0.306106679371001,0.0128314744857317,1
0.372722175906522,0.0139815489888945,1
0.375194723255482,0.011001356066919,1
0.380378541697759,0.0121776604273073,1
0.376832060720759,0.011074674544321,1
0.386691331982447,0.0113299114427065,1
0.383115250934586,0.0130886901772611,1
0.229495847018511,0.0078757400258439,1
0.157532866011346,0.0162753627382971,1
0.170196274366104,0.0155528342780744,1
0.137204797807417,0.0158450808502521,1
0.0845928581609051,0.008414925568689,1
0.119613330742219,0.0222620334027134,1
0.114362896538002,0.0201601109589412,1
0.122070085572666,0.0265393903149235,1
0.138142550658429,0.0314977297246431,1
0.139783436174978,0.0332067912782859,1
0.146514438418337,0.0468296690867687,1
0.0904115142089253,0.0390460081269298,1
0.0397863741469221,0.0192889729090892,1
0.0372861086992726,0.0145368323683452,1
0.03288444846498,0.00691378530850713,1
0.0356696814551061,0.00479283373784288,1
0.0471583170807559,0.0100644624016484,1
0.0583987742231665,0.0142031717849372,1
0.0716047996534191,0.0171290049152039,1
0.0718241689409082,0.0174122676235734,1
0.075798634232391,0.018431886270914,1
0.0638774763673596,0.0160571249800918,1
0.0518987845770904,0.0139219140310597,1
0.0520604069526563,0.0148053950540658,1
0.0255587243735267,0.0187568148498319,1
0.00425135314376237,0.013819859629997,1
0.00385075821658406,0.00796750639166608,1
0.00449181774324824,0.00993645494688293,1
0.00480190160105979,0.0105861034603798,1
0.00494281881645327,0.0128862487572775,1
0.00437955195422906,0.0139259309722716,1
0.00388083288730928,0.0159856829533607,1
0.00394622301583874,0.0173718473924147,1
0.00857844692696305,0.0218557490353903,1
0.0146495094130451,0.037297537439185,1
0.016552990362892,0.0456928462510765,1
0.0355816881850293,0.0331221930484681,1
0.0465829187950277,0.0188166737673829,1
0.0415060000935678,0.0169856801383433,1
0.0352841764107369,0.0136114043300596,1
0.0306513065092134,0.0114109429341034,1
0.0289657178767849,0.00662129138682285,1
0.0401301544458997,0.0103443172890352,1
0.0506621455914509,0.0140891001641911,1
0.0668480646174773,0.0147773795178502,1
0.109184840777154,0.0199086846337287,1
0.108894491427071,0.0197709700403187,1
0.150042603523181,0.0270388617180129,1
0.16083405057778,0.029117132764462,1
0.167687016107674,0.0323960757151272,1
0.143540856543173,0.0284352391734578,1
0.107859948322232,0.0238414016796559,1
0.142528439294857,0.0231859476493855,1
0.214192104724222,0.0259390142534003,1
0.182382554134516,0.0166766127586638,1
0.18123404596143,0.0182136383781472,1
0.134528481840997,0.0151986068678823,1
0.126790820230817,0.0163174560144802,1
0.132506014012115,0.0175662099141214,1
0.158190456609164,0.019986632996745,1
0.167949071662356,0.0132145572407729,1
0.234615254584628,0.0166988685310595,1
0.271361858528058,0.0135529925330048,1
0.215154231803259,0.00972361344507896,1
0.22607762961681,0.0124719851323405,1
0.2218314366429,0.0108423229984736,1
0.213993394115107,0.0088307015742426,1
0.232817372531503,0.0104392757854391,1
0.266070416198949,0.0115529623068336,1
0.204962214632375,0.0047779009408508,1
0.204118372627055,0.0074983995583491,1
0.183652532154274,0.00778229909440115,1
0.180454322161783,0.0135521539764936,1
0.190105291235969,0.0171084257132668,1
0.282538015480075,0.0262600196384705,1
0.341552139621527,0.0309530231913395,1
0.389030762021362,0.0476498683884367,1
0.393927897410456,0.0491933926210746,1
0.269798468414006,0.0470066465672018,1
0.197607691343696,0.0544017415775975,1
0.184589230910069,0.0596446014256275,1
0.108088938323148,0.0513025961982317,1
0.0836729643946443,0.0486439190254733,1
0.0601721749460646,0.0403833992116884,1
0.066089045266479,0.0553613627968884,1
0.0569622915111961,0.0752331795643372,1
0.0404669385511591,0.0608318686558739,1
0.0285401301730554,0.0507057328788863,1
0.0234213325148202,0.0521395791975206,1
0.020537518777903,0.0721491424668781,1
0.0122227937812403,0.0469518368179724,1
0.00318368382733286,0.0171931753143429,1
0.00137203830631748,0.0201084930077768,1
0.00124939927521005,0.0159802911338978,1
0.00120124947615239,0.0181946736224716,1
0.00097159821745542,0.0132459722990846,1
0.000948107810367197,0.017229560824119,1
0.000978408643935006,0.0205689059042098,1
0.0010430028351728,0.0221012949822937,1
0.00100085424048234,0.0189590901275075,1
0.00297313280847858,0.0271283636394394,1
0.00477310191863608,0.0371740080981806,1
0.00792645652473031,0.0275232276497755,1
0.0336727051913614,0.0370643781868691,1
0.0590178192767996,0.0347915867302676,1
0.0583785155487575,0.0341235802056165,1
0.0570260237106738,0.0340919667689887,1
0.0528051064976945,0.0331238052622646,1
0.057574757656366,0.0286177759649313,1
0.0499065659571802,0.0120829206857092,1
0.041618762470685,0.0108655974185808,1
0.0306514383999236,0.00804245044720668,1
0.0332377235090116,0.00520437872868723,1
0.0631103971505065,0.0142507626295769,1
0.065267097791719,0.0144810307831226,1
0.0664174304444874,0.0128333708551254,1
0.0804535962090464,0.0153128850103216,1
0.0707541756437862,0.0129763141033519,1
0.0770726845957888,0.0142924315720571,1
0.0875146990651539,0.0279388894820611,1
0.0787863816803842,0.027312710496608,1
0.0588667055919492,0.0175526261689955,1
0.0506265992376883,0.0219104134791104,1
0.0503795152953645,0.0242983725125225,1
0.0358311826407106,0.021674568190413,1
0.0274721330417698,0.0203235482518457,1
0.0275541284196481,0.0240437065094307,1
0.0289746626450349,0.0181837733713037,1
0.0351615015256869,0.0119111412536854,1
0.0484505236119173,0.0145216755036228,1
0.0475600700806645,0.00500368514792914,1
0.0750180325319703,0.0103135098965236,1
0.0780636270452613,0.0105939233350434,1
0.082947941778904,0.00823705126105304,1
0.104237878206144,0.0112372625358401,1
0.109451826190143,0.0114167501805519,1
0.110966807226308,0.0103981807323728,1
0.103290085883684,0.0101359549984936,1
0.117458505660094,0.0161460823602183,1
0.115929650646728,0.0164840714687614,1
0.110733230966394,0.0213671285573106,1
0.095504772107708,0.0179462108974491,1
0.107205678603527,0.0174705756528823,1
0.121258885077134,0.0297300913038438,1
0.0902667134217576,0.0229648114045128,1
0.0655500257000358,0.0179833273775407,1
0.0704416780371651,0.0200889368155904,1
0.0576577846487549,0.0178569245723629,1
0.0581994584099635,0.0220412640312215,1
0.0611854122039324,0.0208695511228831,1
0.0549507827454748,0.0237272198684061,1
0.0210945913689567,0.01002803039799,1
0.0181861786883667,0.0122661576415388,1
0.0235752162437719,0.0131362281036458,1
0.0380455973143087,0.0208225848784758,1
0.0416131708254542,0.0195062329424031,1
0.0539003629280805,0.0228490476551619,1
0.0706298495141654,0.0287624349481519,1
0.0771309024368706,0.0338445602981134,1
0.0539561229652926,0.0327996761718225,1
0.0366125966166152,0.0369666905052594,1
0.0300459943459606,0.0384603238128355,1
0.011329158868466,0.0178046784666984,1
0.00655517991506338,0.0125916410209198,1
0.0100895182516411,0.0205353460727241,1
0.0124619935542064,0.0244297649790673,1
0.0124443231051353,0.0513086525494612,1
0.0109159116241257,0.0402722536433562,1
0.0103765800964208,0.0366395806856696,1
0.00966225604144337,0.0304544182456415,1
0.00857030662483717,0.0256966245996561,1
0.00737620273593008,0.0232479741627351,1
0.00561428908388556,0.0197586765265956,1
0.00557089555128553,0.0235899888770072,1
0.00487037822786896,0.0240836542382815,1
0.00690520143053576,0.0359225934955866,1
0.0101319523593637,0.0430041254867042,1
0.0120267115883384,0.0593061604508682,1
0.0106658094869235,0.0543014640448223,1
0.0108157105564368,0.0397178105489323,1
0.0190038082050873,0.0516212292148685,1
0.0277623227328307,0.0383297187884215,1
0.0729069972641099,0.0522177829689183,1
0.0781879524073397,0.0192393711181759,1
0.0715959702305594,0.0166973324557707,1
0.0691236262609929,0.014626109074726,1
0.0660130594551682,0.0160743128064083,1
0.0745806674878416,0.0149039356003255,1
0.0827415054841046,0.0191878172307679,1
0.136518433030056,0.0236634024141324,1
0.179109760149795,0.0281715073924713,1
0.178804321904696,0.0271493821525965,1
0.183344154837159,0.0305483664875462,1
0.18178523773169,0.0434296716246671,1
0.136823771793257,0.038982561287052,1
0.100827979666258,0.0300468100581984,1
0.0594296066807263,0.0138227583091539,1
0.0382153149312985,0.0061098615997211,1
0.0609751738767612,0.0102227369619433,1
0.0719926693821516,0.0155940953256278,1
0.159421475303105,0.0292970211989826,1
0.193154409171157,0.0342337182275934,1
0.253385164451753,0.0355706256117447,1
0.270772069739151,0.0170540831518259,1
0.285329702533746,0.0127045556350546,1
0.401094485600303,0.0188765007860929,1
0.484327499031933,0.0217323424801097,1
0.475105545870767,0.0191115947379176,1
0.480686781126999,0.01917202603853,1
0.522063913417801,0.0201040659704676,1
0.508731241559189,0.0141413683361648,1
0.503020139750594,0.0144120682211641,1
0.412479932655409,0.011821403431788,1
0.338474085080046,0.0117096439298384,1
0.401935922544254,0.0190103393942694,1
0.3922756652006,0.0136251414074567,1
0.349845935095956,0.012678724442382,1
0.352376154624604,0.0153513343700509,1
0.327971143479237,0.0147342704162216,1
0.224234570418256,0.00939735649055446,1
0.164982786522025,0.0104058802264591,1
0.17152655846885,0.0102641514940804,1
0.160263201401622,0.00935631560913099,1
0.165038084732599,0.0133251620198023,1
0.169902419697476,0.0139704429757871,1
0.175237148294701,0.0329486890835266,1
0.0873979538961624,0.0243136771551005,1
0.0581458126154092,0.0292788129283689,1
0.035782778873077,0.0186378039254778,1
0.0192124499675297,0.0209319743092136,1
0.0241264984249044,0.0273558483533614,1
0.0167695310657029,0.0222258453592929,1
0.020178613158229,0.02709477479483,1
0.0223668360132534,0.0320459855670274,1
0.0250553932816556,0.0351349866975273,1
0.0281151492717161,0.044518871192915,1
0.0218365987186428,0.0510448684876035,1
0.0234044200275015,0.056342654019645,1
0.0206710781617862,0.0545243956330416,1
0.0149513291410781,0.0503289080541289,1
0.0133297268858559,0.0448984574287554,1
0.00528572700260978,0.0245381550902365,1
0.00410358427402494,0.0353516485095621,1
0.00501601085786524,0.0376658370441391,1
0.0107837624365973,0.0593269515727826,1
0.012103880962812,0.057681356108283,1
0.012836000234162,0.0473139356651028,1
0.0117654803754917,0.0329178174803056,1
0.0125996536252296,0.0188874445935785,1
0.0121646039345717,0.0156086029319413,1
0.00819940355249549,0.0114806674294791,1
0.00829143269366089,0.00964109474681184,1
0.0200643315519626,0.0131219619236194,1
0.0511531396502391,0.0320658380464802,1
0.0697086263873779,0.0320470122665783,1
0.069949064522586,0.0321904867721643,1
0.0721941633090156,0.0341032845717928,1
0.0582119461642305,0.026247063483084,1
0.051824008599291,0.0229234788175239,1
0.0479293122005047,0.0208263408259039,1
0.0356397632960671,0.0138531887775944,1
0.0287283887822812,0.00774274671099113,1
0.0287125065047993,0.00811455186100742,1
0.0240812501859986,0.00581065801845885,1
0.0230324763620902,0.00484986988499678,1
0.0320572230305403,0.00903893377755256,1
0.0384868008302887,0.0092189285541955,1
0.0341147278994062,0.00893960204155784,1
0.0524844899222023,0.00672829545045463,1
0.122021494390595,0.0188313046207422,1
0.119235294210027,0.0161410742715125,1
0.250425690991092,0.0234895635052606,1
0.29813530048398,0.0157172922233443,1
0.2438311558969,0.0143946274272665,1
0.222183133173361,0.0132361323579449,1
0.211226340515046,0.0124027121261645,1
0.185515553195673,0.0112814486569535,1
0.123069936528264,0.00427750651154395,1
0.133116484771364,0.00679976758089743,1
0.137340272679316,0.00784821295251424,1
0.132127803342058,0.00633141663691425,1
0.127314841624785,0.00992937037851401,1
0.117354116418328,0.0167836911845209,1
0.20410900797238,0.0230519419922789,1
0.272856907256501,0.0201117563483827,1
0.279270125745115,0.0153661647873059,1
0.284175768112684,0.0139795881432846,1
0.271186225881204,0.0156150540120727,1
0.266786853251268,0.0143510052257475,1
0.253200818078617,0.00745884454399678,1
0.25997668824215,0.00922682864660883,1
0.260561380027209,0.00849451081364273,1
0.257731201187319,0.00947236491630522,1
0.191353715110995,0.0070859945667135,1
0.130563649813365,0.00543570028592517,1
0.127758856925225,0.00900511272417931,1
0.136754993236782,0.011480631654744,1
0.140357136803328,0.0155190358316854,1
0.0638063363536491,0.00744431999797294,1
0.0694721635679484,0.0325535885831241,1
0.090029753484187,0.03626420799763,1
0.103334817344114,0.0599103365527842,1
0.101275406036134,0.0564312264202326,1
0.0826304866604769,0.0439617312911676,1
0.06811703435264,0.0417009155121657,1
0.0469942946357337,0.0378608759010306,1
0.0431651855630608,0.0371286737786924,1
0.0247194694640396,0.0220480084596533,1
0.0279882533272767,0.0273131276076016,1
0.0362860526896352,0.0350967045985232,1
0.0342438662252922,0.0381103055358961,1
0.0328078226378773,0.0379674903227192,1
0.0365252237055201,0.041866641140156,1
0.0256754555279509,0.0394089432891729,1
0.012632278549953,0.0246969904536947,1
0.00730636979364422,0.0199211993150343,1
0.00540367586642311,0.0161418792992128,1
0.00247089791574461,0.0132498519034171,1
0.00436515122057572,0.0119579902741424,1
0.00930765725843022,0.0191670429090611,1
0.00903908280142873,0.0173821419710285,1
0.00999228494690642,0.0234050323417528,1
0.00888990663999904,0.0185129708369885,1
0.00880771621733024,0.0182808648343877,1
0.00828163976943738,0.0164513415557444,1
0.00802850173288672,0.015014340017732,1
0.00745973546213307,0.0131428639226322,1
0.00674190719954146,0.0104989965595437,1
0.00655084234033452,0.0180234899776371,1
0.00375954246243295,0.0144630536291971,1
0.00382830824545737,0.0165371780645719,1
0.00657106972510991,0.0275495614143363,1
0.00808747157003772,0.0379760171882445,1
0.00813625746753379,0.0393115746737363,1
0.00848586472869998,0.048036418963261,1
0.00689355412367164,0.0451314327300083,1
0.00581384519831002,0.0408974117571484,1
0.00518228942728042,0.0375900744809445,1
0.00500332172866374,0.038317915646683,1
0.00368276127874475,0.0242735718251355,1
0.00581163446015899,0.0355791601585555,1
0.00829216844137823,0.0513384379079952,1
0.0101323187973144,0.0589315630402006,1
0.0106506345831367,0.0458494260126806,1
0.0128814661799702,0.0383851829927446,1
0.0132944596756108,0.0306214540795302,1
0.012067884441632,0.02915703445501,1
0.0118310624954402,0.0290484832857759,1
0.0129634617120319,0.00851622137685859,1
0.0227985098053176,0.0214141791132799,1
0.0345625598156746,0.0245724549958978,1
0.0734295637240105,0.0406200026078317,1
0.084696214829164,0.0350081101955331,1
0.0862297374224792,0.0380027794077714,1
0.090120075311039,0.0297925794757241,1
0.195545037054021,0.0315256755815442,1
0.267472073775337,0.0281175863650514,1
0.233618723745624,0.0264823599499547,1
0.21887698116184,0.0276650253895856,1
0.195534777685682,0.0176054644850144,1
0.161953323171164,0.0135142834148261,1
0.193932190901972,0.0137964141503106,1
0.247276197027464,0.016069606586839,1
0.21578556880895,0.00704183161081004,1
0.214465687483191,0.00729517091788583,1
0.210489034448483,0.0078821741467753,1
0.207119034720137,0.0094716646125614,1
0.226621596094725,0.00812831193469792,1
0.242307320154796,0.0082764112037322,1
0.240583507107057,0.00965098412808014,1
0.230036793265367,0.00998440636868071,1
0.198643531272912,0.010960521702012,1
0.0893344699040073,0.00248264719568079,1
0.081801219114069,0.00901203506981122,1
0.106253140717833,0.0116073850444264,1
0.11942938500718,0.015942873497911,1
0.0771518346006952,0.00804679664129205,1
0.0843365989132094,0.0167869400095511,1
0.0896295314312919,0.0152322428952663,1
0.0823126376771499,0.0129882358899388,1
0.0725791066406433,0.0118813415355219,1
0.0540032514835028,0.00787147506751898,1
0.0437849657326042,0.00595438300291626,1
0.0374471495639271,0.00314962795421954,1
0.0348297738135202,0.00501743379945403,1
0.0321597464656202,0.00862281582630961,1
0.0287420074664737,0.00640278500716627,1
0.0375174222996215,0.00934907758661424,1
0.0509253666954091,0.0203050966668989,1
0.0442062681566286,0.0169597149645009,1
0.0436680460757606,0.0171835135473208,1
0.0484571050706311,0.016294074554531,1
0.0525270301861788,0.0165421672133939,1
0.0514343357793997,0.0228872811823396,1
0.0560223586270296,0.0226181843497237,1
0.0651456684039434,0.0272455489888221,1
0.0558226202663877,0.0263206549470318,1
0.0583120897087582,0.0322771782256472,1
0.0637786221036958,0.0333943638743607,1
0.0593741494440615,0.0414545538194982,1
0.0393560864063603,0.0297815993951747,1
0.0321482142263762,0.0319587608048755,1
0.0209843943806343,0.026440750258043,1
0.00584087411004747,0.0112737568679344,1
0.00419339791017716,0.0138605104412299,1
0.00433180773793555,0.0212495867926155,1
0.00445665767855056,0.0284155721558789,1
0.00430791577140032,0.0305320557492021,1
0.0044540949062992,0.0316617742625648,1
0.00493175664561051,0.0297147526936679,1
0.00500472309816814,0.0252841119994496,1
0.00408692815764879,0.0214048449136535,1
0.00331260710133094,0.017120563398854,1
0.00339851288189668,0.0138786094581751,1
0.00618943172849266,0.0114850046235597,1
0.0223164981743776,0.0314964154283425,1
0.0287117807934771,0.0348035813343237,1
0.029573656007915,0.0382589509771114,1
0.0346953326763782,0.0436379385713912,1
0.0281686500618712,0.0228266823957142,1
0.02495849752288,0.0130441146917524,1
0.0540314033328257,0.0221735606747037,1
0.0555420405561328,0.0144032091918793,1
0.0445975397058908,0.0111756657239092,1
0.0482425058808116,0.0108251495183578,1
0.0556206902943619,0.0104572379573032,1
0.0561744208639771,0.0105474338578004,1
0.0583756596028231,0.0078929789279141,1
0.0705268281146605,0.0101768911906971,1
0.0714193239017911,0.0108816417970061,1
0.0721059413579421,0.0156401621104847,1
0.0445806203352127,0.00819046820834331,1
0.0313358896921529,0.00681861565694749,1
0.026841742197658,0.00474186518321742,1
0.0252691486849064,0.00756248283818282,1
0.0224565633545399,0.00993081004174935,1
0.0184632631110726,0.00853109969094193,1
0.0452685300819537,0.00569811428176072,1
0.142190270200505,0.0210660714073578,1
0.149672064387059,0.0195086453960493,1
0.212920327438119,0.0203111249885573,1
0.329250729587679,0.0265856504091204,1
0.339670626741803,0.0270645884363288,1
0.317238693511457,0.0265231239127396,1
0.278056122144854,0.0241010055483051,1
0.320891359436176,0.0169304159318032,1
0.386593340045082,0.0206812703030917,1
0.388007646016479,0.0230892260130072,1
0.478142626224055,0.028299463354658,1
0.44780086158114,0.0231781828191489,1
0.404862382929752,0.0243819802719142,1
0.399157146147976,0.0246593514621819,1
0.385489348357105,0.0148927313592285,1
0.579758979874154,0.020762492814913,1
0.795015763587229,0.0256633089554759,1
1,0.0591624933901648,1
0.932148029107353,0.0333421452461496,1
0.842453080813732,0.0301549219901128,1
0.674489209162778,0.0293286798088728,1
0.451681151502341,0.0212743718491764,1
0.371317907363492,0.0163881230285304,1
0.228693863689448,0.0082657823090426,1
0.187761689848241,0.0168023690053711,1
0.180072768672598,0.018135952428209,1
0.153387957213145,0.0121062867024059,1
0.128120523992,0.00982532892297899,1
0.130052253812582,0.0234299225874912,1
0.0918861989098686,0.0168192571681697,1
0.0749556682189243,0.0131903506372343,1
0.0377082952181789,0.0063320991808091,1
0.0358431902096399,0.00905029588494912,1
0.0359737769624675,0.00926478438011095,1
0.038534286739048,0.0100292543442324,1
0.0269879881999378,0.0100991922773619,1
0.0181469580185165,0.017623468068149,1
0.0188104184100156,0.0238283888299912,1
0.0176443441632794,0.0334010431302613,1
0.0179753128449837,0.0299709385765251,1
0.0211782731876692,0.0417382163058027,1
0.0281723299838306,0.0542252756051198,1
0.0301457431949028,0.05184141170379,1
0.027333079150305,0.0582627195850025,1
0.0176735605049255,0.0347464628487741,1
0.0133986430783981,0.0268719519489159,1
0.0129348306609654,0.0261342455914239,1
0.0164609613489879,0.0159751192164807,1
0.0155317938142986,0.00805876215526736,1
0.0151951837095189,0.00959272643411191,1
0.0195858579457985,0.0126785394863606,1
0.0268068042416641,0.0165747279545925,1
0.042327724827817,0.0250512600946628,1
0.0516987280175829,0.0289662797888396,1
0.055265480492762,0.0330234067605072,1
0.057428764435615,0.036057990473478,1
0.0567937007976649,0.0315463066885899,1
0.0340176731699589,0.02700375721259,1
0.0151252242178233,0.0394499641320852,1
0.0113486514556718,0.0267597718464519,1
0.0096084712330703,0.0194175974481947,1
0.010846900016424,0.0293641504946354,1
0.0103249356600693,0.0352963742498818,1
0.0077892456715766,0.0225866523819018,1
0.00613097247113438,0.0175787495459633,1
0.00548420008490554,0.0157312127607493,1
0.00415998015050331,0.0122775872714303,1
0.00373909638356143,0.0180284709757437,1
0.00285236386977158,0.0123134083117337,1
0.00395489942493592,0.018786507747921,1
0.00328102455223539,0.0157566452345632,1
0.0161706596157064,0.0179858201828279,1
0.0394067600426832,0.0281369704635216,1
0.0384895477223559,0.0262431607248684,1
0.0762134559750091,0.0216156580478296,1
0.0902195276847784,0.0130472608243943,1
0.0823966745717854,0.0115277588543922,1
0.0741801649699212,0.00976465875883888,1
0.0716861493100443,0.00625989080142989,1
0.0836064791584853,0.00829586823187705,1
0.0874517906616456,0.00892251318302763,1
0.0898956372078939,0.0116064187421989,1
0.0900705568747303,0.0119686160099055,1
0.0985997665413336,0.012741323648575,1
0.0657295578595483,0.0149510814769377,1
0.0360814834771351,0.017222004566319,1
0.0379536976032931,0.0207155379936803,1
0.0171945527584535,0.0096660206605112,1
0.01483139710933,0.0406339045280461,1
0.0173587784033388,0.0466760551661059,1
0.0192543521368576,0.0590812104918372,1
0.014502796513023,0.0625485352057044,1
0.0120979616951544,0.0586538531609784,1
0.0103578177953449,0.0527701987082792,1
0.00577098842631097,0.0564771893585362,1
0.000635279612613787,0.0686200854180071,1
0.000251960937617422,0.107051434551435,1
0.00023092352081679,0.130175634656497,1
0.000169423167694033,0.105467198936797,1
0.00013784675256354,0.0628277450993742,1
0.000215007806832209,0.0848910852176144,1
0.000835388866777026,0.0210847058758341,1
0.00570233364334427,0.0574261077261609,1
0.021358374774493,0.0696841678734433,1
0.0425087526063938,0.0523216631455912,1
0.237108895122113,0.00769937908364155,1
0.658656176345817,0.0300887580562182,1
0.708147470870211,0.030688506836753,1
0.75945876341799,0.0319038500876587,1
0.688317301264999,0.0245919419196708,1
0.589573674206186,0.0211828670305306,1
0.482625760517438,0.0160267297103694,1
0.414105358191067,0.0135175285741626,1
0.335693892148345,0.00889513223529897,1
0.255416748519137,0.00443392371436453,1
0.318728295142142,0.0145103748546303,1
0.260048383753196,0.00647391113032785,1
0.282537483592974,0.00563035604770896,1
0.279281276470405,0.00555171888491907,1
0.286918891329043,0.00623915184989674,1
0.256103152705733,0.00238546633553945,1
0.2707615839119,0.00342150601426643,1
0.280248515915012,0.00241938423803998,1
0.305679310738553,0.00312085117019882,1
0.305772930874722,0.00442266810039696,1
0.237098656305313,0,1
0.296124181971097,0.00536617680524299,1
0.366205976602611,0.00950604672636525,1
0.344341225833817,0.00804490857445909,1
0.34338202980161,0.00842411562221241,1
0.360412685129141,0.0140297222045485,1
0.236701235381424,0.00638550596339969,1
0.222032630592213,0.0094611691382187,1
0.220585249085248,0.0105378909611198,1
0.16484033123891,0.00660110788546828,1
0.166586193162153,0.0155219562482208,1
0.136207872441035,0.0108385653026715,1
0.0930617346419123,0.00723500348329114,1
0.0997216478941965,0.00914439661514399,1
0.117912429721421,0.0142347027229791,1
0.0848169287885862,0.0144902351437312,1
0.0880796315398781,0.0294644811101306,1
0.0982943786662155,0.027293313701437,1
0.0943663737273546,0.0230589340759355,1
0.0948851390148159,0.0263740091774988,1
0.0712405700981619,0.0235832501573803,1
0.0747923413748388,0.0394202698364028,1
0.0805201839959972,0.0441307653440322,1
0.0876608232267673,0.0369102325638939,1
0.0884128410442468,0.0364420419852883,1
0.0749097466400618,0.0320496050817556,1
0.0647443394778596,0.0202367698168316,1
0.0787966531764191,0.0282478246075235,1
0.100431294094055,0.0411975496386191,1
0.115537919144426,0.0427837230413795,1
0.101339305767062,0.0473593228077243,1
0.0902005101983074,0.043452305166158,1
0.073801107139409,0.0385821547317213,1
0.0454788290772977,0.0310484955391464,1
0.0401756539578715,0.0323669283695698,1
0.0204987489174762,0.0227509024535513,1
0.0171551328977339,0.0520049146198851,1
0.0176350601496032,0.0505347597171009,1
0.0158670093450428,0.0471609748170409,1
0.0126620461025455,0.0505609149218893,1
0.00468324528683467,0.0391076627586709,1
0.0029885430235238,0.0266374390028429,1
0.00197384723287667,0.0323731000281171,1
0.00199615285705836,0.0396633740535961,1
0.00131972542563261,0.038193988301172,1
0.00117473074712538,0.0739414243185125,1
0.000947132921328595,0.0381240938851529,1
0.00518651973482494,0.0221643519534564,1
0.0132197839998202,0.0439062441187515,1
0.014565713693887,0.0296348562565342,1
0.0135128694665303,0.0210051506447571,1
0.0231628101433595,0.0231101345939258,1
0.0248560914685463,0.013442232618008,1
0.0232605548348751,0.0124301407197613,1
0.021296325041427,0.0107432770871903,1
0.0183562191219253,0.00935839686479465,1
0.0215127908675688,0.00959246013417034,1
0.0295707621145633,0.012428609508418,1
0.0303283076631501,0.0103174693963494,1
0.0398544599921247,0.0161293894322136,1
0.0365588331341477,0.016228078862046,1
0.0452115295426048,0.0236732563563816,1
0.0426654381725013,0.0181501692347464,1
0.0376456294960609,0.0142278942825984,1
0.0493107132288053,0.0192926900651747,1
0.0548158934106535,0.0207761847535231,1
0.0654769606627847,0.0276028069421386,1
0.0758583468040326,0.0341928040934116,1
0.0820779045569004,0.0406426852143531,1
0.0680047966599479,0.0354779249114466,1
0.0583595205153958,0.0280413550938983,1
0.0312754991576769,0.0152999892639392,1
0.00977643606266407,0.0100464613491179,1
0.00974817066408281,0.0146977978623936,1
0.00987749273145049,0.0134001493859062,1
0.00760591712493498,0.00988434165932111,1
0.00766783588669198,0.0145344565951268,1
0.00862286089495143,0.0162746264220909,1
0.00815874484088645,0.0296313834106643,1
0.00245994840160633,0.0135528240076931,1
0.00200974865071361,0.0283678400853837,1
0.00200442290407523,0.0263462898437435,1
0.00200074589877701,0.0293452601079149,1
0.00207815211591909,0.0319507054050711,1
0.0015627789307832,0.0441455107490516,1
0.00102787037306968,0.0261715701903553,1
0.00358005856615295,0.0522390116935028,1
0.00782932231620909,0.0795103083196846,1
0.00919476388450666,0.0731345595913972,1
0.00975098117870506,0.0615969970444171,1
0.00821644970873301,0.0534886711453196,1
0.0085976003756811,0.0319174718953861,1
0.0192246996314124,0.0465013710946993,1
0.0329085258033214,0.0618005127825401,1
0.0478440933171621,0.0684634430924152,1
0.0450644344192053,0.0531295502122856,1
0.0977024276672612,0.0365505235193346,1
0.165733037057743,0.0532431599999189,1
0.224002126393652,0.0578193919209822,1
0.202728590437092,0.0226297899222949,1
0.171649930217625,0.0202587897479519,1
0.143036972744566,0.0103933306388234,1
0.150366236214175,0.0105307329249313,1
0.153298225992076,0.00901407887041262,1
0.171709484297344,0.0109115938410307,1
0.171006046245463,0.00953569263831003,1
0.165712895980882,0.0113099238537815,1
0.149783586612101,0.00983172125936862,1
0.0953997134123667,0.00460580716516656,1
0.0930089870239249,0.00813079486031925,1
0.0879353758077941,0.00723829696710171,1
0.0851426762266339,0.012973300241603,1
0.0251503166393129,0.0016846172935699,1
0.0264526892981956,0.00481197215898286,1
0.0396987790989263,0.00879689760845248,1
0.041386665680323,0.0178779732584029,1
0.0387961724940738,0.025102048863086,1
0.048600641783598,0.034889638381353,1
0.0462174186402968,0.0381754445799831,1
0.0509644108482004,0.0467142983338641,1
0.0408898573609547,0.0467572542385254,1
0.0357883607628324,0.0589735562324852,1
0.0122011903953812,0.0359193861841342,1
0.00316654395817773,0.0342323103342116,1
0.00222274868445818,0.044101692183357,1
0.000620925241297413,0.0165614455189803,1
0.000827356926717687,0.0268584106584299,1
0.0007516632504517,0.0295505973795503,1
0.000732145116569402,0.0398785317894674,1
0.000969007061057849,0.0536068681347267,1
0.00144684549823358,0.0700566572521629,1
0.00174066768620627,0.0845089663108159,1
0.00196561409666363,0.098991791099041,1
0.00229423261844208,0.112991173829884,1
0.0024209969242943,0.128142987598759,1
0.00201826154582794,0.247454492064634,1
0.000762545776697068,0.33504890158554,1
0.000398992423613525,0.349658248236221,1
0.000110737678950544,0.202892237619761,1
3.72290596985626e-05,0.330893612897603,1
3.36502202638706e-05,0.33725165606003,1
1.01055437643876e-05,0.26176673208825,1
3.2518207679882e-06,0.328880170912635,1
3.68379289295541e-06,0.377271091854096,1
3.67297433190315e-06,0.389325658665016,1
3.98338123583381e-06,0.325552277908997,1
7.05013571474068e-06,0.396275205173834,1
9.51484791619414e-06,0.4267944699652,1
1.38784358463362e-05,0.438737377545035,1
1.28949724552315e-05,0.406650459831293,0
1.2807488067505e-05,0.460154812481239,0
1.3798071717555e-05,0.486977545539903,0
1.4002673704829e-05,0.503622713420767,0
1.24229507391212e-05,0.460543491426295,0
1.23328985526591e-05,0.211602448778245,0
6.86882325929178e-05,0.254567505132999,0
7.84833247581834e-05,0.158842415041802,0
8.13278677193912e-05,0.159767415227037,0
8.05309393343514e-05,0.160026218682243,0
8.56300370324417e-05,0.164679857682269,0
9.35947834210157e-05,0.169968819160516,0
9.99592256831687e-05,0.170930949769305,0
0.000101846549129745,0.169015331748535,0
0.000103345352501433,0.167305180575604,0
0.00010581812783539,0.219741380669235,0
3.19982848673565e-05,0.198815333592517,0
1.10241843546502e-05,0.392625023441347,0
1.22480863524372e-05,0.451644472043291,0
9.57281630448907e-06,0.40463870684249,0
9.67383463612511e-06,0.519024241281522,0
9.79033077753398e-06,0.52183816683795,0
9.06062561008024e-06,0.483815032765379,0
8.6820394164255e-06,0.51414306847361,0
1.03410786486519e-05,0.544790582713051,0
1.26518486124484e-05,0.596476114113639,0
1.31526774292594e-05,0.762240902914544,0
1.00586470349147e-05,0.694285446886622,0
5.64456471236512e-06,0.514414666404989,0
3.41375752053094e-06,0.364186549532542,0
4.546976424734e-06,0.388448823135757,0
4.72922849159196e-06,0.385916141958002,0
5.07112803229166e-06,0.42185566059503,0
4.04578734668287e-06,0.421119961438942,0
4.16994496380861e-06,0.495318549319135,0
4.14610915325667e-06,0.497271440024173,0
4.3996227532262e-06,0.515436433319953,0
4.51610142151497e-06,0.520613637843932,0
4.58166866726373e-06,0.532891620041665,0
3.2050917954666e-06,0.663129909819332,0
2.82617218768322e-07,0.249367836959772,0
1.08635412129304e-07,0.186423639776918,0
1.96552353318217e-07,0.243299070923821,0
2.26132770819177e-07,0.262769590580786,0
2.46144142834952e-07,0.262358064150042,0
2.71802857264245e-07,0.257336182338011,0
2.63553144834608e-07,0.251296324884287,0
2.78935414886374e-07,0.264400628253552,0
2.72230311275307e-07,0.272047446718662,0
2.29800701193749e-07,0.257575434392014,0
2.61145528865282e-07,0.268261013385699,0
2.45885045710702e-07,0.273795663924396,0
1.637544819768e-07,0.221634587890472,0
1.06432149174039e-07,0.183556118591718,0
9.02125192121811e-08,0.18166014465629,0
1.90615092096495e-07,0.243734759667308,0
4.48826936591119e-07,0.345321372349297,0
4.19726467453458e-07,0.312564076616073,0
4.62122781117311e-07,0.317427176659591,0
5.34337011730024e-07,0.348628279869935,0
4.76852321394993e-07,0.330292385496407,0
5.31671423515428e-07,0.325273605261009,0
5.20131140111861e-07,0.306716846619294,0
4.1720021424808e-07,0.268871117934412,0
4.01771374206687e-07,0.257284754842917,0
3.9071658856937e-07,0.271711135637492,0
3.1730586168534e-07,0.24240535608358,0
6.6926062056386e-07,0.335791711353975,0
7.1843380511748e-07,0.317827066599271,0
9.31624993296123e-07,0.361527483188164,0
1.03838050767993e-06,0.391324852415822,0
1.03250991428555e-06,0.417870274988243,0
9.39189954396812e-07,0.41141095669552,0
9.4592782948206e-07,0.414720497920114,0
9.29747270316653e-07,0.407812227922729,0
9.70929539597155e-07,0.410330364504125,0
9.71886436646485e-07,0.430992841649053,0
2.96288547896865e-07,0.275765464911733,0
1.58509546269135e-07,0.255033296290221,0
1.30769430773696e-07,0.22772180512532,0
1.10833500641277e-07,0.20640420163013,0
1.38685504098909e-07,0.217148253608063,0
1.97819716965051e-07,0.249633455982602,0
1.34823494604928e-07,0.207125973648398,0
1.05068795854546e-07,0.192028702212568,0
1.08463755597493e-07,0.194664766705397,0
1.19530239976167e-07,0.207975452620056,0
1.19024494388342e-07,0.207591320468726,0
1.09633629733032e-07,0.210880755210313,0
1.1118326301103e-07,0.215174837749815,0
1.16345107658299e-07,0.216530999123054,0
1.04802349520984e-07,0.208542753635528,0
6.54802551079169e-08,0.179779009822541,0
6.36981468414463e-08,0.18350916109826,0
1.9124442438787e-08,0.130461325923011,0
6.15143817884407e-08,0.168386686732724,0
5.43289548544166e-08,0.152283252712601,0
5.33284874927359e-08,0.150338886300741,0
1.29188600852083e-07,0.197402830818156,0
2.83574115817649e-07,0.284485693348758,0
3.48214536281726e-07,0.293030691325112,0
3.94532178057587e-07,0.30591426502365,0
3.86954468328499e-07,0.293017070592807,0
3.89513717983853e-07,0.293969358910926,0
3.83187398620132e-07,0.295139815154685,0
4.35558764087748e-07,0.327716113129942,0
4.94498297899027e-07,0.368134784493143,0
5.06216162197014e-07,0.372421331543795,0
4.40075153178313e-07,0.37131844631223,0
2.42406919915428e-07,0.275468506074203,0
6.38352320927132e-08,0.164915737162094,0
5.43136565003366e-08,0.156490425361664,0
5.57426277601245e-08,0.161162053291732,0
6.30277189714645e-08,0.164119668812254,0
7.30153694197625e-08,0.163279014586649,0
6.04021014564978e-08,0.159464016821813,0
5.08346308018808e-08,0.138189385057176,0
1.05510948284234e-07,0.168695147055704,0
1.95441272857183e-07,0.214814894067471,0
2.83734898519354e-07,0.263287278799658,0
2.72609170514585e-07,0.255490385536513,0
2.94303961414628e-07,0.272231690498493,0
3.33231373290814e-07,0.285518966410957,0
3.88250328909403e-07,0.296807265204366,0
4.24599818139226e-07,0.314551269586674,0
4.42928971141641e-07,0.329590945170305,0
4.07420666410431e-07,0.323899383304591,0
3.89510718306583e-07,0.325868148811771,0
5.98860669756344e-07,0.379552491204315,0
5.22839173759838e-07,0.337312461041956,0
5.19269557807809e-07,0.341590471192405,0
5.64234720094283e-07,0.343927419750088,0
6.51596496012339e-07,0.375122552255367,0
5.81520660333913e-07,0.383174123120299,0
4.5397738246476e-07,0.327832257040556,0
3.92720372986137e-07,0.297654674902612,0
3.44238464059529e-07,0.279014530752336,0
4.27273655466317e-07,0.321644556748691,0
3.01839525678064e-07,0.290678817652156,0
2.99150315004961e-07,0.300000775499713,0
3.56829834378719e-07,0.338925857621388,0
3.62480626421098e-07,0.359529777227922,0
1.97901008219085e-07,0.276122192223,0
1.40255535182347e-07,0.212977376117903,0
3.56702048126991e-07,0.320523710647067,0
3.68905410191226e-07,0.301162107252951,0
3.709280925748e-07,0.310567196572785,0
3.5325549393499e-07,0.300258384236275,0
3.9369286835727e-07,0.314134720916128,0
4.1723973499612e-07,0.325883474716443,0
3.99925972749807e-07,0.295677908369175,0
3.76984665959961e-07,0.278071569136088,0
3.68010006525948e-07,0.272806272187933,0
3.41027534517135e-07,0.288256352890625,0
1.22502245223957e-07,0.18838245542851,0
1.09792987588033e-07,0.195650960583706,0
1.09814810240176e-07,0.185066638997296,0
2.40157386938264e-07,0.25069754707101,0
2.01832910193471e-07,0.227404548444662,0
1.94307094881164e-07,0.2203048954769,0
1.77756975476016e-07,0.226041667243577,0
1.58350263406065e-07,0.225299834218306,0
1.56661370110779e-07,0.226396375510721,0
1.93583272755765e-07,0.234774865699996,0
2.09482087233532e-07,0.227254609090066,0
2.4567379343892e-07,0.247399306000564,0
2.51640151530167e-07,0.259957027567258,0
1.48266548293176e-07,0.226127135686835,0
1.4650033831624e-07,0.243052149448565,0
1.06221796805438e-07,0.216994168423663,0
1.04526379212088e-07,0.212480604266822,0
1.10038661156496e-07,0.217131772025296,0
1.13043062918809e-07,0.222837776042388,0
7.93206910425892e-08,0.20858791319769,0
6.01887494106255e-08,0.219386232522081,0
3.15082350908499e-08,0.158007127347252,0
1.79484939567754e-08,0.138334009950624,0
1.83655240893221e-08,0.129212149276922,0
5.57036319556065e-08,0.168527525072357,0
9.73799480825815e-08,0.212347388983566,0
1.07008987113178e-07,0.229698237454721,0
1.008416506448e-07,0.218836349918676,0
8.8133142928193e-08,0.200832766826441,0
8.4398544726281e-08,0.197228542052528,0
6.9148785417944e-08,0.18233996033102,0
6.53841904433257e-08,0.181058571500131,0
5.15766759666983e-08,0.168618394432179,0
5.4291158920807e-08,0.169170255948505,0
7.42975064771542e-08,0.207463630639228,0
5.46663435554288e-08,0.179353934735305,0
4.61856559759544e-08,0.163487955989163,0
4.65465921435409e-08,0.167970072660851,0
8.92964927656681e-08,0.202770903195006,0
1.26497890340344e-07,0.205792873461296,0
1.92022840639593e-07,0.24066962805273,0
1.85985615172828e-07,0.232381801097761,0
1.90515727786906e-07,0.23464912652754,0
1.9443518110062e-07,0.236927005019585,0
1.95105234010942e-07,0.22381370251228,0
1.92131953900312e-07,0.222176529796502,0
1.86689714420172e-07,0.221347031335685,0
1.69596353461316e-07,0.210628846466901,0
1.49569008164075e-07,0.205739709180404,0
1.46096581755615e-07,0.212309241699764,0
1.01788648759132e-07,0.181002557660229,0
1.14519279095609e-07,0.20320013776841,0
1.1113226849743e-07,0.204082896329416,0
1.04261882668751e-07,0.203686165192096,0
1.17497583665668e-07,0.214954610859132,0
1.44423961709522e-07,0.223387910053341,0
1.61199881821215e-07,0.229441338994439,0
1.76768206855691e-07,0.231808527286975,0
1.57792248441799e-07,0.228391006152579,0
9.83030237706807e-08,0.193617087366216,0
9.60918866625806e-08,0.191775197671675,0
9.29554241084289e-08,0.189134220042034,0
9.06306742237046e-08,0.186039848589943,0
7.89367323519506e-08,0.176889966641262,0
6.93486389160984e-08,0.180183910505542,0
5.72911361591462e-08,0.187019522365028,0
2.6637734098489e-08,0.153613436624735,0
1.61258900471514e-08,0.152077091655983,0
1.01119120792332e-08,0.140279141430779,0
0,0.119529175726686,0
3.87820775124253e-09,0.12588048724402,0
2.57398556994629e-08,0.145515024361568,0
5.11201250861113e-08,0.186316565724331,0
5.59874764173381e-08,0.182320239640829,0
5.74054238631564e-08,0.177992882907553,0
7.39816404605585e-08,0.181908062133327,0
7.86997578475723e-08,0.178991611415595,0
1.07515932571912e-07,0.203858249702993,0
1.06246169183261e-07,0.200104662350971,0
1.14026732087775e-07,0.211736904799043,0
1.07542929667347e-07,0.201633600798211,0
8.90036492721247e-08,0.196406830725655,0
5.88442940579372e-08,0.166801879425833,0
6.4307306303176e-08,0.169874671180864,0
7.18095741489083e-08,0.173689911595325,0
6.30258441731704e-08,0.173353813233228,0
7.29461518667432e-08,0.189053624416561,0
5.14909601886907e-08,0.165876866894893,0
5.57613007511339e-08,0.160065050597179,0
1.48359463296633e-07,0.229014718763333,0
1.60492332945009e-07,0.234383694253449,0
1.52386605024361e-07,0.237455932719728,0
1.52200850009379e-07,0.235999337976647,0
1.45460950141972e-07,0.242066708522934,0
1.38342116043355e-07,0.233465036678923,0
1.08688731392789e-07,0.20501875762959,0
7.84346613687819e-08,0.177692241425817,0
7.97430456022913e-08,0.175415421441709,0
7.41306494289759e-08,0.182215937451113,0
3.77809352233584e-08,0.152591730366346,0
3.44662918393322e-08,0.15781548200749,0
3.33819085060059e-08,0.156305317620875,0
3.86319436650311e-08,0.163499034374046,0
5.93921101194828e-08,0.193397611284753,0
1.18885834306507e-07,0.238509223123191,0
1.33826026920518e-07,0.230056068020684,0
1.97401861921255e-07,0.264016050028032,0
1.77875087768547e-07,0.24858118979334,0
1.74361340805684e-07,0.252502097388815,0
1.8111781389001e-07,0.236703089847718,0
2.14738121747098e-07,0.256267006653382,0
2.13475032640375e-07,0.25546839265545,0
2.12704340557623e-07,0.253642553688015,0
2.08527364950228e-07,0.255496335256197,0
1.53671966734819e-07,0.235481261368365,0
1.39332609478112e-07,0.248663921179814,0
4.65126207984512e-08,0.165570171994838,0
3.84114673856411e-08,0.150278024708452,0
2.47221401934761e-08,0.128485343926982,0
3.42745374698083e-08,0.139627764052387,0
9.68961751307636e-08,0.190086169098266,0
9.63942541314585e-08,0.187339298533155,0
9.94018055549059e-08,0.185342834344378,0
1.05954825528353e-07,0.189347718934125,0
1.20177495339233e-07,0.189681687224714,0
1.42210124891878e-07,0.199146188637454,0
1.56166423361128e-07,0.207729763756023,0
1.54513001249566e-07,0.215315056353664,0
1.55865855698613e-07,0.214233302313776,0
1.41743375108571e-07,0.215628709857504,0
9.84617066982962e-08,0.191486802307178,0
1.06088686126554e-07,0.191644360081034,0
1.18827640567458e-07,0.199206678537049,0
9.799968140669e-08,0.180091152926459,0
9.15324522031823e-08,0.185910159447952,0
7.16847875744507e-08,0.174743945886162,0
5.53620437064155e-08,0.158863523129624,0
5.37118462479201e-08,0.153020501136958,0
5.72563399028069e-08,0.154395383622514,0
5.86229178753661e-08,0.153772141311705,0
5.92622240936653e-08,0.156543091577882,0
8.81991358281467e-08,0.18528911979903,0
9.83267212211186e-08,0.204427368183309,0
9.90328452506206e-08,0.204859856670625,0
1.00996134024236e-07,0.203650151489951,0
1.17509957334409e-07,0.214692481340721,0
1.33141275591569e-07,0.222164739329025,0
7.758027829018e-08,0.172014829115791,0
6.52384811199055e-08,0.154408799059232,0
6.09338692446456e-08,0.152419047494269,0
6.36357535542177e-08,0.153091354626268,0
9.33345833154343e-08,0.178213351696226,0
1.42540764319032e-07,0.209965415608592,0
1.48678628958226e-07,0.21053508055357,0
2.63309271072507e-07,0.268678699795941,0
2.56834992627413e-07,0.248266175400153,0
2.47363811613183e-07,0.235812510707815,0
2.63331468684309e-07,0.235192692058049,0
2.65039709897991e-07,0.228966857638565,0
2.57396307236676e-07,0.222493672521232,0
2.5219846646216e-07,0.223534484979818,0
2.58025339560324e-07,0.226037609335318,0
2.44953870893973e-07,0.214872427235817,0
2.80517819638554e-07,0.230776268308558,0
2.39634843157724e-07,0.214697634113118,0
2.9921443310662e-07,0.238495653454995,0
2.82087250786538e-07,0.231832895494893,0
2.62402993577123e-07,0.231187086780146,0
2.33632488939229e-07,0.228322035198613,0
1.95246293834593e-07,0.215886695275335,0
1.94638859187294e-07,0.217440386682393,0
2.38420348822785e-07,0.235402672373976,0
2.07627161801317e-07,0.224270769649178,0
2.03314750765154e-07,0.226038014801449,0
1.78224325194778e-07,0.212132367577774,0
1.37667788592922e-07,0.196121916657036,0
1.38566716878993e-07,0.214307898655807,0
1.29026543287538e-07,0.222292368748687,0
1.57537275873797e-07,0.235344027350881,0
2.02640498306652e-07,0.267372406580048,0
2.29592523591169e-07,0.273337426867301,0
2.03174365868889e-07,0.25149127550638,0
2.08771763655851e-07,0.261393779394149,0
2.0182691083893e-07,0.25901823283327,0
1.97541046946611e-07,0.267465229064316,0
1.9322743603954e-07,0.264740955847839,0
1.61466628122504e-07,0.235030018462002,0
1.39499091566631e-07,0.213698770604759,0
1.2527214721564e-07,0.221415836474683,0
9.17093581702167e-08,0.183546949643214,0
6.73832503683932e-08,0.169441123466185,0
7.39606427196643e-08,0.181887710755773,0
4.97961425307949e-08,0.159226469090355,0
5.03372093184816e-08,0.152081930053733,0
5.12542856520395e-08,0.158645406738168,0
5.0442797958407e-08,0.161042658218541,0
5.94382301575183e-08,0.180423050176607,0
6.87558276954935e-08,0.182111244937431,0
9.83440443573564e-08,0.213171765738187,0
1.00066459046142e-07,0.214778899928351,0
1.41869961489391e-07,0.249947673181241,0
1.45809737616613e-07,0.247317702741807,0
1.45844533872952e-07,0.249149225350956,0
1.34790723130746e-07,0.247829554265241,0
1.37210037841427e-07,0.242594705090526,0
1.27191940668832e-07,0.234525550146378,0
1.4289585111594e-07,0.236855996733307,0
1.342955514053e-07,0.244243390544859,0
9.27521209814133e-08,0.205002875183852,0
9.93016163340674e-08,0.226652945501989,0
6.57010313550339e-08,0.187902783009011,0
6.83112755239887e-08,0.207171232361027,0
7.22258543621374e-08,0.197567141034994,0
7.82078107751919e-08,0.214246526681398,0
9.84854041487338e-08,0.231932623561668,0
1.3885206117936e-07,0.283019727807029,0
1.55143533411849e-07,0.302687390915221,0
1.55858656473163e-07,0.30947858753054,0
1.51687905196104e-07,0.299855872989478,0
1.59720440991349e-07,0.282774942640292,0
1.78331413673339e-07,0.299635330398151,0
1.5392566443998e-07,0.285355734110197,0
1.45220001065211e-07,0.29393761489724,0
1.44436560354058e-07,0.282360799666946,0
1.35354062522167e-07,0.285525241581406,0
1.04700960429237e-07,0.235227431392658,0
7.40791299718531e-08,0.199845697149686,0
6.34857696906869e-08,0.184909855761642,0
5.40646082949441e-08,0.174123347635881,0
5.20279024201302e-08,0.181694690966829,0
4.59654796642916e-08,0.170139051986679,0
4.86123948878796e-08,0.162560450624107,0
9.67668140484684e-08,0.21219643505844,0
1.00405422577721e-07,0.205957518956932,0
1.01187213466374e-07,0.20953798576741,0
8.78967683592686e-08,0.20080066275984,0
8.79591616464976e-08,0.201142351545942,0
1.24212061268206e-07,0.236032537084657,0
1.83070903760906e-07,0.280445357987442,0
2.08591783019614e-07,0.302050683001331,0
2.04713200308713e-07,0.314226435709473,0
1.99129001101742e-07,0.291240912017149,0
1.80820770848288e-07,0.267149172507064,0
1.6300808727994e-07,0.261927953456425,0
1.69874723512029e-07,0.259855502022263,0
1.59010117413668e-07,0.237560322610066,0
1.57647139053834e-07,0.250976653831546,0
1.44475556158576e-07,0.238021780357132,0
1.07413868552778e-07,0.209225680286341,0
8.54460320291788e-08,0.182743258244406,0
8.55058005987955e-08,0.180577969273675,0
7.75257591557863e-08,0.180709454308204,0
4.21306922415412e-08,0.150389469615493,0
5.66575293276611e-08,0.166775623938037,0
6.59631281565537e-08,0.169413948410649,0
9.39771891787311e-08,0.197594757823747,0
9.4417841769784e-08,0.190446994481536,0
1.04754354684654e-07,0.196467337279551,0
1.08638111838847e-07,0.202102103091983,0
1.11885262484285e-07,0.214164782397793,0
1.16303712111965e-07,0.213734659421751,0
1.19837706896404e-07,0.219184398691332,0
1.07053907280305e-07,0.208926288153731,0
8.1768202719613e-08,0.186795364674739,0
9.13763939931786e-08,0.191516113856047,0
7.18178982533342e-08,0.178454208121237,0
7.5714853987518e-08,0.191657410980902,0
9.61032854362092e-08,0.216220484750167,0
1.00639772364487e-07,0.212398774814279,0
9.66048314758555e-08,0.202650305711871,0
1.0796700904148e-07,0.216162285222603,0
1.07727634795285e-07,0.209713250762234,0
1.26595604827434e-07,0.224449522952831,0
1.2378318241044e-07,0.231867682484203,0
5.53022751367985e-08,0.177057840794649,0
8.07215403279647e-08,0.198186230639965,0
8.34314487742357e-08,0.193523314013167,0
6.96273089345381e-08,0.182740759373307,0
5.80935498290349e-08,0.188288207909512,0
4.54093394983202e-08,0.175492071649355,0
3.77932339001679e-08,0.163983213877365,0
3.05171417206397e-08,0.164649191152436,0
1.58709174791494e-08,0.140524730235021,0
6.45035601886057e-08,0.207042180486369,0
1.08096370123775e-07,0.254078701213342,0
1.16654674352626e-07,0.253313325968695,0
1.3374541059387e-07,0.263471450569774,0
1.27369896522911e-07,0.245752309431297,0
1.17059705776091e-07,0.23339768734798,0
1.11122669530163e-07,0.231520873218267,0
9.81635387775971e-08,0.213059261926871,0
1.60434364181754e-07,0.240119010949931,0
1.64297423562781e-07,0.236808241872798,0
1.32433051787977e-07,0.213014473307107,0
9.83069233511324e-08,0.184888513963492,0
9.677918771721e-08,0.202803118880132,0
9.17483539747348e-08,0.207114780401728,0
1.00945364486431e-07,0.215517161053678,0
8.94938715300744e-08,0.191366409371342,0
8.54634301573484e-08,0.182684162689409,0
8.48550956068684e-08,0.186940979282129,0
6.37779382568445e-08,0.17695528195065,0
6.70007915163901e-08,0.194845697014514,0
6.75452329410062e-08,0.195448007974596,0
6.31578299730772e-08,0.18739452151441,0
5.93590386775742e-08,0.162999738750596,0
5.26941307419332e-08,0.147868175373673,0
5.46777423290572e-08,0.147981723139577,0
5.74333208617731e-08,0.148906067653885,0
6.13994941489763e-08,0.156467849384274,0
6.37457667181173e-08,0.156849088768394,0
1.12172556574878e-07,0.200618794160965,0
1.1080350386857e-07,0.180015444945324,0
1.09688298851289e-07,0.181132316611065,0
1.13289036454999e-07,0.182683984032117,0
9.14877570118501e-08,0.177454291198443,0
1.43750534162269e-07,0.215459684742335,0
1.49080060768966e-07,0.216537260220607,0
1.34256180641123e-07,0.211293050725642,0
1.35061968947942e-07,0.209415692443802,0
1.29822657635159e-07,0.206965379718208,0
1.19727543748641e-07,0.203491168420297,0
1.52235121322196e-07,0.234484816891742,0
2.52584449934956e-07,0.289501375627839,0
2.49875741359593e-07,0.272322140981051,0
2.49827746523263e-07,0.275195168148309,0
1.8481491612604e-07,0.250240665461727,0
1.71320192996806e-07,0.253781201823462,0
1.62521014683124e-07,0.239643274062136,0
2.18715468832135e-07,0.270976119342051,0
2.09074506084387e-07,0.264708859918995,0
2.15209446038243e-07,0.265389097606929,0
2.34465274341483e-07,0.260248852156328,0
2.08367182183977e-07,0.238652542617652,0
2.23514577505455e-07,0.253292295452165,0
2.20516700041205e-07,0.241565113028765,0
2.15684894885635e-07,0.239084182015191,0
1.98131308441536e-07,0.229826188487935,0
1.81498097975992e-07,0.233192715018322,0
1.18793444246572e-07,0.197039744203449,0
1.08339343982694e-07,0.194531952203132,0
1.04540252719464e-07,0.183882759786531,0
1.4250289339349e-07,0.214617417205967,0
1.14067527698655e-07,0.201376272164582,0
7.1498807583673e-08,0.174790634735362,0
7.23663142503337e-08,0.178120580309154,0
8.98376345452867e-08,0.18890761048298,0
9.02362916545509e-08,0.184519603328596,0
9.02083946559341e-08,0.186792983378688,0
1.00679593080255e-07,0.192099148547479,0
1.09445849935892e-07,0.195421215318893,0
9.9573912038307e-08,0.202612397283631,0
2.73206856210754e-08,0.13501101194557,0
6.82924525491157e-08,0.187518140528663,0
7.08436030758395e-08,0.171683444727937,0
9.06718447942437e-08,0.197649554588509,0
9.16943597838634e-08,0.212062016799916,0
9.41990903048246e-08,0.216154693662872,0
9.91029627068213e-08,0.210834041694006,0
9.876137445763e-08,0.213754795650277,0
8.85291003279138e-08,0.210495744261359,0
1.10378749567052e-07,0.214411090934703,0
1.13197621290177e-07,0.213798106941311,0
9.41402966303207e-08,0.196433730729006,0
8.76387961139962e-08,0.20648978749016,0
8.01618005492685e-08,0.190429653460236,0
7.75014617698945e-08,0.180224000045788,0
7.3152229695234e-08,0.183636342374361,0
7.01294549096387e-08,0.186402660243086,0
8.116526758822e-08,0.203437938682097,0
8.99429232174848e-08,0.219130929422072,0
7.09329934585036e-08,0.189811623109419,0
1.09161480530637e-07,0.224549888978611,0
7.82960762788797e-08,0.200384937718062,0
7.62010266811525e-08,0.201437028621346,0
8.44261417571706e-08,0.20482740559344,0
1.05861610557169e-07,0.195485836149469,0
5.32619921468395e-07,0.356479234859877,0
5.46115244533083e-07,0.334244528745244,0
5.03377342620039e-07,0.313889290730136,0
4.84901055447499e-07,0.305870430617868,0
4.8163980631889e-07,0.309276595483824,0
5.17836911943365e-07,0.325899941242967,0
4.9051585136263e-07,0.307629127429215,0
4.92855599633707e-07,0.308359186293954,0
4.96571374860747e-07,0.31869946237138,0
4.75299463463929e-07,0.34504144408724,0
1.26583006182898e-07,0.211886937107959,0
1.19995714896634e-07,0.222279427032788,0
1.21349244273066e-07,0.210682257380221,0
1.1285828279894e-07,0.200372119506838,0
1.11998575293182e-07,0.204766746600548,0
3.7317485085049e-08,0.133184619550223,0
3.84860843577476e-08,0.133537838640981,0
5.34346760681155e-08,0.150538615074488,0
8.76957899821377e-08,0.178082736644858,0
1.07083979044943e-07,0.181188032979702,0
1.16909646920628e-07,0.180661046968477,0
1.32101212489916e-07,0.189068170166031,0
1.34688134168091e-07,0.192407367247487,0
1.32480371696921e-07,0.190988174348183,0
1.37661789238381e-07,0.194394405383793,0
1.64946478732209e-07,0.212354906791222,0
2.17052072793648e-07,0.247166731076665,0
2.18449997393685e-07,0.234083310488037,0
1.8771042960343e-07,0.21677056223721,0
1.89277236033802e-07,0.22983991003682,0
1.69695342811247e-07,0.23216339819705,0
1.27139821276255e-07,0.209205224843162,0
1.18138914666125e-07,0.197685441042882,0
8.52169316776356e-08,0.175859452692435,0
8.76628685240931e-08,0.184599163027282,0
9.65838337349614e-08,0.192654473156011,0
1.21790121839914e-07,0.219167136085998,0
1.34983077435724e-07,0.227859859898698,0
1.33710839313326e-07,0.233174775457296,0
1.13358029032224e-07,0.216973021013969,0
1.18976799519739e-07,0.212831424534392,0
1.30172494996844e-07,0.22275901252264,0
1.09692423407536e-07,0.221613969955602,0
1.86826499703712e-07,0.279516543387622,0
2.10872737616187e-07,0.27226393996504,0
2.07753073254751e-07,0.265514024907325,0
1.36779884120821e-07,0.222548586894431,0
9.85154009214399e-08,0.207242385004507,0
8.53069219957541e-08,0.195232763066505,0
1.1104265313897e-07,0.20924443450416,0
1.11561222347127e-07,0.209663890238237,0
1.13357429096769e-07,0.219966045945975,0
1.07673040668959e-07,0.218249590929628,0
5.81513686084258e-08,0.167621738699605,0
3.93079959298952e-08,0.156265420985682,0
5.19994054860595e-08,0.180634306622549,0
4.99772480460081e-08,0.178139002000515,0
5.1319903592334e-08,0.17979935115412,0
4.88992390268818e-08,0.178331167998307,0
2.98038934576199e-08,0.16333517368325,0
2.48225543901099e-08,0.169849081610986,0
1.46357253710432e-08,0.141024803503933,0
8.09335425190655e-09,0.111608295260888,0
7.7478964190365e-08,0.19360104480331,0
8.63058145268679e-08,0.19094068172197,0
8.83401206598652e-08,0.191332191454811,0
9.24896492202346e-08,0.193769903391991,0
1.60857318676911e-07,0.23938218772042,0
1.78432802765085e-07,0.240553076726814,0
1.73418842207257e-07,0.243012853381275,0
1.53554079418083e-07,0.224348112664911,0
1.57191713052223e-07,0.226744244231575,0
1.6281310825735e-07,0.245127475988863,0
1.86820125389512e-07,0.25466430253854,0
1.91511995600408e-07,0.250094697901387,0
1.96258684913424e-07,0.238079827788018,0
2.79741128201261e-07,0.288603296080817,0
2.30033851109608e-07,0.256761693666342,0
1.83995629271504e-07,0.238603500493431,0
1.34127794453941e-07,0.204320980433883,0
1.21736127649043e-07,0.19997304665969,0
1.22489046643966e-07,0.200551550789419,0
1.23798780732248e-07,0.201491750320849,0
1.01031755191825e-07,0.201073577569542,0
7.44330918897856e-08,0.196371580903184,0
8.52643265785114e-08,0.2307646772887,0
3.58386441906372e-08,0.169112285485213,0
2.77440150758906e-08,0.168813999327,0
3.03528343981418e-08,0.167728866312603,0
8.86119664125145e-08,0.234380029457574,0
1.00649671299481e-07,0.233265047438743,0
9.80654493308482e-08,0.230751205671501,0
9.63702567132936e-08,0.214940975423083,0
1.0143131220427e-07,0.222750435111949,0
1.03459094039204e-07,0.224611912927014,0
1.22147083435117e-07,0.23403832804202,0
1.87389464135474e-07,0.281168429399565,0
2.0629890470589e-07,0.296122518621847,0
2.19372623130194e-07,0.304713167384829,0
2.0078062340694e-07,0.280251569279407,0
2.00168089308281e-07,0.262948274121819,0
2.21751367205789e-07,0.270506902943637,0
2.02670495079358e-07,0.270671119225065,0
2.03630091838226e-07,0.25846288685368,0
1.83328501046519e-07,0.249024877789128,0
1.79533909299196e-07,0.259824710471172,0
1.37699810147786e-07,0.224172879634166,0
1.21558546754623e-07,0.212092241718087,0
1.11456608602314e-07,0.212423514091234,0
7.21527372286663e-08,0.194445426164048,0
5.42793851875198e-08,0.197842116404068,0
3.67808428213362e-08,0.185223966710306,0
3.97178268369926e-08,0.185567351845424,0
4.74995146204825e-08,0.206039176363504,0
7.51241425410028e-08,0.223205934561639,0
7.4836173523024e-08,0.21459458931001,0
7.65009944082136e-08,0.224794927457264,0
1.01540575448852e-07,0.234255574153562,0
1.14205212885376e-07,0.223923412489863,0
1.14755278704875e-07,0.215061609524589,0
1.18298497496921e-07,0.211064119525268,0
1.11315023835141e-07,0.204145009521841,0
1.10412720912141e-07,0.208821990412869,0
9.96015090691968e-08,0.197181567557442,0
8.67292939655465e-08,0.187360214864556,0
9.87076052425545e-08,0.199026531921467,0
1.01798847661852e-07,0.196496645018208,0
7.36135800594544e-08,0.172455380507937,0
5.76693954629703e-08,0.165413374951932,0
5.54946294417767e-08,0.170391740266774,0
5.5982976901432e-08,0.173563396786702,0
8.69422710517601e-08,0.206023434982479,0
8.96407807244026e-08,0.193935289738398,0
1.08388763665728e-07,0.201903089945364,0
9.91198358914687e-08,0.196819784378155,0
9.23662874924807e-08,0.196223328359836,0
1.23396524010258e-07,0.22199728978555,0
1.36050587584404e-07,0.218829050917965,0
1.50858569422712e-07,0.227813821166995,0
1.55320589362747e-07,0.223009440330132,0
1.62652925491099e-07,0.219251228539294,0
1.27117548672521e-07,0.189685395366,0
1.41677382208618e-07,0.199744757856569,0
1.30702163010902e-07,0.199697303679721,0
1.23627124200437e-07,0.196963969069574,0
1.30545954817035e-07,0.197527100641168,0
1.13214044523234e-07,0.182993473258543,0
9.95967845774956e-08,0.178021701448964,0
1.14704284191274e-07,0.185597830220411,0
1.20621822534942e-07,0.192800529002304,0
1.051857832681e-07,0.187997889295051,0
8.57244020798919e-08,0.18062322342696,0
7.25798162800697e-08,0.169056576489979,0
9.18737404846461e-08,0.185865541344734,0
1.0750565867726e-07,0.196450294340122,0
1.01733679673148e-07,0.188245776513116,0
9.26554563813679e-08,0.188879861314009,0
8.4256360023654e-08,0.194653196125761,0
3.08273083504211e-08,0.140490200189445,0
3.99583259621639e-08,0.154642206898315,0
3.79791388990141e-08,0.157104557578026,0
2.81345730565244e-08,0.151705618139542,0
1.53987682767551e-08,0.142415272511625,0
9.64996177955895e-09,0.120333065226857,0
1.49817381442082e-07,0.26227005936894,0
1.88322963702089e-07,0.272072112590807,0
2.0504743934859e-07,0.265452671863875,0
2.09083505116199e-07,0.264814443669999,0
2.86640160947873e-07,0.299386816325545,0
3.31253461090504e-07,0.29945451712592,0
3.55030402976011e-07,0.301262420686743,0
3.59849909454771e-07,0.302983735967349,0
3.65119817475715e-07,0.305235613353615,0
3.61868692257893e-07,0.31302159190314,0
2.30392837486968e-07,0.260117551564858,0
1.75433125494473e-07,0.24550220775591,0
1.8624058774083e-07,0.274668098427891,0
1.88193977579452e-07,0.272104886368169,0
1.34748127713504e-07,0.242232060078745,0
1.62168177644168e-07,0.263728820482744,0
1.72091110055353e-07,0.241357270907473,0
2.34437002383207e-07,0.276918610269991,0
2.60680953847996e-07,0.298179278003442,0
2.62481360145818e-07,0.298237512817639,0
2.69621416961124e-07,0.30207760497294,0
2.67763791819366e-07,0.301140880071449,0
2.5739773208338e-07,0.292111640807671,0
2.58603677338098e-07,0.292982839638395,0
2.86494601608316e-07,0.304277006765713,0
1.29855654085136e-07,0.227754232906614,0
9.00509115992269e-08,0.223159063453505,0
7.20327501378419e-08,0.197049781189518,0
1.03639074675441e-07,0.19265900901183,0
2.29949485186372e-07,0.271482620042944,0
2.74272716536935e-07,0.284671150345394,0
2.67369859201802e-07,0.279768178080136,0
2.73147837560455e-07,0.278317211906693,0
3.02666536701572e-07,0.292365462232361,0
2.58794456812509e-07,0.257830364823541,0
2.61527462773763e-07,0.25257193522772,0
2.66442958925183e-07,0.250568348820975,0
2.47563965079064e-07,0.248668428833764,0
2.17377612769441e-07,0.252166584348984,0
1.48282671558505e-07,0.209260262266712,0
1.2110559548676e-07,0.197310247633111,0
1.31806044246488e-07,0.200651062002939,0
1.65600783336861e-07,0.215812181020556,0
1.07943986518428e-07,0.168924982461113,0
9.47084355053745e-08,0.168302774195313,0
9.87691736185338e-08,0.174010843225083,0
9.72617607981194e-08,0.175693072909157,0
1.00297434195979e-07,0.178001260460519,0
1.14300302654855e-07,0.194543065150014,0
1.03934317910801e-07,0.193483227133413,0
1.09404454389557e-07,0.202630853480276,0
1.06605155560622e-07,0.19912560268281,0
7.93530875571117e-08,0.178413620144686,0
8.06463234204044e-08,0.193734079348209,0
8.86460877414677e-08,0.20797026719618,0
1.04485358625412e-07,0.204390028131094,0
1.33224891595487e-07,0.210569602028476,0
1.40703461990782e-07,0.213243587331369,0
1.42982841756788e-07,0.214787133397327,0
1.45034021074433e-07,0.211501607678685,0
1.48451328413045e-07,0.213737415010028,0
1.4686442414496e-07,0.216518332515426,0
1.31356092655896e-07,0.205670524812121,0
1.37026757560192e-07,0.21107387316874,0
1.18792844311118e-07,0.199033931899386,0
9.59473022181373e-08,0.194108709412164,0
1.32972993696687e-07,0.229554855132928,0
1.20505660032638e-07,0.216780162067158,0
1.27432514785935e-07,0.200202284577463,0
7.72684168427407e-07,0.417475614154034,0
8.74496139677318e-07,0.378592132940127,0
9.00437723673229e-07,0.379724147408823,0
8.22476936321273e-07,0.364894946228419,0
9.11476161069422e-07,0.378451100969075,0
1.02793983097184e-06,0.386243597312949,0
1.02232001059728e-06,0.393753533317959,0
1.00080182569655e-06,0.400585429831808,0
9.96040063005246e-07,0.39961929792707,0
1.00963160071839e-06,0.430142690129411,0
2.85866544179782e-07,0.248198263821374,0
1.85343159293395e-07,0.242883217290616,0
2.56527000763653e-07,0.263532303214359,0
2.64496168376556e-07,0.262225672328407,0
2.23737153558934e-07,0.256536596945216,0
1.46270863005038e-07,0.224666571261862,0
1.47737330230708e-07,0.225677040482904,0
1.54738576980316e-07,0.222629682203494,0
1.65309814641612e-07,0.237472921938565,0
1.47133795163861e-07,0.225520450226978,0
1.38629185158153e-07,0.232058149884268,0
1.00132451946095e-07,0.203620085102965,0
3.00078715120215e-08,0.145182813273002,0
2.39586473361735e-08,0.140063200753063,0
6.19075644866863e-08,0.183408329617268,0
8.00346142329947e-08,0.195932631859302,0
1.09080564236263e-07,0.21060678546404,0
1.42721944826176e-07,0.227693881061211,0
1.6353400569741e-07,0.225763603882281,0
1.63406519413409e-07,0.22834722819313,0
1.53452090390883e-07,0.225105013216982,0
1.53706088063771e-07,0.229834837954155,0
1.55924724365048e-07,0.223322761007939,0
1.59899896684063e-07,0.234004919604057,0
1.85009595180902e-07,0.247643383606639,0
1.74299247486182e-07,0.235242065542201,0
5.32168170071441e-07,0.355477974970397,0
1.79303871548505e-06,0.661553857819934,0
4.80865627111311e-06,1,0
7.8994599126178e-06,0.890810873782641,0
4.03558218213648e-05,0.541029276362825,0
8.43504931210589e-05,0.741161993746763,0
0.000126863171465465,0.469758251914302,0
0.000118530153798475,0.351000943448318,0
0.000165363157527556,0.181773316597152,0
0.00035436610644637,0.194825867947515,0
0.00033755386646726,0.148197264482114,0
0.000301404866442198,0.127435330085741,0
0.00028335514387641,0.121925674654275,0
0.000244311390642162,0.104179952514491,0
0.000236704443658652,0.109805687215382,1
0.000253078352796917,0.106482533335362,1
0.000277328800338879,0.113426162707982,1
0.000237953003903507,0.105866596704764,1
0.000245075945760178,0.115067044526828,1
0.000277832378659876,0.0982349116613425,1
0.00027789810098894,0.0900206418121446,1
0.000231636829073356,0.0823954038714669,1
0.000165189961036426,0.0661084190146518,1
0.000166491507130637,0.0678385495481609,1
0.000176211975199563,0.0575446360731034,1
0.000201499850626696,0.0522595455043922,1
0.000270561241272271,0.0643072858742445,1
0.000343017740819746,0.077641538158227,1
0.000378381558671017,0.112351116910752,1
0.000231464956939741,0.123260906278453,1
0.000240637047632512,0.164415963538032,1
0.000225126279730577,0.171946557913421,1
0.000217366760162052,0.174236438610466,1
0.000207345392741297,0.190244845167635,1
6.72660526024707e-05,0.194755761654263,1
3.77036665365447e-06,0.467446180302579,1
3.64939296897569e-06,0.329626034220605,1
4.39996704118493e-06,0.335287092906368,1
5.93016458523556e-06,0.314133946175581,1
1.90032830740851e-05,0.41055141865391,1
2.00543678899335e-05,0.306759053805362,1
2.15983860720488e-05,0.24394607887663,1
2.98973726253797e-05,0.254915753620553,1
2.89167335054173e-05,0.247033015302637,1
2.50620384244927e-05,0.219708445399934,1
1.967319319977e-05,0.186629751794633,1
1.82097343504342e-05,0.184143924964399,1
1.79808154793661e-05,0.184635152514168,1
1.80153629874675e-05,0.199297654973699,1
1.61686435473863e-05,0.190264139554909,1
1.41441738811028e-05,0.190651463407644,1
1.91968752708808e-05,0.277015381055159,1
3.32227422553903e-05,0.446638814387431,1
4.56585874822189e-05,0.479487263701313,1
6.57058248393123e-05,0.433167747814605,1
9.12814196362833e-05,0.162001263817977,1
0.000189946954405117,0.151227095972551,1
0.000337323464030806,0.0947254411479708,1
0.000620331404262174,0.0916009858897621,1
0.0005600596432826,0.0803431647339462,1
0.000499671056797053,0.0603795837767231,1
0.00093042370316557,0.0690879061241522,1
0.00145291374396294,0.086595769470775,1
0.00502450172432459,0.0101424520810287,1
0.0379895022526662,0.0344172250298238,1
0.0517310627867485,0.0348674612690849,1
0.0716820482451698,0.0399308364551053,1
0.0758072685269192,0.0356363653076236,1
0.105091860489692,0.0400799428041505,1
0.101830499822958,0.0377609839615689,1
0.130204937131883,0.027740373462444,1
0.209263382630131,0.0429382468494982,1
0.236631827536903,0.0265454027167294,1
0.192449939756438,0.0176151861270751,1
0.209185559803636,0.0198331454655562,1
0.218877120822539,0.020982101102289,1
0.228922612606001,0.0216364833852762,1
0.233708005559769,0.0229610700223216,1
0.257655398855018,0.0260249960078843,1
0.281715090327776,0.028052365369606,1
0.27459778822561,0.0455489150035774,1
0.158637949146746,0.027377537036084,1
0.0181803289595275,0.00529209438661277,1
0.012755567406172,0.0181326933684326,1
0.0179236595772824,0.0248259990149458,1
0.0190948260655794,0.028373993397926,1
0.018845989564285,0.0291764567228462,1
0.0150199468876295,0.0259629036206465,1
0.0143444613911628,0.0235541579253739,1
0.0149051586317476,0.023743856759814,1
0.0149841769691198,0.0242064090895955,1
0.00579878443726773,0.0185597602275346,1
0.00129796662694403,0.00839530355808658,1
0.0014763018958026,0.0107911486770746,1
0.00295885510958818,0.0184815416493659,1
0.00299109200888347,0.0183777489143498,1
0.00309256218880604,0.0199593481903086,1
0.00362424192555207,0.0163358812183844,1
0.00545595880620427,0.0178903033799554,1
0.00570761899707844,0.0111859700781564,1
0.00874637478493452,0.00640719373029865,1
0.0116314551046825,0.0050303433047948,1
0.0119596603996192,0.00568717342628463,1
0.0122900773698061,0.00617668387287068,1
0.0139225348029161,0.00787864076439799,1
0.0160245676354557,0.00968967982120395,1
0.0169151386734413,0.0102888773793091,1
0.0191891457900804,0.0134904126134696,1
0.0180164353075987,0.0138436698073775,1
0.0187619102284157,0.0162483662991862,1
0.0130707655051024,0.0329695310867585,1
0.00427099201465481,0.0516377036923115,1
0.00298765420774975,0.052135005621734,1
0.000693954707400542,0.0459042750082836,1
0.000614568964531751,0.0608637790327198,1
0.00049328741547549,0.0935406356871472,1
8.21871738683298e-05,0.0865760829478999,1
9.59793929905541e-05,0.125711674030436,1
0.000220391805103406,0.180819182483629,1
0.0004902318823393,0.231828915993249,1
0.00108571111669764,0.308942303951077,1
0.00219077132481452,0.239218863756702,1
0.00283114648073381,0.191389785336673,1
0.00382437556694153,0.192888976793036,1
0.0049141353240539,0.177254064571389,1
0.0133359123283763,0.0825313190352501,1
0.0235504575029412,0.0817678801367695,1
0.0565597158574452,0.065059248219909,1
0.0641014569124076,0.0580536806597067,1
0.0838896553083193,0.044371008917646,1
0.145949867807506,0.0694820517522604,1
0.180888252869255,0.0832801975389484,1
0.176286157689039,0.0684140211282907,1
0.148056751846363,0.0656318610736915,1
0.108564064514679,0.0291978898204697,1
0.0985582408009815,0.0247685821047194,1
0.101282602353771,0.0126169100074174,1
0.12097708724121,0.0165432470978206,1
0.160480042036464,0.0196727756490172,1
0.173098824643319,0.0138540693432504,1
0.181234033895753,0.0131861951819118,1
0.189186136731622,0.0117641948885642,1
0.195649025918439,0.00827423998809632,1
0.24003164762131,0.01013605023203,1
0.235169245063755,0.00966311635125519,1
0.182124215681443,0.00703604263294486,1
0.17470297766127,0.0108328844059415,1
0.166532475046579,0.00893594597040163,1
0.117206176309613,0.00547312275796475,1
0.0916934333833332,0.00781609007803177,1
0.0890611012602029,0.00751217606177914,1
0.0753927866543351,0.00741223154541968,1
0.065696793987149,0.0152848357647917,1
0.0405588680964398,0.00760735882697226,1
0.0428757798694511,0.0178148946402717,1
0.0616157789964142,0.0238376520732881,1
0.0805243080428991,0.0304679485601167,1
0.0923340071365607,0.0365652340634486,1
0.112930583306495,0.0606589564889438,1
0.113675031361365,0.0604549241436877,1
0.118232046815845,0.0641793786583156,1
0.106217199218683,0.0797387883834563,1
0.0787096577070658,0.0647860649062911,1
0.0645296617180183,0.0703873038882708,1
0.0469414856897196,0.0568745343628828,1
0.0356934069264292,0.0659837527332809,1
0.0224994713464783,0.0548445655923177,1
0.00958827560347844,0.0282623757952521,1
0.00255711227153634,0.0218297114358421,1
0.00242932898648909,0.031127380427515,1
0.00163487328041867,0.0265611008871108,1
0.00141258788644277,0.0383882781253924,1
0.00151233112576349,0.0329235756063148,1
0.00397647909384671,0.0351881744211548,1
0.00561051277637107,0.037941164880491,1
0.00904871217844796,0.0226386809738287,1
0.0220007103215727,0.0466063547187588,1
0.029300216042884,0.0566137378147215,1
0.029724406319285,0.0399303482155599,1
0.0278929113718554,0.0287346631112156,1
0.0272081032068214,0.0160002836635245,1
0.0249863776519867,0.013640417870928,1
0.020733287086975,0.0100841441812842,1
0.0187472706874551,0.00680019488552382,1
0.0157053658500241,0.00476198224153439,1
0.013299256146443,0.00497292171797011,1
0.0124372475731779,0.00371036245864885,1
0.0119645510059485,0.00242896642803562,1
0.0128542150500407,0.00391897024806464,1
0.0114993474800074,0.00544985935952698,1
0.00884189350226326,0.00856125181257124,1
0.00688487371495477,0.00553200411772442,1
0.017535684929888,0.0169264147595962,1
0.021199087166459,0.0186807086472803,1
0.0197054448868743,0.0186780354031803,1
0.019648333920331,0.0193024913365429,1
0.021590859740792,0.021416470802242,1
0.0212095521682251,0.0252961056858627,1
0.0175399117919282,0.0206258117007993,1
0.0153270899801072,0.0166193269917635,1
0.0110979326937112,0.0105913088561664,1
0.0187432941484082,0.00849699130875172,1
0.0832514970881092,0.029249086213124,1
0.0903088306406487,0.0155879130733986,1
0.0858313792430535,0.0121793018567867,1
0.103026378777414,0.0140120251642609,1
0.113794554975879,0.0134645492199565,1
0.102876591977457,0.0130726083234744,1
0.0978247267983378,0.0123257616586843,1
0.0966943658178314,0.0102171106170396,1
0.0744392692217785,0.0058065528922474,1
0.0685319037774531,0.00435893568266774,1
0.0701307191748436,0.00569850900726295,1
0.0690251291023838,0.0132548145909219,1
0.0505035496473521,0.0078065078046201,1
0.0712893795704216,0.0131405886526193,1
0.0907328636068494,0.018586554169352,1
0.109957645717013,0.0219755900969481,1
0.11205821308047,0.0115324611511284,1
0.22465487008684,0.0151591038726091,1
0.385636495503832,0.0290062201553318,1
0.526462236285254,0.0359892202712832,1
0.541688370811835,0.0203164116156711,1
0.554883806499943,0.0191699113519037,1
0.553528790523726,0.021569166847851,1
0.501775048698121,0.0167709824222824,1
0.469125528142008,0.0157340795890894,1
0.429002155477995,0.0145355103201313,1
0.498288931824166,0.021872209320939,1
0.492597680167382,0.0342861028966948,1
0.393049632223008,0.0292392538396821,1
0.1978279165405,0.0167246783440691,1
0.187212099001841,0.0348463856095789,1
0.231006320476538,0.045417436649489,1
0.158570327919756,0.044717773647074,1
0.0950084814316224,0.0545722721955721,1
0.0875404033953005,0.0550368158415416,1
0.0635551450773503,0.0458554064691397,1
0.0609384531836935,0.0527596426010407,1
0.0333058950506443,0.050093432756292,1
0.01753732133813,0.0437011935532289,1
0.00679224202644126,0.0178694812521542,1
0.00479113318898711,0.0290623717316718,1
0.00599745797007241,0.0365797941304824,1
0.00556098698912828,0.0308766934435101,1
0.00507023346253666,0.0317036733470969,1
0.00597503777891675,0.0273636726106955,1
0.00617187769502166,0.0245421870144649,1
0.00538804895101725,0.022121155814321,1
0.00460814542878095,0.0171695446175041,1
0.00380569238812806,0.0118547341268268,1
0.0138110770568361,0.00423949677344693,1
0.0601897121236741,0.0254402918894609,1
0.0751823927237799,0.0305935243200038,1
0.0845331750142976,0.027477493436778,1
0.0734293110485954,0.0246618759782807,1
0.0794170020403028,0.0197433307973795,1
0.0958115666388867,0.024579836082067,1
0.0967446063922466,0.0227344489330998,1
0.0744449885410731,0.0165355553288338,1
0.0505965143959573,0.0108213677245159,1
0.0508696986489999,0.016509205539805,1
0.061354633708048,0.021711428052637,1
0.0661073530431813,0.0215905073939947,1
0.0658377452807511,0.0265896666243646,1
0.068532124360896,0.0265184766431441,1
0.0643146482073747,0.0526258781453501,1
0.0431565410151107,0.0388733959016642,1
0.0170873313498693,0.0194106947277241,1
0.00967977748237094,0.0112075993240262,1
0.0249061595957898,0.00539811308210958,1
0.0467514426033071,0.0100665507931859,1
0.0425074595721088,0.00759551957819672,1
0.0462546263767894,0.00509677839178225,1
0.0814031351496161,0.0105066481793952,1
0.19324889222921,0.0227989734410648,1
0.280488882956595,0.028694093103526,1
0.302831193366709,0.0321882963607956,1
0.281924229718155,0.0309397017180703,1
0.230814664976602,0.0238001326657367,1
0.211192456016537,0.0246786875695106,1
0.215849906190393,0.0293448426739612,1
0.154195982684071,0.019198225605744,1
0.113136576803934,0.0169124748028223,1
0.142994823764267,0.0161019169001173,1
0.145012772610013,0.0114231527181118,1
0.13692411085525,0.00979989589662256,1
0.192613013170314,0.00756682349295572,1
0.29343626361513,0.0113509532443379,1
0.302954416203181,0.0117761389906885,1
0.341349903606302,0.0140477135969648,1
0.27519308564233,0.0098069009305156,1
0.220355077942809,0.00752464656214448,1
0.223278090691232,0.00370966092781217,1
0.362237032960465,0.0110425049706997,1
0.432135530141567,0.0177171830841171,1
0.487987663108941,0.0200853385074237,1
0.535492570631712,0.0430894039967407,1
0.48387716553143,0.0425223878761861,1
0.46612622206856,0.0361650896095937,1
0.304377952895164,0.0252020735618508,1
0.201951382592683,0.0215720867749413,1
0.173403171693642,0.0193424871180008,1
0.159217270926653,0.0226626195711306,1
0.143073822882932,0.020869881706671,1
0.147120557065222,0.0207865257483435,1
0.134543118724243,0.0143772964313221,1
0.117044295245704,0.0114573333350714,1
0.0878892386679984,0.0075346319089845,1
0.0813365730350284,0.00715998656633867,1
0.090250957447112,0.00925183239848611,1
0.0831729859707412,0.00749787952160967,1
0.0843179552019747,0.00575165768054183,1
0.126595764524478,0.0148659004942397,1
0.18008672471437,0.024047577030042,1
0.201268710717185,0.0288124435257469,1
0.213049737406679,0.0352279799338342,1
0.229768008484719,0.0454729023067857,1
0.158036878410766,0.0395025412176261,1
0.124711693248582,0.0384340826264471,1
0.0962449536640026,0.0338548920299165,1
0.0207673061935262,0.00450709501208533,1
0.00711787737764818,0.028755811006111,1
0.00841382812525171,0.00368786082353612,1
0.0553806948120796,0.0321549436447443,1
0.0867686647795179,0.0410315613787605,1
0.117671252130819,0.0421667866213762,1
0.150795934322724,0.0363036748047776,1
0.138002261656222,0.0304321877771063,1
0.134654438123483,0.0256784405972951,1
0.113724007929898,0.0140463893635169,1
0.0922395545480293,0.0117941230695835,1
0.0717462002992763,0.00783938638238375,1
0.0505525482680867,0.00494282676711263,1
0.0516249897560126,0.0043396494716893,1
0.0608243632466808,0.00492812859926715,1
0.0766013061162989,0.0104990672285348,1
0.0754339975388119,0.0108150293623599,1
0.0786529173532741,0.0111217725973334,1
0.0674994675802365,0.0136443451569627,1
0.0633050526291058,0.0199696908880287,1
0.0638835977145759,0.0166447465299388,1
0.0680554131373455,0.0172891850973469,1
0.0539549397515922,0.0187771980793473,1
0.0347265424849011,0.0160114860470142,1
0.0371776599341873,0.0212177585482626,1
0.0437429523322435,0.0243560417038191,1
0.0477813285511,0.0279686687567953,1
0.0427847507582945,0.0288479899672571,1
0.0298716616327999,0.0240394931160824,1
0.0284285769122267,0.0245024019895215,1
0.0117507151559277,0.0173500269867882,1
0.000468343032117719,0.0436624802894975,1
0.000131291113871835,0.258595481393397,1
0.000110833995588026,0.241313465055313,1
8.35371180304879e-05,0.239758854724836,1
7.89424083412821e-05,0.244365794675791,1
6.24970508650041e-05,0.0616017867721806,1
0.000572819184133652,0.088984255142464,1
0.000702368115818449,0.0579830863070038,1
0.000699130972471345,0.0589109469413085,1
0.000723134075924572,0.0603698250411642,1
0.000762933928036627,0.0637171971195699,1
0.000782794299298277,0.0658860072586633,1
0.000774894483248975,0.0667996736379455,1
0.000773729249614174,0.0663531063491338,1
0.000766080488704343,0.0659447038840129,1
0.000765242482663767,0.0861287406664393,1
0.000243695419888246,0.0864864716043093,1
0.000110432665991289,0.172901640535466,1
0.000122029039760204,0.147555711923024,1
0.000126018912297651,0.151450796745988,1
0.000111661685138532,0.142266243685892,1
9.99874387727777e-05,0.135397025585,1
9.19816942951076e-05,0.127488163828779,1
8.4062904462158e-05,0.117662135670607,1
8.32894641500826e-05,0.118707816573227,1
7.09927706521927e-05,0.11257804733138,1
7.93509625857331e-05,0.166415234955754,1
0.000109693410601325,0.297759395297788,1
0.000176839474613133,0.436293282097452,1
0.000654223837441832,0.125630508224765,1
0.00537856923592119,0.0758029411734431,1
0.0109547106882855,0.0761523272387431,1
0.0263072153005824,0.0924439278430748,1
0.0389734094166263,0.112549017360575,1
0.044307398588604,0.115654252507256,1
0.0551592937024903,0.101668522232842,1
0.0906438208315118,0.104835606709474,1
0.0942224279861942,0.0619223563587487,1
0.0859763884777947,0.0592939456071452,1
0.0865876946064436,0.0310987885810919,1
0.248444473767288,0.0392745324264899,1
0.331387160721448,0.0262714434229003,1
0.304851117817379,0.0227648374469998,1
0.292788089359951,0.0210896244569991,1
0.244259119345553,0.0168133888246243,1
0.197751983094705,0.0132948930042659,1
0.195032000365506,0.0128651358087618,1
0.174620050172076,0.0117273758075133,1
0.149303586853458,0.00660192808259868,1
0.205356163509164,0.0101734727666583,1
0.313416245378146,0.0228190129036233,1
0.3129081007868,0.0138297480518642,1
0.306750047089932,0.0139064379219177,1
0.307410384493802,0.0148521348615065,1
0.327273628102721,0.00955408675219345,1
0.446546738588745,0.0145002197963638,1
0.47110690404859,0.0150284360386795,1
0.48066361919717,0.0145152402076617,1
0.477587947448055,0.0162644553390213,1
0.395081897084397,0.0158671658893114,1
0.188537962717992,0.004323581060794,1
0.151670366865644,0.00968051751526495,1
0.151109976211649,0.0105661289978222,1
0.119575112863806,0.00733338697138403,1
0.101047470001599,0.0224348089995327,1
0.0563213717061995,0.0103287283228845,1
0.0765334760733751,0.0161123265976939,1
0.106426963703934,0.0286281576593079,1
0.11954417657718,0.0444193811114209,1
0.10688040495258,0.0419959770616116,1
0.0916642236823725,0.0418510614783997,1
0.0703294870511731,0.0380077024788651,1
0.069183082657196,0.0346198198637074,1
0.0533978445693691,0.0315218867508924,1
0.03287542864218,0.0177784526435207,1
0.0203921767182449,0.0172623895932336,1
0.0210498684957779,0.0159953193383974,1
0.0211414769942244,0.01476499285167,1
0.0187590549087389,0.0140697970771061,1
0.025614776262014,0.0258888887207619,1
0.0199605379311395,0.0193489267963353,1
0.0152411750823224,0.0139739049297609,1
0.0193216092822184,0.0199284888468104,1
0.0297213545178223,0.0307637405773992,1
0.0353228907843335,0.0436510737861407,1
0.0361568694234091,0.045723342642533,1
0.03452403359511,0.0649673713788015,1
0.0212974958268645,0.0463426930955773,1
0.015273211891745,0.0309260722264012,1
0.0137922129671115,0.029902888680857,1
0.00892573911647825,0.0216167213019869,1
0.00595580808680157,0.0153615205960904,1
0.00535270784529743,0.0101048820338361,1
0.00782002984096825,0.0143443488650833,1
0.00653276024637651,0.00959773723831587,1
0.00580159429016117,0.0095400760865818,1
0.00740956577046669,0.00550593809545751,1
0.016683217796978,0.0178040549247771,1
0.0276844197030647,0.0250889213563754,1
0.047110024657168,0.0166713975578873,1
0.0942448155814318,0.0303066014440907,1
0.108396158962307,0.0359267385485101,1
0.125833672202695,0.0412201547467827,1
0.17241280783752,0.0462882219542959,1
0.158394947393828,0.028922865021773,1
0.135103910026008,0.0222117978514326,1
0.105684432357648,0.00925823641055705,1
0.109516515205454,0.00992173707567877,1
0.106694813736775,0.00974380704071001,1
0.101379452933507,0.0120728464216086,1
0.111624642992924,0.0132874687456605,1
0.126492696813331,0.0154488880684773,1
0.15298514537838,0.017208921736907,1
0.131284338884968,0.0170122357757715,1
0.128409726395082,0.0193275914242725,1
0.0917620544628259,0.0206372963696128,1
0.0545774648253168,0.0586756208773021,1
0.0600272648942275,0.0680952249551073,1
0.0589499521328924,0.0666506853708376,1
0.0419548313874901,0.0598997614541123,1
0.0288185000077914,0.0478519995306502,1
0.0143520570907814,0.0427368275233135,1
0.0116192273755649,0.0424464848463462,1
0.00582616673978456,0.025351416999408,1
0.00396314319770459,0.0483408068433134,1
0.00412480916750532,0.0697699727794028,1
0.00167365190530256,0.0767956664205929,1
0.000545034776003571,0.112152556946525,1
0.000473984048211873,0.0924246313182234,1
0.00209345036201083,0.0482707034845009,1
0.00739709818632959,0.121641575357919,1
0.024083486332991,0.0559085227571786,1
0.0514803658130187,0.101474451739087,1
0.0971347626806976,0.0932704339843195,1
0.0999626311180096,0.0412319380264839,1
0.0894156391369439,0.0362620712425836,1
0.082549142150473,0.0303469176663204,1
0.078440895025715,0.0246457697024304,1
0.147792386697891,0.0319735471513898,1
0.184235248741315,0.0220674814873034,1
0.157687139200921,0.0185138134774226,1
0.145198224884067,0.0178399788205689,1
0.148169680357307,0.0166436514199096,1
0.224586548970649,0.0219026598366455,1
0.228099477465495,0.019601476024222,1
0.185249994063458,0.0129028234662335,1
0.203668251602317,0.0149319426779469,1
0.178489369753954,0.0131038914546461,1
0.183519478520853,0.0160973860355907,1
0.183220655422044,0.01706607200231,1
0.156901833965745,0.0137370157133257,1
0.123234278249561,0.00987338027997831,1
0.104122067567409,0.0085723157101548,1
0.114378125485549,0.00779834966627948,1
0.158951197967195,0.0143340121670374,1
0.165769666808245,0.012395939033384,1
0.230371078142638,0.010952473677777,1
0.262001477778645,0.00569796109212258,1
0.270117499896135,0.00490775728810815,1
0.278146401161437,0.00633225658870407,1
0.292671740122337,0.00736487688521398,1
0.29508133281299,0.00678185703391194,1
0.281491009903524,0.00520482773852824,1
0.319958458876241,0.0084379932475989,1
0.375623345599971,0.0104111938452317,1
0.41034085001841,0.0174989368286882,1
0.246101926117065,0.0166386347144998,1
0.109028979071809,0.0178415121698336,1
0.0974081569474452,0.0209308289580491,1
0.0880374054830217,0.0186575430185948,1
0.0947685181816223,0.0191402724026685,1
0.06520029579219,0.0147352695004396,1
0.0276306136867484,0.00914926854832888,1
0.0270785978089279,0.0115080882076192,1
0.0238674260455931,0.00938315668528471,1
0.0263084777745303,0.00865609261424748,1
0.025510285248922,0.00816677478393642,1
0.0289036384445142,0.010329203226471,1
0.035393227512743,0.0127324875339814,1
0.0364208539833286,0.0134045334887713,1
0.0348887720936111,0.0151139965241195,1
0.0284412862148578,0.018091953886393,1
0.0215190315712687,0.0124983528867214,1
0.0231948306067158,0.0159652696426094,1
0.0191914579043496,0.0118995527491147,1
0.0235224007430879,0.0195936015181379,1
0.0231938609036692,0.0202373118530252,1
0.0238387773469753,0.0234530283107584,1
0.0213288131154739,0.0223759670617475,1
0.022791755026451,0.020465173097833,1
0.0272488274206582,0.0189456325541403,1
0.0276668943829545,0.0177495324969479,1
0.026853448889958,0.0183570915809165,1
0.0240482407474193,0.0164518118118288,1
0.0230985384636984,0.018806452376073,1
0.0178108717665015,0.014337585611456,1
0.0192960316844619,0.014407882105321,1
0.0308378484276597,0.0259937603556708,1
0.0471403226950365,0.0361847774791089,1
0.0570261105599549,0.0528902851225041,1
0.0535446950468145,0.0570590403802105,1
0.0510655023874851,0.0752954748871066,1
0.0360501253560188,0.0670126086913064,1
0.0250159383499092,0.0482006839591264,1
0.0114717532520163,0.0365783765290557,1
0.00782637077655944,0.0235331407750628,1
0.00448172456047895,0.0246823118740403,1
0.00456014527852287,0.0319807395938826,1
0.00911614229074957,0.015403594478739,1
0.0257069482915313,0.0327065526259538,1
0.0284815025582853,0.0324628800275801,1
0.0311619696202969,0.0330308684478008,1
0.0343281668195318,0.0303868839233442,1
0.0303597458449779,0.0248784230586602,1
0.0391221468186362,0.0286748336779666,1
0.035184087558725,0.0270846871600293,1
0.0313292268695929,0.0179063783780848,1
0.0256806819694484,0.00721909006531704,1
0.0225593688339002,0.00875128524730138,1
0.023375161016421,0.008980503921192,1
0.0256071499665122,0.00756263327354111,1
0.0335341753611389,0.0106276449300249,1
0.035506252225661,0.011465972380322,1
0.0422751659408995,0.0156198216541941,1
0.0457348185806646,0.0178250350974093,1
0.0527826694816489,0.0197242798020918,1
0.041424230805565,0.0249575430716663,1
0.0215702051194071,0.0229491914466844,1
0.0233115980271632,0.0234133003240641,1
0.0178522088245286,0.0222238720535743,1
0.0118784047547545,0.0286718795804601,1
0.0123201632149291,0.0486885635726811,1
0.0051791567623177,0.0438391921786888,1
0.00329078390564572,0.0359156616286006,1
0.00201357180606283,0.0393870493747173,1
0.00350991842999249,0.0419966418872877,1
0.0037234812415889,0.0272865740842854,1
0.00387764181255575,0.0269476536821196,1
0.00404617891165516,0.0206661141269018,1
0.00417220350204192,0.0198116276607268,1
0.00429210414156753,0.0219108748929222,1
0.0039200687979197,0.0134171155496713,1
0.00593772489646152,0.0163672987718592,1
0.0241064970934084,0.0336925065892704,1
0.0319224891986887,0.0318831618041853,1
0.0471628539815647,0.0344056385891365,1
0.0648783419919922,0.0475671381720734,1
0.0993627305993286,0.0445125323873037,1
0.0906936975585727,0.0245774013213457,1
0.0804247908168871,0.0214971657330107,1
0.0658940714866502,0.0157324124675431,1
0.0581962304609272,0.0144077518666239,1
0.0619463328061788,0.0149974810426226,1
0.0702270324610863,0.0168067778017899,1
0.0890586586317755,0.0196469837568733,1
0.0926334894869677,0.00873752855519845,1
0.124801780544092,0.0126403171279219,1
0.123833092378725,0.011099168351682,1
0.111785633559665,0.0128132846136742,1
0.0986309670311341,0.0105406788996872,1
0.104900705204314,0.0131841482621942,1
0.111362929400176,0.0134449546713024,1
0.10207194031195,0.0130650348659175,1
0.0966815022942926,0.0106392171875341,1
0.0571448777571004,0.00443564253065568,1
0.037291991134118,0.0121255404171912,1
0.0327208743176763,0.00643122174231667,1
0.038021682794025,0.0153344010357766,1
0.0301888065078055,0.0109687341339716,1
0.0315614630533829,0.012228489069111,1
0.0359952857205075,0.0134182017621295,1
0.0374320348606634,0.0142662047201474,1
0.0338709105738335,0.0126280686706196,1
0.0316702184856744,0.0141371937697588,1
0.0336327397693627,0.014474745661392,1
0.0179245818826534,0.015098399259683,1
0.00515010665536167,0.020216507750575,1
0.0045940989660123,0.0205105879792672,1
0.00147598478649477,0.00985299284908159,1
0.00122504786400557,0.0312033604991465,1
0.00143582319070201,0.0405395234576272,1
0.00144870261193037,0.0356017777227997,1
0.00143085283697761,0.0396089696900611,1
0.000775949691721167,0.0241906150850603,1
0.000656239333123609,0.033932038330394,1
0.000676819349835018,0.0287443976553571,1
0.000653506763090454,0.0261195430444344,1
0.000776821719501411,0.0265471972548282,1
0.000873380307952462,0.0266507629016694,1
0.000915780702752235,0.0269713849933393,1
0.00124495692752852,0.0354780966278516,1
0.00121886406230865,0.0446824549185674,1
0.00116826631752067,0.0529228340241289,1
0.00124585520338478,0.0630345746957423,1
0.00098168248233416,0.0627326992020245,1
0.000865976492514429,0.0874229210105132,1
0.000219681814489902,0.0639282316385771,1
0.000189311922726929,0.12540903849178,1
0.00013914168864391,0.195578360166101,1
2.02580267036816e-05,0.180462027114076,1
1.86089649979927e-05,0.318081309298066,0
1.47045970612732e-05,0.314982273032203,0
1.21273606660768e-05,0.334922342126071,0
1.15703805904696e-05,0.426470006232955,0
5.57811008708779e-06,0.359719257049578,0
5.58759926616565e-06,0.336656345240395,0
5.97763597788163e-06,0.319660438694608,0
4.59928577187404e-06,0.270202962473056,0
4.17609880172927e-06,0.225139243950372,0
4.14754839841111e-06,0.213954111850237,0
5.77996294513511e-06,0.294476154072521,0
7.81495682913864e-06,0.376592038263875,0
1.02672157954112e-05,0.427601990369392,0
9.38471441700183e-06,0.413507778284743,0
9.17229879538149e-06,0.416076936151603,0
9.3607676933828e-06,0.479908157308681,0
8.38614697591222e-06,0.492814706387005,0
8.63066874329537e-06,0.469649871168482,0
1.04966359125513e-05,0.457292296007384,0
1.07355452087692e-05,0.360678385088109,0
1.57758082117687e-05,0.354029709894497,0
1.30142504223492e-05,0.276705077863369,0
9.02787970814753e-06,0.241053871375127,0
9.17721774116177e-06,0.235995575188938,0
1.32741694581705e-05,0.283723450087338,0
1.48718509667539e-05,0.296940184817077,0
1.55480658141261e-05,0.302608531936176,0
1.69401178709785e-05,0.339203306046729,0
1.37752333746875e-05,0.35399086424633,0
1.45886180642258e-05,0.480121312388238,0
4.86692147747395e-06,0.395627719635666,0
3.18773183819032e-06,0.415254849297789,0
2.72793410692546e-06,0.32620105745387,0
4.21653115169213e-06,0.434854403248743,0
4.59645857604649e-06,0.398501699368562,0
4.99601611343553e-06,0.444635389292105,0
4.89226027632233e-06,0.436491637896477,0
5.00345628796176e-06,0.437998558281265,0
5.12586914280306e-06,0.400998297978727,0
6.04888431241321e-06,0.376816958395268,0
5.83446490637611e-06,0.354064629923303,0
5.21095296380182e-06,0.334465213225126,0
4.91317740088997e-06,0.363592401022613,0
3.14658189043241e-06,0.315491927767193,0
2.78002650240691e-06,0.348860416855244,0
2.56732141192997e-06,0.336632537854654,0
2.3927407947158e-06,0.331294458998037,0
2.74684669715701e-06,0.366311693491474,0
2.917676517912e-06,0.434792225493785,0
1.38404839295084e-06,0.400519766410555,0
1.09307489821784e-06,0.389995900005346,0
8.11619304472565e-07,0.347711745613497,0
8.4134310654706e-07,0.357367355000198,0
7.25184203855333e-07,0.307657240326512,0
7.32965366695302e-07,0.311527288166574,0
7.40988903458734e-07,0.332944065152714,0
5.68014988382641e-07,0.278138336118919,0
9.60244914135033e-07,0.349223204531292,0
1.23905419259218e-06,0.340054670766382,0
1.45102248733952e-06,0.360154184015702,0
1.50590158300537e-06,0.359490181348379,0
1.64464505586754e-06,0.3689198989844,0
1.72028041840738e-06,0.37190170537954,0
1.72757263385224e-06,0.359009027023587,0
1.95980674823984e-06,0.388567035938324,0
2.01492184351495e-06,0.392902918489893,0
1.97915129199836e-06,0.400177152374685,0
1.82283188509643e-06,0.390730817692378,0
1.61540600163997e-06,0.426119362075218,0
1.1545073888168e-06,0.363087817027538,0
1.16249972893662e-06,0.36683719032002,0
1.11501363787192e-06,0.345446078004906,0
1.20498265828166e-06,0.353161433235334,0
1.22969579944332e-06,0.367639579540254,0
1.06600993508409e-06,0.320039665849805,0
1.38463865444577e-06,0.363097295395495,0
1.44538399397395e-06,0.363810327187925,0
1.10602143032587e-06,0.316128462117622,0
1.12242486551249e-06,0.297681332189146,0
1.77241540930607e-06,0.360332429484388,0
1.87307310474225e-06,0.361215703679754,0
1.83167335885963e-06,0.368020277982381,0
1.79830052437737e-06,0.378972344365938,0
1.6241868819223e-06,0.380215338235254,0
1.543519560761e-06,0.392559546998288,0
1.31606003268503e-06,0.365725165289871,0
1.31406472235656e-06,0.37836152057254,0
1.26773590678286e-06,0.389515062144662,0
1.11967933589863e-06,0.411121733562673,0
4.78817484966903e-07,0.307512874810606,0
3.91286902210444e-07,0.24461537911389,0
8.65485484116058e-07,0.326544322106072,0
8.05658945735859e-07,0.306873457245939,0
7.28339639368222e-07,0.286171129700671,0
8.27199628216124e-07,0.299718289551798,0
1.05938912240433e-06,0.322996170433225,0
1.13140327454309e-06,0.320407082499427,0
1.14733516046276e-06,0.316698534323684,0
1.31103437338585e-06,0.331409842559892,0
1.23213806168512e-06,0.324071298996077,0
1.0951527746632e-06,0.335127082793871,0
7.32700795160033e-07,0.289518939542795,0
7.31655782590884e-07,0.295377819884234,0
7.86443988035431e-07,0.303864956782869,0
7.52734439779543e-07,0.295777319081617,0
7.69189469415212e-07,0.299240487705474,0
7.42263766298744e-07,0.284706984044938,0
7.7983172443589e-07,0.286675338909322,0
6.69777539949518e-07,0.263216219423617,0
7.08137037926446e-07,0.271014312620186,0
8.24980841930984e-07,0.296917146132598,0
8.16358794560132e-07,0.29193253788226,0
8.17748245071879e-07,0.28778341589621,0
8.52577497860956e-07,0.299490623239552,0
9.67168169275605e-07,0.324774378039572,0
6.58441159608421e-07,0.273145152978162,0
6.08595747378456e-07,0.280763222845264,0
4.70662862306744e-07,0.261426184878999,0
6.02023454478545e-07,0.30729165758843,0
7.90704429662882e-07,0.356282249196714,0
7.25516043153396e-07,0.352655204364044,0
6.731230050175e-07,0.349403366613418,0
6.78208657862095e-07,0.348504302111618,0
8.75871191738166e-07,0.393530544122355,0
8.68605148477494e-07,0.415263841904615,0
6.64733282651257e-07,0.375992085515399,0
6.12936655348691e-07,0.371238192634456,0
4.62667522509655e-07,0.325270071894383,0
4.71214727932605e-07,0.340020292408468,0
5.0166925139022e-07,0.35377052374004,0
5.30946101551393e-07,0.368700406237718,0
5.64400902215075e-07,0.383568453705635,0
6.30497591002103e-07,0.415535715646308,0
5.35613974344124e-07,0.372883279328027,0
3.99658626513063e-07,0.319912579007478,0
2.92140669158994e-07,0.271262085301079,0
4.34778847997389e-07,0.324338117436073,0
5.05660097022974e-07,0.34319044132713,0
5.1376702481453e-07,0.348456526363653,0
4.93903086936606e-07,0.341990045187181,0
4.71159533870826e-07,0.323118209786988,0
3.45860014600091e-07,0.280103070635572,0
1.92163825471312e-07,0.226454895087294,0
1.88194352539111e-07,0.238917841476117,0
1.55499895071598e-07,0.2182817925247,0
2.18788960925264e-07,0.254784923575548,0
1.33755834472385e-07,0.192527709381269,0
2.08357583216711e-07,0.220206958988471,0
2.04847960810095e-07,0.210297975261794,0
2.54246871078329e-07,0.228556649619314,0
3.55976201219434e-07,0.265462211715183,0
4.02721297006358e-07,0.272018056419103,0
5.29167292929921e-07,0.306659652970339,0
5.38701542158766e-07,0.30256789806985,0
6.31291080632111e-07,0.320583350619428,0
6.12285125445513e-07,0.319767940234766,0
6.02969627681628e-07,0.327421371713,0
5.88410919024508e-07,0.335008123002275,0
1.33785148818512e-06,0.487228678043058,0
1.93570696608808e-06,0.523880652322403,0
1.96556215402703e-06,0.50448905158993,0
2.22181355944145e-06,0.544223555125117,0
2.11853669579643e-06,0.531375411766056,0
2.03173563455218e-06,0.523395667826671,0
1.90651388191469e-06,0.502270640713309,0
2.12422408390151e-06,0.51370705002276,0
2.26130213594304e-06,0.49247674317766,0
2.28773709185803e-06,0.488813688111275,0
1.72677284489996e-06,0.434490207117592,0
8.89110942299398e-07,0.3182770025496,0
8.5071447330011e-07,0.32659570183641,0
7.2890920308998e-07,0.299159610053671,0
8.54258517003407e-07,0.328718812263471,0
8.83677551867208e-07,0.320943090911213,0
9.44940635692303e-07,0.325149366218907,0
7.60578670834125e-07,0.296407658841423,0
5.98027959346022e-07,0.28755002635011,0
5.1214712409647e-07,0.269599669719905,0
4.07784752239151e-07,0.236039459121213,0
6.47042685947823e-07,0.302380418375665,0
7.40074976786311e-07,0.326605889052317,0
7.24181186767973e-07,0.332773189061518,0
5.03664411734836e-07,0.271318820414271,0
4.5635252692763e-07,0.266095386996732,0
4.29776061237394e-07,0.26128427164325,0
4.70382617457737e-07,0.271650742335253,0
4.71995318950349e-07,0.267407136233468,0
4.80575520823276e-07,0.28228917072236,0
3.55121893132764e-07,0.24934399388684,0
3.1215121626352e-07,0.244019118440399,0
3.11029036996584e-07,0.238253682649436,0
2.87430575908679e-07,0.23468732619272,0
3.0959429135805e-07,0.244525791697308,0
5.05288137041419e-07,0.311093062586089,0
5.39131095943917e-07,0.304898864822224,0
5.57445625519639e-07,0.312711385474214,0
4.90341870080935e-07,0.30360638065795,0
4.01682883727204e-07,0.267769035970035,0
3.79897727549385e-07,0.267695563453189,0
4.6041708962931e-07,0.29476023299525,0
5.58987159669007e-07,0.330818785634675,0
5.6038493428518e-07,0.331155479054968,0
6.54058256156398e-07,0.352848850978303,0
6.74264757178626e-07,0.357023732579225,0
1.05221179459893e-06,0.487822455568834,0
1.31417571041557e-06,0.507857677692808,0
1.29332547865107e-06,0.494880480265433,0
1.27434689551956e-06,0.454215978137112,0
1.42830863107872e-06,0.470499484634257,0
1.25896717519348e-06,0.444662056236111,0
1.01842522962912e-06,0.401037125675945,0
9.64974805255334e-07,0.373967382916794,0
9.96338230925945e-07,0.373424937892384,0
1.08063133699616e-06,0.390450693649453,0
9.12454055859644e-07,0.372240233299229,0
5.09252435530328e-07,0.289943409343196,0
5.06242634348927e-07,0.29234383103639,0
4.08140888923105e-07,0.274012548784806,0
3.90527608901321e-07,0.278894832972287,0
4.00811477480091e-07,0.280384887114506,0
4.16276838592253e-07,0.292055554325131,0
2.5877878349877e-07,0.247791771463297,0
1.9509323530186e-07,0.235322486599729,0
1.89906193365518e-07,0.229646061485404,0
1.81438704366034e-07,0.21875616617391,0
1.86711537072316e-07,0.223707709569367,0
1.9053372585053e-07,0.230881407222209,0
9.60631647527146e-08,0.179692762884773,0
1.04373770630945e-07,0.193831671430283,0
1.15385210931703e-07,0.199939636471071,0
1.57645339247471e-07,0.21216490253692,0
2.67065766918494e-07,0.276004959735352,0
2.75514357951172e-07,0.279472029338551,0
2.72849744631688e-07,0.278171427307037,0
3.13538492009246e-07,0.304438220120815,0
4.91467124017074e-07,0.38880210133601,0
5.51345781789849e-07,0.405972860812648,0
5.84311935026149e-07,0.426422493262797,0
5.84243767360173e-07,0.41680009894663,0
6.08824922721931e-07,0.429606718991904,0
5.47691499946859e-07,0.433275459267036,0
3.54138898891184e-07,0.346094757175416,0
4.04329124023405e-07,0.322221031873899,0
1.64039211343326e-06,0.616626124572532,0
1.93807858593016e-06,0.562845737726158,0
1.73093099753248e-06,0.521313291945687,0
1.57134636692956e-06,0.485479394456409,0
1.45914051393698e-06,0.456177719300001,0
1.45480110580538e-06,0.40128149207107,0
3.43028244264701e-06,0.469689257207227,0
3.58486031191756e-06,0.370571433733921,0
3.36871466660315e-06,0.355638789956912,0
3.30597881623012e-06,0.354536748294248,0
3.11060893569198e-06,0.34596263197855,0
3.03316266798386e-06,0.347497705280113,0
2.86974167512762e-06,0.337794021504746,0
3.40599518066584e-06,0.367933120440344,0
3.32039256548314e-06,0.331188274143917,0
3.39950387905224e-06,0.346212470258032,0
2.0700625110388e-06,0.320198505994524,0
2.17890280112568e-06,0.413094967881995,0
2.70707375125017e-06,0.476757782854855,0
2.54766940125121e-06,0.454780547229664,0
2.19047893067263e-06,0.418497820045105,0
2.2516000547709e-06,0.429156909037463,0
2.62943332943071e-06,0.408242430971442,0
4.8341445288815e-06,0.565485010259014,0
6.00301564733283e-06,0.680470789559106,0
1.67580974541977e-05,0.40654301252735,0
0.000139824591646716,0.376013117883744,0
0.000213432926170527,0.165186284128639,0
0.000204841790698925,0.154117527451096,0
0.000201148336445416,0.148575003910185,0
0.000195091285511634,0.141817232548481,0
0.00018924018964455,0.144548053170607,0
0.000191056191939429,0.141354232193355,0
0.000199354649124713,0.142869442088686,0
0.000205516697087072,0.135737288979196,0
0.000210897343593878,0.152137535065894,0
0.000107176155227889,0.175809948485647,0
2.85664245944652e-06,0.292133255745989,0
1.37033236863097e-06,0.550940138309561,0
1.10089918141858e-06,0.484605248267725,0
1.59225531737664e-06,0.303062719187206,0
5.08119082465559e-06,0.425790064480829,0
5.17026684114186e-06,0.405538765394482,0
5.08636076843148e-06,0.404731819748491,0
5.06641313955771e-06,0.405414655760226,0
4.86678619202905e-06,0.397341832566954,0
4.54020195358604e-06,0.38413412796354,0
4.12255688719873e-06,0.366277042934457,0
4.15061324367043e-06,0.367893035353116,0
4.83612019132385e-06,0.39794424294413,0
4.6347311583745e-06,0.593187183889449,0
1.30115231157748e-06,0.396943278920397,0
1.24260693535956e-06,0.403476535953253,0
1.22571275297147e-06,0.41049550151102,0
1.44757585815559e-06,0.437946874503353,0
1.79347246881838e-06,0.483422380661631,0
1.72659773873929e-06,0.457587119901252,0
1.61189720414461e-06,0.444332099341364,0
1.54897064928909e-06,0.457919141349741,0
1.35322063464883e-06,0.439898883917757,0
1.26088284409042e-06,0.442344669498438,0
8.83081216025808e-07,0.382925397160257,0
7.01171787304084e-07,0.351827622571191,0
6.30691370153785e-07,0.327323122224152,0
5.73863684132948e-07,0.337210639491474,0
3.32199859269382e-07,0.238610430381545,0
9.02554520931168e-07,0.401700512101294,0
1.03768878210133e-06,0.389120925818356,0
1.07944286486155e-06,0.390759536142627,0
1.11968076074533e-06,0.382830660491518,0
1.41757571081254e-06,0.435557486810924,0
1.86235285811254e-06,0.488675538635339,0
2.86883584758383e-06,0.563723973188986,0
2.89731808323602e-06,0.550728842856091,0
2.93347169354007e-06,0.536800227562291,0
3.14201705655392e-06,0.559792749684415,0
2.27852035846828e-06,0.428225987923914,0
1.93200836401342e-06,0.400714807270418,0
2.10220045338068e-06,0.420666053181671,0
2.05966090512715e-06,0.418801908886577,0
2.13190085797246e-06,0.421006762515364,0
2.03026519275413e-06,0.436647619057428,0
1.24214558499534e-06,0.357878118021216,0
1.34909607840174e-06,0.378570022806997,0
1.31120902959493e-06,0.383879405711316,0
9.22087294438417e-07,0.339973957231632,0
2.91108780177904e-07,0.22363397263889,0
2.38230469251555e-07,0.217739691478694,0
2.12152774899489e-07,0.202756988125046,0
1.63776004661217e-07,0.183551047823137,0
1.72142104568953e-07,0.19221890511023,0
1.81443578841599e-07,0.192580984679361,0
2.49218812037329e-07,0.236807887224096,0
3.93505163552062e-07,0.29402489835921,0
4.94718399218758e-07,0.291687884875286,0
5.76879559660821e-07,0.32518743832433,0
7.55372955906773e-07,0.369214595481811,0
1.03157124027565e-06,0.433024889726142,0
1.48608991450389e-06,0.507838843640872,0
1.66219976719061e-06,0.474137220231391,0
1.69828490986096e-06,0.47241571984045,0
1.67955410007201e-06,0.47508029476042,0
1.61206256135415e-06,0.44829243702997,0
1.17976167175808e-06,0.388975530216083,0
8.35827299981859e-07,0.358331045520954,0
8.40671853765828e-07,0.366587258165607,0
8.65549377241922e-07,0.380091301389491,0
8.12630570672421e-07,0.35225161725234,0
5.70990068299633e-07,0.309463147150175,0
4.18166110329217e-07,0.301663612929401,0
3.4012500661834e-07,0.28437926654491,0
3.45746026863808e-07,0.290534372792683,0
2.6137650401512e-07,0.267436363900432,0
2.48639874324101e-07,0.267936835766729,0
2.78269861491957e-07,0.269032522576274,0
3.57773007904531e-07,0.281364809406642,0
2.2286102282012e-07,0.220219221506369,0
1.9587915074676e-07,0.216299918159785,0
1.92984837140278e-07,0.206158591276497,0
1.91629807925211e-07,0.216035170360825,0
2.29225138117451e-07,0.231408777852177,0
2.64517541077109e-07,0.238666063564963,0
2.56055076537054e-07,0.237644141120563,0
2.77505243755678e-07,0.240477380162012,0
3.53904549104418e-07,0.260897040465836,0
3.38399217292625e-07,0.252681032492117,0
3.68723929716354e-07,0.251250169480265,0
3.56733844706059e-07,0.250465577289031,0
3.77804777725746e-07,0.256174878664602,0
4.12821210376509e-07,0.249536569179771,0
9.73451368278561e-07,0.359055093299312,0
1.5205205101837e-06,0.449052825665935,0
1.84227879284181e-06,0.484394037932788,0
1.84138038949926e-06,0.461540107186312,0
1.95592119127928e-06,0.493142148332692,0
1.93850806472338e-06,0.52046239184664,0
1.893665889205e-06,0.516857488593697,0
1.90322286098917e-06,0.509101016180978,0
1.78481720002176e-06,0.502182868970176,0
1.66174381624548e-06,0.484268172782152,0
1.38566754374959e-06,0.467955154665937,0
9.30340531488847e-07,0.388945840154036,0
5.09662791380947e-07,0.277856547886925,0
4.90503327710026e-07,0.286033485327227,0
4.26653322206755e-07,0.266805531895636,0
4.24441435179338e-07,0.261196113731475,0
5.41450371417623e-07,0.295248888688586,0
5.01846232349187e-07,0.279811651313604,0
5.04410956415559e-07,0.286487045662244,0
4.06844728374473e-07,0.2564060496553,0
3.93200321349436e-07,0.251516952132468,0
4.15035572137674e-07,0.251590516344149,0
3.94142220012408e-07,0.255664053159034,0
3.8244047897975e-07,0.266427672505608,0
4.15058969620385e-07,0.268602701072196,0
4.55751466594532e-07,0.286721815580781,0
4.17612669872789e-07,0.266527967861556,0
4.59943140620553e-07,0.266128285521828,0
5.54410777033029e-07,0.294106828411314,0
5.9823606195667e-07,0.319951862867144,0
6.85391685054303e-07,0.381799100872783,0
7.16097581467196e-07,0.398831719490553,0
6.32773146179589e-07,0.365929280926251,0
5.05106881542341e-07,0.327640418368563,0
5.46732278147648e-07,0.363309591388907,0
5.28071285847171e-07,0.356297243430895,0
3.57186196038468e-07,0.323692123631066,0
2.63869835762453e-07,0.342746034208623,0
2.48385576683486e-07,0.327761942847584,0
2.53739325684141e-07,0.326499420088235,0
2.26951007786668e-07,0.274387017109132,0
1.64905758113261e-07,0.229302486806477,0
2.14489223525569e-07,0.255174338279546,0
2.6162885186551e-07,0.277358825742505,0
2.56148066532443e-07,0.267394209872735,0
2.56406038777716e-07,0.267350963599705,0
2.83208155190634e-07,0.274871200760022,0
3.15697134765111e-07,0.279605408100719,0
4.76653517783883e-07,0.337696907595766,0
4.83602195189325e-07,0.340786145771213,0
5.13523376028225e-07,0.359406413457145,0
5.1404869451024e-07,0.35320956869842,0
4.5227176596869e-07,0.345501846168657,0
4.18495399901598e-07,0.339079868116704,0
6.07749613412348e-07,0.39420299192427,0
8.15974835869493e-07,0.441791221886075,0
8.20525946224466e-07,0.426024350483956,0
