Activity,Complexity,Tag
0.0104063566885433,0.0169147415888291,1
0.00198751906096462,0.00874094742786334,1
0.00195626993741359,0.0166456353709819,1
0.00212166463127205,0.0144169990075779,1
0.00230713334888116,0.0143872299392244,1
0.00222991695434172,0.0130947970693197,1
0.0023654098426908,0.0160632208739225,1
0.00219395782774332,0.0157262611060377,1
0.00215005831472019,0.0164453527385972,1
0.00188272285915021,0.0147037543238353,1
0.00213940525272587,0.0224567226766644,1
0.00230356229638884,0.029028423804383,1
0.00152548566400765,0.0250475964570432,1
0.00136554736673863,0.029526797027874,1
0.00177143444648672,0.0407966667209901,1
0.00270082873108836,0.0399431971858705,1
0.00269030498492085,0.0310310504628393,1
0.00354161214024085,0.0321345831408825,1
0.00357872933370302,0.0309748931447812,1
0.00355087048554626,0.0277496151741108,1
0.00384302066878136,0.022731898031073,1
0.00505536481372899,0.0250917672049843,1
0.0042492470762313,0.0151129418713462,1
0.00300625509263811,0.011319798387805,1
0.00830175754108787,0.00648672399014786,1
0.0194175636974355,0.0119569057571982,1
0.0186711936308365,0.0113667441570725,1
0.0229945389808518,0.0136872810426527,1
0.0329468869245409,0.0198686242195655,1
0.033639141439456,0.0150346206508249,1
0.0331785820771965,0.0139804999836602,1
0.0318886133261887,0.0122098403258686,1
0.0238350226672458,0.00911663230818489,1
0.0135476210404426,0.00292004166383512,1
0.0115236645400714,0.00298719753376172,1
0.0273042245848826,0.00950402998405821,1
0.0256399803134032,0.00588680492901113,1
0.025189340751995,0.00585249694905637,1
0.0253381489339775,0.00401451160048703,1
0.0328108380219274,0.00826009876430501,1
0.0490697171463962,0.0133078266611272,1
0.0479752987495669,0.00921363567084364,1
0.046513242478461,0.00831250321100162,1
0.0433640135141226,0.00877381935877698,1
0.0447073774321236,0.00993371549105918,1
0.0433658104880169,0.0102017310745351,1
0.0575493406297541,0.0125601668954233,1
0.0545080864255607,0.00840486797004271,1
0.0420617504432232,0.00687080504175672,1
0.0432163558019116,0.00655227580427282,1
0.0440957075497878,0.00703788715360184,1
0.0524984912513219,0.00661665116534157,1
0.0534248082744998,0.00231660504969981,1
0.0809922125839146,0.00515412340375891,1
0.0926659103214475,0.00311081517353537,1
0.123234090689466,0.00451140601090993,1
0.121949327063146,0.00275689516251416,1
0.12043834187549,0.00353823050253179,1
0.123533820894123,0.00427800188366033,1
0.123677105821735,0.0039677599123947,1
0.123613110181386,0.00307105371653595,1
0.124281129404155,0.00474718378784921,1
0.121080331824905,0.0057371842559381,1
0.114533417073708,0.00344898265039434,1
0.134636968090371,0.00720340601875784,1
0.114788794309258,0.00805422438250639,1
0.107480765219139,0.0105277861016888,1
0.117005882091422,0.0109823199116629,1
0.114828889343545,0.00995798964251293,1
0.104026537539292,0.0096056283481148,1
0.100670607061302,0.0100854717744554,1
0.103582403492545,0.0122528981279199,1
0.0310638335647027,0.00513895386613443,1
0.0142040655594376,0.0125023122386634,1
0.0168424939579363,0.0126376712918267,1
0.0173725259349915,0.00997774978530705,1
0.0184956468579076,0.00974067882255386,1
0.019165393117224,0.00948341269677011,1
0.0135092576443242,0.00541885055049024,1
0.0162535607413549,0.00983315022264396,1
0.012697362562063,0.00664249166902622,1
0.0144413246340184,0.00712869145034267,1
0.0174285911350925,0.00890665444956791,1
0.0172980556256465,0.00771934423687269,1
0.0169682889709209,0.007109724164937,1
0.0209605008815634,0.00982927282202318,1
0.0193785964784802,0.00598855341876877,1
0.0205105960969075,0.00605954192525444,1
0.0229635400328948,0.00908075631735277,1
0.0162886903164685,0.00601829193490433,1
0.0148706606055601,0.00529855324007132,1
0.0153269672687013,0.00611012522072817,1
0.0151247897876378,0.00612985631886925,1
0.012597526119442,0.00508731445149319,1
0.012201946205809,0.00933940593999914,1
0.0109579900474149,0.00823850182800998,1
0.00739909458964927,0.0136620045222483,1
0.00258481145530858,0.0175592419451316,1
0.00212407251173668,0.0186875918549247,1
0.00556982818920011,0.0229503127160966,1
0.00673439731371534,0.0183329320089334,1
0.0139654198192836,0.0202264753311468,1
0.0189284159040672,0.0172389609043205,1
0.017426696180758,0.0141955220693271,1
0.016207657807797,0.0111680026771677,1
0.0143744212507621,0.00752022724803458,1
0.0141378909401621,0.00704239963597782,1
0.0129654934240304,0.00617311449716275,1
0.0104126737257267,0.00381588404046495,1
0.0155576615478612,0.00716014457346077,1
0.0168400783435424,0.0077875594753106,1
0.0155255395716706,0.00945403842629022,1
0.0182484928182497,0.0120048243905754,1
0.0181033111820349,0.0118882561562722,1
0.0187940799796813,0.0112389121208266,1
0.0277253874975316,0.0173147177002287,1
0.0221963845384071,0.00606127279509578,1
0.0262534860291518,0.00767673140853325,1
0.0269230453469645,0.00841632221645567,1
0.0271526287255486,0.00817720422912196,1
0.0275923848248097,0.00872634132972446,1
0.0260813517102038,0.00836284512050394,1
0.0260777020303344,0.00754706962130805,1
0.0339591560146521,0.0094755707558163,1
0.037888963193116,0.0113162728481814,1
0.0216262020425798,0.00662344928847419,1
0.0230364990250193,0.0137224389015606,1
0.027935764494356,0.0166970842648213,1
0.0293154190011652,0.0150370760090762,1
0.0283474040707869,0.0175000361804615,1
0.0220583171199663,0.0136139322878574,1
0.0164867481407787,0.0108661025663902,1
0.00661618444459121,0.00545139097920212,1
0.00840621105360983,0.0125051456641671,1
0.0123378713865052,0.0229072337585449,1
0.0169445674943455,0.0290091588390661,1
0.0262390140264764,0.0425378860770237,1
0.0219594163419902,0.0228729563104069,1
0.0216008510555805,0.0180446064818103,1
0.0401353599747984,0.0222783137071205,1
0.108140270620576,0.0369332568506949,1
0.185205581699383,0.0533662640050673,1
0.226874858957827,0.0363793829110809,1
0.208048376401365,0.0245131464926388,1
0.191843579234504,0.0190177797977692,1
0.18920919832236,0.0191830341429466,1
0.198075810693659,0.0215182189857957,1
0.149087386420613,0.0161887311713643,1
0.118083233946072,0.00989985968261158,1
0.0927989200786355,0.0057508843889593,1
0.132623322118877,0.00851475902782151,1
0.146847640132277,0.00678722815384521,1
0.144364968147875,0.00777781824641125,1
0.116349032856696,0.00752927808968685,1
0.0747322445749166,0.00301875864469498,1
0.0849781136030265,0.00225050245369258,1
0.111020495249706,0.00318319105949208,1
0.100283297929297,0.00220434672379205,1
0.149058435498106,0.00547914118261676,1
0.141965697848094,0.00361307081628153,1
0.138043302176837,0.00448849043321013,1
0.144280798579851,0.00633004960492135,1
0.155378244037457,0.00407535960557261,1
0.217082244024218,0.00507670374481997,1
0.20832670211716,0.00443209920406494,1
0.215898482928025,0.00422463635751064,1
0.324523671038999,0.00853849399713201,1
0.337476675575388,0.00624512860678555,1
0.263730543718191,0.00379373952740489,1
0.272913068882453,0.00521965009682302,1
0.285326918067163,0.00552609270547502,1
0.317481620530232,0.00619700614716744,1
0.372449792063034,0.0104155122868734,1
0.232159558704787,0.00750408636228412,1
0.199852188433918,0.00668361913013405,1
0.195454339547773,0.00988455465461188,1
0.211241346261316,0.0107084468191542,1
0.158245306136845,0.0304296247802009,1
0.0816366629426587,0.0435415058033113,1
0.0647964620406067,0.0285007002521544,1
0.0316980369962442,0.0158367854417976,1
0.0475493033670739,0.0106848161391182,1
0.143508933677572,0.0288235236842828,1
0.261628128095757,0.0245954785254371,1
0.60420572607371,0.0467493423612013,1
0.831596689906201,0.0472709026628484,1
0.783873670806066,0.023121578994031,1
0.716576413202866,0.0214004189584374,1
0.672097763361612,0.0196084021332619,1
0.687361810596549,0.019922552492893,1
0.769753379164448,0.0217057152548853,1
0.873322311161987,0.0287754477242851,1
0.947285378732875,0.0301519420600999,1
0.953664580095114,0.0427225692547782,1
0.614268777751224,0.0348531433785383,1
0.164425490291467,0.00930194209858872,1
0.0643938044235894,0.0264802514950065,1
0.0181945207596757,0.0101808534356479,1
0.00879374696222345,0.0104740807193162,1
0.00837532236011087,0.0194010625218485,1
0.00919741037286276,0.0176427610304631,1
0.01081969167825,0.0181063080492873,1
0.0111287258772792,0.016867508053032,1
0.0123996893584282,0.0200473973452968,1
0.0110774238591384,0.0193063080331877,1
0.0122083697211,0.0179136036529037,1
0.0144057025475701,0.025636437723747,1
0.0150128129423158,0.0267260374865045,1
0.0179243249356722,0.0305781931640395,1
0.018896921244049,0.0155171447178564,1
0.02999540465945,0.0190067958120474,1
0.034301917513545,0.0129497348348273,1
0.0343323536500706,0.0115252176494155,1
0.0471953330471364,0.00927106134661019,1
0.0652553083749729,0.0141341992674188,1
0.0670668498549185,0.0139873945919123,1
0.058637402948946,0.0121589774810977,1
0.0534944481177696,0.0109009309572027,1
0.0370723543535795,0.00518086320118045,1
0.0293177459331509,0.00582510925178294,1
0.0299468148840987,0.00429966974188242,1
0.0359837289268667,0.00779320788087328,1
0.0308262370324285,0.00366387590653971,1
0.0319090594574349,0.00594112065267559,1
0.0272306515193043,0.00412040843205449,1
0.0339460208400097,0.00612787337344024,1
0.0376640642545471,0.00708945042500277,1
0.032666101646518,0.00597152347414438,1
0.0344083668169851,0.00793127913416887,1
0.0347166073364884,0.0071326741048014,1
0.0324311173719452,0.00906347825414829,1
0.0141112007395653,0.00254263829146977,1
0.0123120205823339,0.00617183069908915,1
0.0115003118983303,0.00845306630499603,1
0.0077993152862785,0.00623785478288637,1
0.00790205723025792,0.00746172477080293,1
0.00964172237909616,0.00803263384175202,1
0.0102307891853907,0.0090870615985211,1
0.0112769497040561,0.010571641613838,1
0.00963173302401246,0.008861406608032,1
0.00806354755566806,0.00865440806898682,1
0.0131881226698063,0.0113355521765474,1
0.030029151395739,0.0211918354813554,1
0.0752113601392592,0.0427713769579952,1
0.11779230421376,0.0579453936483242,1
0.130642771643875,0.0612001594456051,1
0.121579649826785,0.0552651360190245,1
0.110371047041702,0.0448140286354281,1
0.0990547556263626,0.0429543409135313,1
0.0789170324047481,0.0353192978613567,1
0.0536283397566434,0.0206505734622245,1
0.0472833389997783,0.0154939657618247,1
0.0562446446753055,0.0177622994204311,1
0.0758948728597153,0.0240074239316481,1
0.0834341639554237,0.011309165456738,1
0.0914663143522911,0.00476028811674931,1
0.174220261080302,0.00722745489314599,1
0.409820958375657,0.02118487501616,1
0.458267120858988,0.0117973566648088,1
0.410468467670358,0.0110210230265806,1
0.343004400045935,0.00918274097511356,1
0.327149571437174,0.00867795714692524,1
0.328331342522715,0.00802590467354027,1
0.383568722665846,0.00793552494595662,1
0.330877455702725,0.00603452781692122,1
0.262620102791797,0.00579197158291243,1
0.252287409190602,0.00760857172793344,1
0.137205995001199,0.0021808877466582,1
0.0995794915247396,0.00366849549735691,1
0.0947687868870306,0.00367592545566348,1
0.0940730404231463,0.00428106995697646,1
0.0938877534736049,0.00466977276690562,1
0.126844063799381,0.00696141779742095,1
0.0854512060058715,0.00284512226275162,1
0.0905231172229903,0.00753032866852873,1
0.109791366534029,0.00556552729917985,1
0.120998025637904,0.00407346218629136,1
0.147077982726941,0.00472138931926536,1
0.210254174652811,0.00805324248823263,1
0.247384057952774,0.00974443954999744,1
0.316317126788562,0.0122313121028592,1
0.378769522084447,0.0148150022484279,1
0.332586795097249,0.0155162503815704,1
0.366882807183788,0.0226802059726679,1
0.391687092948134,0.0242033590153035,1
0.244680031034713,0.0309894484905396,1
0.0958516002098841,0.0263560915169111,1
0.0614140306990501,0.0348058280534325,1
0.0533664989434659,0.0283389202142309,1
0.0252615597060273,0.0140894755994752,1
0.0164141990234628,0.0134005345117202,1
0.0117766548344453,0.00858121407454432,1
0.0108599218527281,0.0109873213702101,1
0.0112836639071991,0.0111612073921881,1
0.00946660997070175,0.0162219754638104,1
0.00728983355747912,0.0227554063794245,1
0.00818254751504374,0.0243007663466847,1
0.00838857701867842,0.0197537095059617,1
0.00826525708925516,0.0259367594220466,1
0.00408035397935477,0.0245337439839467,1
0.00201005698104382,0.0163440077944772,1
0.00392671822772969,0.0401657708319275,1
0.0043049351971403,0.029851835122911,1
0.00537679674276583,0.0250186085009654,1
0.00547502786742737,0.0223694208889245,1
0.00509510248683483,0.0174467156897871,1
0.00437622983066912,0.0160614726159863,1
0.00430385720088873,0.0158002448603331,1
0.00428326884102983,0.0142071886696337,1
0.00396070706593507,0.012142661491886,1
0.00368732647919912,0.012553518511686,1
0.00452827884648095,0.00977745548271403,1
0.00901278991707775,0.0232019217629687,1
0.0160397506747473,0.038687327715654,1
0.0147560367526707,0.0338811697734697,1
0.0332370995187446,0.0264187515341672,1
0.0480856548134661,0.013169493119053,1
0.0461264041317626,0.0123607705863228,1
0.0432919600153968,0.0127103238254106,1
0.0387344133164677,0.0113894504783849,1
0.0313955514835187,0.00750073488693196,1
0.0327786268615441,0.00854504201687881,1
0.0341837210527043,0.00834155913567713,1
0.0355774484777273,0.00750910219404929,1
0.0361278071535273,0.00568279124160537,1
0.0324480406431183,0.00857810647815617,1
0.0212104066058925,0.0103578987860093,1
0.0220781248516804,0.0137997417901032,1
0.0199133372695364,0.0110591004106841,1
0.0233342931231433,0.0116995856137622,1
0.0228341264335451,0.011259345293517,1
0.0203275243290629,0.0103276190913009,1
0.0207834292000103,0.00747649522947146,1
0.0213480840344065,0.00540105149322774,1
0.0299663142170885,0.0113196333552335,1
0.0295462589341121,0.00991402864878154,1
0.0293792722388519,0.0103728533529417,1
0.0322393692474821,0.0104350302934983,1
0.0346134736635505,0.0110140754148175,1
0.02627076831322,0.00820727868069708,1
0.0308204164067281,0.0111425492612134,1
0.0359213693468054,0.0119315829995938,1
0.0239727467923481,0.0113346311662619,1
0.0134722900698463,0.0149819682840369,1
0.0150586855279406,0.00961722337133858,1
0.0219744976096311,0.0192697577560964,1
0.0225985107835456,0.0193667211747257,1
0.0262931590029561,0.0196197329478606,1
0.045991628186228,0.0270940630300932,1
0.0664742929068119,0.0435726861749844,1
0.0660385344254529,0.033556017486822,1
0.0865909779597621,0.0318992799021069,1
0.0796579985470699,0.0242590674763296,1
0.13891795821337,0.0148043843304938,1
0.199194761685546,0.0117764882939304,1
0.185813429979309,0.0106626791467334,1
0.159070668355839,0.00989686543063342,1
0.123872822868613,0.0073922369695845,1
0.118200139238495,0.0062247162559082,1
0.147402115018266,0.00574724555583736,1
0.147339051933841,0.00375020978948099,1
0.14692783027806,0.00367521371678295,1
0.14900375839773,0.00313888288496011,1
0.160928717092059,0.00664215688363171,1
0.176768990131303,0.00926498203920892,1
0.210875515674402,0.00773013318574645,1
0.192815795091549,0.0058409825535622,1
0.212037649656385,0.0061469166400703,1
0.151895693401618,0.0035806146819562,1
0.146547763267334,0.00391948128545046,1
0.146250278102536,0.0057449155759808,1
0.0998657349649012,0.00271021289283747,1
0.0974120049631819,0.00361728774735897,1
0.102264391343302,0.00407921210830596,1
0.119935471990755,0.00458752047552773,1
0.113536442610492,0.00468096343800236,1
0.106622594159502,0.00428818475273207,1
0.0990391464184635,0.00475323056089769,1
0.149566916966247,0.00337902047972958,1
0.201631747088332,0.0014189718543281,1
0.29080998583655,0.00404249392861734,1
0.317742613038513,0.00370588310303022,1
0.316231948172569,0.00371791068376449,1
0.309513418849894,0.0033946620262327,1
0.346486441550015,0.0046080494721855,1
0.340979011887859,0.00425328457700187,1
0.3559028897859,0.00351115595443868,1
0.468346690269165,0.0059099338696087,1
0.33441567548674,0.00526503821950938,1
0.194065673615293,0.00634190080058515,1
0.241671657419476,0.00856339926519327,1
0.260596574764936,0.015102151937058,1
0.228715711013114,0.0127630449750028,1
0.186806331094117,0.0099323348053282,1
0.179564988973195,0.00930763878339072,1
0.0979176194752258,0.0064952860266118,1
0.0311456458983707,0.00506875496774846,1
0.0317488142697257,0.00494641635765112,1
0.018582994417428,0.00270298783812882,1
0.0132490693902589,0.00414618402740626,1
0.0149430531609509,0.00487625034406088,1
0.0177568594784151,0.00638177999359186,1
0.0179679364068965,0.00607168260969132,1
0.0183643891922149,0.00818757537429445,1
0.0155746809344474,0.00750884846010295,1
0.0154730545602044,0.0100534812562198,1
0.00881547233479653,0.0115135434679344,1
0.00625074275173589,0.0199144130299741,1
0.00711503518903995,0.02181902229686,1
0.0127764559638962,0.0298217610548078,1
0.0145135027341398,0.028493959963357,1
0.0108685843713725,0.0225660854576907,1
0.00978539900533988,0.0204479994609484,1
0.00728552330300708,0.0144595950418551,1
0.00994680832235001,0.0195239882609537,1
0.011886176300738,0.00735029704011326,1
0.0153851721828269,0.00802183303787328,1
0.015179381182324,0.00573338054705644,1
0.0150643041367697,0.00447069021106727,1
0.0146003420806428,0.00286258305167729,1
0.0235507803947892,0.00656535974987136,1
0.024563899970253,0.00561896947500347,1
0.0352111464670318,0.00295829115467066,1
0.107114092069209,0.0160155442668929,1
0.129327924554444,0.0123502534628787,1
0.125170640698242,0.0154139949639781,1
0.10629992835662,0.013473041423588,1
0.100240711069716,0.0137196864277033,1
0.0816588287281387,0.0116766905583543,1
0.0610531208039184,0.00901255089108586,1
0.0669432728434404,0.00790630789121675,1
0.0651688437878789,0.00758505539161633,1
0.0651250024927117,0.00640608759710817,1
0.122622096952268,0.0107025723436951,1
0.15203573209737,0.0106698418044391,1
0.169348210715181,0.00941383370954593,1
0.178341328889594,0.00622993612249421,1
0.187689160390697,0.00685909709585989,1
0.189640203309059,0.00540733243976037,1
0.203496793325615,0.00547127453264118,1
0.189841986224945,0.00594771739253264,1
0.183801489077918,0.00436584185334436,1
0.211475389161887,0.00699894299637095,1
0.141340326117188,0.00271693008437054,1
0.116701903137607,0.0021586292930921,1
0.111233167636848,0.0020182612550886,1
0.11693638691976,0.00503141432118776,1
0.0980893057430063,0.00291286687052563,1
0.119188345474557,0.00476051873655971,1
0.146890478169556,0.00782683190962512,1
0.148407115918619,0.00757460779773244,1
0.167739825065893,0.01143331553632,1
0.18330493074282,0.0158127177761274,1
0.138160847149845,0.017203214937379,1
0.0607480162109789,0.00909078949041974,1
0.058121127230614,0.0112354746571174,1
0.0553658877771853,0.0138805578667343,1
0.0293425738839026,0.00788168311428172,1
0.0580414114094401,0.0335950919196412,1
0.0841735115215379,0.0293151476238618,1
0.20961341216729,0.0396738732911173,1
0.252377181312398,0.0335434196456626,1
0.222944117333945,0.023680672848244,1
0.188660400998812,0.0203626091536475,1
0.170492956417287,0.0168027912698996,1
0.168163659332259,0.0174711139786914,1
0.174042476264077,0.0177018779545901,1
0.226980037066807,0.0183000501117606,1
0.212154326186598,0.00919446285560733,1
0.195322387995426,0.00626561566726021,1
0.221951401445342,0.00852955681448142,1
0.264376740198439,0.0114804761441091,1
0.256880671183826,0.0133476477222212,1
0.17408632844482,0.00834489285980074,1
0.148673194951096,0.00744836131985094,1
0.133194726693755,0.00602799658058998,1
0.132719667482631,0.00592499331120553,1
0.131472690855161,0.00547238105520279,1
0.0979590310471345,0.00631971943027998,1
0.077461054410868,0.00624361901893658,1
0.0904935123407941,0.00506963104039417,1
0.0979689598200411,0.00493773942719743,1
0.0954328565671114,0.00396398571390448,1
0.0978386547722807,0.00439658390155574,1
0.0983449821967465,0.00465498372740496,1
0.0970929943439773,0.00466772784785772,1
0.095848833288981,0.00551695089002577,1
0.06002022035782,0.00142397399970753,1
0.0735102851076221,0.00515423447813957,1
0.0633134228173613,0.00618204544712127,1
0.0626131246614954,0.00836336550552366,1
0.079552311528141,0.012549951431898,1
0.102525309241412,0.0162020346212019,1
0.137031361599321,0.0190177596925442,1
0.132916505546063,0.0152696291680228,1
0.139415563268082,0.0154725190151499,1
0.139228497735748,0.0145296860869388,1
0.16161394411897,0.0203766055648035,1
0.138669329412343,0.018070886547228,1
0.136610885073221,0.0168404985832407,1
0.172650363834204,0.0227445781049152,1
0.21378011200608,0.0266831923282191,1
0.245199618010036,0.0297198683051812,1
0.2808964955937,0.0367031120461415,1
0.255244800875439,0.0454563660881299,1
0.225547181297813,0.054632324182608,1
0.100056925800347,0.0408798344649604,1
0.0515934661401274,0.0901521214215652,1
0.0250958065587819,0.0670614814996792,1
0.014191779559794,0.086384853824893,1
0.0114064265771995,0.104519651139271,1
0.00573899946432842,0.0976167793699785,1
0.00287867419512574,0.0623907180773163,1
0.00157992850964622,0.0315491199815205,1
0.00212746861574375,0.0195567759807367,1
0.00227510544463168,0.0129915325479707,1
0.0024953652141195,0.0149236402322045,1
0.00260810243541304,0.0118941990410514,1
0.00286244874591676,0.0121825352487248,1
0.00306642248592312,0.0087180497074398,1
0.00813488390192863,0.0156929326180477,1
0.0174419406346135,0.0253964419972626,1
0.0183051298137045,0.024366037650622,1
0.0173301268550778,0.025065348513887,1
0.0211659400743586,0.0294911740435263,1
0.0245541374979951,0.0425260493527325,1
0.0209727855484378,0.0385006247494242,1
0.0165215674544851,0.0352426645444023,1
0.011939048723764,0.0195735226920186,1
0.00713622271693256,0.0146395130745222,1
0.00731050207687963,0.0108231024637702,1
0.0110520899821885,0.0163866556772285,1
0.0103527769105246,0.0164172525467873,1
0.0112034707570079,0.0131395971566871,1
0.0140361062066528,0.0120897383751325,1
0.0144373473711371,0.0125482172139129,1
0.0183544750383084,0.0152215618759026,1
0.0211779947133531,0.0080922610440084,1
0.0294618536881875,0.0143017394462126,1
0.031593527800428,0.012145298004241,1
0.0318788755549191,0.0108742532977293,1
0.0341562280667659,0.00970981266186192,1
0.037284031048134,0.00949257350822836,1
0.0447124052829755,0.00931886964795866,1
0.0458273538752826,0.00925111903187107,1
0.0439734800116078,0.00848092344138916,1
0.0405862316225022,0.00741110025177271,1
0.0438110927553689,0.012601501529376,1
0.0438910778077918,0.012911121360598,1
0.0350339139694455,0.00984953245372536,1
0.0348669009947365,0.0118735672074247,1
0.0336037071561158,0.013278436185336,1
0.0272525436370267,0.0124678917851474,1
0.0134732012572182,0.00934113709643806,1
0.0156755947058365,0.0142519061935056,1
0.0145266940405328,0.0151141540926823,1
0.0161643892267255,0.0180584607933204,1
0.0173742626482903,0.0187536756477734,1
0.0174010449547116,0.0171525717048479,1
0.0171603811392752,0.021474970027028,1
0.0119896712761739,0.0191252513805972,1
0.00953424281076795,0.0175363710118265,1
0.00926190040173378,0.0274523301764275,1
0.0194792360841364,0.051888460977256,1
0.0232378935410135,0.0473032548652779,1
0.0434578154597487,0.025405651579016,1
0.092319788217501,0.0461662518106802,1
0.128038561285312,0.0593982945913354,1
0.141649579547597,0.0472866429237096,1
0.14456009874055,0.0329768317004403,1
0.254928043141221,0.0383042784132347,1
0.326297200144087,0.0486213842157232,1
0.335432079747759,0.032258944739553,1
0.292961394257183,0.0229990224034328,1
0.245059970935267,0.0163761152906816,1
0.177790529579223,0.013645395670801,1
0.156479310806951,0.0116340291341402,1
0.136995699386513,0.00939190442114296,1
0.118991265022056,0.00738445982542888,1
0.0903136696386479,0.00465987607688086,1
0.0898910990379214,0.00592537867846145,1
0.140931341091649,0.00865581879946237,1
0.163408342371596,0.0094031254011821,1
0.167853738797308,0.0106214319400622,1
0.190077886114608,0.0131694275564009,1
0.201498093628518,0.0128619683746772,1
0.207973759092278,0.0140265456755729,1
0.213945960187961,0.0113179354410704,1
0.201129307785921,0.0107290560916248,1
0.202173773031517,0.0122172500495545,1
0.223002071488794,0.0114897017514443,1
0.160799360944336,0.00767532520189081,1
0.133523182640936,0.00737864747428632,1
0.144389182039091,0.00986311250821455,1
0.14509455163309,0.00937087266584901,1
0.143710765236971,0.00937177584708007,1
0.142866699768978,0.00886990361610026,1
0.172073636267413,0.010913550714637,1
0.160141499080291,0.00732895871219775,1
0.202950844739206,0.0111430778034087,1
0.162807790384003,0.0111924867534509,1
0.156630645753819,0.0119562900075892,1
0.183440963453394,0.00880525154820736,1
0.233368490672065,0.0107666956761991,1
0.253932601498858,0.0120005626284052,1
0.298782722638697,0.0139666705290911,1
0.315651406520614,0.0153206344626639,1
0.182989658186434,0.0102947570543887,1
0.157868527887337,0.0139163072558482,1
0.175825286284815,0.0157630021272007,1
0.187593883115403,0.0165852056149294,1
0.100387643366644,0.00985802093494013,1
0.0539873930213316,0.0287243361932947,1
0.043182515990072,0.0347561672189277,1
0.0182668634986232,0.0216097547704381,1
0.0115320893089202,0.0178298301448685,1
0.00666035905249127,0.0100682441793304,1
0.00491917345658979,0.014942148873826,1
0.00467009683045447,0.0156856470855525,1
0.00465747831448712,0.015453700821036,1
0.0045400407409659,0.014833581769408,1
0.0051361912681043,0.0113286690777296,1
0.00946832357714907,0.0229798756226413,1
0.0138545526544317,0.04099829106145,1
0.0169040238892325,0.0451135976338699,1
0.0174353671443275,0.0454802260733325,1
0.0150694415841191,0.0272705952638434,1
0.0128207694610874,0.0217834234979787,1
0.0177514066054524,0.0132173323415793,1
0.0192006616724627,0.00753010325429667,1
0.0164552810003865,0.00529052508498233,1
0.0183555724075479,0.00528635388880165,1
0.0234922606806329,0.00785564597178321,1
0.0289773662434595,0.010502999999029,1
0.0301791389557072,0.0111802717295555,1
0.040181476919125,0.0124384362745536,1
0.0410602167448481,0.009110539845519,1
0.0293583533897326,0.00371452783648695,1
0.0378854014490578,0.006985892302583,1
0.0377686709129032,0.00639560457162722,1
0.0293958025124671,0.00266110055156777,1
0.0293333148283339,0.00284397126082915,1
0.035327710689645,0.00417807505199697,1
0.0498627035502111,0.00709000632276769,1
0.0574807396269813,0.00364171079615186,1
0.0634167112597179,0.00321693577745782,1
0.0682761565218306,0.00401887387433873,1
0.0777398348076868,0.00683724723373806,1
0.0607308022137157,0.00368035650306439,1
0.0593774740401168,0.00461170021997605,1
0.0602555647681134,0.00625292481641338,1
0.0549535109543429,0.0050326138106504,1
0.0549995777401336,0.00504232111819941,1
0.0502900531657039,0.00396455909779215,1
0.0391375638342339,0.00875463573228127,1
0.0186649285192032,0.00799259342234268,1
0.0184205258090849,0.00763690073976052,1
0.022430024122385,0.00974959833309476,1
0.0234493537689116,0.0136165101682288,1
0.0258973891362328,0.0140672253123483,1
0.0293614782153558,0.0160278603265143,1
0.0301373024459289,0.0153930159523871,1
0.0287065513334303,0.0137062608457981,1
0.0270634957046111,0.0138822360089146,1
0.0330769389439337,0.00620394393044671,1
0.0509741871497111,0.0109294853433034,1
0.0516961661522015,0.0119445348351711,1
0.0473291249469066,0.0101291142842149,1
0.0514516927874408,0.0116712877053934,1
0.0674382198744712,0.00962322833083756,1
0.214837123575563,0.0197548471431148,1
0.314551003915423,0.0208880392351175,1
0.33399358993431,0.0234663378146892,1
0.30736237217919,0.0226063892092852,1
0.279169815908953,0.0252805379575866,1
0.336774722745002,0.010079843360663,1
0.624407434462952,0.0205253205707924,1
0.584518760631613,0.0137716711114735,1
0.575703561475096,0.0109962767136638,1
0.611788480725528,0.010946498215087,1
0.611733273041624,0.0109592427062644,1
0.583437531077524,0.0111041684540298,1
0.519647365851764,0.00960631119699402,1
0.472215626220487,0.0083390427956474,1
0.324236786321772,0.00292821444225762,1
0.255928957889529,0.00260543684829181,1
0.256547757897896,0.00360497332153914,1
0.251255727741937,0.00399656784091315,1
0.229146399316588,0.00676327589574524,1
0.157331464379286,0.00200080528469763,1
0.169639768584394,0.00347472819449255,1
0.170768825780811,0.00361546194398039,1
0.17648103764163,0.00293344928453996,1
0.163894658180544,0.00167040474381097,1
0.246288558636596,0.00636929238298682,1
0.234203870187267,0.00503176310519566,1
0.241602824496986,0.00467190082273927,1
0.262308586815913,0.00636309787857085,1
0.260338047166515,0.00611902824500193,1
0.249499452703188,0.00651899010922907,1
0.310969659541568,0.00669715103644134,1
0.389099627658497,0.00809094596655827,1
0.399423303542594,0.0104060474475993,1
0.244024740700893,0.00560740914804883,1
0.240814037261175,0.0083252241620324,1
0.212128049152223,0.0118898818739933,1
0.215744021842836,0.0105330543594226,1
0.261584809628652,0.011986662325681,1
0.226241545766457,0.0127550006337768,1
0.162434417834529,0.0109069884939766,1
0.223765519151778,0.0229105598784353,1
0.272927250760008,0.0272475562596279,1
0.292586597574135,0.0293390486823932,1
0.244688693337993,0.0326260472870553,1
0.219537385837292,0.0344071563676996,1
0.102743389368006,0.0185336374981377,1
0.0491806576766994,0.040100652541233,1
0.0357453545215015,0.033838042905585,1
0.0131367214392525,0.016244625405351,1
0.0059943141340039,0.021687506777438,1
0.00610955905896051,0.0256392141942459,1
0.00519568478502616,0.0413331836161582,1
0.000424347427932114,0.021831398742972,1
0.000241508462653209,0.0544939062047129,1
0.000339413692203705,0.0638335325301273,1
0.000392730868536864,0.0690626901997294,1
0.000486604015127798,0.0775015465396729,1
0.00059095717834664,0.0226160092583066,1
0.00438411774287699,0.0307442363326887,1
0.00530607229067564,0.0216827352320298,1
0.00863296518422197,0.0127464122017594,1
0.0151797709334454,0.0121268434096808,1
0.0151346982043515,0.0105138498433726,1
0.0173624087616699,0.0099966782087052,1
0.0173697595561624,0.00907902989848683,1
0.0252607697043995,0.0118349213714818,1
0.0219701313904259,0.00704375217557859,1
0.0200284398788555,0.0050788132124076,1
0.023426954306662,0.0069765180113392,1
0.023017155061099,0.00781659493218216,1
0.0211612901665009,0.00896393406195084,1
0.0278240317035884,0.0148775180678518,1
0.0166716915367861,0.00731968944016918,1
0.0249605991866069,0.01073693515551,1
0.0238794112725825,0.0096960518823449,1
0.0252466995866566,0.011905913123235,1
0.0182832574368479,0.0104216973406379,1
0.0141784703823655,0.00918915643936418,1
0.0210070611005075,0.011204299665817,1
0.0220366331244787,0.00752325229566009,1
0.0210808207770709,0.00616362849502052,1
0.0242032838620242,0.00717653186689327,1
0.0238116681559359,0.00828311807812382,1
0.020465527677594,0.00842957992425975,1
0.0185295836562878,0.00505698147754898,1
0.0171884985207797,0.00254743556239764,1
0.0236047400970088,0.0053302973871221,1
0.0270112425835613,0.00583208929106923,1
0.0259797618301327,0.00507194485452348,1
0.0261084980078096,0.00678710167461983,1
0.0218532740574765,0.00595671063945281,1
0.0225253793001422,0.00642966668441613,1
0.0213140598440471,0.00518897250104676,1
0.0234921435868141,0.00663305111621968,1
0.0210655126107814,0.00789885492511258,1
0.0130669743317215,0.00659719466911221,1
0.0129055684741683,0.00673744344303254,1
0.0124845426657756,0.00786932401084806,1
0.0060775682511709,0.00522626290429069,1
0.00547879629107132,0.00870353042674055,1
0.00559389094845956,0.0049286309190254,1
0.0220007912169621,0.00797035780641011,1
0.054933120666376,0.0283831387408359,1
0.123283808883316,0.0352062033576796,1
0.123539980781304,0.0219574089117555,1
0.131448781604779,0.0223424758483468,1
0.178790567254333,0.017435998548938,1
0.292661823155753,0.0246645477739387,1
0.357341278540515,0.0279726203864153,1
0.393556656536139,0.0276113967846823,1
0.302594393200691,0.02252143479956,1
0.255328449468268,0.019607103662856,1
0.284965968821863,0.0207836664544162,1
0.297741741991402,0.0207509305939274,1
0.19718644349453,0.0172838618254133,1
0.1645486940464,0.0110158552462608,1
0.221226849742626,0.0160574897442611,1
0.218103174668961,0.0142222628015771,1
0.197984383350143,0.0134468375594963,1
0.193828018096444,0.0139013737008499,1
0.169469524865609,0.0100061238598609,1
0.189900563665135,0.0129536729739448,1
0.293512852175454,0.0190850357363403,1
0.33361419312029,0.00920815062585335,1
0.357543036097893,0.00485878508113623,1
0.390410877440893,0.00861240061312425,1
0.336525530174098,0.00703917121701861,1
0.352477812665434,0.00557150546015942,1
0.356540759583077,0.00557434889261595,1
0.324396706393492,0.00445719733748351,1
0.32595722002438,0.00441588715222615,1
0.347430483868899,0.00357107229217891,1
0.347219754268104,0.00296510739069688,1
0.263147209314047,0.00432031088517744,1
0.200188292903666,0.00598810036271271,1
0.20707793686139,0.00200024531042329,1
0.318732241179346,0.00459551376619473,1
0.389467480302592,0.0080223639113758,1
0.373955795509815,0.00801521563708344,1
0.364163289882328,0.00789305983162591,1
0.373220437403391,0.00896626159060903,1
0.391589915249713,0.0125300972262295,1
0.364161061219693,0.0126279442013613,1
0.38084244161613,0.0126024736374747,1
0.272732329765913,0.011310289135262,1
0.140994138236971,0.0123340064077049,1
0.148924401963483,0.0223567309268228,1
0.154075396312332,0.0340494785766346,1
0.143056651600509,0.0307945822913039,1
0.118454822520877,0.0281736809046005,1
0.0682844802204181,0.0174515559244646,1
0.0234217610397673,0.0080368211711295,1
0.0212108678328249,0.0180396954150681,1
0.016711883529045,0.0211173285975946,1
0.015446737429504,0.0356922443121648,1
0.0135053335147922,0.0717855694525474,1
0.00785261903207194,0.0510305635423832,1
0.0017092524636009,0.022202561701684,1
0.000275075956938821,0.0520649933067252,1
0.000271806196582111,0.0558876881258655,1
0.000272066431895368,0.050526757639369,1
0.000298807485029129,0.0401563698240991,1
0.000974040676835731,0.0634660694226183,1
0.00132279244667363,0.0734953051453976,1
0.00276163748465445,0.0855103019174889,1
0.00790285678205549,0.074712334806126,1
0.0142869064526586,0.088875622324245,1
0.0177807621513901,0.0959226842440927,1
0.0242238499480673,0.107697299945787,1
0.0273834114067031,0.0623333861508911,1
0.0218873679280638,0.0557024849643584,1
0.0170019738984808,0.0363952079680024,1
0.0140614653171419,0.0275865301508954,1
0.00973713742642303,0.0211728066908475,1
0.00811010140641607,0.0145455649323345,1
0.0147333512027254,0.0207088191046294,1
0.0154456450433884,0.0125333754404731,1
0.0370632440042599,0.0104560483374049,1
0.0502064905230847,0.00649120470250668,1
0.0512414318843822,0.00677080153524719,1
0.0498999703128454,0.00624690361496195,1
0.0460832290282554,0.00589755141844025,1
0.04418208953288,0.00581397887184932,1
0.0438789512706082,0.00508451902606247,1
0.0443980730233287,0.00525627479185354,1
0.0445617168765639,0.00480823318051368,1
0.0459709456334138,0.00450370256874252,1
0.0402008141163516,0.00522909598655405,1
0.0358877446974217,0.00611495534022144,1
0.037641868062092,0.00691276395242234,1
0.0394277502883164,0.00589445389237795,1
0.037020364997916,0.00548016496012636,1
0.0407180876050262,0.00512612275366963,1
0.0484728875257998,0.0074023309136396,1
0.0490367506718393,0.00678453967915863,1
0.0465880315864373,0.00762150239765922,1
0.0436103338396079,0.00816264321605688,1
0.0466720978709262,0.0132785436106224,1
0.0466880432781748,0.0232458118251037,1
0.0462546252352317,0.0210219626790295,1
0.0591677227260643,0.0409094338173801,1
0.0609911246946506,0.0306673951771043,1
0.0463413066530507,0.0402030956117829,1
0.0246011282389023,0.0237571635404855,1
0.0151168763094675,0.0174520188652966,1
0.0113238714281166,0.00950094444519919,1
0.00968865362973888,0.00675859798487891,1
0.0137115936547481,0.00538554480358045,1
0.0210720393055872,0.0101352735344773,1
0.0347595116122656,0.0178855109825054,1
0.0427936059808647,0.0126269347485902,1
0.159678733702365,0.0230975786400601,1
0.223037291622917,0.0206216803502517,1
0.2059440662543,0.0201125892741844,1
0.20002245560912,0.0198648094935275,1
0.184160623455025,0.0168351703939858,1
0.138695502962762,0.0126720928264,1
0.131224414686673,0.011891953904162,1
0.114664398753471,0.0105880490012594,1
0.182180915072021,0.00738446616671128,1
0.348665451889263,0.0165374004558582,1
0.396985553462847,0.0191411969811201,1
0.392358913005291,0.0156235334841744,1
0.394217080707829,0.0153775041686147,1
0.393140691443806,0.0150411539564204,1
0.399449995714142,0.0151651539501997,1
0.383957582760744,0.0101082640140306,1
0.456633407555464,0.0107259211087551,1
0.497396140676616,0.00996203175618714,1
0.473962341013354,0.0145119249877413,1
0.382549650691649,0.00918009772092878,1
0.355585699638467,0.00347707766558787,1
0.414219001683632,0.00831742331784134,1
0.368103192340775,0.00785548125090927,1
0.355782055801441,0.00581924770471222,1
0.31580978075995,0.00487313596661927,1
0.284586282105706,0.00718477971086833,1
0.238316669989617,0.00785701803460402,1
0.203134072232571,0.00630485351213154,1
0.236371303084096,0.00843123125352037,1
0.209396748471546,0.00674562791610641,1
0.195841266386128,0.0139649159968275,1
0.143522879789322,0.00964588862314493,1
0.113463112842323,0.00616479536211473,1
0.0744448551927654,0.00612857250339937,1
0.0760593925401105,0.00719742054322209,1
0.0838188688143289,0.00584524874117494,1
0.0873123187011689,0.00632615573812926,1
0.0917081538556551,0.00721690417039204,1
0.137480895855528,0.0109882213153626,1
0.154516661729733,0.0067876484372244,1
0.175263403528349,0.00793370430481352,1
0.171947851922442,0.00927224552876198,1
0.186436936354433,0.0104328779084385,1
0.230151561793489,0.00432716769271711,1
0.403339107416265,0.00966719999775279,1
0.52754639501351,0.0142038219889634,1
0.674548706538794,0.016753964174864,1
0.772356097192587,0.0215681469668221,1
0.630357293286498,0.0198593713150874,1
0.536702242288112,0.0230027418402311,1
0.544014654602294,0.0231289370573509,1
0.464101478785894,0.0181394756981174,1
0.18826573427002,0.00490143648215055,1
0.0137708720169789,0.0201988645308337,1
0.0111600550138654,0.0267241027241005,1
0.00221425880508243,0.0105199423192876,1
0.00178231948357823,0.0258479951016365,1
0.00219618298945987,0.0300364168826311,1
0.00226735906234723,0.0245368459835126,1
0.00228331302278915,0.0215389237421423,1
0.00251071490912864,0.00748969413395488,1
0.00834516052469028,0.0160481637462872,1
0.00892977473142742,0.0129094886588492,1
0.0230732153129446,0.0143753196523886,1
0.0310897875003347,0.00934012168771891,1
0.0306098075454189,0.00950626292299295,1
0.0285783879775314,0.00868435761390333,1
0.025085566139689,0.00737952016737038,1
0.0234816798319631,0.00619217786577745,1
0.0457384839564967,0.0112836856727295,1
0.0491177017199919,0.00572163589902922,1
0.0491124268229238,0.00606133383697364,1
0.0508291900764676,0.00566118724306132,1
0.0564239572920461,0.00717885620363048,1
0.0558932459468333,0.010334918375023,1
0.0451607770731694,0.00633165602847942,1
0.0437120204061743,0.00617889273855861,1
0.0390718062587672,0.00496806967200039,1
0.0369621514961682,0.00470475256486698,1
0.0289501363236321,0.00439956447041604,1
0.0236690351905445,0.00863405874075928,1
0.0206461191238319,0.00455410573973466,1
0.0277519306286495,0.0100667513689679,1
0.0221661866580035,0.00773059686805524,1
0.0228365552932945,0.00841356064257508,1
0.0208722636208682,0.00850422614572305,1
0.0207817973255583,0.00786804436688736,1
0.0219927971743065,0.00790740511609881,1
0.0257506601237498,0.00259875206346337,1
0.0494154083210916,0.00816888325138597,1
0.0505675914655634,0.00423094872954898,1
0.0506370039675886,0.00395145067650052,1
0.0539025521578028,0.00425545471353327,1
0.0539253577573348,0.00409410013373028,1
0.0504849188659184,0.00367894798599001,1
0.0445139389028544,0.00267413578572313,1
0.0484437383435799,0.00301927248869046,1
0.0515492040215779,0.00372547420536909,1
0.0489220810062351,0.00734181478310966,1
0.0305561801574907,0.0033182083461226,1
0.0315860574540314,0.0085533901644133,1
0.0301080215327233,0.0142367867968469,1
0.0185753399657463,0.0095243241330198,1
0.0224653766549771,0.0128350221790683,1
0.0219812075618893,0.0154011002402289,1
0.0102553498294021,0.00829843975745373,1
0.0101202263945841,0.0110535172903806,1
0.0108492432526076,0.0144163556030233,1
0.00678802065806542,0.0129046811726762,1
0.00534459698644501,0.010102870277868,1
0.00970310335405676,0.0155386279647057,1
0.0101606704507587,0.0200562316125342,1
0.0192959831272176,0.0337980884701462,1
0.0289434268882487,0.0445285253988001,1
0.0428989145932531,0.0573840893943739,1
0.0577668852091821,0.0692644922063226,1
0.109121920953866,0.05025183465897,1
0.182652735288411,0.0521493710661829,1
0.172812446171833,0.0388603239058252,1
0.232244296843264,0.0212978826989599,1
0.408617674770618,0.0368929697365387,1
0.534910025566409,0.0512380825684561,1
0.5896921441625,0.0482160939601747,1
0.504318516691683,0.0347175231466465,1
0.410213052384737,0.0284630923076965,1
0.300809028509104,0.014987849329049,1
0.255602092492016,0.0148005014505595,1
0.233465111030778,0.0140831487323561,1
0.192657478552169,0.0107509026445907,1
0.208623379799912,0.0192768701020556,1
0.200974629143335,0.0137325499978299,1
0.163389925243255,0.00879378011536358,1
0.108977501134513,0.00402301109995154,1
0.110544001354346,0.00483396914890983,1
0.11094978896969,0.00397927467103597,1
0.152225690187071,0.00883554271213094,1
0.171853926603291,0.00627830663669604,1
0.215035224189428,0.00613130301521166,1
0.257613274057485,0.00792122787445645,1
0.261754801613015,0.00412116544083487,1
0.344925268618544,0.00827813511358767,1
0.328952918615377,0.00600589120196625,1
0.331481419192006,0.00534783851648044,1
0.317883454356985,0.00422361210655278,1
0.326374212955602,0.00636097089684314,1
0.316041437625195,0.00662626771163661,1
0.305568491580604,0.00756104315065251,1
0.252469788456278,0.0085332077852962,1
0.157219243493328,0.00483264076837851,1
0.141091338137714,0.010736411920171,1
0.10579460228121,0.00922343725387141,1
0.0978966036934804,0.0115208750167268,1
0.0935404759166163,0.0129482941460569,1
0.0602334210886993,0.00774209436107941,1
0.0981924113416448,0.0202237346906272,1
0.0928349249079225,0.0175923611377776,1
0.121619875112489,0.0251772910013472,1
0.231718436172787,0.0436002866253867,1
0.282217196299448,0.0387572032369512,1
0.283172594784581,0.0369039633753535,1
0.286080088408129,0.0341285808957748,1
0.260115195693156,0.0314457720779874,1
0.204607344774135,0.0225817998022343,1
0.133307200319463,0.0150556655012731,1
0.115567290859025,0.013969899588177,1
0.0803230679677121,0.0106199156813753,1
0.0452194005288392,0.0103991379337712,1
0.0444459460942314,0.0116637015123728,1
0.0371732966865485,0.0195050132467614,1
0.00833215479992807,0.00394154658948758,1
0.00395730173788161,0.0246766993559769,1
0.00398919493472025,0.0253640642940773,1
0.00384244015526802,0.0246789631566214,1
0.00386747514176264,0.0259234857967059,1
0.00368225491316528,0.0251088195796525,1
0.0038571198733298,0.0270986293636808,1
0.00393703811836989,0.0222695480250709,1
0.00520155485548293,0.0248974125708633,1
0.005505834773405,0.0251101408678526,1
0.00497999597121415,0.0212346745229031,1
0.00476259597475761,0.0206255095106499,1
0.00470185857423014,0.0192545429077167,1
0.00897224316647116,0.0160813394701325,1
0.0171465752381584,0.024532516895423,1
0.0178366200227353,0.027931621273181,1
0.0450183911207372,0.0107043393521174,1
0.136220141701872,0.0268520270615437,1
0.164683384589806,0.0184280195282316,1
0.155329690409936,0.018215455239561,1
0.148388039127971,0.0163780471030191,1
0.127489087870662,0.0121893082929933,1
0.104059732604354,0.00867472218730942,1
0.0879471762365624,0.00522873566046593,1
0.0967317050837134,0.00672901041151549,1
0.126023938974294,0.00325158406680982,1
0.150453595370651,0.00213296276469226,1
0.149718934601841,0.00219094602851639,1
0.161227329603954,0.00298782298035144,1
0.162213728156647,0.00325405912398143,1
0.158183164319583,0.00326140713817539,1
0.156720564529895,0.00349462511011239,1
0.153494077311339,0.00390788573706572,1
0.156734080000718,0.00477990620688264,1
0.149222628037793,0.00382520715861372,1
0.0792512883483495,0.00517667146401156,1
0.016363184743413,0.0080467099464836,1
0.0166328823834983,0.00772048553653865,1
0.034359367975248,0.0170965283532531,1
0.038196527606428,0.00990935909650899,1
0.0458665278775501,0.0113982921909183,1
0.0470194168023632,0.00916929190675249,1
0.0477520820836703,0.00875513050422809,1
0.0426944429160455,0.00783481963544362,1
0.040602573722348,0.00760299664171249,1
0.0480062649200743,0.0068505840671375,1
0.0630083569413896,0.00950565484592512,1
0.0661252067012691,0.0124269431961662,1
0.0399709935389827,0.00746066375198794,1
0.043753626486938,0.0150256052383337,1
0.0514991063480273,0.017029550141584,1
0.0575608425448726,0.0297085546921417,1
0.0535092618652103,0.0284535214724214,1
0.0507936925505396,0.0299169145627898,1
0.0275149555685516,0.0194870967116134,1
0.0194648449162508,0.0400079875426926,1
0.0192775145340898,0.0528198712030036,1
0.0110243236217985,0.0383342805408823,1
0.00360487761234475,0.0318260087924894,1
0.00309726124782473,0.059230868155129,1
0.000877561693774759,0.0563190149973498,1
0.000245176221126129,0.260550696963784,1
0.000297300992705692,0.0710076116515388,1
0.00104399452079702,0.0595002907040494,1
0.0010596831233275,0.0468112991839324,1
0.00121886162523001,0.0517804401212636,1
0.0016327235885452,0.0568456054044081,1
0.00156023353091126,0.0442817014576071,1
0.00283538615814357,0.0159600689250445,1
0.00572783126791219,0.0199444830894226,1
0.00516371035665818,0.0177920806833255,1
0.00450190136728127,0.0153333532435259,1
0.0041249198000711,0.0141633375990094,1
0.00423365676297668,0.0123826952883503,1
0.00513234621440574,0.0121903347072383,1
0.00475299546186924,0.00941222688402037,1
0.00467428164961617,0.00871877540654444,1
0.00395666661408729,0.0074862413715936,1
0.00346488549114077,0.0115769805898947,1
0.00294123880965177,0.0117261442231377,1
0.00288328144806872,0.0111418659429449,1
0.00339143799624476,0.0116847136958282,1
0.00384311326452337,0.0105268254399092,1
0.00375969389803793,0.0130962351046964,1
0.00316019186697342,0.0132964404900768,1
0.00392390911648392,0.0197087178779883,1
0.00430936568345293,0.022421444707517,1
0.00425835167063086,0.0216473902929286,1
0.00448867322110778,0.0248458401098042,1
0.00442735665697744,0.0215011492728639,1
0.00476711686155954,0.0137171099719563,1
0.00515206234618215,0.0177157332030905,1
0.00411627212765828,0.0138253244791124,1
0.00563868425927098,0.0136350944448149,1
0.00592072313706108,0.0115621596395967,1
0.00594273210803872,0.0104115263123437,1
0.00688324785759973,0.00929353415302782,1
0.00840857114850367,0.0103811958172443,1
0.00822381141020425,0.0111629913992679,1
0.00804091915554656,0.0119003767399633,1
0.00844291600794237,0.020253317498329,1
0.00598599456807055,0.0093760903650733,1
0.0046722104620813,0.00635952247605785,1
0.00527826317926265,0.00890726595558728,1
0.00553636911423266,0.00572921009503541,1
0.00705920468510044,0.00863401690293545,1
0.00732577788516752,0.00676400891543489,1
0.00779286711175354,0.00801976618053877,1
0.00783364385463895,0.00766832846098963,1
0.00826485601787305,0.00725056287119731,1
0.0095890202157628,0.00873739041046884,1
0.0104550928295566,0.0132894668301977,1
0.00911849823877767,0.0128799588515706,1
0.00920030227549209,0.0132534776488131,1
0.00919904432887839,0.0286084240162881,1
0.00370191804608521,0.0152274133976935,1
0.00197904813642933,0.0239176057885001,1
0.00197497221888503,0.0274498124529549,1
0.00108677557043472,0.0242384138893844,1
0.000767249418457215,0.034830947932396,1
0.000812669323896689,0.0368692906440369,1
0.00086598404346311,0.0426714064913557,1
0.000542598064076153,0.0552150701695656,1
0.000396434394802616,0.104404427754033,1
0.0003947080096228,0.104476874722961,1
0.000401828436486859,0.108363651751425,1
0.000296073471819975,0.186859338416129,1
4.78166741220555e-05,0.11795971334966,1
0.000131980521947306,0.208681059378562,1
0.000137723786965376,0.127167736544039,1
0.000131224092566594,0.124130835637928,1
0.000122150617310057,0.11534019269992,1
0.000118023915061328,0.113976261440884,1
0.000113718893067317,0.114582226279174,1
0.000115801625457318,0.118035721683748,1
0.000126700383464327,0.124872625035037,1
0.000132625241181874,0.126753445162434,1
0.000137480353744873,0.154198560639832,1
4.30458612265704e-05,0.126405146441838,1
2.78306743794966e-05,0.265289573886327,1
1.74437271489725e-05,0.257872942358304,1
1.42991581693523e-05,0.310320321626253,1
1.41341686068628e-05,0.309982822196497,0
5.53687082690524e-06,0.267403068210976,0
6.18623504861918e-07,0.213007011092606,0
7.06050352650035e-07,0.21660733198146,0
6.99753505228136e-07,0.220950153182084,0
7.14347159684692e-07,0.214753626638156,0
7.48590992374426e-07,0.211779704296553,0
7.23913445149099e-07,0.205745985567715,0
5.90994731613634e-07,0.185424343983858,0
5.13428354250913e-07,0.17460430261547,0
6.28182171990684e-07,0.201349538462633,0
6.89076114811478e-07,0.214209437611988,0
4.26341254931186e-07,0.179655828446827,0
2.60085730166874e-07,0.151628512143621,0
2.59825681209827e-07,0.14795566214228,0
2.48352467731379e-07,0.146901440711037,0
1.37609850214134e-07,0.122164016777361,0
1.37489128895482e-07,0.121518398363301,0
1.83996137867268e-07,0.134088509714627,0
2.2476712612565e-07,0.147778011411192,0
2.36258652910932e-07,0.147178365942794,0
2.32658696306677e-07,0.148031396422039,0
2.18427059299622e-07,0.147981933517155,0
2.49655642645707e-07,0.161168649773594,0
2.52361909876449e-07,0.161936316524705,0
1.6167338888792e-07,0.140228705757065,0
1.5785543067911e-07,0.144529380770495,0
1.52506773031864e-07,0.148903013721619,0
1.21278043179324e-07,0.136908044931042,0
1.26238605228139e-07,0.136669220506942,0
1.11012482406756e-07,0.134449382415253,0
2.08332178546749e-07,0.170425893916769,0
1.99142561177308e-07,0.152789708146506,0
2.23964270754034e-07,0.158372142051742,0
2.51499426377782e-07,0.168931927788448,0
3.83506283739354e-07,0.176245731107234,0
6.99946161216033e-07,0.204133927171261,0
7.17514043208929e-07,0.200378663171926,0
7.2481709696153e-07,0.199724632097232,0
7.2868266976811e-07,0.197139565284462,0
8.65819597146554e-07,0.208571900743544,0
8.98453177392965e-07,0.210607087139836,0
8.72108386713444e-07,0.208837728364785,0
8.80544081867131e-07,0.211414628767718,0
8.96510501803985e-07,0.215035521564896,0
7.82765674017554e-07,0.223460803162177,0
1.702655529352e-07,0.12253665618693,0
1.77639076292499e-07,0.133619373274867,0
1.57547767124294e-07,0.130806828076323,0
1.22115474074242e-07,0.123667310038061,0
1.19698557091481e-07,0.131481357941385,0
9.69726223488702e-08,0.134529583618352,0
8.97592305465299e-08,0.135250849150065,0
9.29335858999561e-08,0.131304356189472,0
8.68506379018825e-08,0.121020137978711,0
9.16872554900427e-08,0.123266041565249,0
9.14802418695883e-08,0.12206980483383,0
8.40330257655879e-08,0.116500115857922,0
8.25792422158553e-08,0.114863969272877,0
1.481841000867e-07,0.135415128982477,0
1.72640862084833e-07,0.130575253752818,0
1.58839221522247e-07,0.119818299594687,0
1.60427351490916e-07,0.124994452817414,0
1.81628593559733e-07,0.126739038188358,0
2.22328819200506e-07,0.136493718870077,0
1.92694665600641e-07,0.124126892511304,0
1.86517220939302e-07,0.121654740327831,0
1.93186194756073e-07,0.125611706778125,0
1.83865600616153e-07,0.125807806960079,0
1.41272658087444e-07,0.112288666832617,0
1.07535737730882e-07,0.106996949018327,0
9.86228710543206e-08,0.102229265010238,0
1.17627688354661e-07,0.106602726400762,0
1.1660082461385e-07,0.110177666254576,0
5.23430935937341e-08,0.0894691288794193,0
4.47857046358188e-08,0.0943979367039542,0
4.45819141573672e-08,0.0942894912828361,0
5.17349453003813e-08,0.0948793200749028,0
5.07936413290992e-08,0.0914781958006602,0
8.80226895392763e-08,0.10594595547178,0
9.17739873112099e-08,0.104409712492561,0
9.48916446666774e-08,0.107252757533014,0
1.35057854280163e-07,0.116820184055753,0
1.58053507405829e-07,0.127374291195952,0
1.86529673987949e-07,0.129629478400574,0
2.28451030928432e-07,0.129347768108949,0
2.10560688228799e-07,0.121717664648586,0
2.08837772321831e-07,0.124366715811768,0
2.08406017799905e-07,0.128312238794889,0
1.58404390364774e-07,0.121174004371654,0
1.53927885642204e-07,0.126018275737869,0
8.94818938278316e-08,0.107261747010744,0
7.04419149783689e-08,0.102180611495172,0
4.65181434623409e-08,0.0914587233972883,0
7.00617307284898e-08,0.109239174283539,0
3.82967872518427e-08,0.0941103801534977,0
4.12285279163286e-08,0.0995398099491064,0
8.06739257728171e-08,0.113028505136685,0
8.05567206090778e-08,0.109284073047847,0
1.31816398970496e-07,0.123704437185338,0
1.34804105100667e-07,0.119506906581889,0
1.27598917659789e-07,0.1186504044788,0
8.47538375225852e-08,0.105295942239658,0
8.37284388463204e-08,0.101871890358193,0
7.9596956824507e-08,0.104798315530602,0
7.42229535606017e-08,0.110956220071605,0
6.24885190734695e-08,0.109110271636827,0
4.97629684204664e-08,0.104510234837768,0
1.04689263823016e-07,0.140047505960254,0
4.50271472731219e-08,0.113352819036202,0
3.10410550841017e-08,0.109110411073258,0
2.27430759978082e-08,0.103314767590947,0
7.90900444913354e-09,0.0916733054940741,0
1.39584024690868e-08,0.0964765536781403,0
1.22221544747427e-08,0.0976499025558891,0
8.48272372563776e-09,0.0921041427091501,0
2.85293484251667e-08,0.104714723983698,0
3.70185184348102e-08,0.107923109834917,0
4.43176165131347e-08,0.110017704826756,0
4.04088243024264e-08,0.107599628290501,0
4.71539814756277e-08,0.111822535118417,0
8.6418150847684e-08,0.130742750576644,0
9.65880429053502e-08,0.127871669300121,0
9.06581941524112e-08,0.130114814629126,0
1.99859856779393e-07,0.161288887096405,0
4.14876392320654e-07,0.222894201768276,0
4.56709112856059e-07,0.215437478182287,0
4.33328587273963e-07,0.210467631154685,0
4.10785785599695e-07,0.196706003105107,0
4.48838786110959e-07,0.205025595060663,0
4.35659065448466e-07,0.204911088708167,0
3.64862458343331e-07,0.186264030281921,0
3.48229873557075e-07,0.192662248302545,0
3.49027601202777e-07,0.195788324847829,0
3.34133608514139e-07,0.194940871730616,0
2.07186351564742e-07,0.160471359740054,0
1.84218827678373e-07,0.151486125579002,0
1.99761550948307e-07,0.159200135054497,0
2.02567296061773e-07,0.165219774618185,0
2.19745031365871e-07,0.170652853191621,0
2.16492441565649e-07,0.153643374663554,0
2.07599060247559e-07,0.148769517681781,0
2.34281987824466e-07,0.150600750903586,0
2.50657307276315e-07,0.149131121250928,0
2.51096094108064e-07,0.147790170599243,0
2.49989677362364e-07,0.142499455113144,0
2.56178842540076e-07,0.141558536394777,0
2.5729038701169e-07,0.140786199842786,0
2.43648878004063e-07,0.144199135962821,0
1.1243183693964e-07,0.101728952617134,0
9.05345427046661e-08,0.101808995305052,0
8.91749628052892e-08,0.101276519460415,0
1.1527406216032e-07,0.11768216759024,0
1.14217018089845e-07,0.115527166201724,0
1.62279193077999e-07,0.120960295493352,0
4.08389086507679e-07,0.167310714016617,0
4.09437926216692e-07,0.172839051814041,0
4.20472938889209e-07,0.179443313900242,0
4.15972260601617e-07,0.173959808225951,0
4.10352273000314e-07,0.17647264372413,0
3.69421739212792e-07,0.16810480749251,0
3.71452465181031e-07,0.17222707461888,0
3.86709500864352e-07,0.175496080298491,0
3.74422883549553e-07,0.176943617781832,0
3.31379287166265e-07,0.189056200984547,0
8.68490263308812e-08,0.12235575350457,0
7.31559470512094e-08,0.121396282047127,0
7.99777271002053e-08,0.12248501616374,0
8.61457953484448e-08,0.128149715200783,0
5.75442192411239e-08,0.108548924109947,0
6.10725341890431e-08,0.106391525795088,0
1.20681908415255e-07,0.136177790639905,0
1.28975345801453e-07,0.132411017270874,0
1.55505467146136e-07,0.140200588039782,0
1.71397754816922e-07,0.140305808298567,0
2.33293362268325e-07,0.161391649964819,0
2.29212864492739e-07,0.149042924414614,0
2.16627960036223e-07,0.147615068019839,0
1.46995639726383e-07,0.125504048980071,0
1.44997291684626e-07,0.124822279378807,0
1.7737990637418e-07,0.137255041565718,0
1.82438481241172e-07,0.131823933492487,0
1.85256093377467e-07,0.136063478321247,0
9.05203315785626e-08,0.107765255874448,0
8.38843217140935e-08,0.106538729693055,0
7.57864704448849e-08,0.105437996872246,0
1.30929155880988e-07,0.138032025454826,0
1.36522186294632e-07,0.13777374752336,0
1.4338572068321e-07,0.137957359531714,0
1.10138278391715e-07,0.123293874216295,0
5.92675746674567e-08,0.100380968433658,0
4.48479698790553e-08,0.0944310486839171,0
1.7241978384473e-07,0.130944488641486,0
3.94366074692081e-07,0.164364066481779,0
3.95109594949553e-07,0.16615146453108,0
4.52120530695662e-07,0.17379273070891,0
4.6279323290577e-07,0.169139924900999,0
4.59206754895345e-07,0.171607598841694,0
4.57377182289374e-07,0.171280341676201,0
4.52686631636523e-07,0.175470191858225,0
4.16003759489373e-07,0.171093629472156,0
4.61715091905824e-07,0.186610247422576,0
3.37720233031019e-07,0.17473605906613,0
7.03148938821667e-08,0.109085516721512,0
1.02794202831805e-07,0.128325564329046,0
6.76953584725916e-08,0.114067269023495,0
4.53107837693713e-08,0.108374725626001,0
5.39237517332144e-08,0.113267611503116,0
5.85162895678873e-08,0.113486441374522,0
7.70442283582634e-08,0.11862876789701,0
7.90389137386528e-08,0.115209603531088,0
3.80440636175297e-08,0.0924479858522366,0
4.98561465256392e-08,0.100713371790791,0
6.13385899107318e-08,0.104675635574779,0
4.20911579214506e-08,0.0898776639916605,0
5.984847276024e-08,0.0988585216665075,0
6.70019434226184e-08,0.1006063666587,0
6.14688341489369e-08,0.0950389212522492,0
6.25188459095872e-08,0.0969838202701393,0
5.22318951946362e-08,0.0966526574548424,0
5.27240103758871e-08,0.0968511188006685,0
5.33131128301321e-08,0.0971477541224502,0
3.62859861614389e-08,0.091465216960909,0
1.76421607654157e-08,0.0832290635427879,0
1.94119587378802e-08,0.0861379713842942,0
2.50131935129854e-08,0.0872355469576855,0
3.07480421747532e-08,0.0906079613935001,0
3.31249628953878e-08,0.092015892430843,0
3.82827226321939e-08,0.0942164770827839,0
5.25212454426181e-08,0.100260477889507,0
1.10651050983074e-07,0.121418191560614,0
1.29405488752377e-07,0.119302570335182,0
1.30884617918768e-07,0.11224621614759,0
1.50016163302402e-07,0.114342896586655,0
1.57647391513473e-07,0.115333316259075,0
1.50545784136049e-07,0.117213867514847,0
1.20116979526031e-07,0.108594407500176,0
1.47947492162401e-07,0.119313134626151,0
1.54063111099868e-07,0.121350166325982,0
1.75467118101953e-07,0.12664438215927,0
6.36371296781152e-08,0.0890811602367733,0
3.68333342761019e-08,0.0824636684040928,0
1.56262319490982e-08,0.0763072077373908,0
1.25718653820501e-08,0.0756548962438033,0
1.79222811067527e-08,0.0783476536389557,0
2.46498575053931e-08,0.0790390445014743,0
9.1220778938361e-09,0.0720810473016491,0
1.62146018710702e-08,0.0793275707606983,0
3.88001834301032e-08,0.0928703705206789,0
3.81050103026742e-08,0.0908299536296753,0
3.70161743315353e-08,0.0917250446263219,0
1.3847951252908e-07,0.129392061680367,0
1.91349736346732e-07,0.145856368574101,0
1.70172960855846e-07,0.140882358937573,0
1.7189602326927e-07,0.143637092384162,0
1.13105766631141e-07,0.126108531551961,0
9.52694848132824e-08,0.115630666143366,0
1.08758187588683e-07,0.114952869383756,0
1.27873617262303e-07,0.117183106805649,0
1.42060130281317e-07,0.118926193173153,0
1.64523671963608e-07,0.123021896149806,0
1.56370880773896e-07,0.121986203981704,0
1.38356447107153e-07,0.111319571648423,0
1.34763083293359e-07,0.110868823632766,0
1.39719543161442e-07,0.109846449464055,0
1.34279611992934e-07,0.108132160841993,0
1.27987452777585e-07,0.111274255859172,0
1.17740058805396e-07,0.113499657466055,0
9.72408756673786e-08,0.112210721758192,0
7.85274597053851e-08,0.105889208200754,0
7.30567621813951e-08,0.104997434969147,0
3.20556122827208e-08,0.0891679483033195,0
2.13026245354512e-08,0.0910059163747912,0
3.1577415214664e-08,0.0919766358390949,0
7.85536843607718e-08,0.113090984658418,0
9.17569925624677e-08,0.115096193463712,0
9.89298020768631e-08,0.114453601275491,0
1.04001269511866e-07,0.113106220982118,0
9.43905925916917e-08,0.109346121946601,0
9.09598509425854e-08,0.11472092500451,0
9.27472296896106e-08,0.121756067501065,0
8.23382390979164e-08,0.114752948038733,0
2.28429347973141e-07,0.153247296841982,0
2.23688838619247e-07,0.146489922532817,0
1.63098457172537e-07,0.132655522348652,0
1.99262110444323e-07,0.136666354804782,0
2.01357885278437e-07,0.128543527026443,0
2.06946080979076e-07,0.130817191785004,0
2.09697032678494e-07,0.128655852838527,0
2.04933228798307e-07,0.124668357745605,0
1.96197195412538e-07,0.118010743356214,0
2.57456378824836e-07,0.135216109115225,0
1.04407971430042e-07,0.0983550674290986,0
9.74027652997934e-08,0.1031434322217,0
9.80128181770573e-08,0.10471691499506,0
8.10180694348469e-08,0.0988175082534565,0
1.24106203780355e-07,0.124518717901562,0
1.23750486108407e-07,0.126207830246478,0
2.28725291011583e-07,0.150967678584214,0
2.42833130064437e-07,0.147083527136919,0
2.67599753214206e-07,0.155465120549907,0
1.87928371110724e-07,0.131878796426036,0
1.66211572827909e-07,0.128305136594999,0
1.65684149591082e-07,0.129848281715329,0
2.01231157195144e-07,0.139004980927915,0
1.87716376270811e-07,0.140601575990286,0
1.68461765465251e-07,0.130738219449373,0
1.93860124447574e-07,0.140501558025244,0
1.17611133125283e-07,0.122021808818403,0
1.03359717746848e-07,0.121988033806728,0
7.77398410050565e-08,0.111633231636942,0
7.55217332812886e-08,0.112510176213492,0
9.93249299851197e-08,0.126776012323486,0
1.05938670868478e-07,0.125165876637953,0
8.94068825230384e-08,0.117969937790018,0
7.55297911362958e-08,0.107843708563004,0
8.32172778259617e-08,0.111434620170961,0
8.62177300176901e-08,0.112765654109373,0
8.86369911037254e-08,0.109327776508701,0
1.17029355993772e-07,0.114897977760392,0
1.29537930587402e-07,0.116148741856716,0
1.22992022192558e-07,0.115442581411334,0
8.02168256342336e-08,0.0977878492111285,0
6.06999682748067e-08,0.0907269842406389,0
4.72811490782848e-08,0.0897050206560563,0
3.89707169433441e-08,0.0848298020601254,0
5.61522614152639e-08,0.0905828331741638,0
5.77112365994524e-08,0.0894332203881377,0
1.29775417550429e-07,0.117796761901881,0
1.09927309096984e-07,0.117278853831505,0
9.0836785520659e-08,0.11466754691598,0
1.0442672425624e-07,0.118588600613355,0
1.07890136844739e-07,0.116310912600606,0
1.03434143025822e-07,0.116288986505796,0
9.79745799923873e-08,0.117757975088497,0
7.60198552271813e-08,0.109887268452151,0
7.74427259149771e-08,0.112476402011703,0
5.33465163017976e-08,0.103333930925657,0
0,0.0739845945063602,0
7.25148348055558e-09,0.0777993307224098,0
2.66764812929016e-08,0.0815271237574081,0
7.05422718998212e-08,0.107665884316462,0
9.21297049831587e-08,0.12126885014051,0
9.33474666344113e-08,0.11768725236535,0
9.95095281180089e-08,0.114691308582379,0
1.14315323920932e-07,0.114582787205222,0
1.32344554739596e-07,0.120424390768162,0
1.3484805703707e-07,0.119565988656524,0
1.30196623607618e-07,0.12124533935923,0
1.02451963753686e-07,0.112706790499864,0
1.06510192548162e-07,0.12129432259656,0
8.99366498631404e-08,0.112460791909614,0
9.84316801309707e-08,0.114277205261531,0
9.23723196720995e-08,0.111694496486749,0
9.23723196720997e-08,0.113473430549356,0
5.5403466925424e-08,0.10192548603788,0
4.79539067181489e-08,0.0995650522630845,0
3.97458825950254e-08,0.0967631969073123,0
1.35366103860798e-08,0.0748834495069102,0
1.07061056817738e-08,0.0718454615022751,0
5.81353727857343e-08,0.0912251666537201,0
1.35308087304747e-07,0.11368036283781,0
1.2769736999733e-07,0.109200071470485,0
1.27873617262303e-07,0.109211469666787,0
1.3240828504738e-07,0.111402555428026,0
1.31368675245011e-07,0.10720474445955,0
1.68189409966011e-07,0.112408832040352,0
3.28388211387636e-07,0.149665666371023,0
3.49163559192714e-07,0.152205251320216,0
4.29031845971278e-07,0.161630091121533,0
4.14130381453453e-07,0.161935833031765,0
3.75954755039627e-07,0.164008707380901,0
3.951236595692e-07,0.16451280481544,0
3.96938142010341e-07,0.16328113813702,0
4.08898928969946e-07,0.162435101650957,0
3.68836445926369e-07,0.156254447793092,0
3.25882511493342e-07,0.159560674771881,0
1.55395733811584e-07,0.120468564952868,0
9.50620316734635e-08,0.100898307994584,0
4.88761648503231e-08,0.0872971884953858,0
3.50994303850327e-08,0.0848093193437199,0
4.27885286456999e-08,0.0874510480004034,0
2.51264430024485e-08,0.0805956692815326,0
2.60048957046752e-08,0.0824598310933825,0
1.90458391076495e-08,0.0812117241533767,0
6.33640416466028e-08,0.104992355507731,0
1.04084631684576e-07,0.116551882686511,0
1.41076778957545e-07,0.126922274186905,0
2.30203248126336e-07,0.162811246951588,0
2.95576772305251e-07,0.184557231489021,0
3.06048907178909e-07,0.181700872113162,0
3.02849206208825e-07,0.184928293382965,0
3.04009537329843e-07,0.18690788284125,0
3.17368728399313e-07,0.190432471409702,0
3.53177103518515e-07,0.1926564593082,0
2.65852224222851e-07,0.182434957657485,0
1.80583270005633e-07,0.160826305961036,0
1.78512108255902e-07,0.168010994004967,0
1.3444531079317e-07,0.137410679110204,0
1.48496598354521e-07,0.127729678997028,0
1.42778744441495e-07,0.12569615865652,0
1.99109743731461e-07,0.136955923966379,0
3.06065315901833e-07,0.167300743808715,0
3.16374682104349e-07,0.169843879341901,0
2.3846489361187e-07,0.153742099291467,0
2.52895193371463e-07,0.146156649169572,0
2.3326406097739e-07,0.134763901642203,0
2.77222297157209e-07,0.14252084606463,0
2.62421775586655e-07,0.140497064200502,0
2.64696727814836e-07,0.144194629511305,0
2.58245609096166e-07,0.145821907999301,0
2.34724437317582e-07,0.141443175162429,0
3.02695667444326e-07,0.151734854930712,0
2.29098941073584e-06,0.230446195179625,0
4.9434872928975e-05,0.3120871018355,0
9.08129805658775e-05,0.248729532140995,0
8.99287202012811e-05,0.239324078907482,0
8.54383367757524e-05,0.24462506045451,0
8.17488991567082e-05,0.25242797011949,0
8.00528279204422e-05,0.249458698368238,0
7.91026339374907e-05,0.249483741614381,0
8.00365434349923e-05,0.249432081487223,0
8.25474050446966e-05,0.247569459742399,0
8.67447798095641e-05,0.261925852774151,0
5.85145719262125e-05,0.482876062510672,0
1.44779745715145e-05,0.756724105278466,0
7.29184586231181e-06,0.643634242724718,0
1.7396204264244e-06,0.361387207032736,0
1.88896046243848e-07,0.160903596253183,0
1.04525909126054e-07,0.129395870496145,0
4.58346908512863e-08,0.104139171967713,0
4.83288167356602e-08,0.103519354519715,0
1.14868532293781e-07,0.114633868184826,0
2.77116959016298e-07,0.152292130627374,0
2.48841213264173e-07,0.147029460291147,0
2.06379980038215e-07,0.140515028672522,0
2.06952673769537e-07,0.133897433102195,0
2.79279247780835e-07,0.15120512406425,0
2.90985846041579e-07,0.150494140431743,0
2.79138748090802e-07,0.149285420039929,0
2.72328981571089e-07,0.149332820736188,0
3.32109035816997e-07,0.155640966541096,0
3.50845453292374e-07,0.174536774311573,0
1.58376261125477e-07,0.133012165305044,0
1.58809480711949e-07,0.131167142572063,0
1.81448244114029e-07,0.133168422839395,0
3.59259611997224e-07,0.177996941680397,0
3.28179732702634e-07,0.164942307634909,0
4.05327541124352e-07,0.179409762279339,0
4.06541347101328e-07,0.173769505560532,0
4.03962100966789e-07,0.173219513618742,0
3.12896179351018e-07,0.160215237995678,0
2.1800980891671e-07,0.13857990228773,0
2.40771051714897e-07,0.144734125543078,0
2.33428148206625e-07,0.141072602562794,0
2.3390282911977e-07,0.144765220570045,0
1.67857719352629e-07,0.132779394291764,0
2.09811747232504e-07,0.151666329812391,0
8.77081401810908e-08,0.120440922861404,0
1.08410527771741e-07,0.133298296322701,0
1.36968737968479e-07,0.145386168180329,0
1.32949333384492e-07,0.143730888100277,0
1.17615381812468e-07,0.142784469741303,0
9.02573524924225e-08,0.131215726647752,0
9.50533877926379e-08,0.138011851837733,0
9.24940665359336e-08,0.133727367776315,0
7.48078073276611e-08,0.12754171746618,0
3.82651418576331e-08,0.111304778659165,0
6.92043749557358e-08,0.117015460665481,0
7.58604562044956e-08,0.111700580837326,0
4.74591544207141e-08,0.0892311726225784,0
4.90824459385045e-08,0.0892465772694522,0
5.76889676183419e-08,0.0906428154082651,0
6.06560163384045e-08,0.08948708277769,0
6.09589916866705e-08,0.0896197466234545,0
7.82782522259843e-08,0.0915019380336805,0
1.01206658888955e-07,0.100664451844838,0
1.09021899207097e-07,0.102232506409369,0
1.31007683340694e-07,0.112287335203737,0
1.74910393574191e-07,0.122520417471511,0
5.91246722715674e-07,0.224466710175287,0
7.28425843953066e-07,0.235086631881559,0
7.42934231652999e-07,0.234853919095021,0
7.8569580311104e-07,0.227135427868359,0
8.21982668311206e-07,0.227845918478893,0
8.58938042464051e-07,0.23354391779136,0
8.34889154435731e-07,0.223596142742099,0
7.88344786318004e-07,0.217253778710308,0
7.19276955378024e-07,0.206735296050802,0
8.1489761616316e-07,0.232861745934021,0
5.01590486206779e-07,0.18644797994043,0
3.43200746487472e-07,0.165954866276282,0
3.16032589532685e-07,0.159831458944147,0
2.71855033190218e-07,0.163096647124986,0
2.26684163085062e-07,0.156724387643884,0
1.6411345389052e-07,0.149045093407623,0
5.41515692702327e-08,0.106787885480117,0
5.40273317966689e-08,0.104676667298626,0
1.07316564074689e-07,0.128407906317842,0
6.27075462232075e-08,0.109222894388102,0
6.46062698757854e-08,0.112265985218573,0
1.2098078158279e-07,0.125322748229186,0
1.49227226043981e-07,0.127922548621269,0
1.49677440379195e-07,0.12633025514653,0
1.66842136608827e-07,0.128531880008158,0
1.82371234778476e-07,0.133368004841657,0
1.48978751096854e-07,0.118292630014865,0
1.34474612084105e-07,0.113440197121156,0
1.21744519731007e-07,0.111994788915867,0
1.46578389343471e-07,0.113278959622891,0
2.19003122679401e-07,0.124532629081464,0
1.80763179931972e-07,0.119663623155044,0
1.440467578067e-07,0.111233561793842,0
1.85661183724641e-07,0.121417557518855,0
1.76396115531043e-07,0.123774683125219,0
2.14643090588297e-07,0.130307854871969,0
3.51011152092611e-07,0.164036607929245,0
3.59380333315876e-07,0.156564005466064,0
3.51567876620372e-07,0.154242145212793,0
3.61559616829155e-07,0.162878999193158,0
2.87130821699736e-07,0.154071426549154,0
2.45629645271259e-07,0.146016839726244,0
2.53181320477442e-07,0.152745222140498,0
3.25284618651817e-07,0.174661362436432,0
3.82361921821894e-07,0.183080376346678,0
3.33607503835406e-07,0.171419560137679,0
1.76375458120934e-07,0.122902305933887,0
1.69384316610334e-07,0.123100898442727,0
2.05006482025644e-07,0.128852111243652,0
2.37685625779458e-07,0.135885880633078,0
2.34576026278997e-07,0.134380400593312,0
2.34639463573872e-07,0.13157285628756,0
3.10634119690849e-07,0.147261716019299,0
2.76648138361341e-07,0.134220806220646,0
2.34556833933435e-07,0.126967545009806,0
1.91908804977768e-07,0.121198464682662,0
1.50031253467233e-07,0.118768720195467,0
1.56090320913195e-07,0.121154794039724,0
1.26961907594866e-07,0.116805026248907,0
8.37923156605583e-08,0.104966426054934,0
9.26161064126773e-08,0.110151589629787,0
9.56714985249084e-08,0.113137164286206,0
2.19201492419031e-08,0.0808725187808873,0
5.50294359466406e-08,0.100041763331695,0
1.14168817466257e-07,0.117014649012078,0
1.39315331852996e-07,0.116560656369257,0
1.32042604936513e-07,0.114132027812665,0
9.37641309915044e-08,0.105915438179745,0
9.89996856557429e-08,0.108067595785753,0
1.17362804684611e-07,0.11113058112841,0
1.01272733300013e-07,0.103399649339401,0
9.06656659815995e-08,0.0944984091435585,0
1.32247713973057e-07,0.106275781344855,0
1.13613411496587e-07,0.105215889819978,0
8.49120644936333e-08,0.102379206268139,0
6.66141408370956e-08,0.0974975151524334,0
5.94898249591973e-08,0.0941565984553165,0
7.02168810639896e-08,0.0948630764548319,0
6.64522512046809e-08,0.0966983177876435,0
3.25455298671512e-08,0.083409797855099,0
3.24158716547646e-08,0.0901003891275759,0
4.21293961061199e-09,0.0787974644419956,0
1.60242899864482e-08,0.0873947375155206,0
3.7957478302817e-08,0.0941419271064696,0
9.64750864287965e-08,0.125600754767937,0
9.76752673054877e-08,0.123754401233885,0
1.23457326692603e-07,0.133565793192243,0
1.33214656573907e-07,0.137567382758136,0
1.63043370745579e-07,0.142864367118334,0
2.30930945686703e-07,0.155867685290385,0
2.64869019405533e-07,0.160936175110696,0
2.74819591300552e-07,0.159330356499308,0
2.48341772760188e-07,0.153289192457291,0
2.69850238864456e-07,0.169985417282511,0
2.5055592480968e-07,0.155956886280583,0
2.72583463282859e-07,0.165437486372353,0
2.50446337981584e-07,0.159193852875678,0
2.3911303816735e-07,0.160482293099441,0
1.97229772905081e-07,0.152168387246982,0
1.41817662098832e-07,0.142199991628719,0
1.46272044346747e-07,0.143853439554002,0
1.52333895415348e-07,0.146181953452488,0
1.44464008189612e-07,0.140730824172725,0
1.07683855756558e-07,0.128201799722153,0
4.47095212793883e-08,0.0977478504241812,0
4.87860633806986e-08,0.0966637996756733,0
5.32029399762171e-08,0.100530082419927,0
8.44713730779733e-08,0.115828651248189,0
9.73910447834203e-08,0.121510674264197,0
2.045224246994e-07,0.155293005102899,0
1.63275436969783e-07,0.1348227383367,0
1.09910753867606e-07,0.12075295735356,0
1.22053208831006e-07,0.129669823486031,0
1.44882577130616e-07,0.13434743624326,0
1.78236676121115e-07,0.147018237756318,0
1.75851111519654e-07,0.157709178562028,0
1.80504156520108e-07,0.159364594073002,0
1.75776100214862e-07,0.15378253213975,0
1.84012693096647e-07,0.150138977111794,0
9.52678732422808e-08,0.125051964235893,0
1.1482868253811e-07,0.134832975151799,0
1.25468127783007e-07,0.131028692575993,0
1.29578952394711e-07,0.13264759230362,0
1.21291375266699e-07,0.131698601032223,0
1.10914030069215e-07,0.12416227514112,0
1.10410047865135e-07,0.119110189163374,0
1.06834850851721e-07,0.117657515983361,0
1.01543037708888e-07,0.117343654834773,0
1.10749503320616e-07,0.127339162196183,0
1.41860881502961e-07,0.13883893453963,0
8.04699887879106e-08,0.111997629515483,0
7.01554948594813e-08,0.111940952644747,0
6.5185263384658e-08,0.110456900881653,0
6.2379371764737e-08,0.108003497150651,0
2.66775068380845e-08,0.0946851918154067,0
2.38622388050647e-08,0.0926500024097028,0
4.81143312860175e-08,0.107683932532696,0
7.73003216410335e-08,0.121031903624617,0
6.80931234970318e-08,0.116290536018411,0
4.82006235878203e-08,0.0972567246679314,0
3.9259481165507e-08,0.0965068463127904,0
5.29619368582781e-08,0.10607470411227,0
5.31775943595584e-08,0.100488643492984,0
5.79654252983119e-08,0.0995284057426763,0
6.43484185155589e-08,0.101007053349955,0
6.35169943852826e-08,0.105731367778652,0
5.3856358764064e-08,0.100868638214947,0
3.53162599379501e-08,0.0916136708695483,0
2.93012909348452e-08,0.0915218675913873,0
1.99096411644087e-08,0.0892309203884885,0
3.80581282371783e-08,0.101646805944458,0
2.32763594928224e-08,0.0885880078134035,0
2.28989588655816e-08,0.0901517134852138,0
4.91787006792254e-08,0.106078259981063,0
6.07525640920346e-08,0.113528908070761,0
6.63198093696553e-08,0.111164563326384,0
7.44456433717065e-08,0.115113143377257,0
1.44734312598487e-07,0.132550765092116,0
3.05304654389164e-07,0.17409214058829,0
3.39792273819477e-07,0.183768032649247,0
4.45053059322178e-07,0.199635431590706,0
4.21108044370222e-07,0.191696193093439,0
4.1512076508705e-07,0.180400784026949,0
5.78291889461106e-07,0.215238481043407,0
6.21158652553601e-07,0.202752561403714,0
5.990442357528e-07,0.189864620491756,0
6.00027587076573e-07,0.187504206540242,0
6.33874240767686e-07,0.204764373367933,0
5.57603566490104e-07,0.195864893829253,0
5.39274290452267e-07,0.191296600271293,0
3.30802198241302e-07,0.153074072514145,0
2.80603812637544e-07,0.141360431107564,0
2.87566385389483e-07,0.148805063343484,0
2.85708683544213e-07,0.150037205141706,0
2.1201476479144e-07,0.142624097440173,0
1.07556834660355e-07,0.123750507975607,0
1.63303566209081e-07,0.139119374575318,0
1.94303306472964e-07,0.138766853314216,0
1.73483567212119e-07,0.13083894197264,0
2.30702395617411e-07,0.153703412158961,0
2.62079390002081e-07,0.169844262251059,0
2.68967537475044e-07,0.169027287310025,0
2.71282339458897e-07,0.167211702577485,0
2.51402732117697e-07,0.156460323467261,0
2.54408458541793e-07,0.167269806146872,0
2.4972376814713e-07,0.161188016083445,0
1.76977453143191e-07,0.137125733914936,0
4.82177794936627e-07,0.204618202758429,0
5.15353449065332e-07,0.198761812525512,0
4.79497312841907e-07,0.189935451954099,0
4.3792595982164e-07,0.179987045463546,0
4.21162691277815e-07,0.180559840168275,0
4.11568716093473e-07,0.182852846532042,0
4.02690424940216e-07,0.189847221465396,0
4.20956996215453e-07,0.190320223954528,0
4.23755269499731e-07,0.189724086354995,0
4.07153744081867e-07,0.198772718392322,0
1.21843411587912e-07,0.142131719428167,0
8.82992937257012e-08,0.144420090993047,0
1.29496908780094e-07,0.152233841744719,0
1.11189022684638e-07,0.137206188719151,0
1.5166040524321e-07,0.148703866849564,0
1.87586864564879e-07,0.161968338412354,0
2.12820550292149e-07,0.167868928033431,0
2.02512209634815e-07,0.158843872492878,0
2.29813540956903e-07,0.166387084995783,0
2.36736117446715e-07,0.165804370939794,0
2.37524908198681e-07,0.157685046310122,0
2.54234994899459e-07,0.167259538971099,0
2.17819350525634e-07,0.164708749096076,0
1.25247049542904e-07,0.137928364049071,0
1.09440907667465e-07,0.133674407872825,0
1.01127398896977e-07,0.127583226555027,0
9.18857717361262e-08,0.119079457581998,0
8.62423431020754e-08,0.112776514221288,0
4.93498202182849e-08,0.0954028314849297,0
2.01833152217401e-08,0.0770720967400129,0
1.51867125850757e-08,0.0800808958955796,0
1.31146717966182e-08,0.0759181531506672,0
9.8018678435245e-09,0.0737633072900435,0
1.27952877254282e-08,0.0757958775674735,0
3.87097889475693e-08,0.0842712868547711,0
1.03394146763696e-07,0.108160636540083,0
1.05704260540999e-07,0.109010081712214,0
9.17791150371234e-08,0.109756158263215,0
7.6370152160307e-08,0.108186013106852,0
7.60198552271812e-08,0.111775788469581,0
8.50405506543824e-08,0.11400798709656,0
1.02200558677466e-07,0.121497185732783,0
1.18361978705488e-07,0.124297746651589,0
1.16864682738718e-07,0.119796161618725,0
1.23383487439447e-07,0.130617623786364,0
1.02887820456342e-07,0.118256698247317,0
2.98040424847052e-07,0.188628187475844,0
4.58420308246654e-07,0.219159370812767,0
4.82884688580429e-07,0.201827627235508,0
5.05073823673115e-07,0.191889511426389,0
6.36297897047362e-07,0.207936312405929,0
5.80835241514251e-07,0.190526264540209,0
5.61374496126963e-07,0.190823878884127,0
5.49870809305944e-07,0.189382551729355,0
4.57818606237308e-07,0.173946577446549,0
5.04624488376628e-07,0.190531121384837,0
5.04411614497987e-07,0.180596037617096,0
5.76129454190114e-07,0.178731512650437,0
1.15808239344707e-06,0.261780762403127,0
1.40079275110249e-06,0.290703381247437,0
1.60050155972712e-06,0.311488393303608,0
1.80701339557454e-06,0.330488311956854,0
2.37148884732114e-06,0.371685902130629,0
3.17121484106405e-06,0.417933143357066,1
1.09304562900487e-05,0.289130411297382,1
4.99360153984434e-05,0.569086018512538,1
7.16259641758427e-05,0.571952007853883,1
8.54851748893118e-05,0.507198467109937,1
0.000157790959634692,0.463054271656184,1
0.000165766483141973,0.257981992466222,1
0.000658011703521867,0.0600338567388415,1
0.00148129715879831,0.0690303611306074,1
0.00150042649838076,0.0670521968990044,1
0.00134715664706575,0.0626413216965546,1
0.00123823805835023,0.0585822649725085,1
0.00128955718273118,0.0614640640376142,1
0.00116014325213038,0.053711541397248,1
0.000949589470801879,0.0463193557949498,1
0.00083153627496052,0.0429527756973188,1
0.000485928927888798,0.0294250072975519,1
0.000469512648748379,0.0776802781520312,1
0.000393952972785939,0.102876647221153,1
0.000446654717110845,0.104501082303011,1
0.000414616709629744,0.104021155745909,1
0.000431970602976384,0.115209044760651,1
0.000478747859073021,0.0540261862387198,1
0.00123826050680175,0.0831209304179858,1
0.00169910496578736,0.0930813328760959,1
0.00173899780490489,0.077700175018348,1
0.00173831140575602,0.07957176487705,1
0.00177774514184522,0.0497557097126433,1
0.00508879550629399,0.0477935073636514,1
0.00826313952598111,0.0376184157953827,1
0.00778761324598006,0.0227439981146679,1
0.00710863008389651,0.0170871069206678,1
0.00659688426368545,0.0164498762163831,1
0.00680046367204613,0.0158539816206672,1
0.00675518033552851,0.0153069884786987,1
0.00692289096240065,0.0159692013453049,1
0.00566363528760464,0.0123685279562754,1
0.00744322773592964,0.0125026186964884,1
0.00953841989043317,0.0174266637894122,1
0.0107120218871131,0.0232083559196026,1
0.0136424093793059,0.0276877970721096,1
0.0161760488827066,0.0125682841336897,1
0.0153959571759347,0.0117641304412607,1
0.0135709774627828,0.0108298966388043,1
0.0104593813865692,0.00618480825973113,1
0.0124463864719779,0.00490408978550029,1
0.0136930978758826,0.00399689088311049,1
0.0161731766932533,0.00325583355080013,1
0.0187947539188958,0.00438961810453267,1
0.0193141924027486,0.00415181829493512,1
0.0186807298262192,0.00469698017318656,1
0.0168368727572615,0.00713007542811788,1
0.0138742007622357,0.00544024049817723,1
0.0135209145886173,0.005126986716418,1
0.0133230318236977,0.00678418953046047,1
0.0113354870107075,0.00784520639482992,1
0.00837653923144239,0.00528401175346642,1
0.00808325506715119,0.0114618360703047,1
0.00525473447631977,0.00685393180502714,1
0.00520238376439039,0.00452836380497812,1
0.0121370934394092,0.0135989728313377,1
0.0160182098871216,0.0156440292651057,1
0.0162680519082466,0.0155799834286676,1
0.0157606213546399,0.0148391952747058,1
0.0163144962534776,0.00942389004638067,1
0.0215415764018677,0.00845341342665063,1
0.0207948379307238,0.00604779185210449,1
0.02193108649536,0.006244656138589,1
0.0225810968117111,0.00552537553734934,1
0.0232030219672827,0.00448298952691609,1
0.0219724040653578,0.00425551172302901,1
0.0207655596185938,0.0036342479548787,1
0.021305344253586,0.00368648049368963,1
0.0219723346951375,0.00370062150884392,1
0.0216946506377644,0.0051111205501976,1
0.0132054307514637,0.00295752666632493,1
0.0117458076324533,0.00644516353349286,1
0.0115371682669373,0.0086429343156721,1
0.00530568655324511,0.00365513932603631,1
0.00400008723911793,0.00966553271853214,1
0.0053443020314461,0.0121081990901041,1
0.0053852546519607,0.0136540525144205,1
0.0041702932664806,0.0105241693998988,1
0.00430651868930064,0.0128117397191994,1
0.0043820076577319,0.0123469576789118,1
0.00477034878340119,0.0141410359222492,1
0.00471210564632765,0.0137466003861172,1
0.00498321674201002,0.0146914763784795,1
0.0052590195271399,0.0186927190837991,1
0.00498924385244254,0.0247848220175171,1
0.00418846175915626,0.0238055380743684,1
0.00439034276741407,0.0350721573100535,1
0.00214782187845291,0.0333070651747159,1
0.00113598759386055,0.0267428160478651,1
0.000409065975043539,0.0174747370955545,1
0.0004570227896218,0.0240697770994784,1
0.000476356752864912,0.0244645831176218,1
0.000652060266310299,0.0285343874419253,1
0.000718184731591627,0.0259818974610861,1
0.000903512290671177,0.0306532151279656,1
0.000743315209821357,0.0262314840684832,1
0.00111297230886996,0.0302947768150666,1
0.00125759510895951,0.0224280321760902,1
0.00124381223865739,0.0204530825078913,1
0.00124289022504449,0.019471700946577,1
0.00130526390649853,0.0199011712200479,1
0.00126517561370584,0.0213677192015791,1
0.00119558649228923,0.0214515517667082,1
0.0011659430289367,0.0233167381485513,1
0.000947049174287353,0.020695873362573,1
0.000901731376521464,0.0187746433015247,1
0.000619534087015681,0.0206619171390476,1
0.000439932025090897,0.0303451838378008,1
0.000477492617554508,0.0401966471236765,1
0.000379365169064653,0.0410635737681174,1
0.000486719667762637,0.0479719542860744,1
0.000717606274735898,0.0626057728522524,1
0.00070887425342939,0.0648382133865886,1
0.000692691637873049,0.0682099643751437,1
0.000701902154241743,0.0633613608354796,1
0.000952222995380278,0.0774568760106419,1
0.000930253088297681,0.0483752311907408,1
0.00102319328222477,0.0466848514861404,1
0.000869434512645857,0.0366068747355142,1
0.000945289711466227,0.0380873134186895,1
0.00100948351527388,0.0460885593175441,1
0.000825430239889293,0.0392147687788644,1
0.000842969896534657,0.0375417189240475,1
0.00087217951559719,0.0345754171273459,1
0.000819414746979106,0.0342538349477946,1
0.000381318452453484,0.0192994166606793,1
0.000447365982507256,0.0327236235261059,1
0.000488947670092835,0.0292151520640457,1
0.000606220879487621,0.0338930527279318,1
0.000577839624035526,0.0331675428331451,1
0.000585288201330997,0.0262556163366573,1
0.000726786287874703,0.0248974766618246,1
0.000769265827814704,0.0263693466643602,1
0.000776017828597416,0.0295969398244078,1
0.000800312069227301,0.0284633551050245,1
0.000821836227930942,0.0288241652846787,1
0.000740571067888458,0.026007579183435,1
0.000673881388323333,0.0300906779509153,1
0.000511436879705983,0.0272774035727676,1
0.000558596063332803,0.0261278451939436,1
0.000777235917397582,0.0419037279437405,1
0.000737748861895771,0.0428620641377199,1
0.000691429567981697,0.0394966128713893,1
0.000644316099203448,0.0359308338275308,1
0.000570669085224672,0.0363371803374654,1
0.000626607468459547,0.0399883324368965,1
0.000576437384240171,0.0356183524540217,1
0.000677064094544675,0.0351309834823,1
0.00107874602530939,0.0462757399093816,1
0.00116658777805859,0.0551818038433527,1
0.000864696674837164,0.0448548392702902,1
0.000681739495844086,0.049916727346047,1
0.000710837998844149,0.0527578458644293,1
0.000631786550745767,0.0346904987408512,1
0.00168892813401195,0.0460102441415225,1
0.00266835886198912,0.0607371160094968,1
0.00275088102162757,0.0446469496412697,1
0.00535941664175855,0.0470415013654075,1
0.00670085660652339,0.0499463474148275,1
0.00721734795408092,0.0461833018203355,1
0.0143959092739417,0.0284646912200897,1
0.022969228961306,0.0319820455825732,1
0.0490713065599079,0.0450577491043306,1
0.0797102548631325,0.0611480595251103,1
0.0895931183887334,0.0210357466144897,1
0.083323837661343,0.0127240857973898,1
0.125708427229858,0.0146977962503068,1
0.124230034254739,0.00788448704529549,1
0.112551474071116,0.00623765336807034,1
0.0999149832748992,0.00495024857870048,1
0.0930854133811604,0.00362363865271843,1
0.101846900182452,0.00434374226141307,1
0.134056472088215,0.00651598727225231,1
0.166785658740332,0.00759969557696481,1
0.16305803137341,0.00940785861746414,1
0.142760958408314,0.0099736928121414,1
0.136863227478986,0.0106004895316112,1
0.168836930743302,0.0254066212508657,1
0.18219460100076,0.025549178562267,1
0.114114396567725,0.0105921398191494,1
0.0792819818644844,0.00871273593893835,1
0.0758249145789525,0.00845008012526307,1
0.0956149768187523,0.0108147680927503,1
0.111997321646567,0.0131098066040837,1
0.119435353540458,0.0160131999017699,1
0.122452713317645,0.0117994774518837,1
0.127193051978627,0.0127472688628426,1
0.136947784450512,0.00910655459493622,1
0.114981263795609,0.00516732905445971,1
0.126414566491855,0.00390391260941741,1
0.216151359880317,0.00711253444396556,1
0.221505744539156,0.00691191699225532,1
0.245815003399936,0.00827793873479284,1
0.208689514261769,0.00429039178973867,1
0.18609458068047,0.00329195692569171,1
0.180237475607763,0.00401439776444387,1
0.174115144389318,0.0032893612523855,1
0.173171867144281,0.00415311746497584,1
0.182956931525363,0.00621173452873309,1
0.202933499420296,0.0122564594978087,1
0.163839240583364,0.0125001490465777,1
0.223268929028589,0.018977700965511,1
0.175821122339307,0.0182767968770753,1
0.169680455337301,0.0283556699343194,1
0.206274286275741,0.0335240375421891,1
0.209486806191413,0.0307460345044387,1
0.160716887391291,0.0401836670658788,1
0.0990289866857495,0.0413368227304448,1
0.0641448170859594,0.0269895150857601,1
0.0390673903659625,0.0150984600890218,1
0.0148650770753575,0.00387988502007559,1
0.0124503098982789,0.00351943945561447,1
0.0149076106857022,0.00449268706418078,1
0.0181013627295499,0.00664587500770858,1
0.0217390420465021,0.00916289266863049,1
0.022479101913667,0.0091866039286424,1
0.0222449399771872,0.00926182943421032,1
0.0180828771122256,0.0101111830812758,1
0.0149932411416662,0.01278059242457,1
0.0161048696792693,0.0177736551568034,1
0.00713236890346656,0.0136383038126721,1
0.00357492479211581,0.0142128154077836,1
0.00426935033446595,0.0206878246546595,1
0.00482153347038268,0.0220265389380775,1
0.00469778333588977,0.0213536850680011,1
0.00453597678669917,0.0308117355936046,1
0.00225453885841556,0.0231379196948487,1
0.00683563350288481,0.0285437498293554,1
0.0090424171883904,0.0141051421825271,1
0.0088089510516461,0.0145098296592292,1
0.00922936503121022,0.0130265263061636,1
0.010638796863587,0.0160756895951117,1
0.00944333587326859,0.0148471630684702,1
0.00784936524970918,0.0118340548318054,1
0.00690179763332368,0.0103755457177499,1
0.00623159164129427,0.00916966419736442,1
0.005034656812011,0.00753826929873089,1
0.00502982287915362,0.0101911476791606,1
0.00485213219625547,0.0282684209877635,1
0.00527484776731643,0.0188383912607122,1
0.00741384502359309,0.0187859774146765,1
0.00754988971370655,0.012415647441525,1
0.0156113260096873,0.0165788690802361,1
0.0175253717714275,0.0158349412601297,1
0.0141234747051687,0.0129584169219526,1
0.0125568703437131,0.0112275757549123,1
0.0105077795225409,0.00530058519532506,1
0.0667308803646444,0.0140635274858538,1
0.0817854545149114,0.00977857301476474,1
0.081786210338781,0.00928495819593182,1
0.0808509033431655,0.00918215492228069,1
0.0743764748525939,0.00689458508430109,1
0.0855347864485856,0.00863601140908657,1
0.0844807568949224,0.0065274194621826,1
0.0803061477651166,0.00575678906564498,1
0.0753041241632768,0.00462978298127394,1
0.086487644744447,0.00622693817529962,1
0.0647155099840502,0.00657677802346201,1
0.0509657173459502,0.00751501906907646,1
0.0515516538767278,0.00833313707668358,1
0.051901345077745,0.00858664987114972,1
0.046113463596952,0.0120336197839675,1
0.0211495363374893,0.00399814607735656,1
0.0169228967061217,0.00510954162963159,1
0.0190318100650421,0.00976646241116246,1
0.0178044774165314,0.0132619609906837,1
0.0177065114897962,0.0134818823909549,1
0.0192114861037896,0.0209032238075622,1
0.0176874515216061,0.0243469827066203,1
0.022564549937889,0.0298756680154384,1
0.0265637731827338,0.0357603373505455,1
0.0257702560856579,0.0383461548856508,1
0.0146172684952584,0.0265304105102678,1
0.0102565372120609,0.0374472177911692,1
0.00921423509866672,0.0279608071394663,1
0.00893100317588982,0.025273609492642,1
0.00824232772400046,0.0207888924008528,1
0.0071058979191593,0.0136983370634995,1
0.00598785315715891,0.010125807935249,1
0.006266858063399,0.0124030391206908,1
0.006214471384135,0.0121828946658392,1
0.0101919302528722,0.0124495308105515,1
0.0181240090290975,0.0172621257269082,1
0.0178231469016539,0.011981912659046,1
0.0478347840919954,0.0208973262118518,1
0.0928824672866534,0.0338713173189632,1
0.155993895849344,0.0478429865753676,1
0.171157010772061,0.0597982384574881,1
0.183546468034867,0.0658048552797922,1
0.165982429817694,0.0557434773699002,1
0.139162178954854,0.0487639623867763,1
0.106413088987721,0.0369470061615167,1
0.0823965741113852,0.0339496151183014,1
0.0329548664547067,0.0175669831828631,1
0.0199286690705402,0.0084564239353437,1
0.0202757899089882,0.0099404948886822,1
0.0220950651124745,0.006086577287997,1
0.102585788946609,0.0143346379891206,1
0.126187269494614,0.0116972134311711,1
0.138017170456355,0.0120870066384635,1
0.139028857891667,0.0115627385075279,1
0.161310423478807,0.0137598305169658,1
0.166990718586895,0.0131721999686239,1
0.198270818248602,0.0144764538316159,1
0.173154448539913,0.00794337210295306,1
0.142269826879751,0.00575063593183239,1
0.10782906609954,0.00347719619027915,1
0.0994130600937773,0.00314452651295138,1
0.119977646272776,0.00584580318006284,1
0.126050486829219,0.006995236050082,1
0.125658544062854,0.00778642773551249,1
0.114751125316082,0.0061025964689434,1
0.17571995998983,0.00709784930557568,1
0.198243840936815,0.00935560766671093,1
0.19328693389587,0.00986677022502631,1
0.195777995475705,0.0108659358504159,1
0.198537737569436,0.00923701707341423,1
0.195099506908864,0.0109311141773086,1
0.201990577572375,0.0107403252539452,1
0.244392558026824,0.0126492867175575,1
0.280052251854455,0.0141084179420013,1
0.295298974767494,0.0130941016452953,1
0.207767732290223,0.0149224949355315,1
0.115923628598886,0.00670877663982811,1
0.091667624797168,0.00822232066023171,1
0.111871044513657,0.00788278312865466,1
0.0995467840964496,0.0100255960354676,1
0.102625297279975,0.00924818818568696,1
0.145043225538518,0.0136213219333025,1
0.187357270772469,0.0171909903433174,1
0.238391123065993,0.0207522868099143,1
0.267332352529713,0.0334970908074432,1
0.204950871448258,0.0273617460709555,1
0.178125339899733,0.0231488306642293,1
0.0945856927870607,0.0161825053144174,1
0.080969053348128,0.0203893718312643,1
0.0247148931521376,0.00635814473809003,1
0.0109546629836955,0.0122293058018148,1
0.00753748964545591,0.00895315951477945,1
0.00527630954499086,0.00732173869255136,1
0.00665548465850679,0.00877466505467397,1
0.00782267193130848,0.00522515972857863,1
0.00981201379115314,0.00500530946895463,1
0.0108689445557332,0.00619593482933243,1
0.011883521052329,0.0086545164112215,1
0.0143872156606208,0.0112840652413867,1
0.0153366907555916,0.0129923920937411,1
0.0144265687786032,0.0113110194550092,1
0.013569168300284,0.00974952890273163,1
0.0121338136720756,0.00599775701418455,1
0.0139956134411842,0.00805149122965527,1
0.0141477594017821,0.0140668317829104,1
0.0127290653698081,0.0147719699218883,1
0.0168513283194221,0.0279575331805177,1
0.0192887232294318,0.0282215567109821,1
0.0165868762976759,0.0257271515465656,1
0.0139653137169651,0.0247791226853897,1
0.0188399477506645,0.0238803012918288,1
0.0148605117049473,0.0098622911827924,1
0.0103757470773875,0.00775258928782082,1
0.0116360415625001,0.00665157903981815,1
0.0159439493945051,0.00713082158672524,1
0.0162126769086974,0.00637701004595594,1
0.0165865221424952,0.00674676050316307,1
0.0174638726655289,0.0054464283615753,1
0.0191890041362835,0.00508506451206611,1
0.0199796749562097,0.0048681931031017,1
0.0197293294697553,0.00339060004725839,1
0.0278379384149176,0.010174139826207,1
0.0234291084953776,0.00752540317353079,1
0.0178288916119582,0.00673984192893594,1
0.0260052133744742,0.00985587334553023,1
0.0299693594252441,0.00816231077713435,1
0.0256869218534872,0.00666180112455445,1
0.0233327857804964,0.0071987251601761,1
0.0228246283903478,0.00794045627356777,1
0.0174010170856677,0.00556700807174516,1
0.0165194630871939,0.00568756796435508,1
0.0160278059802032,0.00603997109687063,1
0.016412071886871,0.0067985692057386,1
0.0162919758284667,0.00494592837558484,1
0.014622480872455,0.0070598185427181,1
0.0125059504585045,0.00908671374923919,1
0.0212674738481714,0.0159535994999128,1
0.0224768572992629,0.0160627763662447,1
0.0243104281227877,0.0177097632569558,1
0.024184727553724,0.0163528445511705,1
0.0221759364644854,0.0220399957468512,1
0.0170044851525813,0.0181422198109028,1
0.0129023675790241,0.0127829257373862,1
0.011281016828576,0.0143512556222012,1
0.0127860941342177,0.017683524941161,1
0.0111442149944234,0.0225829976954105,1
0.0126758029945073,0.0250332379954344,1
0.0170321578144752,0.0344262730270407,1
0.0203420684045632,0.0397835314857021,1
0.0178452196895247,0.0542957858641623,1
0.0120903149000626,0.0435339241714267,1
0.00706394633603263,0.0297251210182497,1
0.00348167804207619,0.0443151901575711,1
0.00341728979797853,0.050792009522453,1
0.00281626295014925,0.0499555105560302,1
0.0008525003453482,0.0281001840681059,1
0.000157653697737308,0.142705409150612,1
0.000658604460579624,0.0418922258214511,1
0.00458283610457723,0.0471685943086972,1
0.0212839132694714,0.0523413600970972,1
0.0241139327737008,0.0268524004220476,1
0.0233023928670377,0.0260150274216022,1
0.0248591957824419,0.026214990075391,1
0.0240220565342606,0.0234526030198129,1
0.0225646442833576,0.0213568489418263,1
0.0178739270621916,0.0166760592606489,1
0.0171329598952036,0.014180026601355,1
0.0137971765349386,0.0109920835048517,1
0.0135340237634917,0.00906857196174105,1
0.0122410411017698,0.0103011253205605,1
0.0147071112233496,0.00934914258129811,1
0.052718229694732,0.0149625196671761,1
0.0616886779819117,0.0077677542043282,1
0.167961304112494,0.0138089349216053,1
0.165178972469224,0.0103487508189725,1
0.222569490161795,0.0102102583049619,1
0.289242203634841,0.0116830896064236,1
0.288435587710934,0.0115513835143795,1
0.345518986686416,0.0138608783114292,1
0.296728258538589,0.00989319144843597,1
0.215016443100962,0.0063719324968187,1
0.207023803046504,0.00572563002973113,1
0.164499280486497,0.00491620042612343,1
0.174333561020728,0.00651624068657462,1
0.119219265090441,0.00161316927568735,1
0.184674613964066,0.00995628361614037,1
0.204104124002778,0.00801093193791222,1
0.201026138758192,0.00965888395545822,1
0.178129556247669,0.00990449991735658,1
0.166868179200643,0.00984802746960614,1
0.182734321223897,0.0088319487753545,1
0.20760734349044,0.0103861635761983,1
0.161499327639311,0.00787973233690638,1
0.125090591053614,0.00556714589186832,1
0.119300125151346,0.00794609617867722,1
0.10425328459335,0.0041690908562916,1
0.11632685346062,0.0033801113835751,1
0.156748484527062,0.00545535359139328,1
0.135067907153853,0.00299288141919469,1
0.118716889577526,0.0026029116200799,1
0.129058961338177,0.00390107616860862,1
0.137696330415006,0.00466576944248305,1
0.137526761812761,0.00462484320498767,1
0.137141024855,0.00386894185679546,1
0.157019523964093,0.00523388179887971,1
0.152205373971596,0.00606417726707451,1
0.171007068746884,0.00907111733650705,1
0.131834351911741,0.00630790228399445,1
0.161535865897721,0.010863466586571,1
0.211905699175293,0.0138139968610861,1
0.257687271719134,0.0204947275172442,1
0.253140256625125,0.0227098072690182,1
0.30917155810433,0.0272216389013239,1
0.339652161275095,0.0433742954977725,1
0.258611836800546,0.0347443705769466,1
0.145630893455474,0.0264281968609181,1
0.138557122638473,0.0516299175431811,1
0.0914025714461248,0.0633992529467656,1
0.0574569114761261,0.0808276072860332,1
0.0360428589183481,0.0606024974564397,1
0.0232591406564509,0.0475500766182963,1
0.0074678915653161,0.0204061422068814,1
0.000691590523635464,0.0205105300733429,1
0.00221137218488983,0.0317792645779392,1
0.00561497450951167,0.0590604895655142,1
0.00968151643535759,0.031723140295519,1
0.0353608759697982,0.0371080905925405,1
0.0436325280660929,0.0295533851275599,1
0.0430639853695446,0.026199953463727,1
0.040701401853194,0.0234301185580969,1
0.0365501819373891,0.018519454455833,1
0.0329144756191993,0.0138999513482597,1
0.0324321173305081,0.0135266070130428,1
0.033952656709228,0.015302180151577,1
0.0385073643487943,0.0168973323511171,1
0.0390324547778479,0.0199299740113448,1
0.0211982310236221,0.0147713620124198,1
0.0131759865732231,0.00804204089593969,1
0.011365447471248,0.0070352017170522,1
0.0125989901547809,0.00724477720559928,1
0.0120057047714539,0.0080246907947444,1
0.011150651652955,0.0105971135229642,1
0.00987504501584474,0.00918920733232347,1
0.0100769558491541,0.00977428859186252,1
0.00985359594462925,0.00949833245413338,1
0.0097341359889754,0.00994753395596104,1
0.00713001300173397,0.00904441716910929,1
0.00572538311692534,0.014262427011107,1
0.00718086005741186,0.0203924223407219,1
0.00818804846615062,0.038559280380528,1
0.00979779403977524,0.0546803138642856,1
0.0119856250302888,0.0335274244641769,1
0.011840652531745,0.0273110383447228,1
0.0107446565698206,0.0212647968102197,1
0.0070216942085393,0.0146822141454238,1
0.00528047107768412,0.0116262980489228,1
0.00678220940848514,0.0109362349392822,1
0.00727540565969285,0.00624188197592967,1
0.00841225408050359,0.00787972909085734,1
0.00952805060177213,0.00904716396389075,1
0.0108982000651591,0.00690649917928811,1
0.0136835329009185,0.0118529461655883,1
0.0175404889302197,0.0105891235569554,1
0.037448355725801,0.0229547848429151,1
0.0482742929116555,0.0289114513585691,1
0.0506650401811476,0.0289572158977983,1
0.0539534491107956,0.0263039197958913,1
0.0505104139754193,0.0335248820447123,1
0.0394842130027694,0.0279352544848141,1
0.0289072992656024,0.0201787157207566,1
0.0237521903532963,0.0176167725603689,1
0.0318858208673061,0.0169216300227271,1
0.0371475509480161,0.0278334569722873,1
0.0341830933362763,0.0253443230275636,1
0.0365728773060506,0.0257635137546156,1
0.0311768590915067,0.0200520427752414,1
0.0192455602631054,0.0155458421703266,1
0.0174349721686394,0.012229097019604,1
0.0155409826646911,0.0087684323629392,1
0.0175118165752326,0.0107394419463218,1
0.00975392237132936,0.00712523735538007,1
0.0122922651355503,0.0130153354365122,1
0.0182919688700418,0.0213057035383388,1
0.0224209737595473,0.0269246068446622,1
0.0269521398686517,0.0313651387003041,1
0.0291282844938854,0.0436956866963251,1
0.0252058556488787,0.040425510126155,1
0.0210094513837888,0.0472384968024719,1
0.00781632282503419,0.0452710579123795,1
0.00486505900033465,0.0502267247429956,1
0.00185888687430182,0.0298052738443319,1
5.40141175004831e-05,0.117981973020912,1
5.26921545984085e-05,0.328701713761922,1
8.66553395235693e-05,0.0783510810685747,1
0.00112935457726946,0.0965248247654571,1
0.00352115296156932,0.163260070920226,1
0.00568407487557956,0.182948186677576,1
0.00887540727273618,0.128619609217459,1
0.0189701364119394,0.071471799259241,1
0.033413611934176,0.0844917172782611,1
0.0523693388671206,0.0449260013313841,1
0.0881551330847647,0.0647619226307509,1
0.0982864490517575,0.0594213607260817,1
0.0897215784749965,0.0587899817370834,1
0.0765374936313492,0.050238431605867,1
0.0826836974589116,0.0376147956984332,1
0.115092413466074,0.0472007487963979,1
0.13097745522927,0.0477957148791245,1
0.186252021889348,0.0564605721785939,1
0.205477185212947,0.0222288323435647,1
0.177795169022564,0.0185549255551924,1
0.181028871189553,0.0162499093822455,1
0.163802462314272,0.014776353837319,1
0.140387751216088,0.0128882115953444,1
0.100695094869776,0.00853590950959944,1
0.108401015413984,0.00735866520672883,1
0.219748044197858,0.0146796124852876,1
0.253229519703212,0.0120963586395015,1
0.270666732521937,0.0101665449988608,1
0.31816109591225,0.0125241650000071,1
0.294485604544851,0.0113755565260014,1
0.301436085080793,0.0124839268472589,1
0.276002541613323,0.0110695973934159,1
0.239134433712725,0.00746933671821759,1
0.21637952067185,0.0033127843297982,1
0.275137884083106,0.00733926642187622,1
0.242177534750914,0.00734630300852897,1
0.242947940951715,0.00454538885007368,1
0.260276505001784,0.00698341251081374,1
0.222093678328993,0.00831175529846247,1
0.244241628570998,0.00970216687332329,1
0.26106860712194,0.00597607349156576,1
0.28550002342137,0.00693838580265098,1
0.276083746022706,0.00548150067666688,1
0.315299306866585,0.00879686183753606,1
0.25323934454986,0.00612119232073155,1
0.26091527637214,0.00539984777535881,1
0.260643485411497,0.00876751718428807,1
0.255735092470484,0.00792134993717077,1
0.273104345920099,0.00751112385392977,1
0.247524600352807,0.00739850570635165,1
0.204201476157716,0.0104307051907298,1
0.212775763013887,0.0107493087272411,1
0.208513131491218,0.021474944249426,1
0.0912148220848047,0.0132003412880291,1
0.0918516154474895,0.0121285269042549,1
0.139999249768551,0.0185216415619813,1
0.133568757854645,0.0211977244249845,1
0.152348151977644,0.0251190108578006,1
0.163968995664061,0.0287018766278576,1
0.145147957782647,0.0246181685956334,1
0.110222951562783,0.0223436478392303,1
0.0833091502859748,0.0170828502608577,1
0.0540624155954013,0.0117691071108623,1
0.0371077733438435,0.00686348080238899,1
0.0285758983750338,0.0087523610945413,1
0.0248691758800757,0.0133044715198526,1
0.00643678001752968,0.00495150061782631,1
0.0066179412327905,0.00935791776024208,1
0.00638760382386891,0.0103780191434786,1
0.00545995327549952,0.00966575966330356,1
0.00613861720939475,0.0116847627391089,1
0.00584286433764954,0.0145864540743046,1
0.004435893206442,0.0140781227407825,1
0.00485856465708413,0.0151472150527907,1
0.00526155245892146,0.0276043923295394,1
0.00124897336569855,0.0240438130348618,1
0.00114966979869863,0.122063661963581,1
0.00113338995178954,0.0364946718196046,1
0.00188010984694053,0.0351085140072217,1
0.00184638992074669,0.0320714135530845,1
0.00251724458885699,0.0269682182326919,1
0.00792709430593459,0.0397859038368348,1
0.0116207927675119,0.0343264981529986,1
0.0123282988518079,0.0379730222060923,1
0.0122488099204922,0.0385844032208808,1
0.0104058827237537,0.0318872471710118,1
0.00782451694803887,0.0250317872299501,1
0.00649519722654034,0.0260470752810616,1
0.0059199193381879,0.0223338408640721,1
0.00420303072551713,0.0164151720488116,1
0.00348642276275813,0.00797283014650001,1
0.00470542309502519,0.0141076245127687,1
0.0116739027545633,0.0298552721574092,1
0.0145399377317736,0.0238777994533287,1
0.0341568270296906,0.0294655125383421,1
0.0393518499483667,0.0272472005732395,1
0.0523340243570557,0.0249544396815117,1
0.0618711173649001,0.0134910772630295,1
0.0590185615111406,0.0126403074815644,1
0.0477643775583258,0.0080938329110942,1
0.0456956774012573,0.00718924588192569,1
0.0431992608947642,0.00526664622704144,1
0.052853258117477,0.00395486784546916,1
0.0705761070533415,0.00647446967694947,1
0.074623624186611,0.00600619596734734,1
0.0763233554921052,0.00629204792376153,1
0.0739248386079211,0.00701895716916429,1
0.0703846600348043,0.0104971557761012,1
0.0593398517955395,0.00652182519017875,1
0.049030872303257,0.0049166083289059,1
0.0501109677989343,0.00557122978082067,1
0.0469540492557941,0.00386928532695982,1
0.0630965123950781,0.0111075153147525,1
0.0541423503649044,0.00756245524738993,1
0.0505573422220937,0.00817496961961447,1
0.0570996637974211,0.00977943288788299,1
0.0605290013630949,0.0106678365727845,1
0.0702122429310021,0.0117407939125828,1
0.0677861900452659,0.018535971712583,1
0.0485301939076344,0.0149583760074174,1
0.0351255973571652,0.0129131986489489,1
0.0203224146763321,0.014806081942709,1
0.0254233971257395,0.0244569917240279,1
0.0222258489508007,0.0386480332518454,1
0.0151554847487659,0.0336356774725622,1
0.0135175689650208,0.0258651872977983,1
0.00717701941765976,0.01570402346103,1
0.00575359766282917,0.0169763470939121,1
0.00570172624969639,0.0116847924937778,1
0.00447827102548545,0.00745823620971001,1
0.00389963129029071,0.00810212015946979,1
0.00324080510391246,0.00863315405404966,1
0.0102814730583702,0.0121991147795934,1
0.0176490577119197,0.0168237334849085,1
0.0430853438515705,0.0100920814167286,1
0.111207734263995,0.0244285859281784,1
0.131431524293615,0.0257637949299913,1
0.124581831309649,0.0243447752397823,1
0.114188483857481,0.0232982975102787,1
0.106866226253726,0.0240467051328249,1
0.102072866401644,0.0168557255638158,1
0.121589851354128,0.0216684681865846,1
0.113410093830212,0.0208971646635423,1
0.0949710248578258,0.0202990462418672,1
0.136389562963894,0.02066898079834,1
0.218219035900863,0.0165632037082188,1
0.2051955566719,0.0184544977859215,1
0.170419591214042,0.015448710441019,1
0.146227817710742,0.0110031064285204,1
0.134287046536229,0.0084803069502241,1
0.186400143362027,0.0130773617783073,1
0.204724618189957,0.0129262557154215,1
0.244784658379194,0.0141167194979396,1
0.220886635006896,0.00719682351045311,1
0.236206886263978,0.00715107807167506,1
0.273525129684592,0.00986623666093349,1
0.234773801383503,0.00673624321827506,1
0.170562191442566,0.00354765786214265,1
0.164454959988641,0.00270242548497033,1
0.162774790255302,0.00325577391784646,1
0.156213914482686,0.00303333115403478,1
0.186967795515575,0.00329944789697731,1
0.222346635645936,0.00499165325953236,1
0.236552376601619,0.00824846661854503,1
0.230017138696737,0.0102616087271354,1
0.178101125010515,0.00822301675162771,1
0.171286481971448,0.00802662876289726,1
0.167831125339233,0.00506353370488903,1
0.2739819383458,0.0125314345055996,1
0.285425629630295,0.0100324510216787,1
0.309928913352508,0.00835969066485884,1
0.34071554597249,0.0138979594238154,1
0.26085209157528,0.00837468968811665,1
0.229195407735891,0.00707569951373422,1
0.188519183791073,0.00489511723054198,1
0.19835082007997,0.00431246743777554,1
0.208062319817982,0.00519327727246421,1
0.200338414103306,0.00781705183015237,1
0.229799971658583,0.00608288441105442,1
0.414516237932059,0.0137680419468517,1
0.456804586122414,0.018811043494267,1
0.426889865119695,0.0173849064070217,1
0.407266795969869,0.0175653189235022,1
0.472244745607836,0.0183227418229835,1
0.410762021942739,0.0232923063425224,1
0.341138305724916,0.0238424413632339,1
0.305722221338975,0.0212662574157573,1
0.144227880419122,0.00987027806097902,1
0.082130656601542,0.0217682340568186,1
0.08902545248116,0.0255945265150446,1
0.0622499915829238,0.0277622122195065,1
0.0429677497237424,0.0237528720119368,1
0.0154919782476509,0.0105195281960132,1
0.00593093211704085,0.0218432483705373,1
0.00454080214453376,0.0175353391804052,1
0.00391545479845526,0.0157931673390424,1
0.00349985902208301,0.0115531904281971,1
0.00372708601839332,0.0112118613097953,1
0.00352368120236071,0.0130032437310933,1
0.00375421448850762,0.0190676665500474,1
0.00357445660847091,0.01823529480175,1
0.00344692106657329,0.0235777553411033,1
0.00304660584119588,0.0239399720366655,1
0.00304527783929774,0.025955632068901,1
0.00336355203150132,0.0211493585971867,1
0.00626096620376976,0.0313626287012512,1
0.00797436200572033,0.0487091882704144,1
0.0120527151916941,0.127642890665709,1
0.016177354022419,0.188328738309312,1
0.0177488125382854,0.122751014753146,1
0.015412413060458,0.0970515245405149,1
0.0122922154723528,0.0848322399759097,1
0.00911892248821344,0.0361355905623563,1
0.00811797707464,0.0187814253205289,1
0.0284421626418827,0.00598614807467066,1
0.0493902149221487,0.00442617906392672,1
0.0485131526712221,0.00457847192552487,1
0.0500735833670039,0.0047888981258162,1
0.0511463306634041,0.00438561417234533,1
0.0523788710048605,0.00358975333143648,1
0.0635378317633345,0.00540709273877876,1
0.0637138398616481,0.00436000795554263,1
0.0576940849614895,0.00385150031514125,1
0.0425655412219689,0.00155562820577942,1
0.0337877710432559,0.00394035225868378,1
0.0337045905580354,0.0115126479352621,1
0.0420075547355139,0.0155487700278115,1
0.0444614032342908,0.0104487485557533,1
0.0382424399023343,0.00987633427011586,1
0.0318645516938569,0.00788254767085973,1
0.0413318219259305,0.00873136827366882,1
0.04265500803955,0.00827307178779788,1
0.0408936119486958,0.00597743391467519,1
0.034861821889627,0.00415125460957301,1
0.0304079128487701,0.00314681640545561,1
0.0434100812974758,0.00485948804591598,1
0.045344679397826,0.00310041977544175,1
0.0444061187585893,0.00345289444956342,1
0.0362951603305817,0.00139115606071432,1
0.0525519486355042,0.00461845202521986,1
0.0636478558147457,0.00627015938857415,1
0.061936680982962,0.00711312943503493,1
0.0715251868129509,0.00925063287848218,1
0.0885058144111245,0.011905105337103,1
0.101949787578625,0.0155604456868791,1
0.0649371515953862,0.0113185421493494,1
0.0618643699112382,0.0144742764191795,1
0.040935170690294,0.0152449999953793,1
0.0194867802939596,0.00865542254203423,1
0.0177333246142898,0.0130677061369901,1
0.0182733863681455,0.0207784293782,1
0.00531310819825901,0.00832057038219112,1
0.00169941903929258,0.0247085741076011,1
0.00169285982811166,0.0252189735829657,1
0.00140643146281473,0.0261859370763368,1
0.00135547481942971,0.0323652505579657,1
0.00145322055047963,0.0188616957071482,1
0.00305101369357981,0.0360559620710783,1
0.00564222062152545,0.0545887534035073,1
0.00949167141186689,0.105261849028027,1
0.0232666850363682,0.0565501246111324,1
0.061174722431802,0.0792195939310085,1
0.0724807891937541,0.0343084771709536,1
0.0669289425525029,0.0337782013072487,1
0.0583503530117018,0.0311078068407978,1
0.0493710968436384,0.0230094842074748,1
0.0706538835460128,0.020517380187432,1
0.0751365660796578,0.0189376096563608,1
0.0689955401983705,0.0187730778847281,1
0.106432045419799,0.0157085867974659,1
0.262033934033199,0.0336493767005543,1
0.323899447607958,0.0305487873503019,1
0.315848597097915,0.0342129126357432,1
0.313339962951104,0.0307438099578741,1
0.244788034735303,0.019755121988747,1
0.167542743405153,0.0144515433399936,1
0.173003618433191,0.0100986723178556,1
0.296936952867027,0.0177081043990566,1
0.45156433978836,0.0236126839317492,1
0.466313184065515,0.0145568453724697,1
0.504115831352441,0.0138362352842032,1
0.51687619273607,0.0111972614722386,1
0.472576222024825,0.0099851736622862,1
0.465406798953655,0.0101435569347652,1
0.412410957069999,0.0103723682833015,1
0.322552655305157,0.0068033499907821,1
0.263059251435887,0.00694132797526324,1
0.249887687276471,0.0073791454887246,1
0.189666006264955,0.00252944725883247,1
0.250743029649695,0.00963852264260789,1
0.236247636086156,0.0107931433037734,1
0.29433794353141,0.00583053352716028,1
0.423329616353239,0.00716994395895575,1
0.417691996662757,0.00757234778939021,1
0.413465493041535,0.00701452677984054,1
0.444518470509006,0.00770456276588168,1
0.529485017721182,0.0101655470299267,1
0.596663118272142,0.0113002036827162,1
0.582504521613271,0.0128276313033795,1
0.556715469259761,0.0110166738881813,1
0.624515056406253,0.011839196776948,1
0.497527348875283,0.0211482955960377,1
0.238692272109334,0.0106138239041205,1
0.248775036711158,0.00562678064551701,1
0.280704860211521,0.00570535766944235,1
0.309796107938127,0.00238063055298521,1
0.355440992053334,0.00312109751825722,1
0.341357522212418,0.00231393544615697,1
0.388886707721303,0.00372329061574388,1
0.504227001596661,0.00604771974717514,1
0.634821948304036,0.00836348342470532,1
0.773663763070653,0.011677534872242,1
0.721987863377112,0.0135914626518872,1
0.547615527688371,0.0132303416102367,1
0.593023269782673,0.0157720300565156,1
0.518856695279141,0.0405259456684651,1
0.165445755797053,0.0210338946856014,1
0.072451900950811,0.0158038157561215,1
0.0261405667791556,0.0069411126272625,1
0.0201901657170542,0.00550750767011636,1
0.0202689976539455,0.00589901147017581,1
0.0192309487947826,0.00541635182765567,1
0.0244930481206915,0.00693434813513537,1
0.0319285105253383,0.00985173231237241,1
0.0372439629681044,0.0114935858887203,1
0.0363339906181581,0.0215988545594249,1
0.0210608565518501,0.0171923894463625,1
0.0197646334606567,0.0152487734632584,1
0.0254627486821096,0.020060953009557,1
0.033166146354842,0.0290413185713405,1
0.0407838210357896,0.0312611973606185,1
0.0495185129341812,0.0227565704905533,1
0.0457208004223085,0.0254054931651957,1
0.0395345304055287,0.0199034188331908,1
0.0336279797184786,0.0161038225870857,1
0.0223745363943233,0.0104288079903292,1
0.0179880337420217,0.00743693190485685,1
0.0138813649617122,0.00482512343113362,1
0.0135322703988553,0.00523349530988556,1
0.0135808236423826,0.00457931898112969,1
0.0131835423062185,0.00639012529454192,1
0.0195509388716088,0.0115909572104199,1
0.0205946897375211,0.00724222001443665,1
0.0196250063630682,0.00825090144184168,1
0.0210031649745123,0.00630070538400536,1
0.0267431244237035,0.00876305834915892,1
0.0240795020557659,0.00778708683281899,1
0.0235265925893405,0.00910132842991437,1
0.0240024582288353,0.00918581894258161,1
0.0278422805850883,0.0120689730826352,1
0.0296569658754031,0.00660770276732111,1
0.029532411750553,0.00978145421541745,1
0.0248124779136157,0.0116436346115109,1
0.0329736124501881,0.0144224416090394,1
0.0429078002213031,0.0281394858487688,1
0.0348256490818994,0.0189932812608004,1
0.0331671529362292,0.017650248222298,1
0.0369473501431735,0.0157395871614823,1
0.0344493933580639,0.014471067977216,1
0.0283530801365173,0.0117933572582445,1
0.0251333490370409,0.0176187039634168,1
0.0313553649117056,0.0182661487033309,1
0.031356709999919,0.0138173675552178,1
0.0310613301725781,0.0115787115236997,1
0.0214513851201237,0.00716191358032456,1
0.021637857228942,0.0079287600951228,1
0.0297132663417223,0.0119806451479538,1
0.0353428007343412,0.0175638559713947,1
0.0311827202931953,0.0169817234831438,1
0.0319953274661237,0.0181208818748142,1
0.025720348422335,0.0147941754305823,1
0.0245567920254458,0.0176680001904849,1
0.00812152367725612,0.0112804379249006,1
0.0037574592262944,0.0301053310399498,1
0.00203826759954912,0.0240770208116773,1
0.00166834692484009,0.0164620654008036,1
0.00234288904745807,0.0207453406688451,1
0.00428328964538591,0.0205485172344036,1
0.00594629256284014,0.0161347430855347,1
0.00537078733939643,0.0130929103173298,1
0.0063155321542405,0.0154353716718825,1
0.0108095460804787,0.0210016288573671,1
0.0262585751780113,0.0216067452616502,1
0.130745592435285,0.0283994374379805,1
0.187578966753523,0.0142583822509952,1
0.177296911068137,0.0150593541806966,1
0.165304722900294,0.014152446815365,1
0.153646883728163,0.0134402910754361,1
0.180603870139189,0.0139577467790654,1
0.169713985269822,0.0127323035029706,1
0.19002122082905,0.0137072009033907,1
0.171281745143509,0.0121736234589566,1
0.171815825071052,0.0128933700158605,1
0.183753001542096,0.0176497571209158,1
0.200352217882863,0.0269961191253744,1
0.160059841642623,0.0187148627392843,1
0.113554752478087,0.0103773880514161,1
0.0763857694745548,0.00639297255179099,1
0.100525894422136,0.00950574373865903,1
0.0910045164619694,0.00742959406215028,1
0.105250213328971,0.00808922790306676,1
0.118906921429564,0.00730702748605148,1
0.129747585915407,0.0079953383453194,1
0.144288280326794,0.0081438951033877,1
0.155113322171415,0.00863633843929781,1
0.131306630742464,0.00607247686124697,1
0.123633213064564,0.0063745488855368,1
0.126040148999303,0.00702597975410762,1
0.101020688558298,0.00485172005737869,1
0.122262129099793,0.00614879281534348,1
0.123876488575117,0.00482725770585145,1
0.123460179204189,0.00585245957590025,1
0.133037922326752,0.00682930334753103,1
0.120661068883558,0.00612983871964946,1
0.11685764381779,0.00602571713694438,1
0.143496156834277,0.00874832910413071,1
0.146487988095855,0.00937667365564677,1
0.16776498067247,0.00976545789831126,1
0.24106958398887,0.0172308388676959,1
0.198453511388388,0.016754002084698,1
0.237732033388342,0.00490988927878361,1
0.453528965589707,0.0108811121441066,1
0.482051717030666,0.00988960372421065,1
0.580152623774769,0.0101744778527166,1
0.669129024202021,0.0109650428153484,1
0.665671618079291,0.0119104435662957,1
0.678667560116923,0.0119517278371523,1
0.709552780458863,0.0129514278604368,1
0.582055061401866,0.0104289548366279,1
0.308633273340595,0.00377853883200221,1
0.219285112047386,0.010411473921245,1
0.265189361980552,0.0150488430777092,1
0.194744494557812,0.012502947163691,1
0.171438315288737,0.0196006942211374,1
0.165874690838005,0.0351621024988768,1
0.0948036063388926,0.0198773822940305,1
0.0384433113955597,0.00787522016009701,1
0.0208327009615895,0.00512049285757269,1
0.0210183343090878,0.00477855582142072,1
0.0203607695744901,0.00461206749079347,1
0.0204257823927453,0.00444005158244577,1
0.0182439264961335,0.00313781206740629,1
0.0109492614155352,0.00639580171232249,1
0.00577559101372814,0.00856371441039441,1
0.0145537449637551,0.0188390790022226,1
0.0234068572860861,0.029322268370741,1
0.0221155005846436,0.0211106184910829,1
0.0208944764368247,0.0254458906654543,1
0.0210113262350937,0.0245560184920622,1
0.017953666489511,0.0209181267733825,1
0.014458848930341,0.0152469982454772,1
0.0160921556153084,0.00856011790738898,1
0.0177842803918217,0.0059351475219167,1
0.0178294720220379,0.00526078142502474,1
0.0205701386630183,0.00626334250854233,1
0.0147897220939649,0.0028604050477284,1
0.0158449355885572,0.00344990939288101,1
0.017274933821087,0.00230089540423705,1
0.0168009732368142,0.000817939857329803,1
0.0545491393361899,0.00740596301835148,1
0.0665836344215704,0.00531896311128074,1
0.0642100378320353,0.00601277244824346,1
0.0626920224372153,0.00573892802597844,1
0.119007917668411,0.00598391794631343,1
0.209501864263713,0.0109854427599084,1
0.195080257696089,0.0103338890408032,1
0.184655766298819,0.00927036773419709,1
0.171796775592138,0.00866398884404997,1
0.151567445471333,0.00764686035008647,1
0.147801766129298,0.00807479907140063,1
0.151552150330346,0.0107049533096724,1
0.136141904362453,0.00854787368823391,1
0.115786639336096,0.00782751409322482,1
0.095896589220941,0.0158499686900235,1
0.04853789134724,0.00833304035911173,1
0.059259376005096,0.00378540138547011,1
0.123829125923912,0.0125237704815162,1
0.127420831251676,0.00899942020524019,1
0.113975505066592,0.00780094616366238,1
0.111849116013547,0.0079698293998939,1
0.111216624037152,0.00837405523078043,1
0.11344933611445,0.00957273375937905,1
0.117633696917669,0.00985962253997702,1
0.119620262650292,0.0111739318503764,1
0.115127469926116,0.0103451673059374,1
0.129484149095048,0.0228361124855194,1
0.061846034102624,0.0130437239122472,1
0.03406409580085,0.0129290497128043,1
0.0518031565284452,0.0220945202221441,1
0.0536905169048163,0.0285502402735808,1
0.0442625390727365,0.0214149332984604,1
0.0476956470538095,0.0199047483994564,1
0.0475130077872303,0.021333481054515,1
0.0383307911976471,0.0167985751824161,1
0.0288707382187,0.0171036848313942,1
0.0282755856563182,0.0217795889932992,1
0.0158157121568662,0.0128137551298979,1
0.0110379857471944,0.00969801835703924,1
0.0104109492334103,0.0110935306000288,1
0.0109487957657194,0.0156470211791677,1
0.00607559638270576,0.0182639345923998,1
0.0203008358578283,0.0188054056984964,1
0.0880397541340917,0.0381704851243149,1
0.178738828532682,0.0696305064071181,1
0.235548180058622,0.0583566206315818,1
0.239378956524586,0.0632939713190064,1
0.229133554395552,0.0659994645979763,1
0.252033557833842,0.0429938447511743,1
0.296488853978801,0.0429116080843412,1
0.235938341865713,0.0294612800919548,1
0.221201563387828,0.0222462329765565,1
0.19515202444491,0.0216067583348538,1
0.20961914395763,0.0166219087180463,1
