Activity,Complexity,Tag
1.08674012124803e-05,0.424019721308731,0
9.92821813808905e-06,0.414385178937707,0
9.28456794059197e-06,0.38217772884114,0
1.04517598711157e-05,0.376088822829774,0
1.21617952152592e-05,0.349093413432554,0
1.07972397024876e-05,0.350527204012867,0
9.77933830360918e-06,0.368551251089683,0
8.51990461040468e-06,0.344968170379616,0
6.40592766492194e-06,0.297084452646395,0
7.2571803917183e-06,0.333877631239941,0
7.51363017741385e-06,0.342798391451231,0
9.06546335623852e-06,0.377322541730601,0
9.76769830354765e-06,0.410464203739359,0
1.00156710487206e-05,0.46168216946201,0
5.61782007988278e-06,0.501738323313795,0
3.15519153335306e-06,0.47296894241863,0
3.74276835256763e-06,0.517297551884081,0
3.81939288183802e-06,0.505376556992044,0
3.48621429348069e-06,0.506817487042422,0
3.42650027732226e-06,0.4975881709344,0
3.72307214683975e-06,0.5216585286687,0
3.50128264334469e-06,0.508556508587083,0
3.08582715964527e-06,0.477031582183727,0
1.44018932413689e-06,0.359264909076397,0
1.78105952335108e-06,0.380438404338354,0
1.75025240847354e-06,0.374437695047885,0
1.36191910972176e-06,0.345393763176783,0
1.36848060942467e-06,0.379339722285728,0
1.25312720470068e-06,0.366129752646796,0
1.3906521013302e-06,0.389712088685371,0
1.57393684475109e-06,0.408372895101366,0
1.92995613329553e-06,0.371375412888241,0
2.84623394006406e-06,0.393606288901006,0
3.30162190862954e-06,0.421302262045576,0
2.93030532736984e-06,0.433369790965762,0
1.21075314147898e-05,0.186369451158073,0
0.000164708178543308,0.329050958554536,0
0.000540149298144315,0.436062480087535,0
0.00086052519323058,0.252147774855087,0
0.000857562736940864,0.231654890255552,0
0.000862874290139566,0.236590691940076,0
0.00084718646074674,0.18634432950925,0
0.000760355273573596,0.130659038011594,0
0.000685138778682329,0.121631027654366,0
0.000540732293089335,0.101921178681446,0
0.000403726084169921,0.0907353009155654,0
0.000393929573824913,0.095359114690948,0
0.000589490641816337,0.0916374029798536,0
0.000654558395673941,0.0789394526353529,0
0.000699721850923909,0.0799342487153556,0
0.000736999652552641,0.0594275956089876,0
0.000816092779417788,0.0487292006542639,0
0.000838434852574642,0.0513440925745745,0
0.000842942135088518,0.0511427740663833,0
0.00101161768928319,0.0603893948255446,0
0.00118422521155439,0.0681290991573869,0
0.0013030424557227,0.0748505749523426,0
0.000981675523514824,0.0834513767337936,0
0.000671462579970344,0.0867678368513077,0
0.000668247356411126,0.0920091606561278,0
0.000496224502286678,0.152587686669879,1
3.29989343234303e-05,0.160106531288031,1
1.69331298174584e-05,0.444983638396141,1
7.18673309539364e-06,0.28795119204489,1
6.18729858654313e-06,0.295109763664488,1
6.2203977850426e-06,0.295707508584554,1
6.64639610514482e-06,0.314619404260606,1
6.90758345100144e-06,0.317879957723826,1
5.95041997505523e-06,0.315101930985276,1
4.13300910612379e-06,0.320757613922957,1
4.13329042704432e-06,0.33918230850709,1
4.63782217946284e-06,0.319988396388392,1
6.82535241664168e-06,0.385302008646721,1
9.17816418588212e-06,0.361185667426059,1
4.57148068413035e-05,0.259176403874422,1
8.81391632678986e-05,0.200016613740874,1
9.08656670965964e-05,0.185823950284805,1
9.40147505505376e-05,0.184696582596357,1
9.68452005887266e-05,0.170290644053227,1
9.71136279354509e-05,0.163801849995353,1
0.000100864211844214,0.164369827662875,1
0.000103342505536812,0.169647752684869,1
9.56557047728826e-05,0.146774451018691,1
0.000203731523864497,0.107545206241201,1
0.000600419777341934,0.156605342894879,1
0.00066193400662161,0.143134355884604,1
0.00101542034483747,0.119191008419977,1
0.0019524069691512,0.165145509198925,1
0.00249522712268414,0.119279155090728,1
0.00229428201338397,0.106806194183893,1
0.00193372692512204,0.0978351793462944,1
0.00146329235143595,0.0807875282309169,1
0.00125218056680293,0.0598329084399778,1
0.00105052848451254,0.0397367198489586,1
0.00107263338723724,0.0431980443417067,1
0.000855699518674544,0.0343583761875007,1
0.000840297041141223,0.0331939996458454,1
0.000747801156964425,0.031106423586985,1
0.000603662919377577,0.0330232143315562,1
0.000589880438080425,0.0324673012297144,1
0.000831834899524239,0.0402044016321582,1
0.00109058307605435,0.0456822909390173,1
0.00079844685516184,0.0510351976959808,1
0.000777351210609784,0.0484708894969958,1
0.0009959122689451,0.0403480776161048,1
0.000881917078246213,0.0376017078072755,1
0.00144794001455942,0.0338846764556492,1
0.00290554467453655,0.0525691623594169,1
0.00360983860604244,0.0585173341575409,1
0.00367641426236116,0.056405471600404,1
0.0031583394122321,0.0544168393417596,1
0.00258987617986046,0.0476337901186163,1
0.00208648111904342,0.0388284641945097,1
0.0018360411006926,0.0400436542103717,1
0.00200695068864328,0.0424692799574697,1
0.00109327299102585,0.0257880131807782,1
0.000973289647987327,0.0477936090366046,1
0.000881616240822592,0.044338005140625,1
0.00127347979501399,0.054655259489005,1
0.00149203019767075,0.0631959568485895,1
0.00182166346066967,0.0707388574688185,1
0.00187812933172135,0.0675438291977108,1
0.00173990436574838,0.0648940947387567,1
0.00177157194091041,0.0675889713809153,1
0.00122690657521899,0.0915119675601641,1
0.000677992428957669,0.0725875796530235,1
0.000685433839553165,0.0730219294131079,1
0.000702571957341183,0.0636882388561727,1
0.000679205567678831,0.06452926539064,1
0.000682136440354827,0.0645549035966296,1
0.000793231674110712,0.0685121787606705,1
0.000782381252806251,0.0648153764668072,1
0.000681439935978633,0.0471604271118617,1
0.000621704587222213,0.0489028261014792,1
0.000667635978224831,0.0530547730140398,1
0.000664307550451345,0.0586438400769566,1
0.000404596817193767,0.0431631918978572,1
0.000375882735275207,0.0422669874498277,1
0.000526156073926756,0.0551889769576485,1
0.000662704170855941,0.0660189983669952,1
0.000710135969066226,0.055398772049725,1
0.000547622395902802,0.0648709563625619,1
0.000436318877857909,0.0815704267345346,1
0.000586196148152603,0.0919192583817771,1
0.000623509110672364,0.071849033088774,1
0.000673918298594392,0.071894045488437,1
0.00064833584350891,0.0747478788456767,1
0.000638953308786115,0.0891608757764554,1
0.000594299230622034,0.0805848617439861,1
0.000476918081961069,0.0663079509598487,1
0.000532661529578269,0.101948547760935,1
0.000524784334894536,0.0774948190203675,1
0.000467749753266281,0.0753573476333116,1
0.000258408425580238,0.0530715159689232,1
0.000296465236457864,0.0779900179614208,1
0.000428328434909228,0.097189341688076,1
0.000454849034438538,0.0954833747042275,1
0.000476789514921156,0.0988245088883822,1
0.000478527714701414,0.114778924424671,1
0.000449173265145509,0.123456030932832,1
0.000460214184643164,0.129106945613172,1
0.000387415656701474,0.18197040273981,1
0.000201977443632927,0.100352889785128,1
0.000169203041299735,0.086304666865921,1
0.000179021294577837,0.0866835580912427,1
0.00017022119855462,0.075961744924766,1
0.000321426500193014,0.0579299278892967,1
0.000886260306371365,0.109054978294962,1
0.000903865319855281,0.0781323787069066,1
0.000891640929226619,0.0709039621255122,1
0.000856445133645722,0.0644674324266207,1
0.000850274691625293,0.0656371928178629,1
0.000805312181458919,0.067174543326613,1
0.000879988976948279,0.0709997290335663,1
0.00114798374297402,0.0879274732450774,1
0.0012390386890858,0.0792088724487995,1
0.00152539069225488,0.0623723157706922,1
0.00137316071591258,0.0398533850569097,1
0.00139063296945593,0.0326244866129333,1
0.0022824304426113,0.0401149195146308,1
0.00243405338669881,0.0357993132512085,1
0.0024510128821157,0.0350295178049873,1
0.00242685539147372,0.0359376566760169,1
0.00224691499320779,0.0342115136192341,1
0.00191789455917113,0.0306124058899352,1
0.00138269264640591,0.0239619382886889,1
0.00152722608485292,0.0321365484120136,1
0.00145945327562393,0.0240251393212782,1
0.00546141843060908,0.0322200538954424,1
0.00926467926887269,0.0371395010440402,1
0.00944328912128553,0.0380461879971055,1
0.0140912735673926,0.0324826413149434,1
0.0211708415066689,0.0398108576100401,1
0.0216640780293396,0.0387130006666209,1
0.020532871732027,0.036249663881659,1
0.0198148359490371,0.0361391673188972,1
0.0178296211634824,0.0275015561186836,1
0.0122301690017657,0.0151090124488373,1
0.0154915560641934,0.0246677945952245,1
0.0188606166197455,0.0301508413946646,1
0.0183377388422283,0.0301409998517915,1
0.0191560542414484,0.0518340315980725,1
0.0200044605883944,0.0500252921186363,1
0.0206459885394868,0.0486599334670267,1
0.0198782939833806,0.0520401573529751,1
0.0134774582729812,0.0430499749797385,1
0.00343226088050177,0.0154228012685362,1
0.00418866908808071,0.0427236700445416,1
0.00513064041171699,0.047818675957192,1
0.00604906337124405,0.0569210905731777,1
0.00612898549546676,0.0393457855930769,1
0.00649275843548427,0.0494492700781509,1
0.0055503753102777,0.0443384299827352,1
0.00507318538879214,0.0413170250005872,1
0.004438671316046,0.0387287917013102,1
0.00385255719327746,0.0268448013490147,1
0.00396797526717605,0.0284155406868296,1
0.00471017537855969,0.0236162921844539,1
0.00758706082718826,0.0323924799957093,1
0.00905533552793348,0.0370017653734492,1
0.0119316873312926,0.0595861770621067,1
0.0131559882053378,0.0360896698740257,1
0.0121149980002888,0.0322622426252321,1
0.0123604705996145,0.0294768709877128,1
0.0127268467413823,0.0261992786004598,1
0.00993478356349204,0.0213399123132652,1
0.00685043782460774,0.0164710044934175,1
0.00704757937887494,0.0179768973928194,1
0.00823253071062105,0.01966352983047,1
0.00837941956163775,0.0182964717792525,1
0.00791837173235058,0.0187458264109025,1
0.00611624784272357,0.0235207108814453,1
0.00819801091750557,0.0220093965802574,1
0.0088235051876584,0.0181750356061121,1
0.00926984021086413,0.0192150835246914,1
0.00891257382402387,0.010601796087836,1
0.0204406695588392,0.0179702925590766,1
0.0219736325558123,0.0164529286070745,1
0.0242156803215176,0.0145000926746269,1
0.0480455471462684,0.0229239162808501,1
0.0583528593668527,0.0191500609560858,1
0.0504815515821352,0.0157249322986467,1
0.0471689875932351,0.0147588350121246,1
0.0450656908015911,0.0156286904818704,1
0.0380603096258461,0.014964285990731,1
0.0270357494725527,0.0133369080767133,1
0.0268789152833726,0.015586484007432,1
0.0252117064701609,0.0135476640475074,1
0.0779782901752799,0.0139829013749551,1
0.120536702039762,0.0179695563378405,1
0.133082227050574,0.0210464421872753,1
0.156397456140721,0.0204280761439228,1
0.15520445470463,0.0156041487232784,1
0.157200258637852,0.0105571165741979,1
0.187054494742316,0.0118021123179888,1
0.178548310410268,0.0102877597518186,1
0.159147842916911,0.00739669882752727,1
0.139280070852498,0.00552622793168285,1
0.152202958781702,0.0123209545752258,1
0.149261103113819,0.0114112686512391,1
0.148035935644014,0.0117597651512112,1
0.130839562700012,0.0101717670062664,1
0.119099308732273,0.0141331375027905,1
0.187644952216189,0.0107495570392484,1
0.267086091565302,0.00929409026455533,1
0.259479516406904,0.00824334151283995,1
0.328903711473431,0.0120079029948097,1
0.339342451184773,0.0122414389099461,1
0.296551582357156,0.00787461801608009,1
0.31717514022043,0.00901930503505974,1
0.368797661682038,0.0109424101335058,1
0.394690656570974,0.0122205580336771,1
0.459552191733059,0.0133618859938864,1
0.489745127627128,0.0252531761987773,1
0.394618616146553,0.0334543613495498,1
0.431309378405871,0.0502961639840923,1
0.291905874623156,0.0410582694306404,1
0.131060254333952,0.0202737360213197,1
0.0530575681451813,0.0291169458678187,1
0.0517455816851728,0.0298433502159001,1
0.0402717653057858,0.0165679628841856,1
0.0206100894169844,0.00765318111677793,1
0.0163523884458695,0.0138949532131632,1
0.0175230008212106,0.015621019513427,1
0.013489008211125,0.0152815009595588,1
0.0130213705907363,0.0175650719993386,1
0.015442833643322,0.0197694063973264,1
0.0156057073347803,0.0188525620108533,1
0.0143025936428317,0.0187442879502345,1
0.00899675701762876,0.0113961087174741,1
0.00706530912650683,0.0153349744493655,1
0.0132627070809949,0.0224852307464688,1
0.0138626683736657,0.0143975388333822,1
0.0139260041540956,0.0138320678570805,1
0.0115266155663006,0.0103938254010037,1
0.00907203127684101,0.00927918789413898,1
0.0090556867123883,0.00986781264662584,1
0.00841668201709562,0.00922006242644431,1
0.00839040064027742,0.00943787759116912,1
0.00952039493597983,0.0114429720542358,1
0.0126196853246246,0.0164954428458371,1
0.00870935075495676,0.00785430955094866,1
0.0190138110646148,0.0231556219403954,1
0.0217109906309035,0.0161242075703967,1
0.0212494961537855,0.0164121965487995,1
0.0213396745426494,0.0156766679411935,1
0.024821550145225,0.0151234068888647,1
0.0271455148208537,0.0148347545571147,1
0.0308954650013226,0.0124382749961636,1
0.0419687806687722,0.0156680686926785,1
0.0331740541513468,0.0091807968493541,1
0.0303718312798548,0.0079178396258356,1
0.0313689371532771,0.0108147519746064,1
0.0384056050777247,0.0158752139352724,1
0.0457344928185841,0.0150374481095628,1
0.0352469574705192,0.0101411848628183,1
0.0383681404061099,0.011158720507181,1
0.0402272766800463,0.0100632577684445,1
0.05576277786134,0.0106920726510911,1
0.0965115647866508,0.0198629849451826,1
0.0970083920359662,0.0198954648967331,1
0.0888969412671076,0.0207885575063277,1
0.0987335341247881,0.0193959924664332,1
0.101254647589375,0.021701230200788,1
0.179567470371119,0.0209682235832506,1
0.249048146773141,0.0290766694175225,1
0.237708302847642,0.0238466317625785,1
0.166407584351947,0.0163571414647963,1
0.157413015148049,0.0177983204157514,1
0.163230502621541,0.0180817768771866,1
0.148513025280445,0.0174299901174144,1
0.0988611802929518,0.0110349673273697,1
0.0927994147006767,0.0109325779076059,1
0.0912461702022577,0.00772775937739315,1
0.0996031904576809,0.00541622566012099,1
0.127767286754747,0.00757572267548869,1
0.125430373315843,0.00868347166667849,1
0.131380452022433,0.0102861604474438,1
0.127858151375489,0.00971223353840367,1
0.127033122245501,0.00879058641526881,1
0.132392795060598,0.0078185585045994,1
0.134065543659859,0.00619179200996149,1
0.182518522596701,0.00916398377962784,1
0.158115283551548,0.0108849719296155,1
0.129586247022002,0.0185470980533214,1
0.129649558516627,0.0172584025940854,1
0.15518803405729,0.0166573495092552,1
0.19056828677176,0.0190268635515041,1
0.180240290175483,0.0201555274104625,1
0.172184421669423,0.0201055406927447,1
0.132320692371083,0.0226273400775099,1
0.0571212188123705,0.017179734269484,1
0.058541964224112,0.0209428584059016,1
0.0660184782657734,0.0223041043105151,1
0.0634863466402017,0.0270933429226824,1
0.0197014985496489,0.0108582440390777,1
0.00705174235209868,0.0259780904513593,1
0.00616908831079698,0.0259676249421364,1
0.00449343549253866,0.0245443425309136,1
0.00350495693099227,0.0215305990249948,1
0.00211699019063802,0.0173646337357382,1
0.00202607242425864,0.0146806553447734,1
0.00192325121761144,0.0227252400935201,1
0.00259645476881362,0.0248546224194159,1
0.00359770800703629,0.031646442643128,1
0.00334237878025551,0.0313405945020117,1
0.00477811312126002,0.0292345849176675,1
0.00677836931504127,0.0405813150617136,1
0.00690902285199942,0.0411836995395209,1
0.00620762608595095,0.029048327441942,1
0.00839239903922005,0.031438161392876,1
0.00668319088237359,0.0242230857109734,1
0.0122063163109362,0.021497660418394,1
0.0174766394632233,0.0157617550493884,1
0.0173241006096651,0.0117656263336531,1
0.0235589440143441,0.0151959117164925,1
0.024073337159053,0.0149093059139841,1
0.0228915814731749,0.0132322573314895,1
0.020608146753497,0.0103523178737272,1
0.0195086393114329,0.0093500360591578,1
0.0195583754869049,0.00904523878357964,1
0.0141710274125853,0.0053776847034967,1
0.0129888520405478,0.00716782181841599,1
0.0117656252193641,0.0107742428162287,1
0.00802043494735433,0.0110558276575976,1
0.00762864781155916,0.0135567511558312,1
0.00803978409985709,0.012065918125243,1
0.00841704175836494,0.0133865298095499,1
0.00761451479751588,0.0114388615599785,1
0.0203748051842707,0.0218518851902222,1
0.0287322901308041,0.0238615155492738,1
0.0333288822527493,0.0242849527100884,1
0.0384208790615957,0.0204740067523195,1
0.0380590169052864,0.0209518820104254,1
0.0383281286562082,0.0201455806059456,1
0.0418656042316454,0.0146827481042101,1
0.0441699282104723,0.0153351238435866,1
0.0603069681198711,0.0188497424820401,1
0.0585110315515198,0.0163549587321139,1
0.0579093001679449,0.0167173874928982,1
0.103690263151387,0.0167114781931065,1
0.199426923161617,0.028060202948097,1
0.283751323661229,0.0376184516565943,1
0.266443710968154,0.0323065793741662,1
0.212242342185711,0.0226475699970284,1
0.180697634178305,0.0202269341724995,1
0.182653579819472,0.0160880562057217,1
0.188610383405394,0.0116505581187375,1
0.174969092491676,0.0100654680554942,1
0.117575864124252,0.00567091124459167,1
0.118604972749998,0.00706135086414564,1
0.130014378797898,0.00869167585085519,1
0.147928896251382,0.0105960691542988,1
0.15575617721778,0.00924134120535019,1
0.215174815794136,0.00868577694532744,1
0.232939942496574,0.00888970674688227,1
0.241894268788048,0.0105734075051505,1
0.182096080086622,0.00987506174595364,1
0.221893377793919,0.0105650533351943,1
0.306950827118765,0.0144886209139318,1
0.359706534170098,0.0198984631627164,1
0.444551315726592,0.0224694775517443,1
0.532506705908847,0.0258916224947301,1
0.578680206895465,0.0283868566382222,1
0.520552210767295,0.0637110879864794,1
0.388607091678958,0.0541760302377479,1
0.229140176542502,0.0362985699278354,1
0.125944945241868,0.0229307761633366,1
0.0978428315013636,0.0333209203368085,1
0.085984382201306,0.0383146945623695,1
0.0481573320862339,0.0246538607925598,1
0.0373913081392863,0.0280321722959694,1
0.0457803346690359,0.0378788348953136,1
0.0253444703509093,0.02443744964052,1
0.0145828847139718,0.0307922810583302,1
0.0140454765201034,0.0293639570776181,1
0.00956331298913971,0.0234229040325586,1
0.0079507759680063,0.0274133560929531,1
0.00814034142123146,0.0217347766237372,1
0.00754121412005843,0.0154707313659962,1
0.00766477243890799,0.0116379155214261,1
0.011860557686308,0.0170066315124941,1
0.00940080642305163,0.0112015226194591,1
0.00908204814872334,0.0103005918584724,1
0.0116604403964623,0.0121036891241652,1
0.0119486786201975,0.0108935565475196,1
0.0121905909585704,0.00841386874145845,1
0.0121947670418801,0.00583878464189279,1
0.012478712122993,0.00493389923856918,1
0.0222600295050371,0.0128565563603921,1
0.0334821487948241,0.0159897929449166,1
0.0620217336347645,0.0216995816317962,1
0.0588682753593088,0.0215556765555153,1
0.0540493391221648,0.0202011618699452,1
0.0529780480846734,0.0202466393740788,1
0.0427332020519853,0.0165768388859228,1
0.0400127701206773,0.0175354889731953,1
0.0376262271481709,0.0179498312232711,1
0.0317735648976691,0.015548502696615,1
0.0346785773339028,0.0172838740769615,1
0.0322320925911516,0.0218480389950613,1
0.0172147885195729,0.0146212905171979,1
0.0228672813721361,0.018795341517004,1
0.0236608175724623,0.0139087707936011,1
0.0247900381634625,0.0118004106167556,1
0.0274312997276321,0.0106522538677033,1
0.0327604326106763,0.0109523857401818,1
0.033368896784723,0.00866260686930205,1
0.0533721173371715,0.0134568109006784,1
0.05514928636236,0.0135414986454284,1
0.0931169205791623,0.0185880527174514,1
0.0982898625214576,0.0132152923429228,1
0.0848260747508922,0.00902105980093125,1
0.116542900915768,0.0133341477531164,1
0.114450351658004,0.0125416571901525,1
0.0829997651780671,0.0092184797621915,1
0.0796698121282904,0.00941939115782583,1
0.0580391948937963,0.00611509975372175,1
0.0722007517388481,0.00851033336937584,1
0.0669868355723528,0.0062470240679697,1
0.0936540057135475,0.00888650142717986,1
0.0745951559365201,0.00893391450697756,1
0.0553709617522658,0.00763534133194368,1
0.0578290776867527,0.00813950412257735,1
0.06017682450671,0.0111431439512784,1
0.0546334313258239,0.0108080592817056,1
0.0733672667294114,0.0111529253055532,1
0.0789384761283178,0.00937847731900907,1
0.0800190126587446,0.00913173026637234,1
0.0862442203333553,0.0110358777535019,1
0.0831020049699215,0.0110928914254809,1
0.0754714994849301,0.00781063397658702,1
0.0815175007373321,0.00843299616890071,1
0.0958088112321297,0.00358834071975744,1
0.17461602773404,0.00897072135336469,1
0.296348738006271,0.0148710266445698,1
0.451277392383959,0.0196088020235743,1
0.455530124275761,0.0179699883550088,1
0.448794652564105,0.0151648291344619,1
0.534928111053012,0.0180499726274693,1
0.595418546553925,0.0203586353591726,1
0.678533699985873,0.0235307580999471,1
0.671029731022993,0.0232657298231722,1
0.705261898048301,0.0433152115141214,1
0.727229664514036,0.0568070274280621,1
0.619653286665543,0.0730115650323969,1
0.301576873273787,0.0386471151839023,1
0.119698751658864,0.0247706147894444,1
0.0663182206854259,0.020375003417963,1
0.0783757406199392,0.0189094016957934,1
0.068645237811074,0.0147790338100542,1
0.0879591294439325,0.0156500766731755,1
0.0877964160061944,0.0159096337408988,1
0.0684504806190008,0.0130415751989459,1
0.0672076642646134,0.0124717239183293,1
0.0699793752982488,0.0131827696633276,1
0.0765176192186459,0.0175666942016971,1
0.0407324996125017,0.0084902234714442,1
0.0331493721224609,0.0123171673748025,1
0.0325273573657086,0.0175027412334286,1
0.00713584689689468,0.00244923930051402,1
0.00619435778350522,0.0125055543526485,1
0.00580070333067878,0.0141018510727263,1
0.00554954743216948,0.014878579040814,1
0.00799365562490353,0.019275296613716,1
0.00847254005887691,0.0135669122654541,1
0.0087813647108331,0.0152205899850547,1
0.0097162057464676,0.0106774323665434,1
0.022855953152532,0.0185899071730954,1
0.0367754525269428,0.0192099453386629,1
0.0381642212349157,0.0193286288256614,1
0.0654237074500493,0.0172195984940281,1
0.129343363877114,0.0292816819518325,1
0.128080482661803,0.0159097260555758,1
0.128828765899758,0.0163901716091758,1
0.118954206995636,0.0162981418666565,1
0.107845165620299,0.0142587868824002,1
0.100761473150526,0.0113204695951841,1
0.104001230397058,0.0126801025542954,1
0.103692771762447,0.0135448082526185,1
0.101298084199903,0.0129583755177061,1
0.098776334096539,0.0179246088632795,1
0.064945396179754,0.0114697827935316,1
0.0615766324442034,0.0137409542141697,1
0.066930790252302,0.014095357589774,1
0.0650307386511321,0.0105559313718187,1
0.0597929472353934,0.00962736249540337,1
0.0555080272604009,0.0123777346962677,1
0.0476782636636718,0.0101577913377989,1
0.0435979213257026,0.00974416572879792,1
0.0392726617385939,0.00874612025037346,1
0.0427191405890398,0.0128434745310845,1
0.0317047725986823,0.00956095236515075,1
0.032303833214125,0.0147343155355551,1
0.0316337743729287,0.0172652382878205,1
0.0284895042028716,0.0239526339693201,1
0.024467921546242,0.0135391690383172,1
0.031935131994293,0.0181741089320049,1
0.0302838133377837,0.0188669747632877,1
0.0310612529786257,0.0152617012613197,1
0.0418533253494802,0.0227314083992095,1
0.0484619534328875,0.0240659553721871,1
0.060306505406214,0.0156358325329511,1
0.0983296285599226,0.0164323526576794,1
0.10165016341758,0.0128617360415802,1
0.174151775918944,0.0188946672288646,1
0.222452906092342,0.0221426308556168,1
0.174550489186906,0.0143806217598701,1
0.147708220954452,0.0120320949519352,1
0.124682289971548,0.00916587690420182,1
0.149395074742089,0.0107618668484269,1
0.161469764536948,0.0112273732005673,1
0.159733457201919,0.0094651222589813,1
0.223413213969095,0.015646745229887,1
0.329720319808736,0.0205306625574754,1
0.524252669775297,0.0321250035066846,1
0.591999494566466,0.0301918010734019,1
0.560444165973931,0.0294336916966856,1
0.556444585842745,0.028132223087069,1
0.518714157097824,0.0283038571256692,1
0.387569457533286,0.0217981407168425,1
0.312659197296325,0.016146952672829,1
0.338214242649465,0.0172378593010796,1
0.336247123604991,0.0174432406127473,1
0.29634984347125,0.0195771475595364,1
0.22478574307018,0.0108469428839959,1
0.282372608433667,0.019577009325197,1
0.291498971297372,0.0177784456187749,1
0.295447091914074,0.0186413225503519,1
0.302907998083758,0.019154571739235,1
0.32674419938066,0.0209906186562642,1
0.312961665358465,0.0224548698807628,1
0.346204611838842,0.0370906804391908,1
0.425197500761392,0.0461939228200637,1
0.462967760981521,0.0476429086707436,1
0.421063827447644,0.0686421932488791,1
0.258380270938461,0.0400518081934924,1
0.13575583088304,0.029610799243718,1
0.155862565737472,0.0311893985728865,1
0.15854777767972,0.0303491100312364,1
0.161938698831596,0.0332904963732625,1
0.134975210378531,0.0277628536293256,1
0.135687637362055,0.0271475509629925,1
0.139816818381503,0.0280481134030523,1
0.102879581957504,0.0234047852744763,1
0.0618811992110985,0.0234442450069363,1
0.0458642282925364,0.0232428747329006,1
0.00776768405058553,0.00527734771150298,1
0.00572879836559931,0.0124644886496681,1
0.0081448776637488,0.0124783091519764,1
0.00874612406309079,0.0090445526445019,1
0.00853357057427297,0.00846742775088915,1
0.00863400217343656,0.0103562936510097,1
0.00767542248863251,0.00930530113834995,1
0.00916882198456572,0.00674692542335604,1
0.0178798361639366,0.0175214003704698,1
0.0393852796250304,0.0255064845591914,1
0.0679775707331895,0.0390393949476183,1
0.102521270700232,0.0436566757688743,1
0.160852028152082,0.0463067753590743,1
0.152701126397879,0.0172603691783527,1
0.152792339529622,0.0180536330204142,1
0.140928374457532,0.0172041214668666,1
0.119810088432155,0.0144280963603648,1
0.1106707132007,0.0148123831530562,1
0.114587671346048,0.0144100531808195,1
0.116769252385929,0.0168074954965095,1
0.109803775395204,0.0158609004327671,1
0.0878987609408678,0.0166496427418254,1
0.0222587081788104,0,1
0.0305636239228085,0.0223841140303771,1
0.0365943678989781,0.026981408571999,1
0.0468430275277199,0.0352525524053329,1
0.0547395939305752,0.0463301432869043,1
0.0523163409234872,0.0468376924526474,1
0.0482776171357617,0.0382635581569506,1
0.0408453368777229,0.0281356938537101,1
0.0743047866896744,0.0303542371774513,1
0.115739663689472,0.0388351502895351,1
0.0939538930794897,0.021973246313462,1
0.0907113864734632,0.0224800862085243,1
0.0890382486907856,0.0225106950803871,1
0.0905765159949221,0.0215096922462637,1
0.087377269925958,0.018655187156025,1
0.0797627624682509,0.0161369105482441,1
0.0665456099558251,0.0138018926979237,1
0.0392340264937666,0.00738506137613999,1
0.0369478435620848,0.0128059442129469,1
0.0190165167929358,0.00596547023172144,1
0.0206307313563039,0.00238208973815989,1
0.244180169939837,0.015428722770074,1
0.433477779310321,0.0165515489872266,1
0.42650331031093,0.0155085239583981,1
0.410479894395853,0.0151143690311919,1
0.407882742297165,0.0152509041336495,1
0.419023419475537,0.0148236789024331,1
0.458243023199661,0.0153026288777656,1
0.449131768480601,0.0149014808661119,1
0.430193224826947,0.0140416528175751,1
0.411870304377264,0.0146814626700916,1
0.27982009470443,0.0208911981696483,1
0.0848475317238657,0.00855382287781497,1
0.0698179717756802,0.00759764468744819,1
0.0644086399871265,0.00620130498294131,1
0.071901207554378,0.00719412525631068,1
0.0698331219560191,0.00761600695692175,1
0.0538273050052416,0.00620505215032482,1
0.0544245922743747,0.00559323178322342,1
0.0620210076432249,0.00779645072773268,1
0.0570242598904246,0.00785743461988371,1
0.0959554071912587,0.0138857225805172,1
0.117378235532748,0.0104229707087304,1
0.120715550378697,0.00956558612495438,1
0.127550546319119,0.0106694220506694,1
0.133678575499176,0.0109435892238689,1
0.149487865359351,0.0125502275973467,1
0.144696569859333,0.00699995864282292,1
0.17795539140827,0.00722513992920886,1
0.164869325625142,0.00601015584160654,1
0.161836268418448,0.00586823167517667,1
0.180676256387818,0.00856561576812147,1
0.248603608146216,0.0158690441877723,1
0.298473144317345,0.0201757751575013,1
0.324953802591238,0.0222450899722931,1
0.308901094094277,0.0196420280492294,1
0.344109570819946,0.0193440902783135,1
0.370718974383322,0.0347846366297437,1
0.196143395591928,0.0268209101463103,1
0.161752156892645,0.027507908097603,1
0.0738130905667982,0.0137111114110198,1
0.044087221631156,0.00951076739834573,1
0.0487768825763578,0.0111645220604197,1
0.0393691478111229,0.00682303843598413,1
0.0368394431014267,0.00646118429341946,1
0.0253037532136005,0.00474046497237363,1
0.0169507711956841,0.0111233212112274,1
0.0121183156465074,0.00603022222181947,1
0.0134896291340679,0.00674221586325853,1
0.0157794192836416,0.00830867154729748,1
0.0167376346313025,0.00841859857878192,1
0.0161795036987876,0.00970580347992246,1
0.014702551020643,0.0096316140546027,1
0.0141324077297169,0.00896953843307823,1
0.0148688300489835,0.00787744889424486,1
0.0158743375526288,0.008564678646269,1
0.0185986639265059,0.00618620668775829,1
0.0380826757451229,0.0167372708619585,1
0.0413054762259323,0.0167433106335673,1
0.0414575645845267,0.0166302454740224,1
0.0437475215589752,0.0178119053875095,1
0.0455866620626437,0.0183458808282905,1
0.0454710311083409,0.0161845517412237,1
0.0492622439830541,0.0227493823699886,1
0.0429193414966111,0.0185259964901054,1
0.0412413970616681,0.0186783747960075,1
0.0450030736838745,0.0235422299900614,1
0.035941440801376,0.0113692287413469,1
0.0386256199278722,0.0121138650944287,1
0.0401545626647228,0.0101432434706676,1
0.0391456106753297,0.00860366673753888,1
0.0380028965793577,0.00841461604571775,1
0.0382722694994016,0.0100942648914444,1
0.054558795343833,0.0136313591810014,1
0.0747672738765123,0.0241459871672826,1
0.10308140755277,0.0311828269736939,1
0.0928802003937137,0.0333758805787245,1
0.0640752597832704,0.0295847787316123,1
0.0718605357750289,0.0294169292512984,1
0.0538656542821032,0.0207229347991126,1
0.0382219316597028,0.0161485986207706,1
0.044201775724819,0.0156039793876967,1
0.0399774920144088,0.0102374743917471,1
0.0548324827762687,0.0158619719234514,1
0.0747782507382346,0.0145170037478885,1
0.164053219306959,0.0230484378891884,1
0.171306466681108,0.0178894117186275,1
0.172955043940073,0.0175590163017054,1
0.177092436138618,0.0182158548367357,1
0.177601089749769,0.0187025433369734,1
0.181316676616726,0.0188520453833853,1
0.152759541538814,0.0148510617115245,1
0.172225886153558,0.0183052225729233,1
0.226911660159078,0.0233002571330704,1
0.246990745797894,0.0201542235366635,1
0.192266378487175,0.0182195947639047,1
0.246747641158341,0.0214602224589915,1
0.264826111232857,0.0203695596427095,1
0.274688940566196,0.0194597082158287,1
0.241346652834406,0.0136081475823635,1
0.159665601659357,0.00727658052957897,1
0.162268584063642,0.00791252283977125,1
0.230342408309888,0.0121910932174477,1
0.24725597866893,0.00674684360331424,1
0.309021099506827,0.011088414340776,1
0.304845815833003,0.0101397694877334,1
0.298934503429256,0.0121527068257633,1
0.296900333596256,0.0122838628587713,1
0.297200957221408,0.0129015108527454,1
0.294785590927813,0.0155825608329241,1
0.309927527817885,0.0192564258160974,1
0.257048421764532,0.0163325739567865,1
0.140340523772945,0.00767835964604483,1
0.146996400026706,0.0183948493991761,1
0.199557110249903,0.0241184183910254,1
0.25151055249745,0.0320008655803625,1
0.294194208490063,0.0378576274326352,1
0.310529895702413,0.0523081274341989,1
0.258478623299649,0.0599422415539686,1
0.228045682892761,0.0454111119904412,1
0.184189864726408,0.0439637728158074,1
0.0850079275955684,0.0305283251222362,1
0.054979682887462,0.0149184936593875,1
0.0542235931848881,0.012972966049215,1
0.0529401767184708,0.0119695887823091,1
0.0503672848345603,0.0102834688888377,1
0.0582817898739773,0.0117582575139928,1
0.0573508483512056,0.00962677284857906,1
0.0539889617920679,0.00892018946449975,1
0.0521103815848573,0.00973147967903351,1
0.0487622909393364,0.00824835338007265,1
0.0310588586944081,0.00193718059794101,1
0.0263912837266725,0.00414570794359033,1
0.0322020448433849,0.00745247885360235,1
0.0320457799946457,0.00561410312105158,1
0.0334591777872935,0.00486416501208289,1
0.0314751276544191,0.0027818948907823,1
0.0372049992796056,0.00585266299393359,1
0.0402890508893211,0.00479382094845158,1
0.0417801386867696,0.00411617003046981,1
0.0418401096113235,0.00361741473226884,1
0.0429776479963782,0.00433619343315895,1
0.0398012108507678,0.00595904888959585,1
0.0317773546765457,0.00389815417861907,1
0.0289759815119033,0.00463883377143239,1
0.0254881368913968,0.00579243887060847,1
0.0265027817314885,0.0102730736528084,1
0.0180379798756921,0.00329414363748194,1
0.0174670312480547,0.00339953502025781,1
0.0267617583100723,0.00969014808101842,1
0.0290948169961912,0.00422976058068831,1
0.0494820390159618,0.00956654977268433,1
0.0534104161968829,0.0106323905649576,1
0.0564743380399538,0.0115048163779846,1
0.0589909681722003,0.00828340392151994,1
0.0736974193039505,0.0110499152598863,1
0.0801421306994918,0.0121943460748336,1
0.075514539414254,0.0141635023380369,1
0.0766771692575452,0.0176144784287187,1
0.0658910993641909,0.0163667555018501,1
0.0675285983564048,0.0368749075932577,1
0.0837640991570064,0.0324526883084968,1
0.107945186767895,0.0252640698202192,1
0.0836659899227472,0.0204654947433982,1
0.0717510634553538,0.022452724022404,1
0.0738513423074882,0.0202745049952413,1
0.0802686415524868,0.0221938140706481,1
0.0800518204034603,0.0142654424071464,1
0.0872712536271538,0.0127349801079667,1
0.0747020679313256,0.0102679381590555,1
0.110510312645746,0.00838360087999302,1
0.219077959239158,0.0183548567090126,1
0.223692533098419,0.0170192722546181,1
0.208467928189307,0.0163952910455031,1
0.264053871908918,0.0117025644780866,1
0.369138871350519,0.0189148205770355,1
0.371276607096849,0.0191962223217038,1
0.333894909317094,0.0140330104030593,1
0.328736324184281,0.0150931242358145,1
0.294306653702177,0.0128671088129682,1
0.35693873450451,0.0223897067424593,1
0.333122206436501,0.015032910480872,1
0.335566337573243,0.0145757338741014,1
0.372060890901196,0.0138128348242519,1
0.374200574419565,0.0238495190514723,1
0.277971271535236,0.00999974685662853,1
0.212345447404112,0.00776272459387964,1
0.265798200754453,0.0143040476225744,1
0.422240800293727,0.0217704453003919,1
0.462769013948311,0.021902043370974,1
0.41309014498101,0.0203344544535887,1
0.410538331573713,0.0239891747615368,1
0.412878455183865,0.029368866624005,1
0.275387302493204,0.0253889443575794,1
0.136798545945702,0.0095590704073622,1
0.180857230485987,0.0167745775670988,1
0.216869683069865,0.013039711768379,1
0.210155027246304,0.015826834746666,1
0.166478042510084,0.0120302601260923,1
0.157120312696935,0.00933507756542255,1
0.206449035912386,0.00970960781008258,1
0.219023882893281,0.00689350932613906,1
0.215728073710286,0.00648515075868574,1
0.217879843252717,0.00627257074097914,1
0.207607975249896,0.00591939047389632,1
0.27051810760995,0.00792992786536105,1
0.380345188065166,0.0150130056983997,1
0.482228814936102,0.0181240678930706,1
0.494484042255148,0.0170467816286511,1
0.546299264653481,0.0196948335895424,1
0.439206358429288,0.0189717445274735,1
0.485073045900056,0.0252764831018689,1
0.440840712262782,0.0221842009235959,1
0.298277380009893,0.0177613264575888,1
0.109972435192893,0.00655018117502396,1
0.094054610937112,0.0103459330225086,1
0.0905225686865227,0.00976421593651383,1
0.092009093879113,0.00912060354115854,1
0.048961771262378,0.00479863490950906,1
0.0311900650093549,0.01637833507438,1
0.0239010558817931,0.00985386816712607,1
0.0227452020488463,0.0120265962262696,1
0.0213041755725451,0.0127324111269277,1
0.0174863927162829,0.00861008654095584,1
0.0170589232657794,0.00658678519019344,1
0.0238704344686534,0.0100427156930458,1
0.0248531199114632,0.00862263317267854,1
0.0247322911702143,0.0063376742828913,1
0.0335087353389461,0.00862882481175111,1
0.0326976486472061,0.00864162128961924,1
0.0326459983870007,0.0110621939598904,1
0.0272292243378544,0.00974662881199957,1
0.0158872602249881,0.00609055430409578,1
0.0266833806771679,0.0111545760038301,1
0.0303608341575953,0.0131004375692316,1
0.0336289262218774,0.0148515008862495,1
0.0275801138322211,0.0147197462107966,1
0.021090127382712,0.0145409863365581,1
0.02865275401678,0.0192851984835592,1
0.0405199205564276,0.0244836489578308,1
0.044405564862146,0.0239490447003224,1
0.0589759593275643,0.0283134509952114,1
0.067483103598522,0.00969206628332402,1
0.128791892450066,0.0203018751809933,1
0.132755647513857,0.0143848889784928,1
0.132962337182717,0.0147360279067155,1
0.149965893498424,0.0177047837493029,1
0.151589216452959,0.0161878783812488,1
0.141711602487154,0.0166967600421179,1
0.122678594234988,0.0149737033942833,1
0.109933238335562,0.0136637175963715,1
0.0611196582269297,0.00743502628566326,1
0.0561710549118163,0.0141676647978296,1
0.0331466762441135,0.0105018334201487,1
0.0352770146815789,0.016310894201347,1
0.0355677100904034,0.0167351902447159,1
0.0296120512964605,0.0151473418703286,1
0.027543763547719,0.0197777051732769,1
0.0308381825642567,0.022998915378659,1
0.0296929086843333,0.0227936455916076,1
0.0255544226463259,0.018978464265307,1
0.0337532895186365,0.0185907330462311,1
0.0329659860437687,0.0190468427290427,1
0.0304386641379587,0.0176121698730958,1
0.0194084362486474,0.0158058361077126,1
0.0211377143811242,0.0144256711595138,1
0.0279931781986451,0.00854042688533509,1
0.0317954855745347,0.0043132252839581,1
0.0381439302383154,0.00101460219147317,1
0.110656484965619,0.0112201854757403,1
0.143304060948206,0.0148607872332434,1
0.184752942383783,0.0140508847511908,1
0.188989224633001,0.0122546390466464,1
0.200923291188851,0.0119297486035301,1
0.201470071298935,0.0119173488123455,1
0.178292570184605,0.00834630926719427,1
0.188606144331421,0.00929657529578881,1
0.181218264567348,0.010203511588054,1
0.169250525247675,0.0122629409019223,1
0.145457562490978,0.012066445196026,1
0.114374097078175,0.00870921183630782,1
0.0650077196211186,0.00552695767336825,1
0.0572904789140251,0.0069470269363564,1
0.0476301142723953,0.00701259320961318,1
0.0434060751801201,0.00591063372284289,1
0.0645408555578321,0.0142175631195244,1
0.0526621611616211,0.0136907739503452,1
0.0616719339194729,0.0234302982488379,1
0.11007066595972,0.0176348669348031,1
0.253190404798257,0.0308027909524487,1
0.385258585046328,0.0361918553924989,1
0.456033552493706,0.0160175742653813,1
0.422637206167257,0.0141688703984462,1
0.390565206692309,0.0109451630198271,1
0.451806018744854,0.011284373267474,1
0.608662820566763,0.0158040222411813,1
0.745497192526286,0.0191225699542773,1
0.824966838313272,0.0205297881356149,1
0.906580769889011,0.0275573544409109,1
0.822128008462256,0.0238095795974688,1
0.567062738515574,0.0184232287449496,1
0.337124699929916,0.0168612342689494,1
0.329083255944785,0.0196187467447064,1
0.119676158806752,0.00773560855188546,1
0.0997451965477183,0.00998559480110857,1
0.102520158152386,0.00984820497031986,1
0.105723732239077,0.0105855576810507,1
0.0958080626492288,0.00950828559280245,1
0.104010606396712,0.0106444060234347,1
0.106274408014408,0.0134563554717428,1
0.0316657879927363,0.0024089420044598,1
0.0235394831594535,0.0248014476070062,1
0.0218900503468469,0.026196039899757,1
0.0227823952737721,0.0222704398461964,1
0.0167490644277929,0.0170334049752709,1
0.0123200540671659,0.0140821927802568,1
0.0200652101244136,0.0138916708704947,1
0.023099600658188,0.0085342525203196,1
0.0233472125569627,0.00911943701559497,1
0.0259308737716335,0.0103064152557494,1
0.027368982701012,0.0105557281630728,1
0.0275762286442775,0.0112469556756092,1
0.0275587523921392,0.0115683870139518,1
0.0291725987361114,0.0134322539693284,1
0.0274556039531421,0.00741560156184564,1
0.0357228985875597,0.0109590076990561,1
0.0246688625874316,0.00868147137394038,1
0.0193541648281345,0.0141014865047985,1
0.0286049176951374,0.0178440712924674,1
0.0307459144017015,0.0140316198506134,1
0.0263043787031972,0.00996758906431091,1
0.0484532424603216,0.0135463100801372,1
0.0713881101039513,0.0162589013907757,1
0.0593099832255479,0.0126953531489837,1
0.0532485939511149,0.0132249780340976,1
0.0660704029953893,0.0178413143713289,1
0.0590117834581884,0.0128332330567465,1
0.0463816089442519,0.00964917745093945,1
0.0460363194336636,0.00821055124108817,1
0.0658486827516325,0.0127356048070985,1
0.072606313760879,0.0142127415614786,1
0.0669699041098234,0.0169411175094718,1
0.0533359455335956,0.0146037996160464,1
0.0536789839023506,0.0164940282539052,1
0.0512871890902995,0.0205141433461107,1
0.0359314684245428,0.0127230541576285,1
0.0414415641373514,0.0131317639524643,1
0.0963786331541531,0.0218264467502873,1
0.0986922907143627,0.0194330369267893,1
0.103503779379005,0.010194579880813,1
0.283849695375751,0.0232368966381348,1
0.316199202777525,0.0102557547202803,1
0.306987239861098,0.00969767889934009,1
0.299931687678373,0.00945020524146987,1
0.278290096084115,0.00928646090253266,1
0.279701175361284,0.00919307202824064,1
0.261354059774282,0.0064705690807237,1
0.286418576207339,0.00729369262565688,1
0.242616263337014,0.00623497404889542,1
0.230473740526989,0.00943418617012575,1
0.186354182405659,0.00861800262440582,1
0.212073367711927,0.0221785546852657,1
0.207151079853048,0.0248737490456748,1
0.192463705831643,0.0246233899314114,1
0.154091277102417,0.0198461311970511,1
0.0814368326640772,0.00975604099140586,1
0.0733493834653997,0.0184938606716878,1
0.0744876384155104,0.0135434094170271,1
0.113145739192947,0.0176707643779153,1
0.117082448110989,0.0115358067665338,1
0.115312341200486,0.00982970614289518,1
0.15614790246418,0.0136367623832418,1
0.157077186790217,0.00506309559897191,1
0.191177032461033,0.00768224071666827,1
0.205653909068904,0.00838182956905358,1
0.223005860753832,0.00928449953279103,1
0.251335451403987,0.0107886350535423,1
0.25511023255183,0.0113306762550147,1
0.225605776234612,0.0107729848592313,1
0.223030171411104,0.0135733177221995,1
0.21479069889617,0.0179736382402173,1
0.158612018811095,0.00959487147025079,1
0.179502126659059,0.0244941715109082,1
0.167191717152252,0.0186624926156594,1
0.163140195039152,0.0149443287434607,1
0.188098855328403,0.0156963498059209,1
0.132796949611375,0.00892647978735444,1
0.115285755671703,0.00975646511327427,1
0.167596343616278,0.0059483828956695,1
0.242854399812301,0.00869935880430962,1
0.23548178078262,0.00893197674383158,1
0.234724077369178,0.00974404822227173,1
0.265800804543103,0.0101361191043245,1
0.268037008914487,0.00605558767936189,1
0.259796818279327,0.0053495011694513,1
0.259843458526638,0.00544218502675051,1
0.273919956509212,0.00588775262248271,1
0.256379817241342,0.00416627556226806,1
0.222871807152194,0.00574213666684664,1
0.19546206888575,0.00468569743922778,1
0.206393110219983,0.00243213325771728,1
0.322010752526448,0.00654150692005828,1
0.319537309071548,0.00409640259264763,1
0.345751628743312,0.00825595892256023,1
0.328488088617542,0.00895494089498675,1
0.329673623075661,0.00844535790927421,1
0.327427615472402,0.00841555162026869,1
0.343770376854118,0.0049445420407085,1
0.528493900412802,0.00954983399632088,1
0.72691056242982,0.0124664173648573,1
0.759233098054738,0.0185444706057573,1
0.479647571538005,0.00972299147161349,1
0.461750103723198,0.0165125166683564,1
0.51069867284689,0.0174505185751174,1
0.528703005970746,0.0183282735878727,1
0.475715947391932,0.0193536345660393,1
0.171801574748107,0.00259831145112836,1
0.0321820404162532,0.00475935103235882,1
0.0346403941745706,0.0147616733479335,1
0.0330441690552155,0.0126025152722355,1
0.0318033334559647,0.0219265420835773,1
0.0210419320289556,0.0138311276586385,1
0.0219141898813453,0.0140029095303234,1
0.0259623756659109,0.0150580858203824,1
0.0247353238874599,0.0126474985916818,1
0.0227557266032512,0.0108059774669832,1
0.0217366321507102,0.0101139812607841,1
0.0226752518591397,0.0104128301251543,1
0.0238400337293885,0.00956564819743069,1
0.0237541100459714,0.00808049738788422,1
0.0264893955383189,0.0098455566536754,1
0.0232332468070835,0.00912522778102974,1
0.0217478391964268,0.0160565503227877,1
0.0170002173868546,0.0129507399769603,1
0.0164915876951025,0.0153714680089509,1
0.0206736953811159,0.0169718411547404,1
0.0234216786753059,0.0155326817197654,1
0.027671245881868,0.0140943471816707,1
0.0331075572244558,0.0173345612074671,1
0.0292705492806305,0.019717014491517,1
0.0244901335763594,0.0160876820636006,1
0.0178629182159145,0.0079025158777484,1
0.0203290032370976,0.0103352078467501,1
0.0222184804012342,0.0117027063591922,1
0.025407475930094,0.0135320439703836,1
0.0249334785166197,0.0139672552336727,1
0.0243928215138671,0.0139397898480845,1
0.0227471413872918,0.0209454601136559,1
0.0160155962021866,0.0138229590331252,1
0.0212929616741115,0.014701992348575,1
0.0185450393199948,0.0114439816111858,1
0.0157942291430269,0.0118629617932393,1
0.015768667398399,0.00807254131132638,1
0.0197827388656209,0.0102953034526279,1
0.0186416995556386,0.00881914266207652,1
0.032515174635317,0.0130907085495547,1
0.0373416657992461,0.00872721052810045,1
0.0370827924434751,0.00861860789652779,1
0.0375691386258207,0.00930828788236457,1
0.0348524928722161,0.0073438075616605,1
0.0360207006505322,0.00770466310495617,1
0.0359563113059967,0.0079653466824509,1
0.0352243307961747,0.00922007489653732,1
0.0284651054496703,0.00673608758173503,1
0.031229833616397,0.00785205492040142,1
0.021179846720763,0.00615568097090538,1
0.0129530528183508,0.00826469466585421,1
0.0143714219518618,0.00866395282866415,1
0.0131554576922527,0.00883928693344491,1
0.0128938309449625,0.011719001067581,1
0.0125467200654611,0.0138018172283687,1
0.0103799621991319,0.0111322867533334,1
0.0111031743767299,0.0106407627291931,1
0.0114361361198804,0.00947565331199262,1
0.0118304928434981,0.00779774797951911,1
0.0120998191254574,0.00840900553506615,1
0.0116364133372298,0.00783630700114063,1
0.0117228138716759,0.00807030345438117,1
0.0107235106815243,0.00686744592858889,1
0.00896774971941635,0.00551535628464863,1
0.0118855645311528,0.00867023795374843,1
0.0127958723096005,0.0082553529351214,1
0.0141328378505772,0.00935134734261464,1
0.0104760013037687,0.00643406727930417,1
0.0103954626191894,0.00933650623138647,1
0.0105307460864968,0.00932604604513157,1
0.0101556062933423,0.00713783647201615,1
0.012703692613725,0.0110866919448872,1
0.0144782731674694,0.0164599030020149,1
0.0138449548468219,0.0213959793655652,1
0.0152979904741621,0.0230358296756807,1
0.0170077005022206,0.037121118908168,1
0.010850132092917,0.0391576610878419,1
0.00892766386275327,0.0463950891387036,1
0.00860408950159005,0.0460184604421484,1
0.00401906870662667,0.0435352774590255,1
0.000394841696626683,0.152789930139565,1
0.000309376571861641,0.283268125533186,0
0.000275389531416116,0.37581421946666,0
8.65173006104356e-05,0.305286082042162,0
4.82407458705004e-05,0.466167236682573,0
4.49836611307361e-05,0.421451969828699,0
4.71534407540188e-05,0.473781843356333,0
4.06548532673562e-05,0.52993339648181,0
3.87097398380283e-05,0.466244116346903,0
3.6183214753752e-05,0.44741044707021,0
2.4941690629954e-05,0.39134959935535,0
1.32945671509924e-05,0.308318738142128,0
2.20168732932402e-05,0.400663353195244,0
2.46241034480328e-05,0.300036124124415,0
1.98582691465428e-05,0.262171241943997,0
1.7120729596569e-05,0.25077609049995,0
1.71540053598504e-05,0.251322748780456,0
1.79621009712892e-05,0.263209212611683,0
1.44210818384345e-05,0.261531701363791,0
1.10387281875069e-05,0.240275326720852,0
1.11327074779838e-05,0.24142307476647,0
1.05206855483215e-05,0.247406653884709,0
9.13485838439239e-06,0.255070528610802,0
6.47815340186649e-06,0.35006206659147,0
1.437293203103e-06,0.296867479421567,0
2.31763301656607e-06,0.351434647169561,0
4.07326178040977e-06,0.353343332872042,0
7.22589258133391e-06,0.322551612869489,0
8.99533274206549e-06,0.299578948817306,0
8.82919916122699e-06,0.293881820385631,0
9.13994448801914e-06,0.293828206818294,0
8.97517140942739e-06,0.285337352908658,0
1.09904999336852e-05,0.306926831572361,0
1.16679022452459e-05,0.289858805945688,0
1.37228876057287e-05,0.305684400285953,0
1.3876479414769e-05,0.323212881282056,0
1.15505946799277e-05,0.328198357518953,0
9.19228393753275e-06,0.381687591951164,0
8.0248377199307e-06,0.428946811429176,0
9.39912179529514e-06,0.477225451695088,0
9.96146928126418e-06,0.498462990269656,0
9.40284582774681e-06,0.480485811369358,0
4.39104906103809e-06,0.363755893997347,0
1.00660752854668e-06,0.263163081333522,0
1.0306589586672e-06,0.26967381754187,0
1.68256932251518e-06,0.31252420117033,0
2.51971340084611e-06,0.367237476102961,0
1.10348001943706e-05,0.540162416208841,0
1.8350215223507e-05,0.495904374474272,0
2.19974281160472e-05,0.403171629373,0
3.33052142387854e-05,0.36926055557076,0
3.18262410060161e-05,0.305501443604883,0
2.74364919831402e-05,0.270494100774235,0
2.5866723056875e-05,0.259765227059746,0
2.57507436497423e-05,0.198817294639017,0
2.65803884919685e-05,0.175118293287825,0
2.41568548639434e-05,0.166346594604957,0
2.34065140392233e-05,0.177421991700148,0
2.41326214381351e-05,0.194820112385563,0
3.30787213294924e-05,0.276559995108628,0
2.87501180302311e-05,0.301894657192834,0
3.33512731474562e-05,0.372924090744362,0
3.57404584686475e-05,0.398693566944421,0
3.79894404911545e-05,0.416501996942762,0
2.89876851598878e-05,0.703157272263269,0
1.55138275156615e-05,0.766342893838898,0
1.03271009110174e-05,0.628057034049993,0
6.26503536532173e-06,0.452367724773466,0
1.2537567070265e-05,0.595426111725849,0
1.28659534273429e-05,0.576467727760657,0
1.3867027224938e-05,0.553837136234104,0
1.53730940398843e-05,0.548846544184653,0
1.27716729026242e-05,0.430628740369474,0
1.03179993163276e-05,0.352626384775192,0
9.57951440034638e-06,0.329063422375184,0
1.14564136011285e-05,0.329226141696632,0
1.00088871232534e-05,0.244986757076054,0
1.30092838415877e-05,0.290017584965749,0
1.69967882401572e-05,0.362678404750078,0
1.72805156553932e-05,0.375834664492953,0
1.92220717207341e-05,0.374894068964798,0
2.03300513301087e-05,0.385759259453316,0
2.25059608771133e-05,0.445266746971179,0
2.22428960067776e-05,0.481977399622759,0
1.89062797548973e-05,0.445112178197468,0
6.9863374987801e-06,0.28666908590783,0
4.72364014607447e-06,0.259491881902145,0
5.13584348269299e-06,0.24279036935998,0
5.17588784421857e-06,0.24371219043025,0
4.05415947440301e-06,0.237499416696946,0
3.33849848314434e-06,0.261933229217531,0
3.07514336106523e-06,0.258798082716409,0
2.81371548642499e-06,0.25258226913116,0
2.4977904030527e-06,0.244136263721892,0
2.71217251309452e-06,0.259079214539741,0
2.19053232121926e-06,0.253747102181488,0
5.80050609611071e-06,0.40940318018441,0
6.48405196900119e-06,0.435159832927889,0
5.47599378517146e-06,0.401743675142986,0
5.55000484188324e-06,0.395188573896286,0
5.42957583328373e-06,0.377345745803473,0
5.15896321075152e-06,0.355927195813104,0
5.01630321165623e-06,0.34159643421354,0
4.45448626484063e-06,0.32491164283542,0
4.38427551463533e-06,0.332751054468497,0
4.39629205749912e-06,0.338776672053839,0
2.97449443551653e-06,0.314695104251295,0
3.05769880888276e-06,0.332018999526026,0
3.12622827133863e-06,0.300994903379552,0
3.74468377270052e-06,0.310095545574156,0
3.47133397364422e-06,0.304440030920098,0
3.94041711771342e-06,0.326200713366718,0
5.41725407351387e-06,0.390156542081124,0
6.23124607972504e-06,0.257872713124353,0
2.20323355648051e-05,0.360365896706892,0
2.31746264301673e-05,0.318577178924912,0
2.69813573361587e-05,0.323448555099878,0
2.72273586625256e-05,0.281887172112296,0
2.78482902948727e-05,0.297540158601247,0
2.61479943751337e-05,0.288034622197727,0
2.5696613208182e-05,0.283537685322513,0
2.64943339792375e-05,0.255722548880684,0
2.34876078419082e-05,0.23125726715251,0
1.99191238942932e-05,0.255350760869658,0
1.90627748054924e-05,0.282320518490914,0
2.00704506535537e-05,0.330610445463232,0
2.05652940320823e-05,0.381157846936667,0
1.98800555268836e-05,0.459170321880583,0
1.77442710808708e-05,0.426981057906963,0
1.8910431863413e-05,0.40285941347203,0
2.69683810918963e-05,0.484087116742792,0
2.92886707868938e-05,0.720243293405237,0
1.7254509099184e-05,0.549317783592535,0
1.17558434546525e-05,0.482552389642672,0
1.15612662891414e-05,0.54937161185159,0
1.12965785434653e-05,0.565229834492265,0
1.10419027329782e-05,0.561424675512266,0
1.34517174102008e-05,0.435673306412798,0
2.5012149512211e-05,0.505743226288304,0
2.77841041088167e-05,0.565507384094257,0
3.16244738039707e-05,0.60456405409514,0
2.96377171544492e-05,0.565798526210503,0
2.68294011952591e-05,0.479688190641926,0
2.37575268774261e-05,0.452784217572799,0
2.01710170293343e-05,0.401740822819302,0
1.67286487314404e-05,0.330788390219718,0
1.65206933139508e-05,0.328795565487014,0
2.1052368439518e-05,0.49360357458893,0
1.7245395194441e-05,0.531331597821851,0
1.79126087646573e-05,0.636910736262342,0
1.23085830648242e-05,0.533937806075067,0
6.74354366537971e-06,0.390099510998966,0
6.10246928616101e-06,0.417334414696461,0
6.17786087912761e-06,0.407258237878269,0
2.71709037932822e-06,0.313101137932102,0
1.3144964402607e-06,0.29337649034687,0
2.57601367030434e-06,0.307265105892942,0
4.9118304456759e-06,0.356806714870311,0
5.26865543926774e-06,0.33136950582903,0
8.23263564115205e-06,0.411157974966393,0
8.83655140081463e-06,0.35270899261153,0
9.76527780917519e-06,0.338624459243442,0
9.41646593606367e-06,0.331779414714003,0
9.28551207339391e-06,0.334361063237243,0
9.48760838833096e-06,0.340828519607288,0
9.80171327345209e-06,0.317381598986712,0
1.07011874956096e-05,0.368893585415182,0
1.15249372706182e-05,0.413484186831094,0
1.6678220357335e-05,0.528610471574141,0
1.31744606175107e-05,0.41514515692674,0
9.87466832070242e-06,0.439138431980609,0
9.77807362667815e-06,0.515189563319697,0
9.65101263728708e-06,0.482754698539598,0
1.40545589366958e-05,0.577082680615547,0
1.52066617592267e-05,0.613127625990049,0
1.54473160571148e-05,0.680903413749973,0
1.46867192685051e-05,0.65019295330516,0
1.77878842716289e-05,0.622077856021109,0
1.53172045882783e-05,0.482475264124797,0
1.47467953450503e-05,0.51841969935399,0
1.52006139025259e-05,0.522999361111383,0
1.54110061071053e-05,0.503896992913191,0
1.73144962295609e-05,0.551361340521974,0
1.61389434798987e-05,0.536145163556815,0
1.46187909469781e-05,0.485736857443427,0
1.65294830539607e-05,0.506811077677923,0
1.73215443384236e-05,0.536112593443742,0
1.04475831424937e-05,0.483720117286328,0
6.33290008490746e-06,0.48347292974307,0
5.26290592032559e-06,0.395924179056075,0
1.23943461189438e-05,0.554397740849905,0
3.02413114044883e-05,0.839156459013864,0
3.22146304241278e-05,0.691509001556737,0
2.93562929260204e-05,0.65682408552202,0
2.82217792384531e-05,0.676601822111686,0
2.32133964598182e-05,0.604096607118439,0
2.11284224823056e-05,0.346835637798604,0
4.12963512572274e-05,0.369290146901908,0
4.02615517759769e-05,0.245296190114204,0
3.87579613333894e-05,0.248771605200846,0
3.9311299670754e-05,0.257803606336484,0
3.58868462414851e-05,0.258955722881938,0
3.57031651626275e-05,0.280911745000966,0
3.54852106027492e-05,0.283622205032278,0
3.45727170511434e-05,0.273542799976674,0
3.69245744292043e-05,0.274974023591123,0
3.75858289682012e-05,0.340948244767772,0
1.25282403947015e-05,0.256166662410337,0
6.57154120635822e-06,0.314740806506906,0
9.50572878656876e-06,0.38362057983365,0
9.95619237181359e-06,0.39097680459449,0
9.26119609781744e-06,0.363398791549767,0
1.00666627887878e-05,0.384352896154419,0
9.9971148504639e-06,0.378611721009807,0
8.80336651469029e-06,0.378100748005798,0
8.91246339524384e-06,0.370140250168743,0
1.16084114996594e-05,0.439891877672985,0
1.268403968592e-05,0.509060886634306,0
1.18860894892661e-05,0.458348859486294,0
9.51672347433426e-06,0.413991023518803,0
8.37741115908732e-06,0.389104295570571,0
8.33003435060857e-06,0.399823817587672,0
7.71181382643771e-06,0.365694598053031,0
7.90971639591464e-06,0.388987797162161,0
6.05521316447787e-06,0.3582080920585,0
4.36595200052053e-06,0.3739642505223,0
2.56324307634167e-06,0.366488953398386,0
1.29486552608923e-06,0.269787245432859,0
1.19434006313242e-06,0.283457215084235,0
1.7952425148826e-06,0.320630878323797,0
2.92131367835084e-06,0.3794730075023,0
2.71070785814318e-06,0.383141065767338,0
3.77940295005726e-06,0.454534601239903,0
4.09779559565229e-06,0.413628303618137,0
4.33992360000138e-06,0.426825781591713,0
4.67072417573831e-06,0.430122826789005,0
4.34482939755551e-06,0.407201664712645,0
4.04429900114252e-06,0.413670747645256,0
3.80099719701947e-06,0.439561569574816,0
3.55856602743984e-06,0.417396434259013,0
3.26618536895978e-06,0.359835575379548,0
4.76534455447346e-06,0.397953822798335,0
5.51527975087351e-06,0.44067490901419,0
7.77046797115723e-06,0.574822653416761,0
7.87668586820186e-06,0.457075662635807,0
8.17491742253237e-06,0.413703733799759,0
8.7454923687307e-06,0.40248082930003,0
1.37394196450497e-05,0.228333721916785,0
4.28681094639444e-05,0.312406209045217,0
5.00198583537782e-05,0.307229046467791,0
5.71363773197362e-05,0.309802461199781,0
5.28485058139881e-05,0.295330131937948,0
4.5898974529321e-05,0.27721146534532,0
3.67684240600974e-05,0.246089340647549,0
3.61989987763139e-05,0.263802950535616,0
3.92201296068182e-05,0.287277356188651,0
3.28290796066232e-05,0.265344713886371,0
3.03111929211152e-05,0.424020313610554,0
1.44769638074592e-05,0.374178169083092,0
1.08697098301933e-05,0.366979059378744,0
5.31133463491474e-06,0.321278121343425,0
6.43741183272277e-06,0.300255647331374,0
8.39668761614012e-06,0.320897518966214,0
1.03048684722801e-05,0.317789679881868,0
1.13930066897117e-05,0.314103604551857,0
9.756515947815e-06,0.296069176234516,0
1.00809245887968e-05,0.30264440768983,0
1.29610274677427e-05,0.353758912501072,0
1.25954333715829e-05,0.354406014809079,0
1.3154694051381e-05,0.335713492261371,0
1.57191919083365e-05,0.367248768919984,0
1.47084467536896e-05,0.433259409535957,0
1.10643264602865e-05,0.415872797716589,0
1.01531628771681e-05,0.436062713520152,0
1.16774057269651e-05,0.466899146599105,0
1.26857443869077e-05,0.470611482918441,0
1.25906190546198e-05,0.487184545253751,0
1.13463502607158e-05,0.460003677639663,0
1.05537585577863e-05,0.452390787093066,0
1.20406583786035e-05,0.584513038656915,0
8.21175163598191e-06,0.3653941041274,0
9.11539015602138e-06,0.352418298792073,0
8.76398882702358e-06,0.319189683998916,0
7.54265245527133e-06,0.322011257562207,0
7.49911783161714e-06,0.338770365635981,0
7.27868762350088e-06,0.339234606002806,0
7.55777885548402e-06,0.344721993764303,0
7.7863451639253e-06,0.337134495039867,0
8.5010469365326e-06,0.384553707309866,0
7.36391820747835e-06,0.343832200599215,0
6.49077048222517e-06,0.416760046285709,0
3.22141092985445e-06,0.348209999771979,0
3.36514371387578e-06,0.368085881355923,0
1.08031581829436e-05,0.530645723632678,0
3.32920777224585e-05,0.707624686414693,0
3.82911623076136e-05,0.443585435868923,0
3.77582199180177e-05,0.404016709206328,0
3.66508636559423e-05,0.367185475324902,0
3.88885927209413e-05,0.343745714259734,0
4.72930782730052e-05,0.380629076537598,0
5.29083934984454e-05,0.398514997974241,0
5.63532804090766e-05,0.3998325387151,0
5.59625418224886e-05,0.40418751733501,0
5.44291737233899e-05,0.424474231362082,0
3.83942524856636e-05,0.42964178705741,0
3.09713207281884e-05,0.561165083089854,0
1.76063545555896e-05,0.526736213897472,0
6.2630416194585e-06,0.348231386147877,0
9.03487456377421e-06,0.510793207904738,0
9.27826905535628e-06,0.509306605705604,0
8.34803538960554e-06,0.433151629921702,0
7.09028684612794e-06,0.420946178592733,0
7.4783630820051e-06,0.418711491691892,0
8.95533918968086e-06,0.371240684424232,0
2.33767179176325e-05,0.331392699096827,0
3.7348184116248e-05,0.309481161420404,0
3.64144158963147e-05,0.276167021841066,0
4.04683636860782e-05,0.290536307526966,0
4.01470518682714e-05,0.275974649362825,0
4.1229218503057e-05,0.258469227666497,0
4.57662435535861e-05,0.280840440073826,0
5.13471481978059e-05,0.290896561921526,0
5.60616846975151e-05,0.304272352165866,0
5.48910029876099e-05,0.297912409677089,0
3.91196351603678e-05,0.418637833412088,0
1.53149863649753e-05,0.337081520669959,0
1.59422912256241e-05,0.376557751112817,0
1.54881419863287e-05,0.364361727783812,0
2.32871616775273e-05,0.416720276845054,0
3.25717904442643e-05,0.481646549297951,0
2.92924603522755e-05,0.417435803363186,0
3.05838977699358e-05,0.366935312000166,0
2.23359111304445e-05,0.209088236760169,0
2.78661611128172e-05,0.256981820942193,0
3.57821287226833e-05,0.288673530682177,0
3.72974811796827e-05,0.295082179909604,0
3.76535488636322e-05,0.310535093577861,0
3.76091892250433e-05,0.316332260724709,0
3.47084782309421e-05,0.356170671192399,0
2.79824703569623e-05,0.345834796446688,0
2.78887160266724e-05,0.374032186699215,0
9.95535335721062e-06,0.265856327905856,0
7.21513974990678e-06,0.479497406438004,0
6.54660731438831e-06,0.440003332216788,0
5.61662093588175e-06,0.412467592715863,0
7.46440529203416e-06,0.450216980715535,0
7.6958004989642e-06,0.407907062644851,0
8.12364774077492e-06,0.415645221625292,0
8.05855604169157e-06,0.400076780326718,0
6.80393473446143e-06,0.370901408906978,0
5.5434800309662e-06,0.335994823758446,0
5.05651351752575e-06,0.377782788645147,0
3.63299598801914e-06,0.338699215751797,0
6.55254715640711e-06,0.445369088663285,0
7.24959884721903e-06,0.432618222818624,0
5.86362154891619e-06,0.430594412354814,0
5.62407937984951e-06,0.461252117292596,0
5.19455133303654e-06,0.455266940336304,0
4.51149484510221e-06,0.449707932671661,0
4.92724939068111e-06,0.468040485033764,0
5.31890302455329e-06,0.483108710272684,0
6.08568995959587e-06,0.51053989083951,0
6.65954601770603e-06,0.606015986767051,0
3.80737911477053e-06,0.493839950898743,0
1.53475080771578e-06,0.400971478072147,0
1.03426411462521e-06,0.27660762160418,0
7.57282415417006e-06,0.448216559434798,0
8.08474990380749e-06,0.373383371554247,0
8.90004327573557e-06,0.376448244357309,0
9.99025259926638e-06,0.362220012681457,0
9.69238974309641e-06,0.357117726738506,0
8.9851787585181e-06,0.344874151403476,0
1.00370229565973e-05,0.364752099854942,0
1.17713203293196e-05,0.393832066279114,0
1.32531628906541e-05,0.414710462424448,0
1.3117375401134e-05,0.470089425302404,0
1.6609853339306e-05,0.288944041589337,0
3.74829701467383e-05,0.342468945462661,0
3.76957274504511e-05,0.326113872956229,0
3.79869117407264e-05,0.348855872963975,0
3.78457812053917e-05,0.341306402601704,0
4.13531504458986e-05,0.331862598416185,0
3.69316746747627e-05,0.292187795373553,0
2.91971089736194e-05,0.251433474718006,0
2.32137778300922e-05,0.202641119119205,0
2.16887529298599e-05,0.198803971361781,0
1.79364275106359e-05,0.279257491129054,0
7.00890918809983e-06,0.240419540300767,0
9.45900561777497e-06,0.296159803412311,0
1.03894699159921e-05,0.305895983589294,0
1.04219623012833e-05,0.323058021859779,0
6.68752326860046e-06,0.308098574576085,0
7.64140611538202e-06,0.362564573414753,0
4.30746174846944e-06,0.26991689566373,0
4.07427458399841e-06,0.3135655077421,0
4.72020479643786e-06,0.3270225114067,0
4.17488742419522e-06,0.28049888526129,0
3.8783932769741e-06,0.284352015201593,0
3.48799852706676e-06,0.26731910617414,0
4.78746596135882e-06,0.308066774593329,0
7.23327559605443e-06,0.339988784611142,0
8.76702615160831e-06,0.314756867966568,0
9.06271664545757e-06,0.328387787726442,0
1.05185323752013e-05,0.296200529994712,0
3.1691039812949e-05,0.40861664748561,0
3.42462447866437e-05,0.30899080068043,0
3.40168767558192e-05,0.324761432925944,0
3.31534163182749e-05,0.316698901707604,0
3.34297219783288e-05,0.307003647326396,0
3.11229303772979e-05,0.29564078184701,0
2.45948290554593e-05,0.270752921908181,0
2.40859758709509e-05,0.278982672425776,0
2.76618744532269e-05,0.285231615116671,0
3.04217860765605e-05,0.37535063783654,0
1.03309445440835e-05,0.28861343003072,0
5.84940995461412e-06,0.405798839482713,0
6.51728235404748e-06,0.44348246298387,0
4.78482340328247e-06,0.433457600905957,0
4.51195345492547e-06,0.466168528268861,0
5.05509230982082e-06,0.488676686768113,0
4.33607622564461e-06,0.457557021836697,0
3.54825454762421e-06,0.502629094319453,0
3.90759260236072e-06,0.5855869848307,0
3.8413496719342e-06,0.43623080135348,0
5.86548869433084e-06,0.391099047839859,0
5.25773569800231e-06,0.355759942719172,0
4.5372156149794e-06,0.33816420031348,0
3.45073418587772e-06,0.282955761647702,0
2.49662891333189e-06,0.248637703401188,0
3.92082663361848e-06,0.30399290975307,0
4.5669988230831e-06,0.324537466933769,0
5.15837619017774e-06,0.339380989257248,0
5.07803149043314e-06,0.340800286954288,0
4.89001401432299e-06,0.409310377588268,0
2.58431981832436e-06,0.40669305654784,0
2.49184537150169e-06,0.435873258932365,0
9.81261853230205e-07,0.32565737058427,0
5.66803121775608e-08,0.209191980047482,0
3.11972892533546e-06,0.401033722507623,0
3.46023525386093e-06,0.348251308412867,0
3.28807831574108e-06,0.338177239401292,0
3.61621026505382e-06,0.328951484322271,0
4.76315783042407e-06,0.367649049698469,0
4.76533683051854e-06,0.365515625695685,0
4.94376079256004e-06,0.370290308820191,0
6.12130897770056e-06,0.406454270542372,0
8.53511838785738e-06,0.479782245690394,0
1.37444489051957e-05,0.665090409477429,0
1.76124269117099e-05,0.687351587161242,0
1.83292279104398e-05,0.608271252668583,0
1.94509180225412e-05,0.58407840195044,0
1.7520234871989e-05,0.574650934008628,0
1.32556438491111e-05,0.47837831973992,0
1.35393456787464e-05,0.475234010539704,0
1.48145947730796e-05,0.377243716059091,0
2.06841961113439e-05,0.396625965008958,0
2.38938859396102e-05,0.421187995442602,0
2.24272204669425e-05,0.369451363932519,0
2.14807438067462e-05,0.367193622427083,0
2.07058805113425e-05,0.412898811634453,0
2.15484757708568e-05,0.445742931536922,0
2.50121332194936e-05,0.494524462009309,0
2.52638036873968e-05,0.465597224142884,0
2.63207507645673e-05,0.42945052254152,0
2.63432168529409e-05,0.527738489088309,0
1.68598608638527e-05,0.510384094536312,0
7.1758682666202e-06,0.336778090674999,0
2.07619365107264e-06,0.235550262046376,0
2.18021178989396e-06,0.244458655282053,0
3.56270063637013e-06,0.279658455647821,0
4.04634090103719e-06,0.268071541777355,0
6.27439583318807e-06,0.284797295741113,0
8.4411100118627e-06,0.348752403729685,0
9.39130032544622e-06,0.39871532852604,0
9.447174570516e-06,0.389133064623145,0
1.20097625589312e-05,0.435131443188068,0
1.27806833787833e-05,0.400964405905129,0
1.18728227518867e-05,0.378445936868309,0
1.12410967718548e-05,0.355174534715355,0
1.39479443421541e-05,0.315920375919361,0
2.07850622731247e-05,0.37362540356188,0
2.26740568252481e-05,0.408535584508022,0
2.78717638766159e-05,0.426285301566892,0
2.76516065413445e-05,0.405836852572342,0
2.81792926589319e-05,0.425506724578371,0
2.3110252093397e-05,0.340054004298409,0
1.96972246865009e-05,0.298181083728122,0
2.06136864199459e-05,0.314532389406454,0
1.82321233147042e-05,0.301513531361351,0
1.95782728842795e-05,0.402401337374887,0
1.5524137909296e-05,0.369705569035691,0
1.33117950703768e-05,0.358255358444176,0
6.93469272246194e-06,0.274788257789545,0
6.18715569337715e-06,0.288669746266966,0
5.34874452437928e-06,0.279688551817818,0
4.59657420852479e-06,0.363253209711569,0
9.94126582893441e-07,0.263988623189008,0
1.05749668483762e-06,0.273147244153013,0
1.41474468564802e-06,0.291367049531574,0
1.46412151570336e-06,0.283626336465054,0
9.9510221494903e-07,0.27720543964956,0
0,0.218874446689775,0
1.95815291347114e-07,0.224400944026347,0
1.04933548165911e-06,0.279203588763834,0
1.08097268031675e-06,0.272104386708946,0
1.10619332411299e-06,0.264606941705971,0
1.62314326505104e-06,0.285580723307996,0
1.68754161849369e-06,0.280633833794876,0
1.55503584431937e-06,0.269891933473224,0
3.17368183661937e-06,0.336313012660056,0
3.5524741200586e-06,0.32580943122899,0
5.51978474757948e-06,0.362887387953012,0
5.61882033204467e-06,0.371478936995119,0
4.20466085666849e-06,0.337942174877592,0
5.5998605571435e-06,0.382233289327844,0
5.50238557363216e-06,0.360991849801286,0
7.9135011338245e-06,0.396263460888105,0
7.50874851721883e-06,0.363092363201363,0
8.71603356673355e-06,0.394235636946955,0
9.03327920502324e-06,0.418242175101485,0
8.84544360391407e-06,0.440115508375522,0
7.76082569962318e-06,0.440965803075786,0
7.55705413127646e-06,0.462315927518156,0
8.27605102625218e-06,0.495056435764857,0
7.15573288164315e-06,0.448465477804475,0
7.32184618709999e-06,0.475802028462638,0
5.57272280359924e-06,0.481232491736823,0
5.93677886723593e-06,0.542400859381309,0
4.57286552890378e-06,0.511875009241373,0
3.27055459302069e-06,0.473075842864376,0
3.50189150822847e-06,0.464844537674608,0
1.06753286600382e-05,0.436900109942856,0
3.05672043723691e-05,0.455820825545999,0
3.17748447238101e-05,0.340289339235633,0
3.17859594949372e-05,0.326030901642718,0
3.16160353832227e-05,0.320039765482199,0
3.37516316785211e-05,0.330241997393298,0
3.36318110520582e-05,0.331866228851305,0
3.47597213616045e-05,0.338296474207037,0
3.91835889036555e-05,0.362586747066304,0
3.97898267979522e-05,0.346675728698503,0
3.26000596365173e-05,0.408042079290029,0
6.64903866322115e-06,0.259625966690515,0
5.72369776085063e-06,0.362865427819787,0
4.92300978423865e-06,0.37735506965902,0
5.19198492832822e-06,0.418156527522465,0
6.5903007618655e-06,0.284650103902967,0
7.04499904160019e-05,0.369039414683817,0
0.000118529273284653,0.278213632680218,0
0.000109897920814917,0.249804591577825,0
0.000107039122775997,0.249364522642317,0
0.000107031922722459,0.2498101843173,0
0.000107879084166885,0.229790533046754,0
0.000114821247764054,0.220671446529873,0
0.000105838573980666,0.191653674322689,0
9.36735652381002e-05,0.180752603232665,0
9.79955428322834e-05,0.199503873297736,0
7.41248782390136e-05,0.285644258515558,0
3.38905712657686e-05,0.321131979420829,0
3.36189968901623e-05,0.3553236557767,0
3.38988927410117e-05,0.361730370000857,0
3.39726613379511e-05,0.362824098305958,0
3.37757951059879e-05,0.444414744708843,0
1.34324335912535e-05,0.446951511522386,0
3.63502292275116e-06,0.420129644244036,0
2.99554378159663e-06,0.326973497966909,0
7.15996367794952e-06,0.544163446213257,0
7.95790385759939e-06,0.556870866774003,0
7.27752770270842e-06,0.438789870419294,0
7.1474273370571e-06,0.438036675347624,0
7.13604355506261e-06,0.4161274427056,0
7.80253022870895e-06,0.37212160074927,0
9.6098671294385e-06,0.366505506992489,0
9.07617418866077e-06,0.341925905677314,0
7.4156315338964e-06,0.30431898665315,0
8.79581055579168e-06,0.350424607805808,0
6.65905566725553e-06,0.288170876928551,0
4.38985764099198e-06,0.240754814339116,0
4.06758177706189e-06,0.261512319435147,0
4.15331876283368e-06,0.267141725165728,0
4.33743853819329e-06,0.289486720220161,0
2.33575389755105e-06,0.258371803179853,0
2.25452625320987e-06,0.292928918014155,0
2.8488382404262e-06,0.287897879025597,0
4.44257978833441e-06,0.354576678888943,0
4.96451831796838e-06,0.418669762922892,0
5.12414651846393e-06,0.464460085850345,0
5.47962887145478e-06,0.459365784340338,0
5.89175979599594e-06,0.479788365365642,0
5.91327644134857e-06,0.465879245845741,0
7.2028708509534e-06,0.495548518473442,0
7.29775613720488e-06,0.479539946245735,0
7.75879514428729e-06,0.479637704611673,0
8.62699567641545e-06,0.571808842958836,0
7.2330158780703e-06,0.504392927063627,0
6.36682743619831e-06,0.456495361859498,0
6.20818222965288e-06,0.400473133176683,0
7.29781804953102e-06,0.42729121991131,0
7.05894170951564e-06,0.414326626370083,0
7.44063095879633e-06,0.431364369416554,0
6.3288551462663e-06,0.386962198457393,0
6.54286566166448e-06,0.370623823309062,0
5.51735073628592e-06,0.355431147801577,0
3.18770938355816e-06,0.287146507156725,0
3.2296148561586e-06,0.277645825534669,0
1.02190814014881e-05,0.375654461677739,0
1.29159467255501e-05,0.390560880168959,0
1.07419720292525e-05,0.361609533789565,0
1.14093863016098e-05,0.374024342983524,0
1.12946044695497e-05,0.370948969786167,0
1.12094864863526e-05,0.389180111289432,0
1.08084297821752e-05,0.413184809134713,0
9.97044343069781e-06,0.408953340058715,0
1.19561129335646e-05,0.412062551509634,0
1.25727786497478e-05,0.397877266364216,0
8.19250872985827e-06,0.411574550309956,0
6.41625314440586e-06,0.472863976926138,0
6.60202089795931e-06,0.429381277276476,0
5.5658581386658e-06,0.385458634332414,0
3.99682359155178e-06,0.313515950933765,0
5.00792127232857e-06,0.337272513551059,0
5.31403270891706e-06,0.335044169202484,0
6.80332164553981e-06,0.348236720019688,0
7.62558842120415e-06,0.397156596427576,0
7.49342129417827e-06,0.435332420423862,0
8.72482053094723e-06,0.409686488138365,0
1.33474198814477e-05,0.514333695273367,0
1.60956291096465e-05,0.606098104172473,0
1.64833691121111e-05,0.633483123008435,0
1.64105728886838e-05,0.629192862776737,0
1.72680070724637e-05,0.645787229774369,0
1.72546967671511e-05,0.678450388724486,0
1.37838614713463e-05,0.701027981068281,0
7.19822815061366e-06,0.432693361078397,0
9.09142356871816e-06,0.405776085415842,0
1.1558256481146e-05,0.420111923234674,0
1.04577284365918e-05,0.368317863799488,0
1.01980828645489e-05,0.31277825029994,0
1.20117398913902e-05,0.324564103168786,0
1.25955588858503e-05,0.324958946900775,0
1.16425277257853e-05,0.299938899549041,0
1.2452237040368e-05,0.309427923224626,0
1.22695443863663e-05,0.307007215997778,0
1.14937376822814e-05,0.319835531025347,0
7.20756061914343e-06,0.296876083785179,0
5.5855349138196e-06,0.249885055212887,0
1.10819375602469e-05,0.333852030077656,0
1.02259225324964e-05,0.332100734557698,0
1.09203247860846e-05,0.333630318381518,0
1.08921960732617e-05,0.327482076274441,0
1.05875652222816e-05,0.32458164557112,0
1.08673583686679e-05,0.320098326553013,0
1.04953605104471e-05,0.316146918200953,0
1.0568207180955e-05,0.318566408455923,0
1.04979673452319e-05,0.321066941845718,0
1.08581430870167e-05,0.408251876351869,0
9.45193397498708e-06,0.443542527193638,0
1.19293146719763e-05,0.571686470233452,0
9.83927040080724e-06,0.499379697490641,0
6.63667249071052e-06,0.448068223574415,0
6.52591495984959e-06,0.394586872788578,0
1.24725506797422e-05,0.559855032936419,0
1.61010420331157e-05,0.639784159582408,0
1.7985689929609e-05,0.665587500525519,0
1.87340915588974e-05,0.65525333423687,0
2.21889290958254e-05,0.511559005827541,0
2.43854655851255e-05,0.403260083428264,0
2.27211742778032e-05,0.396214683084837,0
1.77920667932171e-05,0.371343737523326,0
1.72768081570325e-05,0.37228179673346,0
1.76832296306477e-05,0.417229164737918,0
1.68848604094394e-05,0.409389672257964,0
1.65334657182154e-05,0.408977204565561,0
1.72744620057261e-05,0.413913196711241,0
1.72175982496192e-05,0.430835331174302,0
9.96821760412665e-06,0.470036597143845,0
1.88557670207219e-06,0.362782041229111,0
4.23348460474722e-06,0.536770618827325,0
4.41629046296318e-06,0.503212758299046,0
5.22754408578231e-06,0.497955872433645,0
8.90016166948205e-06,0.371477716861898,0
1.32904020083029e-05,0.395899514592221,0
1.30926428147391e-05,0.391555054110911,0
1.1141146984913e-05,0.337771865423007,0
1.32157538459971e-05,0.257711098529757,0
2.28101281701115e-05,0.303886881410965,0
2.61047986400016e-05,0.320325577137242,0
2.77175110659962e-05,0.271788792083179,0
3.19308782680989e-05,0.281468745314754,0
2.74372146556722e-05,0.257116672012552,0
2.80267077398272e-05,0.324555488475291,0
2.77761812620595e-05,0.335001859330659,0
2.84451201707055e-05,0.342248494368082,0
3.11432472752155e-05,0.369939904545885,0
3.19361180060164e-05,0.564944865357293,0
1.77711702366202e-05,0.479258636349855,0
8.21640568088044e-06,0.340022655235075,0
3.14430473958284e-06,0.341605024508479,0
4.26204006607934e-06,0.405083876441228,0
4.10775853200224e-06,0.408085908124726,0
4.03863818699514e-06,0.423485930779031,0
4.41603545176409e-06,0.406126025343127,0
8.10405110165341e-06,0.471940297176117,0
7.93419228149527e-06,0.48506682945487,0
6.97736322865966e-06,0.458720668506256,0
7.73741909905151e-06,0.480328523557819,0
8.77961716361914e-06,0.503843724885366,0
8.63866186551163e-06,0.462669201460017,0
6.21584825490907e-06,0.407265946794853,0
6.9928143970393e-06,0.428119663089415,0
8.7947277538616e-06,0.383767011767946,0
1.01397476950302e-05,0.39808130128453,0
7.92201498381974e-06,0.381240524415462,0
7.61319388729656e-06,0.37728279175174,0
7.89723026072918e-06,0.386066647708895,0
6.9061652604664e-06,0.371768335800162,0
5.26382929499869e-06,0.31157827015581,0
6.22127433323901e-06,0.301483689938292,0
8.35187419519982e-06,0.33688023616372,0
8.29513752228871e-06,0.317793012039906,0
7.92274091489525e-06,0.361118799224955,0
7.14375592404831e-06,0.360682640574642,0
7.24550032364063e-06,0.336432213483138,0
9.99588420720923e-06,0.39143476740338,0
1.02165286343877e-05,0.359427135340461,0
1.09809626596633e-05,0.374006599446027,0
1.07450885243752e-05,0.389224796222431,0
1.24117438446496e-05,0.43412508774139,0
1.39356747190799e-05,0.447746882040462,0
2.29819668571514e-05,0.560215331980982,0
2.03251876522462e-05,0.423664059337274,0
1.96952049929767e-05,0.43408397162685,0
1.87573763864923e-05,0.449839024750564,0
1.24652856967077e-05,0.360395464224191,0
9.74971693649836e-06,0.319612195005591,0
1.04030225603902e-05,0.330136314827584,0
1.06894490151228e-05,0.298830992523098,0
1.2190611842817e-05,0.315395757572582,0
1.18140153349368e-05,0.300762540907109,0
6.56890926871989e-06,0.248780811514111,0
8.39252452512608e-06,0.280804249920004,0
1.048023314474e-05,0.221570313434106,0
1.58429297868108e-05,0.254356888463673,0
1.61311442164202e-05,0.24234685975796,0
1.656640126542e-05,0.259431350696198,0
1.75115816287448e-05,0.262935263673586,0
1.76279617160389e-05,0.270043282609084,0
1.38920692522767e-05,0.258930050144185,0
1.37579320339995e-05,0.283436079243455,0
1.58099483786239e-05,0.308782410325898,0
1.24803416158318e-05,0.336315452565124,0
7.62562354106167e-06,0.342355909257159,0
8.19148880574871e-06,0.39343068093922,0
8.04336555679043e-06,0.434318234106147,0
7.93007927550139e-06,0.424805302424779,0
8.57994713602073e-06,0.436003581578369,0
8.11102402264249e-06,0.466632431596411,0
7.65823419941258e-06,0.471225559715592,0
8.39760676677538e-06,0.482616913429784,0
6.67105471053398e-06,0.414762310230246,0
6.27309977769017e-06,0.368756177577328,0
6.15408763207094e-06,0.415613431023543,0
9.27457748765262e-06,0.444930822594072,0
3.21112760626823e-05,0.684475578090691,0
6.59262042242023e-05,0.96662822515509,0
8.53045750001755e-05,1,0
0.000160480481353156,0.377708841063473,0
0.000344424847748245,0.353612303658716,0
0.000421894591060931,0.262953806595799,0
0.000676693175259692,0.281588411398451,0
0.000607466451480051,0.164354631816022,1
0.000542207695923943,0.111906443021633,1
0.000480914749866654,0.0689403816446434,1
0.000463884932064279,0.0662022021122574,1
0.000420028538465216,0.0579836109148406,1
0.00034236713643511,0.0494469821770546,1
0.000338811236499672,0.0538014655690881,1
0.000346882684425555,0.0531281401915349,1
0.00035837311782406,0.0615258375045012,1
0.000222829992634594,0.044187280624377,1
0.000355378297801177,0.0609760066781356,1
0.000471676431037123,0.0602512254478654,1
0.000500109757332103,0.0690685643421637,1
0.000457298238147987,0.0458500029161634,1
0.000486599176989026,0.0361339122334911,1
0.000759056164699774,0.0424280326837087,1
0.000718176640410991,0.0331325991593454,1
0.000671979018682016,0.0319842893063963,1
0.000590687754055164,0.0279230969789597,1
0.000610212284747305,0.0228779296615998,1
0.000821743576561134,0.0327578571228132,1
0.00091475400852889,0.0410883521019584,1
0.000926827619833596,0.0441791762853373,1
0.000907436526738379,0.0515777848146353,1
0.000864762198510528,0.0663901348485435,1
0.000510151449540135,0.0524854714615507,1
0.0005759531770413,0.0816693521302833,1
0.000673987345923887,0.0899235150693622,1
0.000618223589977533,0.093488997010742,1
0.000590649594338639,0.154904787096795,1
0.000435382266377758,0.115271510499799,1
0.000288361798203758,0.0748695414092562,1
0.000178367193386588,0.0534510848161524,1
0.000210163230832392,0.0643203832003652,1
0.000170187234031797,0.0545288355336176,1
0.000141134969850333,0.0501623619906862,1
0.00024762914540049,0.0452678689584349,1
0.00165753536707137,0.0747091227225454,1
0.00382493871562357,0.0681823778083064,1
0.00396150563812393,0.0372046662872928,1
0.009888507825545,0.0387899370112377,1
0.0132427302707433,0.0329167079934588,1
0.0124964227388713,0.0294386138178729,1
0.0131747491492259,0.0317040201201098,1
0.0142420041887954,0.0315940151810121,1
0.010782499005205,0.0181044966389693,1
0.00835600671962777,0.0143716121688933,1
0.0074301275010467,0.0138230834089334,1
0.0071287585911223,0.0136984977751703,1
0.00498905803817443,0.0109196015521369,1
0.00454572846605003,0.0121465828746251,1
0.0058664791799138,0.0185321860693831,1
0.00590366620009007,0.0167008266631524,1
0.00608651238736771,0.0171216999871272,1
0.00531143653077626,0.0165525359166737,1
0.0059308348349716,0.024321979356501,1
0.00601368743287977,0.0236741770127933,1
0.0072748384011879,0.0256428430140502,1
0.0079883067145555,0.0179772864918214,1
0.00839721449124244,0.0164288014014743,1
0.00826749042641636,0.0213499195461514,1
0.00451321963320024,0.0121617195551568,1
0.00417591011384272,0.0132147065058147,1
0.00482418354731314,0.0149422920001027,1
0.00568212001324362,0.0173601927867663,1
0.00539680029202924,0.0192894279800252,1
0.0047883635626426,0.0179904455288729,1
0.00366078903996767,0.0157315710444471,1
0.00392375163983003,0.0298347962216636,1
0.00705230882634894,0.0230627585561308,1
0.00804554173703792,0.00800555943803126,1
0.00850771943719163,0.0062714164677756,1
0.0108100270004683,0.00830454403612348,1
0.0127354504846958,0.00835772750917485,1
0.0125964133879484,0.00837738473287878,1
0.0132168950897839,0.0087807733500478,1
0.0139523385024,0.00850546120229216,1
0.0136077808166269,0.008441207223207,1
0.0121453239716701,0.00766040163669591,1
0.00973746187054481,0.00868043318459356,1
0.00843769774333437,0.019901658362018,1
0.00767786449421941,0.0280726984353515,1
0.00519220989853222,0.0273813321232266,1
0.00242990819389861,0.0229016845628638,1
0.00273135337944676,0.0156292205850926,1
0.00763822392898827,0.0298150460475354,1
0.00954478455463896,0.031233499027813,1
0.00944677941237896,0.030154611309918,1
0.0098117126765242,0.0246900265527833,1
0.0102360351884195,0.0202723713770159,1
0.0100316418273402,0.0191293999060854,1
0.00942412633055673,0.0176111567609841,1
0.00916911963006498,0.0157161343355711,1
0.00924070053034014,0.0161588693039874,1
0.0124106563050387,0.0293949927646777,1
0.0110340594482669,0.036339104299004,1
0.00849723789749163,0.0284003971714107,1
0.00819189341643764,0.0257124473203861,1
0.00749228430870444,0.0293903965271394,1
0.00777773980244318,0.0129881224307177,1
0.0160670279524316,0.0246562370365448,1
0.0175743824544534,0.0243631313625271,1
0.0175497045526939,0.023328464229279,1
0.0180568073161943,0.0221875565665364,1
0.0151099628645852,0.0162756149835657,1
0.0127577448088461,0.0135152863773649,1
0.0116840853655239,0.0116781429252276,1
0.0118179331617794,0.011837201467803,1
0.0100684551039238,0.00980755671229811,1
0.0091846858816316,0.0205517816482424,1
0.00601034534324033,0.0116679724428078,1
0.00637483963270052,0.00981240093315702,1
0.00635203112342308,0.0109799522881874,1
0.00512654940644321,0.0112454776305135,1
0.00497158055925489,0.0140090509590002,1
0.00493811708733486,0.0137454843725236,1
0.00439816704755549,0.0117727960198283,1
0.00869371154218787,0.0208981785639882,1
0.0102759788730202,0.024271402882396,1
0.0166205909699899,0.0326015928432426,1
0.0191152367810684,0.0401667576688524,1
0.0151641485266301,0.0391091313973114,1
0.0152488282464702,0.0414527833290513,1
0.0123274899064968,0.0301868711077642,1
0.00916957285532617,0.0121711607394663,1
0.0224554396807417,0.0231734271394239,1
0.038804349673565,0.0377224873518539,1
0.0458488318725148,0.0284816295059421,1
0.0444110330366337,0.0282504484689395,1
0.0481819773334051,0.0281189708737036,1
0.0824852121354226,0.0312613385958748,1
0.0761743172228615,0.0233712273631471,1
0.0686750150022168,0.0211497859531011,1
0.0529880759659673,0.0181559600958545,1
0.0271537093475874,0.0109746573111064,1
0.0286931294960462,0.0126321004339397,1
0.0294616811529993,0.0110229873767297,1
0.0268585518987116,0.0132781386764208,1
0.0208419880622445,0.010182373660274,1
0.0216305966175688,0.0127608205639754,1
0.0126985773711163,0.014505816015875,1
0.0148150373711443,0.0205620753756148,1
0.0145727900426742,0.0164311493333022,1
0.0150444799082034,0.0129579890228238,1
0.0216317759013507,0.0161186578647976,1
0.0192636070565874,0.0131810743486267,1
0.0187670439398584,0.0147178065952091,1
0.0178922993937337,0.0121074563421837,1
0.0603821131119393,0.0170640274446946,1
0.0810636435909778,0.0117121903281152,1
0.0729332034399712,0.0106627733202558,1
0.0736308537261861,0.010733676793131,1
0.0718742737895176,0.0117449197249331,1
0.0679075531479935,0.0103498128200184,1
0.0707926620127575,0.00849237801796442,1
0.0793120020039886,0.0100567635904603,1
0.0807406251304533,0.00854383733785803,1
0.0824994534904851,0.00681677096015897,1
0.069097435870739,0.0102026325546898,1
0.0438025476938817,0.0103907295457065,1
0.0456883249745117,0.0113059592892393,1
0.0442898960979977,0.0084844265485176,1
0.0503592083728222,0.00836771502190014,1
0.049591496435283,0.00816855046216845,1
0.0466724813479861,0.00967345571270182,1
0.0604091690205263,0.0121652918376557,1
0.0556605873743863,0.0152271116861626,1
0.0568452429352612,0.0202647250119955,1
0.0580565851079559,0.018475766388496,1
0.0580165433924884,0.0186147486204165,1
0.0580876766989896,0.0173618494645201,1
0.0524133098257484,0.0203474356679221,1
0.0299831648390828,0.012639630407631,1
0.0302279584507552,0.0174615142510093,1
0.0320442568365288,0.0195992860842068,1
0.0344961073769693,0.024421958990874,1
0.0364100452195468,0.0284895028520641,1
0.0347475452180568,0.0297554259840514,1
0.0330487847066272,0.0367855695883557,1
0.0209128943636417,0.0261608505178034,1
0.00753086969817851,0.0086715194585841,1
0.00512018730606742,0.00921762296237097,1
0.00504339773941435,0.0101972147096826,1
0.00576511564853849,0.0131165482729183,1
0.00627319358270892,0.0103015285817783,1
0.0073552254204815,0.0119081717541204,1
0.00754529525411783,0.0114216595375935,1
0.00713597546586558,0.00718919553458921,1
0.00884828820653072,0.0113850822036889,1
0.0126185919794961,0.00765750860038504,1
0.015793095025192,0.00478425728794904,1
0.0181837210936424,0.0063922219685553,1
0.018873166755018,0.0043922500894365,1
0.025481978766188,0.00704958943900121,1
0.0265969890746309,0.0070768730626304,1
0.0237278101459025,0.00602781066165837,1
0.02425453261334,0.00674987703744409,1
0.0237554177215561,0.00779125637592295,1
0.0196222566206716,0.00275412746623907,1
0.0645403210030669,0.0137440699830243,1
0.0819503445977347,0.00982529027145832,1
0.069688489030981,0.007841192933087,1
0.0735099899297678,0.00859868776405514,1
0.0760236861747029,0.00622959444075872,1
0.0829161458092753,0.00749835583509954,1
0.0760852129084621,0.00642098954267705,1
0.0737806854834385,0.00595443900312402,1
0.0691932295272778,0.00623240059944277,1
0.0637572177104895,0.00702108407095405,1
0.0427237309959117,0.00456427307620357,1
0.0396736784225471,0.0126298034957875,1
0.036802428504665,0.0150238499236236,1
0.036242834574832,0.0189878196524241,1
0.0345769072284984,0.029295893378417,1
0.0171378615660889,0.0216013126366006,1
0.0135117717142447,0.0210768345828744,1
0.0247170658705519,0.0205851795643928,1
0.0615194989521429,0.0278070608756892,1
0.053576298331731,0.0197642867182885,1
0.055879808110729,0.0162127911929465,1
0.0875417831085525,0.0229194365422693,1
0.127402081817505,0.0298277031935574,1
0.131709871684407,0.028114998740382,1
0.158264425420837,0.0288079111683618,1
0.144365042766466,0.0119572519340309,1
0.12570016894682,0.0102710571738026,1
0.122367341438565,0.0116980837153322,1
0.136020334842639,0.0138275782879077,1
0.123947129415712,0.0132084479350111,1
0.116242243160148,0.0161128472113578,1
0.1141947755974,0.0171611628256429,1
0.104430582393215,0.0160108952419997,1
0.108762510661004,0.0117853599761288,1
0.0975691994377367,0.0126727205205396,1
0.108400320249645,0.0278587093917638,1
0.108485124482415,0.0219384029886474,1
0.11068784005841,0.0181990943296913,1
0.11736599252582,0.0163681338611575,1
0.120847747092694,0.0175121765831729,1
0.122171111610281,0.0159678363677452,1
0.119270681469439,0.0121019952193079,1
0.104066596034892,0.00810522676166195,1
0.0869318162330422,0.00695751450824827,1
0.102955786548018,0.00998409481429104,1
0.103605704934668,0.0106014433534744,1
0.115691410440812,0.014512505253612,1
0.121997814505504,0.0187212246474842,1
0.0949628869544421,0.0168801935220872,1
0.115475353345888,0.0203448308860424,1
0.0974373514523387,0.0195146249776007,1
0.0872157570038263,0.0234757568713303,1
0.0725371996949645,0.0332148017448537,1
0.0382644616240754,0.059192994056284,1
0.0367261800088986,0.0910533349534486,1
0.02739702144907,0.0724839381154828,1
0.0164178441082084,0.0529950860261238,1
0.00735724439422973,0.0269132557056557,1
0.00352012412334187,0.0358360335509735,1
0.00521727361763287,0.0322356412133477,1
0.00814548353366906,0.0395228036095168,1
0.0117066335821067,0.02707481698456,1
0.0368214857760319,0.0395662188118325,1
0.0386114201970821,0.0253498313982329,1
0.0361129383919289,0.024526574540776,1
0.0300021290703439,0.0186628837360462,1
0.031640517996368,0.0187844005509426,1
0.0276319611731189,0.013371659015167,1
0.0259874665273512,0.0104847993898139,1
0.0262457730311222,0.00883604982322008,1
0.0253428260599384,0.00803924774938134,1
0.0251395950029744,0.0100661653722509,1
0.0176191861054355,0.00783895303593868,1
0.017478622987277,0.0114316708777144,1
0.0177189609795563,0.0102585422795731,1
0.0198190664010241,0.0138857924647227,1
0.0306897643905623,0.0183293763154724,1
0.0311856141868998,0.0144045825183707,1
0.0326284282505524,0.00990727571482054,1
0.0442054122572922,0.0104671225667859,1
0.0461988900162521,0.00946906850215173,1
0.0419929086376137,0.00727876926836312,1
0.0414131946132171,0.0066640714768601,1
0.0336592979470712,0.00493338316969135,1
0.0310516085588667,0.00487941153712973,1
0.032201865350862,0.00475774193317537,1
0.029828189957434,0.00414300172996864,1
0.0298617937837526,0.00438190794978007,1
0.032138480095001,0.00627008738708369,1
0.0281197436799147,0.00719700523226016,1
0.026869522863315,0.00844602472830851,1
0.0258540760117953,0.0101251872642384,1
0.0257566349085674,0.0106456114507152,1
0.0427348127832169,0.01207299741149,1
0.0731747332837518,0.0192132535117259,1
0.0863422023365773,0.0239658448418825,1
0.0862874092858895,0.019418479611296,1
0.0841880093501886,0.023026065483303,1
0.0820016986353382,0.0286572027056662,1
0.0683220661691962,0.0274255258035929,1
0.0513312790789844,0.0174368960234673,1
0.0567849010050151,0.0183166401093224,1
0.048865500045172,0.0115272620132826,1
0.0525840922951421,0.0150268089819697,1
0.0529328952210173,0.0129326135558541,1
0.0671929110630926,0.0157799238939799,1
0.160900677555149,0.0293907288173856,1
0.226404149084631,0.0206278298107402,1
0.202477041951481,0.0205911213072778,1
0.185344277761528,0.0188845175526258,1
0.17071612162445,0.0182178592025815,1
0.171777162367918,0.0179929082515139,1
0.163344712687838,0.0188104413225725,1
0.116872992112985,0.0143503068587348,1
0.123841640252573,0.0146246967936723,1
0.132656915563853,0.0155996187641814,1
0.0886109408435219,0.017233710990148,1
0.0302292023724539,0.0116409907594294,1
0.0396799834850158,0.0082709866965728,1
0.0939691126740459,0.0171663252566719,1
0.0927163728658731,0.0126603054549804,1
0.113398014285283,0.0139745044068932,1
0.125183376269345,0.0161322509593296,1
0.118720579811453,0.0146047214293378,1
0.100944377571234,0.0142826995296692,1
0.109175623376007,0.0082992216215411,1
0.324788342730557,0.020175058696308,1
0.354446933917464,0.0158110141147905,1
0.335163913434569,0.0176476692300058,1
0.367339164491432,0.0137234514230984,1
0.395956588043547,0.0164355628019639,1
0.511406826186796,0.0214838744308677,1
0.649235075546461,0.0260899247008061,1
0.746486025787411,0.0290320332785431,1
0.932069374384052,0.0337631689497921,1
1,0.0462748652687778,1
0.650989864257192,0.0475200422613761,1
0.425593385876468,0.0407080371283393,1
0.216028058242736,0.0208726257663823,1
0.117108923910011,0.0242001684800554,1
0.0786941575042703,0.0152523431577315,1
0.0635939984608741,0.0149518498268656,1
0.0549745255882808,0.00863070154194586,1
0.0402911101710108,0.00601702775684435,1
0.0395237810896416,0.00727955374664578,1
0.0339589885323484,0.0108389994629402,1
0.0185119076271791,0.00982477657108651,1
0.0183384733100843,0.014706777758572,1
0.0149866188827088,0.0107485371016293,1
0.0508547320214219,0.0122409680849343,1
0.0704938352379096,0.0109233901948879,1
0.0682328191383163,0.00888290300699247,1
0.0995073606974459,0.0146262719872292,1
0.101940869701612,0.0115197273108561,1
0.0951932246007232,0.0095646255605066,1
0.111413749757264,0.00912873546088812,1
0.117243397469836,0.0067567388153477,1
0.108079477548051,0.00582947950836523,1
0.0825167478976734,0.00291366485579376,1
0.0798292794614941,0.00387772584842785,1
0.0850763478548186,0.00602742673846814,1
0.0832001841966084,0.00750482663581454,1
0.0759645128913874,0.00559001925694758,1
0.077887702082865,0.00827373623537485,1
0.0745240319229022,0.00948057386880898,1
0.0571970225024693,0.0116342932711722,1
0.032005578661236,0.0108230153281598,1
0.032367438005905,0.0131381069568406,1
0.0146890160872735,0.00545929983977137,1
0.0123919051054024,0.00941409857253223,1
0.0124270513140375,0.00884436439050721,1
0.0140211070358637,0.0104915458582363,1
0.0155088987958229,0.0119520068892292,1
0.0179779627783011,0.0127714876729463,1
0.0278667462703489,0.00648929646654524,1
0.0561571882432725,0.0144794130515317,1
0.0634001895150917,0.0188928244548804,1
0.06303939705473,0.0176888122600339,1
0.0582628369251213,0.0176022464705375,1
0.0563703726083147,0.0110276554429629,1
0.0780350924535331,0.0174157982384977,1
0.0869371034404557,0.0199907743336169,1
0.0910865549224905,0.0219231730621024,1
0.0694361217667603,0.0185624546253351,1
0.118714083252711,0.0279149522074261,1
0.143605091326841,0.0234889821271418,1
0.139264892185248,0.0223918963159327,1
0.134828503957795,0.0224055668111385,1
0.110151519220587,0.0157255794589524,1
0.119142526542468,0.0188738714638724,1
0.143383427358371,0.0192933524819365,1
0.137803204823731,0.018464891880954,1
0.134241437241236,0.0194044364408246,1
0.137486928948377,0.0156061690780722,1
0.118216800183851,0.0166868345983229,1
0.126326350371622,0.0241589905686629,1
0.114307406148708,0.0115976115156589,1
0.108851105407271,0.0101600580225644,1
0.103045729393187,0.00809088522692999,1
0.107372081019714,0.00978609342092806,1
0.0956552959029152,0.00948123250512548,1
0.0972874909169578,0.00938156875607419,1
0.0932160138808806,0.00907758449761151,1
0.0953463472982581,0.0100297474530335,1
0.098185034993383,0.00883492665635295,1
0.0885328195344062,0.00806927682111931,1
0.0796760725481098,0.0141638467488956,1
0.037506391750489,0.00617430643215845,1
0.0460419337016897,0.0135380300198637,1
0.0368611591300551,0.00986848703637916,1
0.0559030518430218,0.0120960925591993,1
0.0578965140689876,0.00951565986235248,1
0.061197215203141,0.00957799535366665,1
0.0529167713638696,0.0103688480657397,1
0.0460491252252061,0.0100318569948961,1
0.050653845917465,0.0081016139531625,1
0.0533386853964871,0.00472615940595545,1
0.0661040475817422,0.00694338072805038,1
0.0763153073662641,0.00889743628335532,1
0.118756829864605,0.0149039055869864,1
0.164511588862119,0.0220183400907398,1
0.182326708129954,0.0317489934057661,1
0.175987494482365,0.0305657130322074,1
0.180288094702793,0.0309728300853087,1
0.17185786193222,0.0289569805957249,1
0.126356995873363,0.0332567530251079,1
0.056921419985048,0.0403675337633786,1
0.04034044041367,0.0352929498959074,1
0.014220439565252,0.0220627075428176,1
0.0140519124741603,0.0270930765330311,1
0.01276357340938,0.0192705670564645,1
0.00908689742623737,0.0140381451275597,1
0.00824179635402729,0.0229417983423731,1
0.0095392045882139,0.0198919625461959,1
0.00916539586022777,0.0184827752594277,1
0.0126229480448343,0.0172746691884606,1
0.049308106980367,0.0315454805444414,1
0.0555307612082898,0.0188132850689771,1
0.0521321978019911,0.0187092152420821,1
0.0897196483662526,0.0170775941643315,1
0.105791485092623,0.010487814207783,1
0.0948702604513085,0.00951674415223541,1
0.0805883425854772,0.00755461733221114,1
0.0800284826218787,0.00682417185341112,1
0.079888226903609,0.0048378756232551,1
0.0960655767133624,0.00583453723787054,1
0.0910697067106782,0.00454211406649885,1
0.0875322767400053,0.00525715488153753,1
0.0807852616564126,0.00421487489171536,1
0.0601864568143422,0.00348718644556234,1
0.0534803670311778,0.00664416198723925,1
0.0549858573784038,0.00491228885133933,1
0.0633405452806419,0.00623343214325432,1
0.0569411428016109,0.00631745035919149,1
0.04465832238112,0.00769600894714525,1
0.0335943226688673,0.00818878262381748,1
0.0346376806059527,0.0104686114011703,1
0.041979380300381,0.0137034234970005,1
0.0409427000178842,0.0119247109598989,1
0.0468840892499675,0.0134546210898515,1
0.047442257220053,0.00637496299980948,1
0.0546972810990061,0.00421545121856371,1
0.11562681629875,0.0102059726457767,1
0.130094935812871,0.0110230974665169,1
0.126323372773122,0.0113102445410587,1
0.123140326771758,0.0102484161331305,1
0.108947832312111,0.0084462476322967,1
0.114660998369795,0.00838428349528381,1
0.106018597307656,0.00778903891501814,1
0.0973348782175845,0.00812337003142603,1
0.0934105686716633,0.0103453376217162,1
0.043123104845825,0.00483468794142351,1
0.0367024813254028,0.00466082554023021,1
0.0441453208429035,0.00709268247540796,1
0.0521917902516679,0.00794530771296109,1
0.0896825956010849,0.0197120295449636,1
0.115844162194084,0.0251648506326373,1
0.120619245075557,0.0303123752359916,1
0.134116216097785,0.0342740277256764,1
0.140079699643172,0.0340974258537394,1
0.104893589782624,0.0169747625827707,1
0.130803592174374,0.0219531219041521,1
0.106791842185045,0.0245508349782081,1
0.115243519170066,0.0212488737500061,1
0.217005734760159,0.0299022884846992,1
0.250550492556754,0.0328216645790377,1
0.297403310857369,0.036678993513528,1
0.289463751537524,0.0366971549027233,1
0.229712661303656,0.0276946726596227,1
0.153317029049953,0.0194059291690651,1
0.12299190390033,0.0227511824640258,1
0.144663822909384,0.0286599185075976,1
0.14224505628234,0.0269301880230195,1
0.15076461855258,0.0313825028379288,1
0.129716145686225,0.0392315202300962,1
0.119764376324353,0.0395810938615673,1
0.0812929923717756,0.0250169714276049,1
0.065651230134753,0.0146682786273926,1
0.0820011643177226,0.0143636039975681,1
0.111803325602971,0.00943997773291366,1
0.176269757027345,0.0157775715272025,1
0.173903311515197,0.0102534540358066,1
0.186101984572182,0.0103642787905028,1
0.174304088056926,0.0100115616635928,1
0.174844310388926,0.00994850961970715,1
0.172687351402145,0.0100072777791692,1
0.167176027027879,0.0117329729934496,1
0.151097069691501,0.0137209771750137,1
0.125232112291135,0.00624598711454707,1
0.162608124982766,0.00755769675288385,1
0.187308618263475,0.00667787648446261,1
0.207923936580703,0.00826417794463385,1
0.263146270703116,0.00961886490608136,1
0.375440019256407,0.0143822355792994,1
0.410919862290388,0.0149925226377512,1
0.434077742666374,0.0159019335223622,1
0.440370479868444,0.0158891536763809,1
0.4442644198205,0.0151562588938098,1
0.355815306155939,0.0198831047719955,1
0.0794151043424402,0.00575805935029745,1
0.0683047322037728,0.0108694558912633,1
0.0405711521818971,0.00569477276839381,1
0.0276524735450257,0.00892516938812882,1
0.0289288583416907,0.00958608681768157,1
0.0199685342988116,0.00878045853182376,1
0.012080564411217,0.00722967505147573,1
0.0120880854410639,0.00641769743896874,1
0.0122254152532813,0.00761747744651077,1
0.0123110329657413,0.00794433068473578,1
0.0139303890867498,0.00947281888120401,1
0.0144961027370809,0.0109401196422105,1
0.00736421396483269,0.0102997080793663,1
0.00511006079505876,0.0162942657739881,1
0.00585408559569059,0.0125164750542265,1
0.00586973431194121,0.0128806828059128,1
0.00571784256891232,0.0102464138860854,1
0.00562789757213911,0.0112977846089912,1
0.00570990280379735,0.0103866793446529,1
0.0057754297361544,0.00996440197703951,1
0.00569454722708379,0.0100436419610711,1
0.00538427770943151,0.00906125227618382,1
0.0122223359987246,0.0115821758419099,1
0.0199095541800227,0.0151532270485354,1
0.022772064784338,0.0198326575827533,1
0.0227705318244016,0.0148779179544293,1
0.0216433355849532,0.0152226644816095,1
0.0223211277321219,0.0148468842494334,1
0.0229061728484266,0.0154043193434494,1
0.0203928524685167,0.0129127796555053,1
0.0196257916382915,0.0119504016620279,1
0.0195726977698257,0.0115486705188639,1
0.0171060025918067,0.0133181410617047,1
0.0197546889080527,0.0191396724433896,1
0.0235806435975863,0.0253770557856035,1
0.027865823981857,0.0400096175156985,1
0.0286081148279873,0.0314881881125228,1
0.0249399948495307,0.0311027574039965,1
0.0179878132393851,0.0244911125720072,1
0.015122205906634,0.0202675882015813,1
0.0171882081467702,0.0257188785808845,1
0.0106564098939068,0.0155030656935136,1
0.0180174460282942,0.0106443368787654,1
0.0259916008153753,0.00826495340498727,1
0.026685809377639,0.00752423701771379,1
0.0320074171844495,0.00800760089371095,1
0.0387763478421495,0.00647140478798677,1
0.0510719403048446,0.00960150541949218,1
0.0665539478571445,0.0128409147044547,1
0.0720369453296278,0.0136951449951298,1
0.0719986514248334,0.0101025708322478,1
0.0820161192108955,0.0107910624173958,1
0.0720020044264901,0.0113581989028213,1
0.0588901187548676,0.0107940513622123,1
0.061264777705491,0.0118155248648762,1
0.0558857566373696,0.0116997632662663,1
0.0570861123854824,0.0199378899619959,1
0.0641676346065225,0.0234290989750893,1
0.0632875482757603,0.0245072643481711,1
0.0738935311401333,0.0243730023258971,1
0.070386149324183,0.0233118832708361,1
0.0768911170438089,0.0200556055283241,1
0.0794372759801354,0.0258119536469524,1
0.081668099414275,0.0235040790370369,1
0.0695435677771023,0.0163220485268468,1
0.06524399252501,0.00924306212351534,1
0.12584492024907,0.0143009299286163,1
0.163400619074819,0.0165383580052449,1
0.164079391374005,0.0143621188186847,1
0.166491145631047,0.0137688430854728,1
0.137068611717657,0.0120313266829033,1
0.127096544706205,0.013185567063371,1
0.124990146635629,0.0132181747507263,1
0.127256216206347,0.0137707241595343,1
0.112212901449501,0.0147908944214654,1
0.0714269031346951,0.010641199805801,1
0.0621737965578926,0.0174078159607282,1
0.0580424569275395,0.018069043637724,1
0.0651555401798696,0.0271504936831459,1
0.052729896709526,0.0274638185939306,1
0.0812555201968213,0.0368861443572193,1
0.0767225853014482,0.0258503524541866,1
0.0744590697027682,0.0256373578120569,1
0.0733194514040126,0.0219462160077952,1
0.0652426322284135,0.0202982959730739,1
0.0411905058754253,0.0114542662584266,1
0.0423379160593514,0.0110103940392483,1
0.0416417695074377,0.0105507252667621,1
0.0480102924019463,0.0125592373523674,1
0.0552516530665177,0.0174362630311362,1
0.123062803347442,0.00351024885447972,1
0.269829323706257,0.00670574101899081,1
0.286103736555782,0.00692204456955966,1
0.30332453913746,0.00795687945491836,1
0.288479571118533,0.0069056456521934,1
0.307838002581039,0.00677742097395032,1
0.436294223738207,0.010744632766652,1
0.482112250094582,0.0117897365570565,1
0.448925266948457,0.00984484432339957,1
0.426534821939804,0.00524198254605296,1
0.600663643444083,0.0132018980976416,1
0.582111288883331,0.0185057520317564,1
0.537689144234547,0.0199694220417303,1
0.438620014832163,0.0168685382673734,1
0.31878304873025,0.0100949987774684,1
0.256237356443647,0.0077021622000984,1
0.306877118305237,0.00872079563695705,1
0.323188649296932,0.00845135998627636,1
0.3033714978695,0.00294913545514897,1
0.540308387893431,0.0126122336571859,1
0.506247653698382,0.0120233092784482,1
0.652093069972921,0.0152218149622129,1
0.814410481090714,0.0177461630234328,1
0.829347036798647,0.0191401358666385,1
0.823429399502505,0.0192291602740743,1
0.816622633832965,0.0189569545273681,1
0.8418911990348,0.0219199602667021,1
0.503986536686283,0.0169100815965111,1
0.249755473710213,0.0233277437331206,1
0.248540950547855,0.0346165559406159,1
0.078108732038219,0.0257018457835538,1
0.0262293997843664,0.0379166565757644,1
0.0180599989372783,0.0402574216814922,1
0.0140153754151354,0.0407560850033259,1
0.0123964010312888,0.0340035210248688,1
0.00886798361572575,0.0277513147149112,1
0.005505136938458,0.0247346722343214,1
0.00584637653304035,0.0274624554423544,1
0.005580084489101,0.0252907902536225,1
0.00569696598561806,0.0277856021797481,1
0.0040779469557431,0.0194624813413883,1
0.00455181239748233,0.0279062930617358,1
0.00643837018472227,0.0360891561661108,1
0.00686286953391036,0.0373466422644323,1
0.00572077869037775,0.0246394213543682,1
0.00493000376784937,0.0177257049793539,1
0.00515858414740554,0.0188864680996626,1
0.00497459257618065,0.0164652636411144,1
0.0151566020373002,0.0121620803971392,1
0.0342729161237393,0.0293306257092467,1
0.0533238184864019,0.0315020552987731,1
0.07474940538203,0.0237057546191739,1
0.0745646106488698,0.0180801610845816,1
0.0744735034090488,0.0178433254032173,1
0.06874226314986,0.0168237421812013,1
0.0607705244338596,0.015688617893705,1
0.0554605028973493,0.0148799568471301,1
0.0510488809784756,0.0138439381060236,1
0.0511605929893416,0.0166967359329171,1
0.0530427158206988,0.0139214410518206,1
0.0498782029887409,0.016925895884964,1
0.03337038282984,0.0105909242327088,1
0.0350452784784526,0.0121278708994744,1
0.0450258108236878,0.0121223041957216,1
0.0516927768292383,0.012410755675592,1
0.0559174418808372,0.00973491908775086,1
0.0841291869348871,0.0130004952149617,1
0.0693080123370215,0.00941200065760608,1
0.0640445211295466,0.0081664801585589,1
0.0922859229982295,0.0137044135083094,1
0.109803511239808,0.0149988220793994,1
0.110074143283138,0.0178852333334527,1
0.116209238173624,0.020374392760619,1
0.117831587218062,0.0248717289371807,1
0.115850629786426,0.0250697686948484,1
0.108149298170948,0.0325641688175644,1
0.0359579870865663,0.0162423047140351,1
0.0213942172638203,0.0120924532964386,1
0.0154593788553654,0.0150218406391304,1
0.0295618626841742,0.0255359461220316,1
0.062619501102537,0.0430642260185896,1
0.0811346946561863,0.0478511504622925,1
0.124013063260617,0.0720906416197059,1
0.139445660077958,0.0423879913641731,1
0.119569207278815,0.0326963807970213,1
0.112920585583645,0.0278561553513626,1
0.0895224341706031,0.0224271546857003,1
0.0702186609833754,0.0179044705109164,1
0.0426167541430568,0.00987635232779334,1
0.0423654963857368,0.0108324403127243,1
0.0901821246071602,0.0177877516512722,1
0.211506845764437,0.0345020726129333,1
0.267021594566697,0.0234289324381546,1
0.264100585101138,0.0211847237691961,1
0.236268446779333,0.0214526264879361,1
0.248161030183093,0.0219445402894729,1
0.247907471931368,0.0224046340067207,1
0.254475599482748,0.0222338313664667,1
0.245844896948094,0.0220319640279473,1
0.275892173303106,0.0199219310315675,1
0.272976736715795,0.0227272633333439,1
0.13773174535332,0.015900439431271,1
0.0400445254505877,0.00531909401346133,1
0.0389821300123221,0.00669828593300616,1
0.0409991539022027,0.00581012272441723,1
0.090619525633912,0.0107485207352051,1
0.143071491659457,0.016522478781948,1
0.197058754779084,0.0174199319357716,1
0.197239149315244,0.0169914240002899,1
0.191523694259658,0.0198584027766724,1
0.183240787473348,0.0206926164940705,1
0.178608073060309,0.0173185564612055,1
0.183992399788975,0.0146795664664015,1
0.205221122404749,0.0151670263890966,1
0.199494186766824,0.0128373557093393,1
0.184829236640603,0.0151727884994818,1
0.151974329524839,0.0112683275566803,1
0.11858123418555,0.00947248071287052,1
0.122501691008276,0.00726408575177224,1
0.120034974351507,0.0069479543113318,1
0.134390890618471,0.0048485133236246,1
0.189751734708001,0.0082449421737816,1
0.182906127157082,0.0105531331613015,1
0.174621567562209,0.0100911192605474,1
0.16922636627681,0.0111583323225966,1
0.159814667924041,0.00958684224368524,1
0.166198215002839,0.0118712798378318,1
0.127639578331869,0.0100322442306555,1
0.113192382047092,0.0116752855357467,1
0.11530355262257,0.0119704736368518,1
0.109785527473384,0.0194790025919066,1
0.1043090204827,0.0209016728536097,1
0.110343649661658,0.0148808007552685,1
0.0812059553874269,0.0130497009868681,1
0.0884502936830836,0.00936411303089428,1
0.132161625644784,0.013900242559092,1
0.135521611640937,0.0130400756456692,1
0.148773528442237,0.011598373105876,1
0.152819958285218,0.00829264553805086,1
0.166980863509796,0.00879357539418608,1
0.179562989737215,0.00616183222885175,1
0.204502668467115,0.00820835138830501,1
0.189687607795213,0.00780508357423709,1
0.175038203061052,0.00693003892219952,1
0.195585175690918,0.00876386731612907,1
0.417131991204545,0.00965013589057627,1
0.487578485632071,0.00525067028418667,1
0.486149109920248,0.00589577887662417,1
0.585126801820619,0.00536985516800881,1
0.624985125174204,0.0024664735455942,1
0.740151284101052,0.00488369097697231,1
0.822193928875567,0.00592692102524759,1
0.933459384038191,0.00722021867427282,1
0.937305869190944,0.00712961924001687,1
0.968056140956211,0.00673807848464737,1
0.745518846870565,0.00606357669800473,1
0.610536391468906,0.00772551219694478,1
0.677423100127135,0.00771238615000075,1
0.436435779539413,0.00788552478829261,1
0.179823041471014,0.00900162103706565,1
0.206683474298658,0.0101702105944819,1
0.22177084234611,0.0110511100317709,1
0.239167894526883,0.0129894400207131,1
0.130669910396202,0.00766534710368728,1
0.0844183044396506,0.0154222567230205,1
0.0782237514319779,0.0200533257469415,1
0.0127992426376571,0.000945631843633007,1
0.00437474382165362,0.0204238245589788,1
0.00511042947390941,0.028582068737216,1
0.00437998935724414,0.0317332347797345,1
0.00476127950398124,0.0298999929178085,1
0.0043132674191156,0.0259673253414835,1
0.00466317578872926,0.0249394080090314,1
0.00466072761218513,0.0233441195479829,1
0.00464944651956784,0.0252469592896256,1
0.00236714199190412,0.0236553744502652,1
0.00105106319460164,0.0204637718994778,1
0.00228488322118432,0.0306035081671727,1
0.00232269056328325,0.0209450530139223,1
0.00203826728101812,0.0181069575112996,1
0.00206796676289876,0.0216632715628795,1
0.00239052111209242,0.0288419597011512,1
0.00251507402699651,0.0379331663209722,1
0.0024437337932086,0.0381237769075841,1
0.00226759280740138,0.0331377045902367,1
0.00194756336102009,0.0293829767154212,1
0.00202245341502542,0.0360101437877226,1
0.00202311436965773,0.0256809726557094,1
0.00211453131351985,0.0427555845959333,1
0.00192438594563876,0.0411826403332682,1
0.0022764109474281,0.0372054868802736,1
0.0034204907771781,0.0457793000066106,1
0.00425913844993427,0.0436848145192583,1
0.00380255705200822,0.0351402535702395,1
0.00423971476850776,0.0335910460095692,1
0.00494657905069745,0.0362824345322479,1
0.00496729398730456,0.0340074744187544,1
0.00494843521168271,0.0467397809723182,1
0.00342561113461393,0.0289839812871844,1
0.00203906950195841,0.0164335125551619,1
0.00181746594893672,0.0143133922262144,1
0.00231308527489015,0.00822901063011078,1
0.00457049983635352,0.014389426241618,1
0.00452902667411327,0.0132504786039332,1
0.00438865413235299,0.0138314856295665,1
0.00460985384249513,0.0141719940755776,1
0.00459967693123239,0.0134245577082243,1
0.00429593976018067,0.0130305215894442,1
0.00338465207157182,0.0112308567201265,1
0.003362879659038,0.0120343171162733,1
0.00354793348695563,0.0106575610291911,1
0.010705285577957,0.0263431062748207,1
0.0188398363564621,0.0220496314949762,1
0.0173440806610813,0.0214205278677966,1
0.0169765799452698,0.0189382363062738,1
0.0182884470219001,0.0198877632977469,1
0.0165281679081048,0.0178800504395808,1
0.0156204974745466,0.0154358089877833,1
0.0134688045985232,0.0117530419870519,1
0.0141800032679268,0.00938380256599337,1
0.016030305540333,0.00643636791683475,1
0.0189421086225988,0.00860398863926567,1
0.0156723940782255,0.00912582617605685,1
0.0158097401266789,0.00802715462211383,1
0.0162761398965182,0.00773313943495952,1
0.0165677975498534,0.00708027081476726,1
0.0183505099705921,0.00743574452229851,1
0.0188251495458337,0.00708487667420675,1
0.0188746749350587,0.00558488342628249,1
0.0204599275716911,0.00765403564426191,1
0.0205254496244396,0.0132465827292482,1
0.0145246543953308,0.011204388938412,1
0.0153029346757028,0.0123688945181264,1
0.0176902571247575,0.0159244031993592,1
0.019033202073712,0.02243015855553,1
0.0136571971673837,0.0197919151288467,1
0.0140672114365773,0.0248461563226115,1
0.00713193053024159,0.0306264394646792,1
0.00244804712781792,0.0639936974895356,1
0.00230572905034521,0.0705438233422944,1
0.000915647513099391,0.0713089957077533,1
4.45235451362664e-05,0.309454027864069,0
3.02291873296896e-05,0.457315447880815,0
1.7426623434865e-05,0.377923309655299,0
1.53547565261012e-05,0.387119664104007,0
1.518333782911e-05,0.373789153912997,0
1.08642247360203e-05,0.350291474561127,0
7.47796143634936e-06,0.332514878378571,0
5.33185995892836e-06,0.286315975487648,0
7.667017180962e-06,0.296213049514316,0
1.30387990043184e-05,0.418316587485519,0
1.38504076876902e-05,0.395133074993157,0
1.38323195128268e-05,0.429780967592336,0
1.44059390248176e-05,0.377293462514564,0
1.41906096441172e-05,0.368652290288517,0
1.46323712286524e-05,0.375465499388164,0
1.47738281010824e-05,0.3391539568915,0
1.38875294977736e-05,0.297162916643495,0
1.14396411537107e-05,0.267324411896711,0
1.04394274909078e-05,0.306103204935197,0
8.48107182362009e-06,0.276405761976633,0
9.88084519158776e-06,0.319627311716536,0
1.05986848208805e-05,0.335071510436316,0
6.52080170169382e-06,0.311262628482384,0
4.80565201321343e-06,0.282840395688384,0
5.13121671301027e-06,0.265819167228781,0
4.72540313878452e-06,0.276709013598888,0
3.07833975084657e-06,0.246006172541542,0
3.34793860429577e-06,0.237888023824325,0
3.70022625712042e-06,0.233851759802829,0
4.38790866992992e-06,0.249462862832416,0
5.49230098499224e-06,0.275142536086379,0
5.48433179450552e-06,0.276156424583507,0
5.70308095624594e-06,0.283905105139857,0
5.32152591068196e-06,0.2898221564008,0
5.11569940826665e-06,0.3133417829611,0
5.93049542991008e-06,0.294227206511513,0
9.85073721531711e-06,0.4062864100464,0
1.14707059348968e-05,0.480271503533187,0
1.24993368726508e-05,0.539994190635116,0
1.25370113075713e-05,0.540150439767307,0
8.73014909434633e-06,0.441663927751945,0
8.60023989657924e-06,0.430692743790021,0
8.41739940125294e-06,0.44013234961222,0
9.63450413189125e-06,0.453469925459706,0
1.26502122632959e-05,0.541099876090083,0
1.53755560505145e-05,0.76907283094859,0
1.22999758032492e-05,0.639358726626425,0
1.12569570684715e-05,0.59190493541849,0
1.00374989453191e-05,0.567614160814895,0
8.22446948981491e-06,0.422063049685486,0
9.98263726246435e-06,0.465441201226141,0
1.09192125365764e-05,0.467800667974733,0
