Activity,Complexity,Tag
1.18964480961896e-06,0.239408881177795,0
9.00691905103573e-07,0.223140119528868,0
7.82014764270574e-07,0.225002198367908,0
4.27080105076151e-07,0.165016754309492,0
2.96758539311764e-07,0.131431646050732,0
3.16825869284251e-07,0.140649056518093,0
2.39320867197847e-07,0.124479427317026,0
2.6085584432536e-07,0.123904743598448,0
2.46460381319087e-07,0.123650891176038,0
4.11040089958051e-07,0.151955628286049,0
5.2600056673212e-07,0.162651838029119,0
7.41297456230611e-07,0.189514024381249,0
9.93514599924137e-07,0.220342155060093,0
3.88271568320762e-06,0.296974209325256,0
3.47953496351942e-05,0.52465010342058,0
5.46188118562449e-05,0.369147602938081,0
5.25573540457373e-05,0.357146556721491,0
5.05247540341616e-05,0.279920052589244,0
0.000100711136313563,0.283679925502193,0
0.000185963981002908,0.332032723891542,0
0.00043660205753515,0.381486876942162,0
0.000464025457958355,0.200094075268743,0
0.00053555852266976,0.0935212811870414,0
0.00127149309043235,0.109323140972325,0
0.00136777108219797,0.0907054372019677,0
0.00156961678110768,0.0900264959480976,0
0.00151886004847345,0.084593631936633,0
0.00114284357791216,0.0612058308475875,0
0.00122209112322818,0.0572998302986706,0
0.00157093443728456,0.0690126218160416,0
0.00193099088791609,0.0816686710494609,0
0.00210237259688686,0.0897111979219964,0
0.00206725923664087,0.122284056729602,0
0.00167416474950769,0.128779281243646,0
0.00198238565270225,0.162283507625449,0
0.0018221166502244,0.127223146760102,0
0.00152634777320555,0.097742882678605,0
0.0016589254918309,0.123809383125839,0
0.00162548013000624,0.116944391870382,0
0.00129348330306108,0.0924264291240831,0
0.000961107854452145,0.0739066979693071,0
0.00059386147700372,0.0526662596181966,0
0.000497408072116536,0.0473554839827587,0
0.000618231991119584,0.0584218439604603,0
0.000630546881094493,0.0613364635328841,0
0.000599801591880363,0.081969325874409,0
0.000647598528156619,0.0971820091808328,0
0.000647964979186219,0.0917997974459473,0
0.000620576749175819,0.103326633371376,0
0.000635682977407889,0.0981317353091483,0
0.000830362238495058,0.0794795586603115,0
0.000888841054378568,0.0765144074554353,0
0.0010963127719913,0.0844714092095735,0
0.000996432180261843,0.0769018580340666,0
0.000694167889161131,0.0514649566155498,0
0.000702215633330593,0.0386106710386716,0
0.00082216722664037,0.038178509958111,0
0.000897041517561871,0.0314523520174286,0
0.000826476689486885,0.0292542972189653,0
0.00122642840592055,0.0272220949686795,0
0.0030509189926107,0.0410490206512432,1
0.00321894694096749,0.0409464782931078,1
0.00340684730441937,0.0314824224055456,1
0.00359619853822336,0.025707840381108,1
0.00349960435682975,0.0244159139609666,1
0.00361884202931821,0.0255286554772915,1
0.0029281054996798,0.021176993233388,1
0.00304163253408567,0.0208092092008398,1
0.00286197197121904,0.0175785483224483,1
0.00290128320261736,0.0207876997522525,1
0.0024691734892377,0.0196582639574215,1
0.00357120290056325,0.0260875151679765,1
0.00308311724088855,0.0297863000819288,1
0.00171012961757516,0.0229497007565225,1
0.00169026153096019,0.018959678710696,1
0.00245901977194729,0.0229454830653883,1
0.00276369598428049,0.0135561955643803,1
0.00329334419818745,0.0160082620776775,1
0.00324246540042161,0.017070801419153,1
0.0039153621412988,0.0167305956262576,1
0.00490583284363194,0.0115480399686014,1
0.00534286756397523,0.012044169111324,1
0.0053192947973079,0.0122209334841103,1
0.00535286364638082,0.0126446689904598,1
0.00624453500292612,0.0165079606850865,1
0.00959601945316054,0.0228409233935049,1
0.0087597237885036,0.0196717224155812,1
0.00744003191388578,0.017529008632042,1
0.00774517742779851,0.0165074796059636,1
0.00787998677352307,0.0168800768871919,1
0.00915024121504995,0.0233078453314279,1
0.00870767197523121,0.0209752641278839,1
0.00857631345900869,0.0208178767251496,1
0.00853942719048496,0.021093577084907,1
0.00821775398879283,0.0206458137853223,1
0.00451380234187592,0.0116884118660447,1
0.00467780803139786,0.0221570789354348,1
0.00557463728909675,0.0259359198526373,1
0.00667798713158819,0.0303424364821432,1
0.00619533806714405,0.0319298228001163,1
0.00465043123523384,0.0363460795025504,1
0.00350909946028592,0.0327264653875164,1
0.0035179123549128,0.0289875376608177,1
0.00343254187388136,0.0265732319279102,1
0.00297832651217162,0.0177651876558615,1
0.00396690091454536,0.0225854067108611,1
0.00436929756300844,0.023304802762466,1
0.00534747263619026,0.0200721826888285,1
0.00762675833983854,0.0267527491607293,1
0.00695411528873208,0.027311815940938,1
0.00632487326239317,0.0270245984372422,1
0.00641496453353522,0.0229671864174148,1
0.00701121010220292,0.0255082002182215,1
0.00778097713018932,0.0289421591969018,1
0.00934573153153373,0.0454792869573208,1
0.0112732548375701,0.0554598081320943,1
0.0115715082462949,0.029644894326784,1
0.0112657661792256,0.0282601477609304,1
0.00770357059065107,0.0201086812161063,1
0.00654975719209504,0.0165034215967453,1
0.00606006809885406,0.010822097047788,1
0.00694008472919275,0.0132001479477103,1
0.00686284619316175,0.0115599245492938,1
0.00793166053118011,0.0110720151573181,1
0.00711456312386164,0.00866935786988351,1
0.00505428022217046,0.0047874878194274,1
0.0048761749600193,0.00800830993861209,1
0.00441129887259864,0.00742432915588994,1
0.00423450095799784,0.00524761390398495,1
0.00557957645462253,0.00830879171110039,1
0.00630870743322864,0.00645500559897826,1
0.0077956866006796,0.00943941560703062,1
0.00777322603974417,0.0108753123577848,1
0.00927253292752218,0.0150769044856012,1
0.00914954990960654,0.0116619255151395,1
0.00939092906716247,0.0125037998533532,1
0.00863961915675508,0.0121854465464699,1
0.00834362600954437,0.0140077937482771,1
0.00806629168001999,0.0160222427929107,1
0.00620073177501664,0.0122625699471088,1
0.00566566563101202,0.0204643785996623,1
0.00436886745322813,0.0184814031303855,1
0.004750284112881,0.0196422210027878,1
0.00302619891999151,0.0161859805954347,1
0.00280266510496902,0.0351495335452215,1
0.00288634382635036,0.0309856793674403,1
0.00297133428707803,0.0306291767045808,1
0.0021716618659991,0.01777149880007,1
0.00653028437304658,0.0244434576951559,1
0.0103274394559874,0.0341514003010137,1
0.0123206786932914,0.03937565344314,1
0.0207581812434864,0.0447423252220085,1
0.0242039247377473,0.0477310503253066,1
0.0263704917381448,0.0473963924166737,1
0.0217845528442483,0.0364868229749698,1
0.0186045773377249,0.016107373220558,1
0.0454589224053934,0.0248025444719321,1
0.0858476224137962,0.040491969403247,1
0.105759364491004,0.032637287824167,1
0.101924973444444,0.0311296849511557,1
0.0884479304924404,0.0274226439850513,1
0.105051626813554,0.0238789826486634,1
0.108894066549989,0.0217062235046191,1
0.110992568353307,0.0212495148071573,1
0.0831829559028043,0.0133603833164639,1
0.0457362406747459,0.00763337948070378,1
0.0473976324026109,0.00819342135179733,1
0.0485471099922873,0.00900001182860288,1
0.0476439838847008,0.0110491304524538,1
0.0453722366628047,0.0111871431465058,1
0.037152430244994,0.00948007950773081,1
0.030878197120166,0.0126818439420928,1
0.0303057939858214,0.0134802870074131,1
0.0219579229381369,0.0112343965890779,1
0.0273984503551714,0.0180114017508088,1
0.0409577745154428,0.0285581787003532,1
0.0456760580080193,0.0378797558353658,1
0.0615936388797112,0.0448946980378931,1
0.0888329665746277,0.0513050111996537,1
0.0874197220334445,0.0415784929141999,1
0.0845831517674286,0.040976209998342,1
0.0687439516153014,0.0353371338934046,1
0.0398212566888506,0.020576643481993,1
0.0321113169544176,0.0169361075467054,1
0.0397563721717521,0.0126473425821301,1
0.0589913516963081,0.017883346453161,1
0.0633354304510735,0.0185880044000262,1
0.0638886367160485,0.0198682909692292,1
0.0715864664522543,0.0210777453361351,1
0.0724200904079041,0.0217394101951096,1
0.0639426408125849,0.018476679681382,1
0.0585921937675924,0.0168945664657811,1
0.0322562111634623,0.0119914857957751,1
0.0167561986572104,0.00269439065707843,1
0.021148990600205,0.0119977911903352,1
0.0178704704455011,0.00742895181549247,1
0.0181686180425336,0.00666776003719495,1
0.0186039004358072,0.00621182171344876,1
0.0173644700835073,0.00319129479494482,1
0.0544439946093796,0.00897371888418204,1
0.0610385024476745,0.00565411222031919,1
0.0607310767170839,0.00569115264172634,1
0.0582252224204387,0.00552500414853222,1
0.0573539078957449,0.00609013587477146,1
0.0557639494363789,0.00598832732208064,1
0.050896090379987,0.00596544681621772,1
0.0483365724190523,0.00582965676266387,1
0.0440318487104899,0.00560033139290813,1
0.0345060330159848,0.00435784945909021,1
0.0145940769674894,0,1
0.0258564009016089,0.00819326342053061,1
0.0325553581795942,0.0023335669995533,1
0.0391361029934233,0.000613726576351145,1
0.0468126316784791,0.00216239680728611,1
0.0467200453403006,0.00186485992339727,1
0.0476210545645205,0.00161739778516159,1
0.0770447861360667,0.00411609338714635,1
0.094902017494568,0.00418184311018457,1
0.0968654089443453,0.00448860021918814,1
0.0949939026924783,0.00458941714304109,1
0.0916160515257185,0.00324397647636778,1
0.100985845257805,0.00676140748232596,1
0.0925365036530781,0.00675951946552121,1
0.0959674245470774,0.00575963424197706,1
0.109605550754762,0.00735693130619462,1
0.112989274116989,0.00795490102086205,1
0.0836129795325395,0.00661425219868685,1
0.0585464354804813,0.00460186021623078,1
0.05850554022882,0.00502127206619956,1
0.0502331813028789,0.00509437853323719,1
0.0487956958959108,0.0101603011144616,1
0.0386406252387139,0.00736816802634518,1
0.0357448650738238,0.00967351224082999,1
0.0408460449167364,0.0236551973039682,1
0.0308695665296542,0.0145462970163057,1
0.0309144919987391,0.00920753917294154,1
0.0400618416904132,0.00641901711035312,1
0.0388345221907486,0.00778437894038215,1
0.033830084314587,0.00600515401082967,1
0.0417830155038868,0.00823852550467453,1
0.0716112000528857,0.011588455067978,1
0.0852878212420636,0.00721465707775944,1
0.0774448718651193,0.00630118271311614,1
0.0778996709470249,0.00639180356638316,1
0.0748455507145667,0.0062235757263936,1
0.0818354410231796,0.00748914564067351,1
0.085893918864757,0.00861507308255075,1
0.0814124187004496,0.0049075859572233,1
0.0827407133592503,0.00280663665393648,1
0.0857710608100366,0.00213326371133428,1
0.0997935484116739,0.00423206817837774,1
0.0904154015111444,0.00585565165896509,1
0.0730521849960806,0.00407339036663673,1
0.0718569183546674,0.00347470031131611,1
0.068958640289433,0.00320884893712116,1
0.0713300567215548,0.00458169107282191,1
0.0731318133167478,0.0059418449711868,1
0.0600265564437574,0.00907774596660421,1
0.0531022242951729,0.0134209634569941,1
0.0797967272324985,0.0336525407261002,1
0.0548039207925128,0.0215372945571052,1
0.0662504259282507,0.0158612323725375,1
0.0757380613487777,0.0118431504446413,1
0.0649416295398099,0.00896585381289383,1
0.0914157834049805,0.0121824233070099,1
0.103279755836515,0.0129640508028706,1
0.109718659032607,0.0145367354372783,1
0.0799225985038939,0.0100648362301958,1
0.0619954849250131,0.00869112296767037,1
0.0686203671003759,0.00936605400422842,1
0.0533912982169071,0.00607659112724012,1
0.0404708979994879,0.00825969904982996,1
0.0346148278968637,0.0156941014441856,1
0.00686849197992657,0.00449044644904872,1
0.00632788734343626,0.00787579853635387,1
0.00586270292182139,0.00893705754270333,1
0.00785702003106738,0.0100242547529247,1
0.0205170330135348,0.0224352502947934,1
0.0261176925268702,0.0196753947238614,1
0.0238620991804857,0.0223454124083281,1
0.0191559072168793,0.0223677594009628,1
0.0261295306831231,0.0215058533678866,1
0.0288083700091906,0.0196602678132484,1
0.0254531637829131,0.0140989010025301,1
0.0286865916331667,0.00702338139062761,1
0.0311918548016617,0.00264614701007312,1
0.0352639959495108,0.003405244038083,1
0.0414215117878753,0.00360530857202958,1
0.0433628510390446,0.0029388462407944,1
0.047508113321474,0.0031086545729114,1
0.044519222703103,0.00234337736585021,1
0.0511068148096756,0.00437610785392879,1
0.0498760886624033,0.00383438607196599,1
0.0474263988275241,0.00384664671935464,1
0.0411094653460549,0.00638537942590633,1
0.0387623877822184,0.0102095893616,1
0.0523539467972884,0.0164206202702568,1
0.0509885525358658,0.0159473234246932,1
0.0577940629325892,0.0187715023922543,1
0.0580470495215466,0.0113199698646904,1
0.0649544577242597,0.0125362673961395,1
0.0528999762017509,0.00890373671393393,1
0.046051844091888,0.00651029194131811,1
0.0428473704824614,0.0057207079953201,1
0.0418821448027928,0.00492669578544009,1
0.0550039652304498,0.00747412368152077,1
0.0623167211313856,0.00799267117475121,1
0.0850715202144195,0.0123631997423939,1
0.082266602366397,0.0142195852700784,1
0.0799402624337141,0.0191211114036904,1
0.0619673191030994,0.0166512757657904,1
0.068808566136308,0.0160496616381206,1
0.140960087359204,0.0296558995505722,1
0.146899039193417,0.0230547897114457,1
0.115262125099184,0.0168491507914795,1
0.113781773019067,0.0191426180627991,1
0.110922289615406,0.020785332570084,1
0.117614053534713,0.0243436370190228,1
0.0996573060200759,0.0171297174309115,1
0.0915997979206303,0.0180183010907514,1
0.092274579071367,0.0172597423423067,1
0.0903568606274691,0.0215070031539345,1
0.0933388947779897,0.0125230777439809,1
0.152006994817023,0.0192610027884278,1
0.148312448172026,0.018461545086789,1
0.137148191578491,0.0166805246455072,1
0.136138692587253,0.0166833124747617,1
0.135673407514069,0.0174025923287774,1
0.127060979799768,0.0199062863442411,1
0.105818073926449,0.0156007964632793,1
0.0915489320549488,0.0108808541267856,1
0.0939935897631188,0.0116693867687885,1
0.0952344118575419,0.0234603139425443,1
0.0648617654041238,0.0205868029700169,1
0.124286650456451,0.0359066259930566,1
0.18059030880522,0.0478297632948902,1
0.202256811221715,0.0542578919297182,1
0.227117288597458,0.0588835090860457,1
0.233646177308727,0.0522243109860244,1
0.145678603644713,0.0458433160863669,1
0.118085304188313,0.05028363406494,1
0.0948022847394178,0.038156190544671,1
0.0573595266589733,0.0178730128738813,1
0.026056302783793,0.0105817620932294,1
0.0234217402592558,0.0101464113488811,1
0.0214408519343765,0.00975418097996276,1
0.0173610790346009,0.00738020944260513,1
0.0175563772325387,0.00848313239544664,1
0.0224914998663358,0.00986237581269488,1
0.0226177617668783,0.00757920110607302,1
0.0236370894758652,0.00791599588911139,1
0.018614701978338,0.00404070781011102,1
0.0184044997540595,0.00423731217474201,1
0.040207503709181,0.0125036603808996,1
0.043737333610596,0.00701436825946447,1
0.0447944900305301,0.0058289315354315,1
0.055346082625637,0.00866973447551471,1
0.0464264572053064,0.00381010827479571,1
0.0488506958430937,0.00216283921106144,1
0.0588673472109122,0.00338159299227923,1
0.0626533080111726,0.00330746558950863,1
0.0647998832800102,0.00236547564819578,1
0.0632060917661663,0.00226065256996392,1
0.0599299775074923,0.00203051240715504,1
0.061277891229539,0.00385587970187392,1
0.0639273561768896,0.0052246909728239,1
0.0644281682797958,0.00503488308831968,1
0.0655325654325937,0.00447546337898419,1
0.0724450327891095,0.00787449313823894,1
0.051257803160664,0.00516200484215712,1
0.0699077095078371,0.00893509379199744,1
0.0805552282423703,0.0127933053097356,1
0.0754229406111189,0.011435526642278,1
0.0759023788207177,0.0102263059726347,1
0.0878086013532901,0.0107712557100947,1
0.0785086909219842,0.00681431660138209,1
0.0687675785291138,0.00573445525101684,1
0.0608903699307911,0.00692985619179058,1
0.0597994985997085,0.00694218062696826,1
0.0591766662013529,0.00757448352846133,1
0.0464981477332147,0.00877084130601574,1
0.0373910125892504,0.0081577472460681,1
0.0404798872849564,0.0111512340090281,1
0.0418075548488845,0.0178968664238206,1
0.036081371791003,0.0151546076815124,1
0.0551389692581823,0.0312745354293275,1
0.0583302981394839,0.0295458777904534,1
0.0564860263831886,0.0225605255797946,1
0.0723616043789936,0.0220722731230328,1
0.100984096554678,0.0278144473193019,1
0.101104343384338,0.0203197809357556,1
0.0878568594335983,0.0171781011879409,1
0.0918635316630928,0.0163730818615654,1
0.100976358454891,0.0163905787937068,1
0.102197553837655,0.0125124520398506,1
0.116096896438804,0.00940586825998408,1
0.130968237793147,0.00856241628676304,1
0.133654792269971,0.00604806606952038,1
0.165873279076017,0.0118346825314518,1
0.162481052387897,0.0124715432597694,1
0.169636025851757,0.0144985474155346,1
0.172888556740849,0.0132222780385269,1
0.153457337325762,0.0104183986354391,1
0.130880533693854,0.00700321544349853,1
0.129469430626775,0.00722563791015341,1
0.137960997731606,0.00946699149930769,1
0.0963938741081087,0.00766697976823058,1
0.0901953538366596,0.0100584235504716,1
0.120293367746486,0.0107277393186229,1
0.139311711578347,0.00632114173578638,1
0.152243873953081,0.00693712388608963,1
0.174977845764658,0.0056684916444018,1
0.236101089471601,0.0103196293544409,1
0.214795973057942,0.00966039036751725,1
0.240682618286889,0.0113619138287794,1
0.215653594464322,0.00925588924989504,1
0.227481243071269,0.00801185655796843,1
0.241810123641844,0.00764919496119801,1
0.243460519628932,0.00839389818817348,1
0.225991274719183,0.0134555880871304,1
0.0916064178606249,0.00318729753168288,1
0.0694026751683221,0.00648698558710985,1
0.0689159457464673,0.0059780547920046,1
0.036203094973629,0.000720408286812317,1
0.0300778515105135,0.00256074552967199,1
0.0418950588074892,0.00631844886115921,1
0.0422838413373211,0.00615476500009626,1
0.0327020896044769,0.0032950495197567,1
0.0312796738882275,0.00682902074065212,1
0.0371631421339424,0.0138451658309272,1
0.0263653463495784,0.00751699763278925,1
0.0274121251986818,0.00762560707747731,1
0.0278081009057813,0.00677201895443131,1
0.0267795678131471,0.00816976692093651,1
0.0266205597996354,0.00915982277177454,1
0.0272249760550148,0.00549725045930342,1
0.0268273813101935,0.00516091193574492,1
0.0264133513222897,0.00402185664967246,1
0.0458273472029608,0.00682558842530713,1
0.0478918343424856,0.00392009892877445,1
0.054552147855743,0.00228684578610546,1
0.0731787344451963,0.00557727075740555,1
0.101971886111808,0.0095081726520879,1
0.107621133065725,0.0090173777234418,1
0.10436858784496,0.00917473930193626,1
0.100499527726654,0.00807537866729499,1
0.0985883621048679,0.00893919275503581,1
0.0861097683901637,0.00796102269077185,1
0.0995152420920927,0.0115007761161386,1
0.0901969629195647,0.0158112819336566,1
0.0857377827938983,0.0243087590159018,1
0.0866321226073401,0.0203168127592033,1
0.085307193667312,0.0157304817339528,1
0.0843933819385547,0.0134941238606619,1
0.0765335621498822,0.00883748180032554,1
0.0978236289591235,0.0136713072820833,1
0.0966452002142598,0.0130250975347114,1
0.118068237807629,0.0169835438516922,1
0.116306157484842,0.0173264492209953,1
0.0970821898840722,0.0114228212862287,1
0.0768863682450029,0.00865375065999006,1
0.0846697378786158,0.00804682074964514,1
0.0883539569139668,0.00928689954093756,1
0.0525055866223598,0.00583475486459241,1
0.0584790146601803,0.00786610849859924,1
0.0632190391783914,0.00681423757167971,1
0.0524447191209747,0.00460609958397224,1
0.0519535490854361,0.00441816983246256,1
0.0564413070752513,0.00389078671626256,1
0.0625128787751027,0.00471403996087559,1
0.0605504291749038,0.00523262941839506,1
0.0589744908979178,0.0063997433222333,1
0.0789774887065458,0.009929331105052,1
0.0889308054154268,0.00903577705286609,1
0.0798089600110655,0.00791591110968963,1
0.076884302915203,0.0104309147113825,1
0.0766494151935016,0.0119613664252499,1
0.0767758446206668,0.0126845747917721,1
0.100020651489087,0.0146272795445267,1
0.107080303777251,0.00952421661121415,1
0.125494319590415,0.00480754614338635,1
0.188902079831584,0.00821961296286991,1
0.136955177512854,0.00505118752671449,1
0.108914621107515,0.00368685320738701,1
0.107354784418058,0.00405310269733192,1
0.115378527891082,0.00431370639203745,1
0.132826520934476,0.00517731058791952,1
0.249181511399948,0.0107814482393786,1
0.280670106344703,0.010994399922116,1
0.279858035600196,0.0128419565941857,1
0.339985186865733,0.0283309404328619,1
0.266116798087526,0.0242600240711712,1
0.268931957167199,0.0226301919690458,1
0.265482832184962,0.022531481603203,1
0.194024134879608,0.0148069735420919,1
0.134056181304793,0.00996291156443591,1
0.0804422905089664,0.00511006699032832,1
0.0791051901533888,0.00777931146474247,1
0.061898654104546,0.0170044027548195,1
0.00944022389541291,0.00134975003486057,1
0.00716146892181187,0.0114241359514755,1
0.0106285147804932,0.0207949884186585,1
0.028113216328066,0.032346103258498,1
0.035380080608435,0.0258325914433128,1
0.0350161064388897,0.0229948061257584,1
0.0410862064678283,0.0194018760452081,1
0.0401140722196654,0.0204823730944141,1
0.033447805937847,0.0173128052221236,1
0.0265812658859518,0.0129534680412462,1
0.0303920258505239,0.0102101710354239,1
0.0304660874132773,0.00522812021684735,1
0.0304706981239228,0.00457110313435618,1
0.0292919861354894,0.00494796992874039,1
0.0296191422943163,0.00601446671440822,1
0.0288494618956912,0.00672956509647876,1
0.0273524450489818,0.00759821295654606,1
0.0728062419813704,0.00914319066271457,1
0.122451837169821,0.00769545482529776,1
0.111657623844578,0.00591702367514564,1
0.149682694232351,0.00625224719193152,1
0.17335464037273,0.00499600390167218,1
0.168864899888505,0.00385686734401915,1
0.197513482479361,0.00451902562775324,1
0.174332488250946,0.00202293450487609,1
0.164806156122259,0.00160107109962359,1
0.151382219114634,0.000903654744221897,1
0.159525964233452,0.00303494894906461,1
0.14286640419137,0.00366702862432755,1
0.138537246758132,0.00289661015147022,1
0.128432546253079,0.00416648048229628,1
0.108895025251543,0.00488853527500234,1
0.0988833815719392,0.00647027148501038,1
0.0582695220955902,0.00331219898399596,1
0.064528291894354,0.00988858782916994,1
0.0679985464636788,0.0114393915096478,1
0.0717450413407759,0.0131066126300691,1
0.0867976587768161,0.0129659078104085,1
0.0811308019498748,0.00891851278902228,1
0.0730084635741453,0.0105193933361829,1
0.0691728017422114,0.0102867487110226,1
0.0585801139850165,0.0124945064134845,1
0.0473756063828538,0.00969487918730739,1
0.0451515468318637,0.0117005968268041,1
0.0512615281409159,0.0110141313691033,1
0.0623824427525427,0.0143562000309891,1
0.0633481962447495,0.0142284640731634,1
0.054579312479548,0.0172266073940951,1
0.0569222078416005,0.0289154744174764,1
0.0854115543037968,0.0269535701275706,1
0.109434481943469,0.0242173874364283,1
0.104405467386116,0.0214357702523631,1
0.0921620029876593,0.019368377100908,1
0.0681228510299175,0.0121350503538694,1
0.0726436245871705,0.00918578261380242,1
0.109031994584262,0.0131981513170526,1
0.111607505450478,0.0119368991155059,1
0.11331206191927,0.0115772737967623,1
0.120696467298575,0.0108437271659395,1
0.111343798704281,0.00876015797087141,1
0.129949392423824,0.0107175840053325,1
0.320109301255828,0.0196633951489441,1
0.3259403140623,0.0134356207626112,1
0.332168020897026,0.0139072852327539,1
0.347787818684823,0.012711870704444,1
0.317517600893125,0.0113670597562005,1
0.334023285498881,0.0123676530135894,1
0.440136680540964,0.0161554808518947,1
0.463570150763677,0.0166511719871348,1
0.506706643742512,0.0205603199695596,1
0.513830285092588,0.0221498349411335,1
0.274032136085186,0.0159258938941776,1
0.200456553299866,0.015853685703255,1
0.0989209212465093,0.00577423369357371,1
0.0905503839389239,0.0105502115675139,1
0.0791749715460057,0.0103559707056084,1
0.0590068626916183,0.00906686221368815,1
0.0603352688799829,0.0105032494262151,1
0.0455246524902432,0.00879535818320599,1
0.0356260963796957,0.0079781209733863,1
0.0348787855957844,0.0074621152600131,1
0.037037303497243,0.0070190902220088,1
0.015949627356622,0.000709271329912976,1
0.012712199815721,0.0123189019098973,1
0.0101139911718285,0.00962766570045708,1
0.012989185952657,0.0118110906330407,1
0.0131381353637492,0.0118808888570826,1
0.0179182786688353,0.0150365477069319,1
0.0177873185518238,0.0156047769711803,1
0.018437456295712,0.0136155741650136,1
0.0194979168762364,0.0100334233281687,1
0.0202448356845311,0.0129731393417263,1
0.0107340300673312,0.00708548302359807,1
0.0234441983767212,0.0139977395815254,1
0.0421600172790929,0.0196234872997027,1
0.0462718886221599,0.0217890368624638,1
0.0464950737055793,0.0184292701198619,1
0.047005176534072,0.0187103544316408,1
0.0437139877299899,0.0147624514424039,1
0.0452140352801686,0.0140419820456148,1
0.0403144771853987,0.00814282115167286,1
0.0442576580122355,0.00366893709673005,1
0.060370328715334,0.00658947836734898,1
0.0622515196539606,0.00795775334156816,1
0.0598197565461948,0.00743963663189626,1
0.0651963589444686,0.0078624752526948,1
0.0598589833571723,0.00676489866346108,1
0.0563055750124802,0.00679785887424446,1
0.0558521190326086,0.00740322807481282,1
0.0575320747056442,0.00635337359833409,1
0.0383146915777969,0.00669374052563612,1
0.0290112794492253,0.010376330857657,1
0.0324628909259596,0.0132653076964565,1
0.0408099515912451,0.018596247734649,1
0.037794419530302,0.0178061802375556,1
0.0294074843217567,0.0130436343293463,1
0.0290297808554108,0.0135368390755948,1
0.0361846013835123,0.0139113419168713,1
0.0398372354711398,0.0149000792605681,1
0.0390014832300536,0.0230906653189038,1
0.021952966765073,0.0152652501027626,1
0.0154171173493318,0.0119167877269119,1
0.0219063059259462,0.0122279833694026,1
0.0399880013629594,0.0197737630308586,1
0.0592724601804453,0.0203058355401573,1
0.0493632345933199,0.0163302534751854,1
0.0461249645499134,0.0152454712410122,1
0.045364591492661,0.0162740431729641,1
0.0443329505007835,0.0168792028328903,1
0.0474630219802782,0.0101857772511959,1
0.07705169496233,0.0161995341569109,1
0.0675085909603469,0.0106632466129462,1
0.0766467756404088,0.0123985084726614,1
0.0775330501728509,0.0115647183914471,1
0.0810454338959508,0.0141371111939749,1
0.0764399087511208,0.0128624184603917,1
0.0826442794449734,0.0121851737435883,1
0.0925709835662357,0.013755892326953,1
0.0902726038639243,0.00860973873356335,1
0.0873998199270103,0.0116110031386118,1
0.0838865434143924,0.010203786830706,1
0.0851632207076666,0.0120374635587005,1
0.0588428373879371,0.00875219887593909,1
0.0611297538242926,0.00847661275745351,1
0.0741878629746903,0.0118408743246618,1
0.0739764877083457,0.0101229555286045,1
0.0743921244151258,0.0120503982963077,1
0.165742424301876,0.00825117003917805,1
0.278999336327566,0.0113644555744525,1
0.257800072143506,0.0112596376338243,1
0.253796664387185,0.00794253595901478,1
0.348246222120329,0.0116640690718898,1
0.431956256896244,0.0139542249024188,1
0.584183080685798,0.0196728148927878,1
0.676864424906828,0.0221642288125144,1
0.769566968589796,0.0250371797416501,1
0.873752616522812,0.0265685984842306,1
0.681500916840107,0.0445396947696643,1
0.309612457398122,0.0384637667356484,1
0.168506259626318,0.0205112563202684,1
0.0441642437892128,0.0169689352935698,1
0.0330536466595417,0.0178167348464204,1
0.0108665823353566,0.0103875679852203,1
0.0131837216428034,0.0150295292193227,1
0.0149253561441437,0.0175053345136022,1
0.013887751699215,0.0227622267535407,1
0.0187229348022898,0.0174129155866656,1
0.0251213073634877,0.0206206322040637,1
0.0397427972499001,0.0264134457847817,1
0.0355255155829704,0.0157038276990083,1
0.0341602450070435,0.0125364926010657,1
0.0418184300341506,0.0127606630397134,1
0.035958187517851,0.00869835154899613,1
0.0433427553556658,0.00660163029630172,1
0.0473511705780035,0.00467823241227603,1
0.0378489709520409,0.00110401939837666,1
0.0647226399485743,0.00497767771479345,1
0.0652857500044492,0.00180898898085442,1
0.0709681408248194,6.40087680621719e-05,1
0.115502922440999,0.00402602139478248,1
0.11790113374209,0.0015177389881155,1
0.132595639708334,0.00201665495512751,1
0.122568874702158,0.0015601101705918,1
0.127756062937314,0.00253266239736453,1
0.136386509464398,0.00278599198916917,1
0.134189502220588,0.00256056415754088,1
0.12154419635051,0.00208367928535799,1
0.120399572767254,0.00211784005102619,1
0.128086723637165,0.00446442444938302,1
0.0865361353889876,0.00147780689684459,1
0.0862905031732841,0.00516368596934211,1
0.0746326737845679,0.00490276603439699,1
0.0814384623107427,0.00577777716818146,1
0.0806270290641164,0.00501658681244578,1
0.0693201231904185,0.00575921931063554,1
0.0687137720147831,0.00510241917298418,1
0.0712290065784309,0.00442161998223445,1
0.0703314503397718,0.00899325342333805,1
0.0440444149466006,0.00235503086138283,1
0.0512701588575852,0.00411218209385538,1
0.0574162594886204,0.00364174716968591,1
0.0630964044811187,0.00358407360862047,1
0.0578246408535888,0.00325884925671761,1
0.0556629537693105,0.00449764492522835,1
0.0513098587143143,0.00436214273836322,1
0.0619536324114626,0.00678981009275653,1
0.0820085799855252,0.0108904829042253,1
0.0840118967073629,0.0113974918171129,1
0.0726480133807447,0.0150260795384858,1
0.0395820424189832,0.00916566349081162,1
0.051465541086326,0.0129114534559537,1
0.0722476136525079,0.0225205506382092,1
0.0801788558248076,0.0175460536986433,1
0.0718086713064938,0.0158805253054847,1
0.058809355340862,0.0144412892167065,1
0.0604497365412836,0.0213584150747145,1
0.062808968999027,0.0192304240558545,1
0.0642218414163651,0.0195416367293373,1
0.0652737159503818,0.0121821304681298,1
0.105495229272464,0.0159225209808981,1
0.110022857669141,0.0111939432238285,1
0.104575411689668,0.00933442862054068,1
0.0968543219632953,0.00860853200126174,1
0.0953312193917676,0.00802301622548978,1
0.0963341701886429,0.0064992996363051,1
0.129326378028922,0.00915498318139133,1
0.135049435176216,0.009604799356195,1
0.115746987035956,0.00835844237970708,1
0.103012207021987,0.0107582080300537,1
0.178047702234647,0.0154260418639322,1
0.27084488356884,0.033208432225441,1
0.23803372385755,0.0239080932784309,1
0.231960065170321,0.0218028381449242,1
0.229343044407792,0.02122751284075,1
0.212619687026086,0.0228931858866396,1
0.252975732328027,0.0319753751511505,1
0.265266237182779,0.0227874480667019,1
0.309281246956395,0.0129942766228603,1
0.457862656302088,0.0176394871582908,1
0.411277503476081,0.0196930779316603,1
0.315650873733409,0.0143103297240769,1
0.313590349044616,0.0150068440673895,1
0.333025128799775,0.0162575243565827,1
0.362459082191092,0.0174109576074454,1
0.336229231726445,0.0162320933976812,1
0.3108588660816,0.0134926275092697,1
0.15516117168678,0.0071286562371717,1
0.0466414698628439,0.0143392036116165,1
0.0431808783393009,0.0195748652174114,1
0.00790308400662394,0.0070717863565682,1
0.00832568485068585,0.0186940156056229,1
0.0117937565710147,0.0141953840761539,1
0.00932990963145326,0.0084188903393001,1
0.0137048037999886,0.0110294956301144,1
0.0156900243197643,0.0103734084549225,1
0.018531029977448,0.0106751850235604,1
0.0218706410412578,0.00816491704011582,1
0.0202025306149018,0.00561148247829165,1
0.0394996565368116,0.00614198306999218,1
0.0534928093013099,0.00472887736960734,1
0.051030101065756,0.00560069918951823,1
0.0535752125775547,0.00758305918274793,1
0.0470882195225916,0.00642785623500752,1
0.0468958848794121,0.00644978379477669,1
0.0448833059539994,0.00633953246053388,1
0.05106354862751,0.00655261641094667,1
0.0556260283322271,0.00423289966175278,1
0.0482606239066913,0.00332451614158394,1
0.0433263586773895,0.00520715823779935,1
0.0378146993672353,0.00760925196444415,1
0.0399105012878895,0.00489784855567676,1
0.0561392645224199,0.00857709541227535,1
0.0600745437224159,0.00467812511319146,1
0.0647716803834655,0.00375535495148061,1
0.0677719007088184,0.00447818900976259,1
0.0568408932588537,0.00395881932676643,1
0.0445463852716328,0.00564841325900022,1
0.0420212938346035,0.00530383182359193,1
0.0505399458730101,0.00353409444907805,1
0.0616947479250716,0.0037053484932099,1
0.0590018233132287,0.00490588103552847,1
0.0453584326782015,0.00219312624738595,1
0.0425201487502316,0.00468392672403928,1
0.0395333321959278,0.00688858288844814,1
0.0470622987644912,0.00710635835053009,1
0.0498384140975665,0.00455259445750373,1
0.0563020395692899,0.00385282038410375,1
0.051010476462966,0.00412541899803759,1
0.0496245807574782,0.00857658762026004,1
0.0428908950333679,0.00950443690006529,1
0.0362911398658552,0.00801056547438272,1
0.0372195246215822,0.00858417002521015,1
0.0376458995097506,0.0086382192443072,1
0.0426124284276989,0.0117127341531418,1
0.0368910219895673,0.0086243856492841,1
0.0338956741225803,0.00702363022360401,1
0.0378675546697789,0.00848363977583243,1
0.0378370953011855,0.00776230434808949,1
0.0363220386516588,0.00782263776390269,1
0.0401762794770672,0.00733331611086353,1
0.0444790842726636,0.00882735645563822,1
0.0449443840192364,0.00861300475266352,1
0.134693675349542,0.0122847551670302,1
0.310308635748802,0.0198814849461382,1
0.295540938955723,0.0224538110842174,1
0.259068329691129,0.0226926859845133,1
0.294794767325671,0.021858631974163,1
0.305024486618474,0.0178623157886032,1
0.246407170307629,0.0132161152879586,1
0.20945951037255,0.0117537496037299,1
0.196630310017547,0.0100638281553503,1
0.185851852897093,0.00784727648481402,1
0.200106011278253,0.0100748891077007,1
0.127667941954139,0.00618022350446447,1
0.147284270752262,0.0067086013560481,1
0.150940442184927,0.00639902378097115,1
0.138129446627679,0.00774821768918832,1
0.0728079348254526,0.00214965298958112,1
0.0749792648469207,0.00292314231486662,1
0.0760296572361129,0.00250385523747834,1
0.103228477320576,0.00553443497295855,1
0.109397731053242,0.00762082782776156,1
0.0967044087758956,0.0100330798920049,1
0.117647422038922,0.0106780267003382,1
0.194690166394654,0.0174381996149446,1
0.279441537348254,0.0241799877681545,1
0.333818096008876,0.0307565796202428,1
0.40234886093858,0.0435704994864539,1
0.428984730660885,0.0435480016845748,1
0.440554820760451,0.0544002256188186,1
0.312592069649829,0.056616356926947,1
0.164179169494682,0.0386224707019253,1
0.0380216474238849,0.0139245850523973,1
0.00861411458772232,0.011641179177332,1
0.0109052317944795,0.0238884707637145,1
0.0110998143665737,0.0237648178608612,1
0.012961721459062,0.0122927398202824,1
0.0300449614225203,0.0257153424509905,1
0.0425525614293709,0.0345798471850386,1
0.049882510574847,0.0333715652932037,1
0.045496119352932,0.0274445233270161,1
0.0408075263772413,0.0249176305788169,1
0.0337427051159503,0.0210824715067522,1
0.0303337635369024,0.0224034226822905,1
0.0312203385156171,0.024059618448855,1
0.0201334928097829,0.0175492404333303,1
0.0137804064866356,0.0258868993358577,1
0.0131549529508509,0.0256829047197468,1
0.00972085362754654,0.0219235124845062,1
0.00608202231725253,0.0178683976747004,1
0.00682052522532585,0.0197434075271159,1
0.00807429696344275,0.0131230066514433,1
0.00917148136251874,0.00898436048087974,1
0.0200401555954325,0.0143605282328015,1
0.0276635934975276,0.0158020265146695,1
0.0311771010850126,0.0121965053778919,1
0.0400289085059063,0.0111956426893712,1
0.0392029768980591,0.00861206950155652,1
0.0490990581881765,0.00906175784200117,1
0.0523424492167508,0.00706510674935174,1
0.0532297861300943,0.00753624091447632,1
0.0513177856985598,0.00798791079039491,1
0.0510463737113666,0.00886206580209086,1
0.0396720026215748,0.00739776226459776,1
0.0290849948832024,0.0046981869857822,1
0.0326799305827831,0.00946943907494335,1
0.0270370531160242,0.0101886108216321,1
0.0333233726068536,0.0171440732565583,1
0.0250746287586924,0.0144732861843248,1
0.0201479578633101,0.0181318153645491,1
0.0213735984007146,0.0200762351410851,1
0.0283744312209208,0.0219061989036912,1
0.0302931516708566,0.0132613821574566,1
0.0464868487099944,0.0190520307656067,1
0.0646496934872451,0.0254439239760353,1
0.0721491613802542,0.0227307645256495,1
0.0724853516158886,0.0233380480839654,1
0.0882746345940558,0.0137553536126335,1
0.122344697914213,0.0201928461252958,1
0.111846684360933,0.0166162398809216,1
0.105012303730946,0.0159933992835998,1
0.0691577082442592,0.0110820978274246,1
0.0597231131887802,0.0114751125868201,1
0.0992620587876688,0.018978980753522,1
0.121258729939394,0.0228841710183232,1
0.125647505685275,0.0174687011991701,1
0.135729154878529,0.0174487035292758,1
0.131427227126723,0.0217530161321075,1
0.121709960190974,0.0187064582815598,1
0.125086281592514,0.0178109787179878,1
0.116326994408527,0.0149848066888554,1
0.117631718587382,0.0146127778578728,1
0.187567621419925,0.0167703848550601,1
0.190136548567791,0.0156441638670877,1
0.184795134551456,0.0143786992798453,1
0.181779869759281,0.0163659322739578,1
0.181126491122038,0.0153489754732912,1
0.189164608760467,0.0109382078816689,1
0.152638800368111,0.00870493064865483,1
0.144328773938592,0.008826596931884,1
0.139825840448974,0.00841536316237533,1
0.152575269058921,0.00582068908244479,1
0.141979940470222,0.00721595317101835,1
0.167165746648677,0.010242996614381,1
0.167946123107288,0.00562660318617673,1
0.180534657218669,0.00680922267925253,1
0.156899505487848,0.00669582822641388,1
0.155114322667969,0.00890396418553066,1
0.151497246672061,0.00836427289531201,1
0.174554219263836,0.00932488588708458,1
0.182653013204725,0.00911007250373609,1
0.176065807456681,0.01159490940722,1
0.166372028853424,0.00966899844035447,1
0.186017078651014,0.0109803551485636,1
0.16994416473745,0.0160350165588804,1
0.189226392867615,0.0168878545541329,1
0.227236867026835,0.0197647247260625,1
0.244378624333516,0.0177811593043449,1
0.200495498576328,0.0152436359098064,1
0.203007047736398,0.0151414825020675,1
0.155412450703013,0.0146716272102174,1
0.0770489030898009,0.00590108310632852,1
0.0577547085807262,0.00526578040098386,1
0.0628878074309994,0.00673290726859735,1
0.0539202164339326,0.00716806773881496,1
0.0442303984969436,0.00807331102105436,1
0.0445588300409111,0.00844717806365478,1
0.0401759548465116,0.013822940115918,1
0.0107132797241573,0.00399215955438817,1
0.00939965623758378,0.0122672819821128,1
0.00939860367680461,0.0152121481903977,1
0.00956793814486295,0.019516741085744,1
0.0157367326903599,0.0233932533335259,1
0.0312410197852309,0.0380645989156452,1
0.0345784372584044,0.0217799689134196,1
0.0331091331233381,0.0219072789134358,1
0.0318292109641735,0.0205035560886119,1
0.0302466715344518,0.0202232527500406,1
0.0339304863661646,0.0179381645495287,1
0.0389151524498693,0.0217682282617667,1
0.0384582766557762,0.022253897082785,1
0.0433267570799205,0.0218686479713331,1
0.0444661531309517,0.0141496179749971,1
0.0688757034151938,0.00402798695956017,1
0.1140064539131,0.0110216842124715,1
0.101310326412829,0.009106611672984,1
0.109175206655532,0.00756979143255111,1
0.113944946195048,0.00622521575980175,1
0.111291397724257,0.00567793974000502,1
0.133199972334148,0.00713027865105046,1
0.137744465827342,0.00717836173219782,1
0.133088326363822,0.0061374243857693,1
0.13211889056672,0.00741738061614977,1
0.115732581214761,0.0156755943671547,1
0.0685642895020264,0.00778868365597914,1
0.0637815434054564,0.00592682252433239,1
0.0631930883507169,0.0050644000044654,1
0.069740763465377,0.00859997634306338,1
0.0687263816246218,0.00853281570479258,1
0.0678463628107163,0.00868167136105547,1
0.0624754336313325,0.00781786378296766,1
0.0637943225967187,0.00923070632757492,1
0.0574339976606607,0.00742780392500003,1
0.0548070877526379,0.00906149112178379,1
0.0519512110281887,0.00871431434909114,1
0.0461760436894601,0.00881552344290731,1
0.0434332481678604,0.0165080392768788,1
0.0331659336435564,0.0161063807190983,1
0.0897189767947018,0.0117390475183551,1
0.111917488861551,0.00489474229166531,1
0.114269995704199,0.00508864056314932,1
0.115697970062551,0.00449860622322539,1
0.131835678418949,0.00581070226235831,1
0.135523469773399,0.00486485164823034,1
0.137660386244071,0.00410495038206968,1
0.147633738556941,0.00462184984769094,1
0.142788084099695,0.00409223803256385,1
0.151101794123429,0.00419797906028311,1
0.0964780590119588,0.00425108370171313,1
0.0537394613174133,0.00608110037509743,1
0.0468035075859793,0.0054360821345818,1
0.0403376025855155,0.0063541990959672,1
0.037075300700676,0.00563584750696495,1
0.0280970836488984,0.00776731438184216,1
0.017945619401999,0.0096232294320143,1
0.017428408123279,0.0173112372698124,1
0.00675221262879766,0.0164933453117927,1
0.0117980524458532,0.0271620638047935,1
0.0190171539254884,0.013130462987107,1
0.0220349140699773,0.00502012284059993,1
0.0299476164166508,0.00843816999184781,1
0.028734805760893,0.00615122979619187,1
0.0278395217113157,0.00594058413751667,1
0.0288294467721263,0.00400508233639352,1
0.0424511538832183,0.00799495052155083,1
0.0482099363083245,0.00923380887220464,1
0.0550605341429519,0.0104255568402508,1
0.0639618772109641,0.0119605719281673,1
0.0452787700472211,0.0135865248187087,1
0.0359952320401898,0.0288052909028291,1
0.0366807837281365,0.0288628324144788,1
0.028695153377771,0.0419879351169723,1
0.00895017982625073,0.0157492484324404,1
0.00146700880795427,0.0322691097272519,1
0.00161293216846216,0.032499956585649,1
0.00131301026308901,0.0373073062314216,1
0.00109927582923408,0.0420150350837183,1
0.0018392581844499,0.0445402342952687,1
0.0020890451190646,0.0261086096749266,1
0.00245199920506708,0.0303159546089661,1
0.00243827254713825,0.0320568616766189,1
0.00262471932097644,0.0356863204400237,1
0.0027153388720558,0.0368808450051502,1
0.00250889431702976,0.038274573013072,1
0.00252513987744804,0.0477113949642831,1
0.00258631328165128,0.0475247108853361,1
0.00267640945253893,0.0608481713382014,1
0.00112276346525229,0.0578665713117977,1
0.000244126055675404,0.136919849596476,1
0.000259408050364682,0.161076355278553,1
0.000277415903340474,0.17198576409306,1
0.000292391326245236,0.181672578575726,1
0.000251381410529718,0.266864835455918,1
2.74935060079096e-05,0.23109702922034,1
9.96234738916082e-06,0.563497489606775,0
6.86601739805725e-06,0.460890109065141,0
3.41115441556823e-06,0.327119236996322,0
2.36113694157269e-06,0.317022548654129,0
2.1399998171196e-06,0.317560916970326,0
9.19484855400651e-07,0.205905606574433,0
2.54089822572704e-07,0.129562166372753,0
2.80554424689499e-07,0.136445857979571,0
2.84543086047962e-07,0.135520944702085,0
2.817382176444e-07,0.137064899857375,0
2.83679903685012e-07,0.137322289771853,0
3.61312960297787e-07,0.150608200941228,0
3.83575476845499e-07,0.152154818736555,0
3.20003518642361e-07,0.137823568297685,0
3.28900225431032e-07,0.145110735059954,0
2.58108600458666e-07,0.131325415691274,0
2.3021381899271e-07,0.117156989409005,0
2.74442666711397e-07,0.130717898396212,0
2.94564538426597e-07,0.132635130725762,0
4.89542020246058e-07,0.166976390380692,0
6.26725411519869e-07,0.198225678322364,0
5.35798397965629e-07,0.193512765069959,0
5.35863610918874e-07,0.182399805504012,0
1.39941709485656e-06,0.264933755545248,0
1.50713537675028e-06,0.245813681626284,0
1.50974389488007e-06,0.242843317220599,0
1.53503822090864e-06,0.254778049033397,0
1.42519968805142e-06,0.244981457189524,0
1.42261583227485e-06,0.246815774910664,0
1.3202670663823e-06,0.237764814251453,0
1.19183217063979e-06,0.22971053420369,0
1.17068799695572e-06,0.231861806331267,0
1.20669858973749e-06,0.248204182129172,0
2.87174132288874e-07,0.140517332433692,0
7.02023370130458e-08,0.0991205684638924,0
2.05782912465105e-07,0.140350498620293,0
3.32391608378752e-07,0.163521450475151,0
3.31471750030983e-07,0.16594160159238,0
3.85984087631344e-07,0.178777710492339,0
4.18423381955421e-07,0.188284139042089,0
4.59662630759355e-07,0.185213057901655,0
6.88269365446102e-07,0.216514768010878,0
6.52880074255242e-07,0.205024070845257,0
6.95666174310143e-07,0.188947647372222,0
1.21009748886061e-06,0.222039808887481,0
1.1967824266361e-06,0.216805885399421,0
1.1954297914168e-06,0.217022736330273,0
9.96572731724301e-07,0.193647941850627,0
9.93665182561629e-07,0.194089791486243,0
9.28554672937936e-07,0.184868506475983,0
8.64442040067895e-07,0.174625742038492,0
9.09547587016203e-07,0.179237661622529,0
9.09877683128628e-07,0.179093359461011,0
8.35958919194664e-07,0.183135078804918,0
5.74196496250197e-07,0.160283823789269,0
5.70506628786601e-07,0.165007053241111,0
5.57112362466145e-07,0.163956033733008,0
6.0467157642254e-07,0.166520995253933,0
6.53510861366629e-07,0.17310802409825,0
6.57621648801168e-07,0.170466085689494,0
8.26275388482843e-07,0.187813384111446,0
1.03668320359207e-06,0.211085120085639,0
1.11205989202257e-06,0.194053162601984,0
3.42462504032848e-06,0.315747107948658,0
5.08160697818265e-06,0.355658692407331,0
4.99753562454952e-06,0.347051397290611,0
5.02939298219264e-06,0.346897589305163,0
5.02904272934921e-06,0.348446909556873,0
4.8293025677008e-06,0.336769067016222,0
4.89670833614067e-06,0.345095541819401,0
4.6080006323295e-06,0.341188626990102,0
4.29269244632076e-06,0.33245144442838,0
3.95885785314021e-06,0.344299597120691,0
2.15198026661371e-06,0.300478237383664,0
2.96044279620224e-07,0.124883203314317,0
4.26445523756577e-07,0.149623154625602,0
4.39813230619712e-07,0.146716551199719,0
4.10159833658252e-07,0.13924026763207,0
3.64662534714451e-07,0.138398896748651,0
4.35579131419036e-07,0.143141393829461,0
5.02787601033116e-07,0.143798396062634,0
5.41025631159721e-07,0.147158019537091,0
5.64784962837909e-07,0.153115059142659,0
4.06022012490368e-07,0.130063809617357,0
3.28813670056726e-07,0.120172843874754,0
2.68766531260971e-07,0.111634113677063,0
7.23009372760653e-07,0.172451803084383,0
8.24821021056479e-07,0.176749847695198,0
8.73658408896472e-07,0.177608310493528,0
8.06864930803041e-07,0.180070249346335,0
7.61966168201021e-07,0.185291062759163,0
7.33041022073796e-07,0.18156802299101,0
6.95611158291404e-07,0.178556822096507,0
7.43284672769488e-07,0.184688387269237,0
7.52901804838009e-07,0.184071560768378,0
7.445671151373e-07,0.188496240641451,0
1.94394359448446e-07,0.107803074623332,0
2.101460147442e-07,0.128973525671638,0
1.69804333314925e-07,0.123214226079682,0
1.94111690938382e-07,0.124579748681594,0
2.03168465885019e-07,0.12682746478759,0
2.6418123066482e-07,0.140510086620686,0
3.49578660059926e-07,0.150188096676497,0
6.12307420402476e-07,0.181044214335472,0
6.34020962452873e-07,0.169665370496603,0
6.39347082197882e-07,0.172883220795286,0
6.28470747286712e-07,0.174932835682436,0
6.005226097681e-07,0.167585464549529,0
6.42804554409916e-07,0.165400301814691,0
7.04936610605409e-07,0.165993066236467,0
7.4824180576814e-07,0.164270078841988,0
6.76704618886678e-07,0.154916413501705,0
5.68040393463888e-07,0.15014588522125,0
3.09586520060044e-07,0.121208693928932,0
2.49837226607108e-07,0.119989232281987,0
2.98171881862087e-07,0.120696440339333,0
5.00241924476451e-07,0.151093666483023,0
5.3876807728739e-07,0.163835059262048,0
4.37969482577973e-07,0.152826201928949,0
4.24427716414177e-07,0.159594069557732,0
2.82296677662188e-07,0.144835951299897,0
2.55225002235187e-07,0.140382658172644,0
2.96606533846201e-07,0.141936690605731,0
3.26011647309306e-07,0.135902040730747,0
3.314620273725e-07,0.131513612757176,0
3.6407324675513e-07,0.148774206996946,0
2.87289144224597e-07,0.13534178704823,0
2.72560739449758e-07,0.1329703069889,0
5.15907972949945e-07,0.168136617702856,0
8.83918896391001e-07,0.20742752172075,0
8.80538968308828e-07,0.204900667283952,0
8.77721768728651e-07,0.206629225014914,0
1.09309833659911e-06,0.219099968835796,0
1.08072708366155e-06,0.213835886946514,0
9.66972216539471e-07,0.204894338430701,0
9.89695729382121e-07,0.207373297331217,0
9.89618659528286e-07,0.201911457043076,0
1.05475786285141e-06,0.200215274674233,0
9.81003198421608e-07,0.200104030483888,0
6.45449828931537e-07,0.164965072703695,0
6.36761092179212e-07,0.16385217289342,0
6.39632596364091e-07,0.164968415302757,0
3.85612966642879e-07,0.133734398327586,0
3.62174245556642e-07,0.137898949927732,0
2.91127697221591e-07,0.123694634746086,0
2.96324102474148e-07,0.12620000630299,0
3.07315923597066e-07,0.130519038456452,0
2.59451987295509e-07,0.130017482005519,0
1.69448626297226e-07,0.112092627480801,0
1.50041962825612e-07,0.109819990600731,0
2.44107972242039e-07,0.135571920498097,0
2.54544179003311e-07,0.141276374072261,0
2.32674125865127e-07,0.143643422310251,0
1.93593781520613e-07,0.137684424921178,0
1.43183931524378e-07,0.119996184872362,0
1.66468987178969e-07,0.128855459637442,0
1.21219260319486e-07,0.11337311626651,0
1.21993278789999e-07,0.107731904327919,0
1.32229341069312e-07,0.11517615019661,0
1.25782032804515e-07,0.117224581916432,0
1.49605628883902e-07,0.115441476678414,0
2.08088842491841e-07,0.132383405707376,0
2.0909051345368e-07,0.134804714446601,0
1.61537702223604e-07,0.118790542626227,0
1.40584898915059e-07,0.113975509183515,0
1.72038884800109e-07,0.126055758837354,0
1.57956918245435e-07,0.121603807091968,0
1.26353061136928e-07,0.111123450195005,0
2.38075181221866e-07,0.135006543989037,0
2.0671794764563e-07,0.125843750995986,0
2.59199435312942e-07,0.140560746094507,0
2.34239236743001e-07,0.131341039388174,0
2.5440165905822e-07,0.128728287593494,0
2.52878284470422e-07,0.126720678954501,0
2.74803116489332e-07,0.130817180419053,0
1.91112369365146e-07,0.113260391544652,0
1.95728023626806e-07,0.112945288222502,0
1.99839048199357e-07,0.117057194570055,0
1.90486325013995e-07,0.119654683697433,0
2.12309899101867e-07,0.132403134145462,0
1.97257326664899e-07,0.131322050441335,0
2.31351844311334e-07,0.142270955220012,0
2.22812978782467e-07,0.143457716865192,0
2.27103516829951e-07,0.139649277738228,0
2.39120485577877e-07,0.130764758844022,0
3.32050129641762e-07,0.147651356275055,0
3.33831510386397e-07,0.148014992076588,0
4.7617123058877e-07,0.173335764955481,0
5.70595792679038e-07,0.182299749791583,0
5.14048099523403e-07,0.167111880035266,0
5.57190143734015e-07,0.176005752879332,0
5.33602262838357e-07,0.172183306157512,0
5.67382335481145e-07,0.167190241691932,0
6.56470343753881e-07,0.171063130440273,0
6.14371469657176e-07,0.174813601527809,0
5.11325755147948e-07,0.158734408037394,0
5.27917827557516e-07,0.169396946559421,0
4.22858811328113e-07,0.151517262571893,0
2.48065331382945e-07,0.121012449491013,0
2.53906514889582e-07,0.120834884808916,0
2.40369017209999e-07,0.117891392975416,0
2.35389118962215e-07,0.118853685571788,0
2.0972296053115e-07,0.125751611222132,0
1.91239949615494e-08,0.0698950107922719,0
1.97957120937719e-07,0.136954918150999,0
5.37870747050743e-07,0.213223378717574,0
6.07225078533595e-07,0.210146424184739,0
6.61226146580516e-07,0.203320709885737,0
8.53791697681967e-07,0.233673544124011,0
9.01000421656923e-07,0.239923733141219,0
9.35384247677754e-07,0.235660593587072,0
9.34710775724246e-07,0.219968488173732,0
1.02461572444763e-06,0.228040186816569,0
1.08110081316815e-06,0.234288299758053,0
9.90804349587284e-07,0.237828130517066,0
5.87292442951811e-07,0.184901362599867,0
3.84209109613027e-07,0.154079542343801,0
3.4449442108695e-07,0.1615120107988,0
2.22337042792787e-07,0.131965599342396,0
2.13811219854569e-07,0.13605701383544,0
1.12211810079304e-07,0.109162260001611,0
9.05869576453199e-08,0.105839318527104,0
1.54520314178441e-07,0.121975119381616,0
1.39198115822057e-07,0.113520360093636,0
1.32379923706805e-07,0.109428131520366,0
1.53619189733604e-07,0.111003555457607,0
1.68722983981121e-07,0.111985864124968,0
2.08453797892e-07,0.119455806269778,0
2.27599372412623e-07,0.122403763121684,0
2.30649915796408e-07,0.123164465988455,0
2.34260342026051e-07,0.12083576306899,0
2.33794602970878e-07,0.125621094775404,0
8.07220163544716e-08,0.0867885743970854,0
4.07870266154332e-08,0.0716929116465434,0
4.0804811966318e-08,0.0728985432684826,0
2.01580826896023e-07,0.129011660284518,0
2.78047164490745e-07,0.150595209365672,0
2.55913651021452e-07,0.147388695049422,0
2.93149298772179e-07,0.145462607432587,0
3.18910786683989e-07,0.143026728392346,0
3.17167348021242e-07,0.146432211260086,0
3.01592360544279e-07,0.137503923272889,0
2.86504691681565e-07,0.134374059047171,0
2.59263225438116e-07,0.130759037982087,0
2.92672177092439e-07,0.134259375254524,0
3.2902922850945e-07,0.139694558022365,0
3.55232978813267e-07,0.144851745569373,0
3.97067918302841e-07,0.156522162505036,0
4.42481744666488e-07,0.172840638027619,0
4.29464527784793e-07,0.176282652290664,0
4.45864992680828e-07,0.183584458675118,0
4.39120787625258e-07,0.186446433279931,0
4.59979447143119e-07,0.182268716505485,0
4.65197669092761e-07,0.171213995190559,0
3.90441096563112e-07,0.162365070601477,0
3.42308957170208e-07,0.146219007570773,0
4.69485835760127e-07,0.159877571495269,0
4.7938041930245e-07,0.153777032467328,0
5.21994120022772e-07,0.149799615079277,0
5.53125598211775e-07,0.160900231828614,0
6.3476533867191e-07,0.167409966108882,0
6.44996421052976e-07,0.165657728038027,0
7.5430874466201e-07,0.178345576579802,0
7.43966444553412e-07,0.174270741505433,0
6.86164765591382e-07,0.1664653555659,0
6.35945337418624e-07,0.169904439660132,0
5.30951297004453e-07,0.159234471311797,0
5.49418419673318e-07,0.166816075608556,0
3.63849625610003e-07,0.142993994694536,0
3.93515590886088e-07,0.146793403319322,0
4.0571397021304e-07,0.154263702480416,0
3.64491795345955e-07,0.15139701745171,0
3.48070462304881e-07,0.150961728009763,0
3.07372599581886e-07,0.149751216565553,0
2.2087982971028e-07,0.124112935959802,0
4.04946354468847e-07,0.157980486102973,0
4.45591809691235e-07,0.163674761692217,0
4.55786847094508e-07,0.161737287839138,0
4.63421031108361e-07,0.160674468457364,0
4.85516365357755e-07,0.154277716205576,0
4.97699567851952e-07,0.146999473860597,0
6.21510272364381e-07,0.161219754563266,0
6.75647931906098e-07,0.171150337053218,0
6.60793843985007e-07,0.172391989884127,0
6.20058276318132e-07,0.170592650797854,0
4.43835091299826e-07,0.149739752104819,0
4.70699982380537e-07,0.156565693633134,0
4.90829442512117e-07,0.163468196173256,0
4.67428663507768e-07,0.159623183119927,0
5.17755752337885e-07,0.173628268588573,0
6.1141317295998e-07,0.203914777911913,0
6.10059352050619e-07,0.207146000697254,0
5.97425824472014e-07,0.203927981452842,0
5.900195300875e-07,0.199860888059504,0
5.93505458860948e-07,0.197902524038771,0
5.50942979951176e-07,0.186085069303618,0
3.50726408037035e-07,0.154318825434672,0
1.07442490385998e-07,0.0946807044521645,0
1.38809209482706e-07,0.0989655956836294,0
1.35889566281434e-07,0.0967862989067485,0
1.74865807038768e-07,0.104855614859694,0
1.7397511666645e-07,0.102768061459117,0
1.67427024746638e-07,0.107027215091909,0
1.56155617907809e-07,0.104597603381712,0
1.62096162241391e-07,0.105635170272151,0
2.06211657990438e-07,0.118730769187414,0
2.25554294198867e-07,0.123613784406069,0
1.72093900818847e-07,0.111281067144158,0
1.71696694649083e-07,0.114443372615835,0
2.17540926504147e-07,0.122421284851826,0
2.26043984193232e-07,0.127333995081402,0
2.59590238756387e-07,0.139328020105758,0
2.66158013131179e-07,0.13889632417469,0
3.68152020558077e-07,0.159291419032442,0
4.1307473409929e-07,0.178828342913411,0
3.43402400542615e-07,0.168698715896862,0
2.8587011036199e-07,0.160617582450607,0
2.40695319114236e-07,0.151090281501828,0
2.78518831996213e-07,0.170882121320581,0
2.07827990678862e-07,0.147463608949263,0
7.1077399990386e-07,0.225848374311343,0
7.0218462397848e-07,0.201800494035026,0
7.05777739133263e-07,0.202311749146579,0
5.99488925174668e-07,0.178845791224369,0
4.86559061195636e-07,0.157448712450167,0
4.47669375812609e-07,0.147987031689196,0
4.38747058118662e-07,0.142883659926649,0
5.11207186142048e-07,0.16130576392612,0
6.58479139851833e-07,0.187082433298117,0
7.07447190736328e-07,0.196906138471565,0
3.00986235786121e-07,0.146976164845636,0
3.22270558035161e-07,0.15911373908133,0
3.56993491412864e-07,0.160282836741021,0
4.71999498685198e-07,0.177025323626229,0
6.66035305459805e-07,0.206617514123508,0
7.10213405643967e-07,0.215992990282673,0
7.08664420150894e-07,0.204187807311126,0
6.9849025089266e-07,0.188157099436353,0
6.81630686805782e-07,0.178543013462605,0
6.5615898154439e-07,0.180615733606201,0
6.6698504319706e-07,0.180122350143501,0
6.22611778429188e-07,0.179888910726304,0
5.20789458922832e-07,0.164504500163988,0
4.25368680044997e-07,0.152488812487204,0
2.62108881579707e-07,0.119932967055343,0
2.20072849056127e-07,0.109380780249618,0
2.90229655570907e-07,0.128073270316058,0
2.20580087263366e-07,0.116881207130118,0
1.8031998131015e-07,0.113531848682482,0
1.75375890902148e-07,0.111392808148968,0
2.20046289598805e-07,0.125816923935292,0
2.39270356801334e-07,0.132445818814898,0
2.28031200732109e-07,0.133424593100163,0
1.32485450122056e-07,0.111476320097547,0
9.51682268952695e-08,0.0982739937082081,0
1.61566870199055e-07,0.114943785920856,0
1.65611496128303e-07,0.112679413790569,0
1.81013372856651e-07,0.115403226588481,0
2.13651863110639e-07,0.120661478841134,0
2.65837639677238e-07,0.133166201971283,0
2.75781310788003e-07,0.12858973549746,0
3.29809649706283e-07,0.133395258249371,0
4.85011735668646e-07,0.151654696597665,0
5.17099591459236e-07,0.151288947004071,0
4.96504629410496e-07,0.152707631600139,0
3.86434649853764e-07,0.142276620822913,0
3.86098625291044e-07,0.147124343887991,0
3.51882455844556e-07,0.144145443373651,0
3.51643657866672e-07,0.145875461188961,0
3.60155015386173e-07,0.146619147099015,0
3.44485646980513e-07,0.150219866830381,0
2.36976757951212e-07,0.131781528283457,0
1.39763452842187e-07,0.1138921318503,0
1.02824227606207e-07,0.110892955607208,0
1.05678183578211e-07,0.106630734290897,0
1.41874929699246e-07,0.118466813785228,0
1.35125270469405e-07,0.116374757760556,0
1.13670920265904e-07,0.106691794832147,0
1.03037651816827e-07,0.101016845745608,0
7.92875685210979e-08,0.0920545880463556,0
8.82703564080532e-08,0.0939764336282315,0
1.82144995448957e-07,0.123946473509959,0
1.61185552276082e-07,0.117610142071962,0
4.3398746108384e-07,0.168328308404237,0
5.74004888736663e-07,0.184978461996926,0
5.53927124691657e-07,0.17344266610796,0
7.6024478337337e-07,0.198492309532014,0
7.79368304058895e-07,0.20086582804593,0
7.62967127748825e-07,0.198744396071246,0
7.93270520000625e-07,0.198444343787009,0
8.14734355724598e-07,0.201081002622286,0
8.80425142063163e-07,0.209189510285661,0
9.3968427124571e-07,0.211710845221584,0
7.30331957427003e-07,0.199037803743665,0
5.79365393493384e-07,0.183529754735047,0
6.14574459795277e-07,0.179475424765051,0
8.8329925476617e-07,0.202872370483313,0
7.58557309281406e-07,0.183091166429494,0
7.31546341185426e-07,0.174876220815826,0
8.63197776919984e-07,0.191857895004862,0
1.1244527245192e-06,0.224581732440338,0
1.20412801368959e-06,0.238360706186401,0
1.18893410699759e-06,0.236103797520497,0
1.22380288025255e-06,0.231244068827412,0
1.29685087340719e-06,0.239886805517665,0
1.202669140641e-06,0.257383800908615,0
3.69635793097904e-07,0.15486825680074,0
3.50173402193518e-07,0.151320323761186,0
3.25768817985223e-07,0.154764441240497,0
3.87834475537414e-07,0.171077414283511,0
3.63239706643656e-07,0.151948427449807,0
4.45416564700516e-07,0.151276288056967,0
5.44394176617328e-07,0.171877001717477,0
5.31512839816394e-07,0.17607060896215,0
4.40555235458631e-07,0.160590144273603,0
3.75137394971647e-07,0.145272691729866,0
2.85959985668462e-07,0.122657138078645,0
3.22676538311361e-07,0.13207048355063,0
3.22602788389692e-07,0.133537470477904,0
3.55504264698765e-07,0.141436571405621,0
3.72841899017432e-07,0.141417770910796,0
6.73764107540365e-07,0.207112375142114,0
9.59866376015908e-07,0.246265743101293,0
9.74161055367165e-07,0.222330372415713,0
1.27868989591156e-06,0.257974444365314,0
1.40754808300513e-06,0.273290199154544,0
1.40387410378832e-06,0.282169011273235,0
1.4247311033401e-06,0.28763911218791,0
1.4473350986248e-06,0.286494007278477,0
1.4465430576654e-06,0.28974505520279,0
1.53135949893159e-06,0.323421220461434,0
1.18663979673343e-06,0.286142335554992,0
4.45149784437242e-07,0.170759630519583,0
2.07226608680938e-07,0.134422283935638,0
4.81780255981857e-07,0.193352588289452,0
5.53189862612973e-07,0.202172573191164,0
5.89135479579514e-07,0.20253918097255,0
6.26070910607304e-07,0.205755052907394,0
6.30407690567087e-07,0.209320453645566,0
6.06456988513377e-07,0.198664814393028,0
4.94317031251647e-07,0.181027771607713,0
4.03502658253013e-07,0.156259326412157,0
2.64786406870932e-07,0.131132212839936,0
2.59774494991555e-07,0.133540870910642,0
1.92916515358914e-07,0.119120611118387,0
1.97761719215996e-07,0.121604173126223,0
1.91901564668414e-07,0.121883448001763,0
4.46215956938291e-07,0.161479935804851,0
1.39952024989169e-06,0.274481421255428,0
1.80385597398015e-06,0.304457121561376,0
1.92095828127679e-06,0.310576298851633,0
1.7243139563724e-06,0.287838186027625,0
1.826000632936e-06,0.296339111360204,0
1.82174566559029e-06,0.29176959503704,0
1.94629600356152e-06,0.303749932660742,0
2.10588798839831e-06,0.320160509071459,0
2.09834889672719e-06,0.322723453231078,0
2.02955990226447e-06,0.369300947027107,0
1.19128651607464e-06,0.283162029238832,0
5.83047672540602e-07,0.208155968704888,0
2.14715427093559e-07,0.133018814991422,0
1.91672015072992e-07,0.131955527264844,0
3.56763941817442e-07,0.169367329657836,0
5.75810220420491e-07,0.209852359383895,0
6.16291339000703e-07,0.210081509745561,0
6.53387549600492e-07,0.20733484169908,0
6.49758389467918e-07,0.204028571536207,0
7.03749734856356e-07,0.204533018564374,0
6.54176507765747e-07,0.192522882932233,0
5.93451391394259e-07,0.1856391326548,0
4.70315107387388e-07,0.166075728942127,0
3.96015025530452e-07,0.167157739239087,0
3.17130591629412e-07,0.152983248730524,0
1.90144846277005e-07,0.119797317637356,0
1.53502280693787e-07,0.114315781165826,0
1.05650912706854e-07,0.105640316012058,0
1.09432552581017e-07,0.109064458136666,0
1.48287141538298e-07,0.117479086550461,0
1.61367674269144e-07,0.124878661713453,0
2.2666718288824e-07,0.136207763118426,0
2.52059921191702e-07,0.136453675471431,0
2.58212941183857e-07,0.129851623859002,0
4.39891249025594e-07,0.159809925109032,0
4.82548583140087e-07,0.165810750755032,0
4.96043395977546e-07,0.166085276164435,0
6.03288587537727e-07,0.170072654671101,0
7.28982405001853e-07,0.179477387246783,0
6.73500410071245e-07,0.169375121332971,0
9.53300735883222e-07,0.196471909405572,0
9.59932774659211e-07,0.196322295169473,0
9.01422527317928e-07,0.193002020850956,0
8.99679088655178e-07,0.190802182394004,0
1.0408701123284e-06,0.195146720864149,0
1.22856484866749e-06,0.205052405272511,0
1.22364162640453e-06,0.202590296303925,0
1.25152905659212e-06,0.214866587590546,0
1.21070337648076e-06,0.212906520693093,0
1.41636013152359e-06,0.228865777488027,0
1.23063055788827e-06,0.218147948220778,0
1.40024684075984e-06,0.231166507902238,0
1.37464186393582e-06,0.222327519778828,0
1.54376869395104e-06,0.236550559262912,0
1.4073564754916e-06,0.241990172931877,0
1.1655345136833e-06,0.219374120354722,0
1.20892128432209e-06,0.212208664554781,0
9.55798984837527e-07,0.178015023857769,0
9.26397902720622e-07,0.183150923422517,0
1.24639667860275e-06,0.213489269661486,0
6.88639703879128e-06,0.199733024862601,0
0.000172434526096133,0.241338895906628,0
0.000520980497305137,0.426083799658042,0
0.000672179646200728,0.358553755982031,0
0.000701718620514423,0.381918150780814,0
0.000673723898419085,0.316799924518134,0
0.000597350311429227,0.296574773856451,0
0.00052180459363243,0.261547168280118,0
0.000510253902005826,0.261198925971129,0
0.000519391382369156,0.263665282504897,0
0.000548911365485176,0.292978003253131,0
0.000583223827429874,0.804916727328519,0
0.000422503430612319,0.834942690315353,0
0.000287528473391625,1,0
0.000175009696693016,0.832472226860624,0
7.50044531305216e-05,0.742364977743851,0
2.67044001056723e-05,0.457483741095758,0
2.25414857047928e-06,0.204170636686245,0
1.14005332290144e-06,0.195963386638589,0
1.14319492728175e-06,0.200563177195687,0
1.13560651090418e-06,0.19024590339825,0
2.05678714022721e-06,0.237059063812912,0
2.18249139176385e-06,0.231142673876887,0
2.17938298670519e-06,0.226462643119673,0
2.1873138303718e-06,0.228365578612279,0
2.14412720421497e-06,0.234253683658263,0
2.08553395856956e-06,0.241795266839589,0
1.70502989325288e-06,0.223439108686819,0
1.73651423280344e-06,0.224805923693953,0
1.99491048167042e-06,0.238549118060785,0
2.04168050032355e-06,0.259105353385917,0
1.01362271763465e-06,0.201886047261716,0
7.92082695699522e-07,0.192407489818024,0
8.25044879339616e-07,0.204422687156705,0
2.79925297544195e-07,0.123750932719302,0
3.30359809893656e-07,0.143438700480228,0
3.13304844085056e-07,0.145693240100028,0
3.40329091909696e-07,0.141939448748802,0
5.04683045161428e-07,0.178554520091519,0
5.0887849086618e-07,0.186041592036389,0
5.44392279513233e-07,0.187074158787283,0
5.44510611381122e-07,0.189742094944284,0
6.57392099205746e-07,0.198566738991642,0
8.38538269349005e-07,0.208457770407079,0
7.66282080015767e-07,0.202016762718635,0
4.72567918499481e-07,0.166268563210105,0
3.76774358667097e-07,0.147378853893757,0
3.50965443152927e-07,0.147774039059314,0
3.86986707145231e-07,0.154674928822157,0
4.2402102472394e-07,0.160702740700726,0
4.79762685777471e-07,0.175926197612052,0
4.77922257667895e-07,0.17332237866053,0
4.00804976230784e-07,0.178227018400949,0
2.10369161613302e-07,0.148010890146714,0
2.62832389653707e-07,0.157299569630229,0
2.30764927732131e-07,0.138745943123133,0
8.02202323215041e-08,0.0941183569679341,0
2.91720067975067e-08,0.0646681170413843,0
5.25974481550824e-08,0.0744248382058721,0
5.40864377311698e-08,0.0762141498992131,0
7.85697517593816e-08,0.0814402029401134,0
1.2128305044466e-07,0.093791905507533,0
2.1752693536145e-07,0.114004912504104,0
2.82757673957125e-07,0.123248166502914,0
3.65452678569767e-07,0.137023685163274,0
3.49241924083171e-07,0.136347018790447,0
3.34942501971677e-07,0.135903787276001,0
3.1961864364921e-07,0.139478472334562,0
3.27321834824496e-07,0.144783272115089,0
2.78873590461866e-07,0.130890524292517,0
3.91224600554096e-07,0.151791400120649,0
4.67446448858653e-07,0.163360000953077,0
4.3786111050658e-07,0.162137191147262,0
4.04883750033732e-07,0.162542509366879,0
3.29805855498094e-07,0.151252142130847,0
3.70681097453916e-07,0.152449995877434,0
3.82530172489488e-07,0.149993183097643,0
3.72950982502858e-07,0.154152425506697,0
3.56463962232516e-07,0.141618151563214,0
3.83176373571641e-07,0.148344459680673,0
2.63498273190839e-07,0.133145668118933,0
2.41357171305168e-07,0.129157781944782,0
2.55990720875287e-07,0.132886210507521,0
2.59144656432217e-07,0.137216984975933,0
2.22378541944851e-07,0.126408800725421,0
6.57678561923999e-07,0.200896351894584,0
7.31754785497797e-07,0.194647545238997,0
6.33166079920336e-07,0.176874589300814,0
5.66283675072481e-07,0.17231921662344,0
5.71311000922624e-07,0.174033705078745,0
5.66218462119234e-07,0.175229713112852,0
5.76290899170408e-07,0.178749120502612,0
5.96316729990829e-07,0.183886923504809,0
6.60731002411879e-07,0.185975625600925,0
6.62445273099177e-07,0.191547106308218,0
2.98936177674117e-07,0.142703415880464,0
2.10482987858966e-07,0.132944616274477,0
2.12991908023802e-07,0.131891539390183,0
2.26550273848423e-07,0.135128738684868,0
3.50689177369181e-07,0.153771289057209,0
6.19478473879285e-07,0.194747132525223,0
6.9420540415746e-07,0.198269502925607,0
5.95574962289922e-07,0.186179353051712,0
4.89251763319617e-07,0.175447228411701,0
5.44345563324909e-07,0.172117813602894,0
5.91161586752326e-07,0.168180459395446,0
7.08613909754382e-07,0.17601839497482,0
6.82645637496282e-07,0.167452194406858,0
7.64211628034747e-07,0.17572415477959,0
8.04413872313083e-07,0.194815629249358,0
5.53261952568561e-07,0.164724875538953,0
3.90024919352403e-07,0.146140990857192,0
3.8819895666155e-07,0.145838807335258,0
4.02954395169731e-07,0.14016430287682,0
1.15738336880373e-06,0.231007466594516,0
1.56598354575838e-06,0.277697926965625,0
1.64186699812009e-06,0.305849954041287,0
1.70953195840689e-06,0.301648891135467,0
1.69818324457621e-06,0.286015167484126,0
1.71128085124391e-06,0.266447711078648,0
1.70513613108217e-06,0.254925922685934,0
1.73723513235931e-06,0.245749150679214,0
1.68332702241301e-06,0.234509911702812,0
1.48177868342461e-06,0.227313791053168,0
1.20739103273195e-06,0.211800812347204,0
1.23253714750314e-06,0.221918845553495,0
1.22998862529033e-06,0.21638744774177,0
1.24254081453089e-06,0.228621880780673,0
1.45178546769224e-06,0.253798823952443,0
1.57562842297427e-06,0.253755137314316,0
1.34169485712848e-06,0.233816451870435,0
1.33360655382203e-06,0.235172692833059,0
1.29132200066209e-06,0.239402354831053,0
1.30857497671054e-06,0.232758365216028,0
1.30468615045505e-06,0.2368815713822,0
9.40971219235744e-07,0.204209709935878,0
8.2357841787465e-07,0.190067332756445,0
9.6960919123068e-07,0.208984191152487,0
7.68922848915162e-07,0.187996726771972,0
6.58672644469462e-07,0.198408208687971,0
6.07524109566473e-07,0.208517304090886,0
7.2361241472466e-07,0.2351519089149,0
7.2188984420695e-07,0.227059454830013,0
5.65882674694527e-07,0.205147674865012,0
2.78299716473312e-07,0.153100694623544,0
1.96202299650404e-07,0.125005723365299,0
2.06033093067553e-07,0.127701702976553,0
2.79836370789771e-07,0.148636932308809,0
2.99607752523532e-07,0.149003339377835,0
4.30968931331647e-07,0.169328664589135,0
4.41636347654424e-07,0.164729693420084,0
4.20614537184446e-07,0.157163663671205,0
4.45861198472639e-07,0.161647221299975,0
5.8225918865137e-07,0.196057449814051,0
6.36544110898416e-07,0.196898531240853,0
6.59486739263969e-07,0.197949107515756,0
6.74017608074979e-07,0.207835030928321,0
5.3695444577315e-07,0.193540618381085,0
5.88992011082375e-07,0.205478571430388,0
5.71591772328594e-07,0.187940902001571,0
5.84628671665269e-07,0.186651369251321,0
5.50649877368591e-07,0.181108245445421,0
5.02987982653087e-07,0.180461829320875,0
3.20798405257911e-07,0.135526087327593,0
3.52301715849416e-07,0.143345087122335,0
4.15270394950538e-07,0.156624768113114,0
4.43967888586434e-07,0.159480657797906,0
4.18287976150684e-07,0.15158896276717,0
2.97484181627869e-07,0.127801119692633,0
3.94645079236287e-07,0.150426529522853,0
3.40027452358688e-07,0.145401476203474,0
3.71733990226305e-07,0.151675339244362,0
3.7862522084919e-07,0.14367166705805,0
4.82409145989149e-07,0.157561954663823,0
4.86222088080869e-07,0.159064834136048,0
4.73475682808648e-07,0.15709746073739,0
4.63012205176019e-07,0.152107022628565,0
4.14354093672946e-07,0.145613329614507,0
4.29238060983524e-07,0.149912777015321,0
3.7139986276768e-07,0.135981272069972,0
5.70816093891998e-07,0.165881920192322,0
5.87337736312063e-07,0.160380532897931,0
5.98904379975583e-07,0.166375047918835,0
3.85083674600543e-07,0.134793305846554,0
4.08152460388372e-07,0.13868679207466,0
4.98790402706228e-07,0.149948407297431,0
4.8282840599401e-07,0.148276152981361,0
4.87544369634663e-07,0.151203934735676,0
5.74769421686704e-07,0.159416337624747,0
6.81244626122572e-07,0.184659745394331,0
3.9914501014819e-07,0.143006450626833,0
3.81626439526521e-07,0.149823737895869,0
2.74452152231869e-07,0.133534782918374,0
2.7657430029946e-07,0.133868214149139,0
3.13913814499356e-07,0.143748670835014,0
3.99998706990668e-07,0.161396428286683,0
3.94303600499297e-07,0.152184828841781,0
5.31976444629461e-07,0.172052858950917,0
5.79446968969444e-07,0.177329007957675,0
5.3987906887267e-07,0.162748490151235,0
7.66402783263772e-07,0.197465510418196,0
8.13967925670463e-07,0.197097530788788,0
7.54773535165137e-07,0.187989301394537,0
8.87791834399706e-07,0.197126784964839,0
9.18539149009596e-07,0.197882641167973,0
5.91628985773582e-07,0.159254553819706,0
4.15319956795003e-07,0.13981862077707,0
4.13898788690292e-07,0.140993638802209,0
3.47663296338624e-07,0.135352393098628,0
2.77079641402605e-07,0.130500657171577,0
2.20817225275165e-07,0.114431232244234,0
3.59585884157853e-07,0.140593573423603,0
3.72080211723531e-07,0.146499268866194,0
2.67110359386565e-07,0.132498582422955,0
2.51929732423225e-07,0.131008547016124,0
3.43652106869039e-07,0.161014925422468,0
3.52349143451776e-07,0.161641463077697,0
3.21617242812654e-07,0.156221815386224,0
4.59078322698282e-07,0.17512371110379,0
5.20897356718201e-07,0.176256588747725,0
5.04074074747128e-07,0.173491732514309,0
3.831735279155e-07,0.158988165534601,0
3.43499152851428e-07,0.154305356326487,0
2.69840529316409e-07,0.13977074247703,0
3.61720837678082e-07,0.158607319687826,0
3.52681136668294e-07,0.149871461158987,0
3.60923342544402e-07,0.149624199720265,0
3.89332476357949e-07,0.14787923287177,0
3.53618306090926e-07,0.14903086637354,0
3.2449396403379e-07,0.148263723929805,0
3.15609825559744e-07,0.148108172351697,0
3.17905321513961e-07,0.146591222238508,0
3.17455944981601e-07,0.145583584677213,0
2.59913932142492e-07,0.131743920879095,0
2.73230417195079e-07,0.133036403630554,0
4.41355576248454e-07,0.161042523676968,0
4.03969345860234e-07,0.147024049283564,0
4.11643131922057e-07,0.153621964889977,0
4.46010358282061e-07,0.152513151084559,0
4.44432679089561e-07,0.149001317012024,0
5.07152126140281e-07,0.15654168974971,0
4.92156229688133e-07,0.153449790581763,0
4.41355576248454e-07,0.145489412518854,0
4.1782223709551e-07,0.1448204363744,0
3.40613657523855e-07,0.132633288974392,0
4.00638031070478e-07,0.153352101487552,0
3.76006031508868e-07,0.150624876603524,0
2.59883578476983e-07,0.13542079341943,0
4.65416547477651e-07,0.181627656016798,0
7.05246549986832e-07,0.212535347061235,0
6.985955401699e-07,0.206647534046261,0
8.5334398111569e-07,0.239881335326361,0
8.67071663480736e-07,0.23238296950743,0
8.29390433405839e-07,0.216941385338338,0
7.60254980307878e-07,0.210639780897599,0
3.93066925767764e-07,0.151620171815521,0
2.52836548180345e-07,0.12839383495166,0
2.46670959873564e-07,0.123799203896153,0
3.28999823395988e-07,0.127134372437767,0
9.5741531752595e-07,0.203001999789085,0
9.72920349289432e-07,0.205530083884658,0
1.01075358482989e-06,0.207685042075639,0
1.03867516289118e-06,0.214656849941154,0
1.04461001591248e-06,0.221155068522013,0
1.09042507979209e-06,0.216278346384605,0
1.42901073303904e-06,0.248094323262941,0
1.49990551304654e-06,0.243221201836893,0
1.42934960325791e-06,0.239298677684508,0
1.34670795469792e-06,0.255650525570981,0
7.57419046824771e-07,0.220177305123006,0
7.36274873140703e-07,0.236363651439423,0
6.117572602151e-07,0.209517164688175,0
5.22504203886153e-07,0.194292416964255,0
4.06358985605136e-07,0.172172851907954,0
4.00827741479917e-07,0.177145318324856,0
2.86318538342303e-07,0.144424880064197,0
2.89966669515822e-07,0.138720649726716,0
2.91432419566753e-07,0.126578472259617,0
3.69702191741209e-07,0.137038769646792,0
3.68788736119758e-07,0.136176328865506,0
4.05086740171831e-07,0.142474454691142,0
4.04329795638169e-07,0.143850423879559,0
3.96192404763278e-07,0.145654200121935,0
3.70389891975427e-07,0.134313919375577,0
3.3958092148247e-07,0.130976397044913,0
4.62745424912745e-07,0.155270647175222,0
5.99114958530061e-07,0.186937811845165,0
5.68091852412449e-07,0.191491585905231,0
5.17624140741336e-07,0.182610534350241,0
5.36974602504153e-07,0.181202242850899,0
4.64799988646974e-07,0.16688617991804,0
5.00056956827248e-07,0.170772902407163,0
5.15816911953414e-07,0.173310496830771,0
4.55518644003163e-07,0.168386930894163,0
3.92657151283374e-07,0.166520095235687,0
2.85191658510233e-07,0.147958442868781,0
1.07199898199927e-07,0.0992052235411311,0
9.97687043241746e-08,0.0989533675155966,0
9.12689665672543e-08,0.0983470579058441,0
8.67348877816529e-08,0.0983605939016849,0
9.13872984351422e-08,0.0958458137674435,0
9.78964997210196e-08,0.101330941861488,0
1.79851396598835e-07,0.125250956513713,0
1.72634575485749e-07,0.124076207003941,0
2.25783843794288e-07,0.131039468820014,0
3.10421245861577e-07,0.145933577142994,0
4.39932748177659e-07,0.166833190122617,0
5.46929419101473e-07,0.174278737311036,0
6.97572763925008e-07,0.194270456733671,0
7.37187380210106e-07,0.191304426980961,0
7.42564484627654e-07,0.190025835777666,0
7.46709657073905e-07,0.19061692641454,0
6.28356921041047e-07,0.178522790110689,0
6.5312361499336e-07,0.174727291149676,0
6.1089407785215e-07,0.17622701906654,0
6.22815717119336e-07,0.176000377087935,0
5.45197363063292e-07,0.163053749874623,0
4.80616382619947e-07,0.153172709431501,0
3.31205918319756e-07,0.133807249999259,0
2.71455913452786e-07,0.129271601416976,0
3.02461234219512e-07,0.135922235041374,0
3.56473447752988e-07,0.14329285779984,0
3.50548080252161e-07,0.139671183396407,0
3.16836540494782e-07,0.138879640884204,0
3.33642985667017e-07,0.140615095385403,0
2.61371619501022e-07,0.127117827231088,0
2.50899604899969e-07,0.127097401193546,0
2.02259753023804e-07,0.117773694918832,0
2.38086800984444e-07,0.123297506038254,0
3.54483385557969e-07,0.144706549588253,0
3.46104113911043e-07,0.144898341263712,0
2.57787278452677e-07,0.133044815127669,0
2.56810269844064e-07,0.136622134457747,0
2.77488704472958e-07,0.140641574280968,0
3.0208940181701e-07,0.15160138822384,0
2.88841686787847e-07,0.155723902150932,0
2.57216961534301e-07,0.150261410566681,0
2.85466975741932e-07,0.166442930822908,0
2.23710309019116e-07,0.158150901456219,0
1.34362397485447e-07,0.12282748087819,0
1.38687794820665e-07,0.126851312124121,0
2.22055322834769e-07,0.141899051578565,0
2.25123888707451e-07,0.136909478627836,0
2.2789555778936e-07,0.135553207840302,0
2.0587183921953e-07,0.127657895672144,0
2.34628380220364e-07,0.129359593484442,0
2.41814373391917e-07,0.125820412940283,0
1.59724782123399e-07,0.102821657616659,0
1.5778617887694e-07,0.107290815634689,0
1.52626055740189e-07,0.108916573951626,0
1.72993365297601e-07,0.111629639802454,0
1.30189005615792e-07,0.0977412380288181,0
1.7121388165706e-07,0.113459495161273,0
1.73934091790409e-07,0.116784921003291,0
1.48372511222546e-07,0.114594758306507,0
1.51241169751281e-07,0.11761171229873,0
2.09244890299362e-07,0.142057077921835,0
4.05459758264392e-07,0.196205102002169,0
4.95039827911612e-07,0.19753471920799,0
4.86540090154692e-07,0.199009256931846,0
5.23439476204688e-07,0.203080222852716,0
5.28432654181134e-07,0.207202102554723,0
5.28011497072178e-07,0.192663772314218,0
5.21300728476272e-07,0.193804786005205,0
4.77032752985637e-07,0.175514858694116,0
4.60066002517425e-07,0.170192885824941,0
6.62510486052421e-07,0.193840982811067,0
6.58845280942052e-07,0.186936633793474,0
8.1262453883362e-07,0.201350598398636,0
1.13833383517788e-06,0.219560171141227,0
1.25365191607374e-06,0.227418484261717,0
1.27969749532369e-06,0.22467565927476,0
4.61305333194691e-06,0.279582283590379,0
1.76240666832537e-05,0.535683560640855,0
2.17156992948903e-05,0.544876500725665,0
2.13538361744052e-05,0.485046884469745,0
8.19448102124839e-05,0.282955332086048,1
0.000165882021275059,0.261711570633423,1
0.000154657010013962,0.214999356660815,1
0.000222234407564175,0.17248622187313,1
0.000244471296132676,0.118406188406527,1
0.000232718761167398,0.114771827130265,1
0.000246393515988176,0.0689745657637789,1
0.00094870032603865,0.0959027533163272,1
0.00112176415618504,0.0738575759633937,1
0.00102819684800743,0.0689500925930531,1
0.00116523173990118,0.0741975515819628,1
0.00120233740353354,0.0736235892732244,1
0.00103756948722871,0.0695528560983262,1
0.000992963745396663,0.0704834376584917,1
0.000904389541208436,0.0751410929148246,1
0.000545499446536658,0.0557750950531867,1
0.00030989000739044,0.0524022019042067,1
0.000158147412396004,0.0645903141810038,1
0.000200589093202567,0.132971826530992,1
0.000240415095971349,0.155381430766125,1
0.000376166892893482,0.202397855882503,1
0.000479351790104561,0.0882712381868101,1
0.000903253268813994,0.12653926916127,1
0.00125673810248639,0.156969021469349,1
0.00153299063662037,0.183452482597335,1
0.00174604604071821,0.202240548938648,1
0.00178283789890814,0.175879571518436,1
0.00175115241889597,0.159493833322845,1
0.00151074601924979,0.135034462188826,1
0.00171700583522766,0.0738222893113607,1
0.00205126175269947,0.0688426936520218,1
0.00202114650100347,0.0762045546811689,1
0.0031947591578151,0.0635718563353349,1
0.00351523685027458,0.0508790531894147,1
0.00323894404797196,0.0421792543264642,1
0.0036398062899498,0.0398350839647483,1
0.00310674371718132,0.0330391833679439,1
0.00322363021584463,0.0326023439396309,1
0.00222708876072698,0.0250882761662175,1
0.00196947219034058,0.027075177117607,1
0.00191765395397847,0.0274041025094031,1
0.00105391185995172,0.018585599321399,1
0.000983104724967694,0.0229674143407771,1
0.00138699355322454,0.0313192544003757,1
0.00183518815084265,0.0451858893098948,1
0.00163018612981905,0.0377054984786663,1
0.00161802441013162,0.0400774146047962,1
0.00148907192581907,0.0379772022483998,1
0.00167124559386217,0.038643126103099,1
0.00265643093952597,0.055592430932056,1
0.00408240895437129,0.07229589127149,1
0.00431839235233657,0.0647158219832416,1
0.00557158375706261,0.0552084338714467,1
0.0067766107882258,0.0418479429416455,1
0.00471746106404087,0.0278355271643636,1
0.00411911700964781,0.02545171966235,1
0.00406152775251403,0.02453454687446,1
0.00364450461360516,0.0199532483884989,1
0.00316899172817327,0.0139194822569654,1
0.00450888408409723,0.0149818144428312,1
0.00452878225498893,0.0136935371832534,1
0.00418764306856585,0.0124970623803629,1
0.00406247502283027,0.0149332689987069,1
0.0039205100340426,0.0194644702024091,1
0.0032627260346301,0.0179066949232054,1
0.00284519049169954,0.0165078414057719,1
0.00288185512439759,0.0158089954993584,1
0.00342822298740739,0.0186169292343784,1
0.00395381751125888,0.0268528134292413,1
0.00301078564996739,0.031534489195323,1
0.00305948652219675,0.0381869564271871,1
0.00350296947303457,0.0346505080943948,1
0.00681430534545696,0.051687596411491,1
0.00797501609089948,0.0498025313532011,1
0.00904921209017943,0.0546676939810136,1
0.0092123275681107,0.0581477054338616,1
0.00905364678134149,0.0673635718544688,1
0.00793082355731023,0.0466584292424814,1
0.00724656507329143,0.0460592567385285,1
0.00960515932126651,0.0516878094752793,1
0.0115676828025244,0.0458787777673592,1
0.0113454440733571,0.0561364023181077,1
0.00862725104897897,0.0513288820700899,1
0.00776442342362726,0.0535314811661274,1
0.00651978720379378,0.0179881463953475,1
0.00824873660976051,0.0151114602371703,1
0.00744432527482416,0.0119361151882462,1
0.00815152646309267,0.0134158590929829,1
0.00834694840438781,0.0116199964855684,1
0.00748455748291311,0.0115214591981922,1
0.00672124748679855,0.0116540084278721,1
0.00709349314378446,0.0117374910884427,1
0.00763902995876616,0.00981472381940344,1
0.00729384928564683,0.00725507331968182,1
0.00667825449687094,0.0126909113387202,1
0.00366806276687966,0.00985525517004766,1
0.00364391940702816,0.0100930545826758,1
0.00430716533773354,0.0161246492957099,1
0.00447700773952492,0.0206290969320899,1
0.0047771627686376,0.0186683961283871,1
0.00482597586097687,0.0183299804191468,1
0.00480557713371569,0.0189787493439026,1
0.0044831949680981,0.0323689095622955,1
0.00321647805562749,0.0324996649331463,1
0.00498561245811355,0.0421224764361929,1
0.00416536340030002,0.0277336650624001,1
0.00338307043970515,0.0290614983561087,1
0.00318831103000133,0.0318938540604726,1
0.00295755373242187,0.0280129894781688,1
0.00289620040141215,0.0351492580313622,1
0.00288671738630327,0.0317797881362917,1
0.00744701197142799,0.0242270055205008,1
0.0464359978840799,0.0387897475750571,1
0.0897180034619695,0.0531580292931806,1
0.0900141576263645,0.0444281876889569,1
0.0945757818967288,0.0370542402590833,1
0.10241042437465,0.0372583385865972,1
0.107458140015035,0.033715708402346,1
0.110962530312799,0.0344047526412677,1
0.0881495646736581,0.0285532349217694,1
0.0559874302242592,0.0186113849179914,1
0.0302309563158859,0.00734463106356105,1
0.0722580153054152,0.0137256441748706,1
0.0762418190285353,0.00808146873566168,1
0.0639081507013072,0.00616524963634398,1
0.0533134085131753,0.00488371610857709,1
0.0524139375842669,0.00477333178484739,1
0.0497200833508672,0.00573030678607562,1
0.0521397074086281,0.00527962579472242,1
0.0573204231984154,0.00453162008509644,1
0.0575123338513981,0.00387203916605955,1
0.0633272115890633,0.0062311213237728,1
0.0259764219422083,0.0014158001609247,1
0.0218712479514171,0.0057948232480364,1
0.0247831955568074,0.00453635138280197,1
0.0662870825335899,0.0150293223762407,1
0.0706149926590652,0.0142297644720078,1
0.0927382452773315,0.0142528666679841,1
0.112502491097675,0.0111979847717135,1
0.113332130332489,0.0112693116939445,1
0.122549010918412,0.0108572126365767,1
0.106054980406179,0.00865444181083154,1
0.114290369399172,0.00690627038055778,1
0.102499399330933,0.00564054693587265,1
0.0914442443247559,0.00603843992803747,1
0.0898143022991149,0.0063510579963583,1
0.0966380028799629,0.0075908108428116,1
0.101017648386727,0.0106549130918598,1
0.0966696623449866,0.01604229482343,1
0.0908029194166844,0.0149113517623956,1
0.0854284450531922,0.0176857487586352,1
0.0752114433107078,0.0190529005326815,1
0.0320633931305712,0.0137242607843872,1
0.0525625127662027,0.0197691515361973,1
0.0483111778275152,0.0150324591400367,1
0.0493384841217418,0.0144800335571341,1
0.0582468691920134,0.0159114040307102,1
0.0752750848376152,0.0179981390837051,1
0.082378197486034,0.0185250027893327,1
0.10762243746233,0.0334029117786135,1
0.0757443987855475,0.029119727356438,1
0.0586881686566655,0.0239099374605679,1
0.0570155698005911,0.0223618056462574,1
0.0671245069265697,0.021573866573402,1
0.04924570693252,0.0151963429061325,1
0.0371487428900077,0.010369308544049,1
0.043803787224388,0.00606146317967516,1
0.0601517217538689,0.00707046322904106,1
0.0570262259879548,0.00683622722194804,1
0.0595314413482408,0.00790423516837152,1
0.0565736514152137,0.00667886357573544,1
0.0576933932669711,0.00585200287090833,1
0.0468396811027722,0.00340294558902791,1
0.0365352025105891,0.00231006873648394,1
0.0357152007644824,0.00275889664698862,1
0.0331723230908578,0.00295754655763769,1
0.0283237750793855,0.00585596321462052,1
0.020029689814004,0.00532950190779753,1
0.0271248527489732,0.00862474023134331,1
0.0245448657092804,0.00570808257445132,1
0.0270208155307944,0.00864827301754503,1
0.0277486225681178,0.00778335537662547,1
0.0271884530430345,0.0084389273599349,1
0.034123345848646,0.00900645695059143,1
0.0369122121753769,0.00635383993281186,1
0.0337759050136105,0.00371931130599313,1
0.0485914506135851,0.00804859949679264,1
0.054472781629492,0.00555083678569486,1
0.0455361641766983,0.00362297980332487,1
0.0745755652619114,0.00646571184179202,1
0.095280573523051,0.00458293365495887,1
0.0909057000241762,0.00521748361601668,1
0.078029914878547,0.00400712867426842,1
0.0780403145233696,0.00408157435270103,1
0.0760067054105867,0.00496665658149766,1
0.0702336206809565,0.00482088777060328,1
0.0785650664813998,0.00604354357090195,1
0.076811528031288,0.00765625940900852,1
0.0726105157789635,0.00711342113348276,1
0.0493400033243606,0.00562905505627962,1
0.0373191680802797,0.010086987486966,1
0.0393612338717736,0.00836603463367326,1
0.0419502557397643,0.0080287986077216,1
0.0501652707169366,0.0122701790937022,1
0.0582787359448274,0.0135080203245475,1
0.0585812997402884,0.0129204344443263,1
0.0539288786396841,0.0131938487871955,1
0.0537000478304444,0.0127322863046859,1
0.0540633752058253,0.0113959607601621,1
0.0724269622607943,0.0225127930249949,1
0.0757835072684513,0.0267177366888552,1
0.0790498895740172,0.0207424533430606,1
0.0788591478807696,0.0194659352463272,1
0.0979146265297732,0.0215580592525098,1
0.10432555452094,0.0216651641720818,1
0.100227714282829,0.0202336918896753,1
0.0738523435927686,0.0141049556858444,1
0.0578521874083185,0.0103977350895835,1
0.0484080731362417,0.00903881004456238,1
0.0489156674384558,0.00973192590538914,1
0.047364964332947,0.00965043217863973,1
0.0624637860467742,0.0175867741281158,1
0.0590428189133967,0.0199064223848902,1
0.0831735693340962,0.0260236480183781,1
0.108151040788295,0.0256372553691881,1
0.0723977156740921,0.0122512507489989,1
0.0777274100099848,0.0110856110699754,1
0.0746791824913603,0.0106555402482565,1
0.0829418168953872,0.0118198947097082,1
0.0910531471643036,0.0121900057208433,1
0.114870867782358,0.0148326421602326,1
0.118759005143155,0.0148631728278727,1
0.149676110303187,0.016918519977294,1
0.134171022451823,0.0155223228017345,1
0.105477338144035,0.0150411765020346,1
0.110436856903565,0.0213357012236111,1
0.0465492380659126,0.00999641478632621,1
0.038809007654568,0.00702083723208535,1
0.0814453862149522,0.0148087718410603,1
0.143890633065939,0.0246300804539336,1
0.181624340678971,0.0323511430828109,1
0.217307774239754,0.0398644367834591,1
0.258280707829161,0.050933348919054,1
0.2337005506199,0.0542900691794131,1
0.153361126064158,0.0380899459995826,1
0.122201316326496,0.0402894053426249,1
0.0685852623200203,0.0328058421103383,1
0.014102664855777,0.0123534412748951,1
0.0113289151192607,0.0107919203787815,1
0.02324947631744,0.0175352907998262,1
0.0254157073549307,0.021092649142304,1
0.0288375613273221,0.0274787951107929,1
0.045150276381328,0.031794353782863,1
0.0456935458502974,0.021923880075677,1
0.0661529979126945,0.0217128667815896,1
0.0591671677331455,0.0127397832938044,1
0.0493354634556133,0.00976591193077842,1
0.0363083984753543,0.00463441831221817,1
0.0430275496607057,0.0078867117383597,1
0.0465127451047726,0.00564552241305112,1
0.0439242752428516,0.00488371909992956,1
0.0492216520426952,0.0053483121543087,1
0.0482766025476463,0.0045413667878385,1
0.0478144494572049,0.00485374749050646,1
0.0382600888944082,0.00501380961705024,1
0.0373097027172502,0.00766083216160606,1
0.0352572086458073,0.00763258146244064,1
0.0345371220049705,0.00987002536525476,1
0.0132092058155958,0.00143127407251542,1
0.0121863555962143,0.00191588633108958,1
0.0266734695348382,0.00740376078281151,1
0.0246759801732581,0.00635266487631071,1
0.0234431812917886,0.00730755811598869,1
0.0230890202887178,0.00793567621756262,1
0.0233102182153571,0.00790304111948222,1
0.0255797632140818,0.00526350571148611,1
0.0384783529436371,0.00724521543195144,1
0.0416750651447436,0.00560935450146747,1
0.0500363675020773,0.00752509768885205,1
0.0512588196216865,0.0113616700673691,1
0.0374161322292225,0.0100900432419327,1
0.0386206022642209,0.0108475024349901,1
0.0400062604171797,0.0118435081191591,1
0.0411752115726521,0.0124489819038239,1
0.0408935217849925,0.0118553698264468,1
0.0414939744352529,0.0135095668141424,1
0.0317573969879075,0.0147906544142689,1
0.0368776654867638,0.0286601909298728,1
0.0316164017807104,0.0199547893147565,1
0.0295276987486418,0.018731761673647,1
0.0295656354124004,0.0187324114677595,1
0.0477583891983869,0.0192155482231181,1
0.1902215714026,0.0380310608837645,1
0.210524091935546,0.0195535511090538,1
0.208360279176247,0.0181932639477398,1
0.201816756357659,0.0159640832323462,1
0.204331145389126,0.0160372182035646,1
0.207081874054631,0.0159823610146964,1
0.203648492395608,0.0164501130967223,1
0.17908245981569,0.0126101747896457,1
0.190501876936718,0.0124186398243843,1
0.193353548620859,0.0146324605682536,1
0.153822216113981,0.0107010520383664,1
0.192867627227571,0.0214056294056272,1
0.199243169552675,0.0238886659222391,1
0.18539455785414,0.0292038713844677,1
0.167914986653944,0.0254215132541726,1
0.133656088270704,0.0222938500132221,1
0.0756324594432495,0.00866468920607137,1
0.0503972080400593,0.00704355048787908,1
0.055870160265131,0.0106169026698246,1
0.0765898198232494,0.0148843465704517,1
0.0811965151220417,0.0186849263251461,1
0.0652848647362375,0.015520627469587,1
0.0723611248283093,0.0170926383625999,1
0.076129274726064,0.0173349243052926,1
0.0630894143629963,0.0176051124639451,1
0.0359064913290723,0.00824860723840665,1
0.024795362012378,0.00559869480531441,1
0.0657420965781156,0.0177729601218966,1
0.114435099756996,0.0257862022552201,1
0.137778595365767,0.0295141082530804,1
0.165259208013978,0.0405798029482104,1
0.180234269351568,0.0386686328563468,1
0.16612907411843,0.0340603829380854,1
0.168947384562136,0.0349915042478265,1
0.131021465117803,0.0267299501660236,1
0.0876328378062403,0.0211908356450053,1
0.0274108672941697,0.00700288407938567,1
0.0300359928925563,0.00513428548561596,1
0.0351660073318692,0.00244294294885847,1
0.0392558657425888,0.00307505807018899,1
0.0440699051128191,0.00270438095505226,1
0.0550686015790619,0.00598331573061355,1
0.0619078077046029,0.00792753460851295,1
0.057887559287888,0.00743158329984229,1
0.0508994157113105,0.00649389982779838,1
0.0508172865635245,0.00607629155561676,1
0.0444091418512427,0.005050455487864,1
0.0445319700652271,0.00862846207757683,1
0.0449270040614739,0.0153323461359107,1
0.0312641792867423,0.0112162758185752,1
0.0309628579675942,0.0125415688367293,1
0.0430723287855208,0.0136390858009816,1
0.0382445199862014,0.00842220460705484,1
0.0451710283114295,0.00680145469248359,1
0.0717566430237149,0.011083227022298,1
0.0725951269668796,0.00928492078557676,1
0.103363897310672,0.0103556625610753,1
0.101174929533966,0.00388471125282979,1
0.0921391904202448,0.00199946799689697,1
0.0907485719945801,0.00192766130560527,1
0.0854573739245205,0.00176287584851952,1
0.0858289266585446,0.00117682156187106,1
0.0930769229875546,0.00287211869438723,1
0.09609250107912,0.00415035566328538,1
0.0906083885940328,0.00367703080358595,1
0.102103504700371,0.0047924532349914,1
0.096979523080298,0.00347584551115976,1
0.0786177905081342,0.00663717500015222,1
0.0519826244644222,0.00313409796773251,1
0.0813567508348483,0.00684842648069207,1
0.0820863882219157,0.00492124977154677,1
0.0776747062905639,0.00557736201225961,1
0.094064999423106,0.00611791646032593,1
0.107467842446832,0.00628029345761689,1
0.109429837310943,0.00696417280089212,1
0.0789176538916403,0.00504181464212877,1
0.0639241900356021,0.00574370239490378,1
0.0575713423947093,0.00661994499832316,1
0.043405268932063,0.00604817723565888,1
0.0436193663613724,0.00838630954438126,1
0.0502813933779385,0.0109936544800113,1
0.0825479038832471,0.0178300140724579,1
0.0738650024170446,0.0224585387204752,1
0.0559086475137911,0.0195176537642456,1
0.0527893109441286,0.0182012446684763,1
0.0402408129739436,0.0141945704432137,1
0.0436145525138003,0.0137976709267391,1
0.0430841664995114,0.00710902860384198,1
0.0482615050090995,0.0094112102347691,1
0.0507537531556622,0.00842170535541165,1
0.0507333229665896,0.0126533961229015,1
0.0384641098408549,0.0101350023340318,1
0.0414743377244332,0.011662507632979,1
0.0659183668347921,0.0167650368879581,1
0.0761658472429756,0.0169286343641555,1
0.0766626015466989,0.0174131923952498,1
0.0582750127414507,0.0160828889401289,1
0.0380413317437176,0.018813918275061,1
0.0557490543017651,0.0214243237264017,1
0.0811205124696498,0.035991394157516,1
0.0681623822419181,0.0264588627724384,1
0.0687922502492924,0.0173641596048907,1
0.0644398425426176,0.0113754047652406,1
0.065247038318652,0.0121339067428412,1
0.0722330870884633,0.0134466282308137,1
0.0749770185952832,0.00945943250756528,1
0.132946180697212,0.0158847535582115,1
0.150818613771122,0.0137283792440263,1
0.157198663168787,0.0120469589608144,1
0.224023342823939,0.0137900759204877,1
0.226267729825618,0.012310335364469,1
0.194228718253154,0.0120621753863736,1
0.184628196220724,0.0103457472792295,1
0.202305277066224,0.0124371323768519,1
0.152532859167887,0.00938616535895404,1
0.142807262052091,0.00535110800394493,1
0.171393490630315,0.00668645099446465,1
0.166930151547132,0.00824375769919453,1
0.168213862605203,0.0101930751985035,1
0.14894998034667,0.00835882568348852,1
0.153214659082307,0.00875055182192982,1
0.134144782287555,0.00640598522111635,1
0.134123263287601,0.00818751037282299,1
0.127208713096943,0.00772547594382683,1
0.122198267332098,0.00573028390957742,1
0.112038145583079,0.00878513123406221,1
0.15766691804579,0.0156111526310727,1
0.258463803624488,0.0222324047412772,1
0.297442690767335,0.0236601427630902,1
0.378136975916244,0.0311243999969357,1
0.432262489378001,0.0399950778041688,1
0.438708226241835,0.0467542080714971,1
0.367696366929426,0.0387710414334501,1
0.236264562959871,0.0258163546034064,1
0.130266188471818,0.0201497732982086,1
0.0809467247453687,0.0130998302932329,1
0.060646082582377,0.00777335098230755,1
0.0577117469551463,0.00682426586325831,1
0.0352993824896636,0.00339147174997143,1
0.0309831998796706,0.00363994845619484,1
0.0362567639685438,0.00358372773466657,1
0.0312413836611788,0.00246617774269851,1
0.033855341149096,0.00463145851581406,1
0.0277307795374428,0.00286156699242638,1
0.0271635914938775,0.00310429623029111,1
0.0278332550071236,0.00431243556882852,1
0.0253688207912446,0.00488558030007097,1
0.0249827751760218,0.00565521115415351,1
0.0175674997404199,0.0024628376638444,1
0.0169667249059197,0.00291160674913749,1
0.0371112929797634,0.0146164559168974,1
0.0322625594666072,0.0114766171352596,1
0.0341701299646796,0.0139459835274194,1
0.0759559383674289,0.00842179196158729,1
0.152454180095504,0.00873834977807153,1
0.161359572001254,0.00858682380875499,1
0.153153811820651,0.00834935094796519,1
0.149546494153763,0.00624954644945489,1
0.158658940376757,0.00666946874404352,1
0.14707528298478,0.00624030189658641,1
0.147039868818761,0.00645789473401733,1
0.145408783780314,0.00636776343948266,1
0.146139883607698,0.00573976270337915,1
0.135843563440294,0.00776457753942321,1
0.0820075742035387,0.0057904357854809,1
0.109287290131262,0.00698890459125809,1
0.116618885732594,0.0014185873648845,1
0.139297631642405,0.00431924169492656,1
0.120107548602266,0.00265594444572145,1
0.117940351920532,0.0025640896391927,1
0.120844010215663,0.00254780388781397,1
0.123185881392871,0.00271349225519443,1
0.117408770732087,0.00300933071431596,1
0.115800502530725,0.00392764632094605,1
0.115481123073011,0.00449007791147592,1
0.0747060626076499,0.00305691738292082,1
0.0524309790199291,0.00980870775088725,1
0.0335019755192479,0.00650338774831696,1
0.03619710868727,0.00870464154358543,1
0.0500270839987662,0.013073672195226,1
0.0503682066777751,0.0116338767439619,1
0.049104675051218,0.0101067010142282,1
0.056149805847719,0.0102550198905369,1
0.0502483619272337,0.0128310754193921,1
0.0262160141427193,0.00578723377254896,1
0.0200888041094859,0.00528787471385488,1
0.0256382881936221,0.00805016840272079,1
0.0353382558637456,0.00864071299661781,1
0.069020710991385,0.0200406166770296,1
0.0686198754290934,0.0204670454783415,1
0.0834458874009701,0.0280970589032918,1
0.0805611842782187,0.0306512868619357,1
0.0608247319415709,0.0223098223699004,1
0.0857361287221182,0.0156005204787821,1
0.092412590960961,0.0110254355674171,1
0.0886943885547869,0.00779013575545751,1
0.0922050287450802,0.00725926542214434,1
0.0983502322787483,0.00945469018890582,1
0.0977630556682298,0.00673997670500122,1
0.10133483525595,0.00669132194952623,1
0.0958725909124313,0.0053382676429945,1
0.113903547414018,0.00838494147734364,1
0.109915634221239,0.00886085426899404,1
0.134041987013551,0.018184724598624,1
0.140149451107114,0.0228886594029481,1
0.117852245919974,0.0270095765375958,1
0.0966786167901383,0.0253488765899498,1
0.0659587766791715,0.0201673283906944,1
0.0427736227540814,0.0191123927851247,1
0.0491428034249337,0.0197723378071316,1
0.0318357398270462,0.0158172218841141,1
0.0473018224748015,0.0142637560796379,1
0.0934337561416579,0.024586944190084,1
0.0882717087302502,0.0231413500790363,1
0.0839329985334483,0.025967118948152,1
0.0978771999195243,0.0295438624056679,1
0.103902161469685,0.0197447480798623,1
0.1095363345372,0.0196159678595232,1
0.109990673349401,0.0158296402944991,1
0.100603800791391,0.0151355072978987,1
0.157276235683117,0.0174434957425392,1
0.173599749137812,0.0090006831314959,1
0.17248741000511,0.00890221308360158,1
0.175649952846627,0.00931710094561718,1
0.180300382251867,0.00938647444578594,1
0.171166207748221,0.00812681426065444,1
0.197400441684117,0.012340258738999,1
0.233358828697878,0.0117778976322415,1
0.218466861747049,0.0112793231940678,1
0.20360010129297,0.00875737410758053,1
0.140281423915839,0.00607235420343476,1
0.0884624129293695,0.00722843389755941,1
0.104443426807535,0.00468127448936433,1
0.162484324753972,0.00868870936563467,1
0.176493029650348,0.00934002885756882,1
0.184343007352854,0.00976617231851218,1
0.209406356490247,0.0113337649675532,1
0.215032906048516,0.0146491207159664,1
0.145091799674763,0.0102441390093458,1
0.10869029715172,0.00877122344213858,1
0.106264904186561,0.00830893922127273,1
0.0489783911084602,0.00567241853114517,1
0.00622628366825958,0.0108407068529075,1
0.00622668605233783,0.0120665326294777,1
0.00479099842468218,0.00957589868168131,1
0.00736816637812476,0.012280307469046,1
0.0164970015271161,0.0223044675277931,1
0.0175924200881841,0.0220346857429451,1
0.0260426475973638,0.0243866202907075,1
0.0397267129200903,0.0358654356709562,1
0.0518720491141201,0.048219731104299,1
0.0568497606224219,0.067433697398473,1
0.0442189597382528,0.0323886981674326,1
0.0353856213655887,0.018615052326378,1
0.0443779630315324,0.0164889670355703,1
0.0401893557669247,0.00840514592116375,1
0.0429020271927662,0.00581717861339509,1
0.0381996736263572,0.00396183118230863,1
0.0393040318105027,0.00496023002463566,1
0.0430817920662415,0.00241272167139101,1
0.087799912118548,0.00682928190980712,1
0.094945847206762,0.0058576411930367,1
0.0879335989921247,0.00628421551071397,1
0.0793153004153093,0.00630956929140154,1
0.0762171358107202,0.00640022315214672,1
0.0684078860350571,0.0072430417635441,1
0.0634668860589493,0.00903390655280178,1
0.0629714470708507,0.0100019177524746,1
0.0559417565370823,0.00848360076208088,1
0.0537914302903155,0.00603804190424975,1
0.0944738651936853,0.0133156916768279,1
0.108603178536693,0.00927475825670553,1
0.106905279996457,0.00864434090501554,1
0.111718384266057,0.00852918023767398,1
0.112313739585429,0.00607389288045306,1
0.120263062184184,0.00730752010713682,1
0.124677361421763,0.00750764909284514,1
0.127416610933303,0.00759232050973343,1
0.118158775019648,0.006845395289813,1
0.10639109809015,0.00949093902002987,1
0.0589713126189583,0.00492278074365669,1
0.0443132760449436,0.00642296335319179,1
0.045393383957225,0.00589674206111773,1
0.0499351312833954,0.00394593873481303,1
0.0573261603648902,0.00796069718046051,1
0.0506422825735577,0.0066141125263723,1
0.0511477894302437,0.00694748833745623,1
0.0510963214932041,0.00724496263030307,1
0.0539573404710181,0.0067887675037488,1
0.0581006464305373,0.00754271798416451,1
0.0472305575802193,0.00600881995284099,1
0.0596430573006893,0.0106669090891943,1
0.0618892347683446,0.0132557440534464,1
0.0573515101518084,0.0200329520276329,1
0.0522784708239151,0.0204202994536738,1
0.0611174130485694,0.0155885844995344,1
0.10357656917273,0.0171775136981985,1
0.0820996906235789,0.00964220531192151,1
0.162433559173244,0.0170666802494301,1
0.205198290029458,0.0212905385252992,1
0.206037062881183,0.0215379820457036,1
0.236833405219159,0.0215573287071282,1
0.225186530938808,0.0193192195375476,1
0.172613062701182,0.0163187890383415,1
0.114575038101967,0.0113309331551327,1
0.0976366684020689,0.0117964970455282,1
0.117581262830312,0.0182870760853431,1
0.106904646463287,0.0255009171251157,1
0.0857352321021099,0.0372872032918651,1
0.067185486839435,0.0321417396834464,1
0.0533447441987319,0.0245662270663845,1
0.0181960797151348,0.00332380789512138,1
0.0264855368976143,0.00839530073753372,1
0.0638931874786789,0.0140442965610202,1
0.0925211373565371,0.010894002026308,1
0.0909309199173256,0.0116134649787361,1
0.0799552120775828,0.0104855532233755,1
0.0784972648764993,0.010609246058904,1
0.0764701828314544,0.00932507383374829,1
0.104160306849538,0.011695113296776,1
0.107355535179218,0.012060542592521,1
0.106608736952756,0.0130234366702546,1
0.109857005052742,0.0111571484392047,1
0.117859525978918,0.0090156244698802,1
0.148286688172156,0.0130079350893559,1
0.158557519835678,0.0124568445803142,1
0.221532764605152,0.0145601088919067,1
0.257174470289752,0.0139414045949354,1
0.245442071870289,0.013195541943431,1
0.291328464517133,0.0155301230291532,1
0.272964227931189,0.0135322660922275,1
0.243167513512431,0.0142685155825266,1
0.0850753718249468,0.00159902542512951,1
0.0726357155305588,0.00735264768037394,1
0.075204606337262,0.00578820160149348,1
0.0530218636116983,0.00278334982387437,1
0.0489499189177523,0.00545959630073142,1
0.0459495461136063,0.00630100315383233,1
0.0466015597993927,0.00648279461449957,1
0.0393375355035355,0.00468608798082563,1
0.0383597537263548,0.00474486326533268,1
0.0494217900223295,0.00689916942419269,1
0.0741934568571613,0.0124039874682644,1
0.0637964286627977,0.0127992837789727,1
0.0769721240300102,0.0233893036437194,1
0.0777292963091228,0.0155728153726021,1
0.0789251540964717,0.00774032127777937,1
0.0989864508283245,0.00764661883639977,1
0.0924966629596095,0.00458800802831091,1
0.0961533255328418,0.00456740313195027,1
0.0860221085107077,0.00390697024424064,1
0.0921650535784707,0.00473500533600119,1
0.0859937664442666,0.00401546523564841,1
0.0855206913717439,0.00397195042133888,1
0.0817117318101792,0.00293510084893889,1
0.0831539556586258,0.00642141126857474,1
0.107107654871211,0.0151958713097334,1
0.0854448688546029,0.0124310557611868,1
0.0808274864048625,0.0190556818978357,1
0.0780377545473908,0.0156805343046773,1
0.0834547527341627,0.0152751192758961,1
0.0853931745475142,0.010075510808097,1
0.120314049205336,0.0101409041580833,1
0.106725889979131,0.00810660158989266,1
0.108275769371765,0.00857026341306035,1
0.116403794687664,0.00897109846234334,1
0.104263221494073,0.00667292477591381,1
0.103228271945778,0.00895022422922817,1
0.100576563699158,0.00571900506321283,1
0.112095343671103,0.00467087735886005,1
0.123894628170816,0.00568303574010557,1
0.118881967179337,0.00843502397260826,1
0.088950051673293,0.00679921252558164,1
0.0991193454534461,0.00744940541466578,1
0.10225103422675,0.00779989855585681,1
0.100127538901992,0.00659180060944657,1
0.0989095055383447,0.0073432364712035,1
0.0960048924743564,0.00710364988320425,1
0.0868153424147022,0.00861094172945467,1
0.119216801940024,0.0209622808224248,1
0.122898771169039,0.0178244653916352,1
0.13310207708533,0.0186779591485066,1
0.108008164563261,0.0162624352669389,1
0.0997761960622301,0.0143407109256945,1
0.10894442697663,0.0170895818679399,1
0.108999126757837,0.0168638029729358,1
0.101807499742976,0.0175046675219196,1
0.104092545423405,0.0173135506095074,1
0.101639911211118,0.0209243228610747,1
0.0714634785217876,0.0184287524430923,1
0.071932892191708,0.0265380557046247,1
0.067929427004354,0.0209581144095366,1
0.0766635615740916,0.0197800228691336,1
0.068587506066769,0.0168774327982038,1
0.0594944831766263,0.00684505624782025,1
0.0794861809883453,0.00972220413941365,1
0.124271348076904,0.00574936450055138,1
0.186119012225479,0.00950315677042325,1
0.193542929937517,0.00780665672727558,1
0.198127390146906,0.00670503818523376,1
0.205474232804673,0.00666978422361477,1
0.224467711729977,0.00873738970140409,1
0.200432985544637,0.00782217201593088,1
0.202003100461409,0.00751393464682098,1
0.228349818031099,0.0117931575787878,1
0.119552289019955,0.0029419960435706,1
0.125185886286498,0.0103393349249828,1
0.115475493724653,0.00701769209940561,1
0.10446653599334,0.00724782969585465,1
0.102217999099457,0.00723875079035926,1
0.103384766999953,0.00674851932620319,1
0.15747447695112,0.00622611223250565,1
0.224273400886979,0.00609650947857722,1
0.229031455177781,0.0081827422269023,1
0.219323125799875,0.00683434724056125,1
0.217579264436961,0.00762244857505816,1
0.236968954154709,0.00757780190430054,1
0.308070289563367,0.0118999574206056,1
0.312877741863777,0.00909001638997296,1
0.319988187033656,0.00714712315935373,1
0.419871502189546,0.00937265277170731,1
0.385027902747077,0.0106154120748181,1
0.317451139066058,0.00925304289754268,1
0.376921717452447,0.0102683464555224,1
0.404836393488591,0.0113791835079335,1
0.41439146382348,0.0113016249313315,1
0.441737954802487,0.0127209368280592,1
0.450917648239178,0.0126448355976467,1
0.33508810079933,0.0181532336758835,1
0.0981973143257981,0.00788264134795568,1
0.0809672958067515,0.0107859703560991,1
0.0359847372999416,0.00618966408708738,1
0.00883953581074018,0.00869152799610151,1
0.0101901446181479,0.00913130252355657,1
0.0128013042768662,0.0123068523506267,1
0.0135237234214153,0.0151691075910329,1
0.0126291226605939,0.0172357694487688,1
0.0113367351125265,0.0172834414484369,1
0.0144931626494302,0.0446001234620082,1
0.0253895715190563,0.0518029054787617,1
0.0409750384766725,0.0663878765371824,1
0.0596632665826614,0.0655981824455491,1
0.0479968608660646,0.0357448968257547,1
0.0669280638635416,0.0320702106501543,1
0.0751621121161576,0.0226032046880828,1
0.0661242436425272,0.0195633691593131,1
0.0492709992950459,0.0150035641153248,1
0.0340075658191089,0.0100135252086377,1
0.0293505567522401,0.00775649108460065,1
0.034493239306422,0.00400987452654175,1
0.0440688002972562,0.00299329801622063,1
0.0600630782340026,0.00437807000142688,1
0.0553373678485225,0.00316017945704387,1
0.0534641689598319,0.0024565150674158,1
0.0875392448587008,0.00682703999318759,1
0.0837315150889368,0.00308204625694933,1
0.0870816356780756,0.00227616154992616,1
0.0911288338566171,0.00315344246552287,1
0.123071505849016,0.00588777191228196,1
0.136397868805806,0.00374239305255537,1
0.126312801926408,0.00277374056553185,1
0.129216248149963,0.00269535141648784,1
0.143309006639284,0.00333590500110385,1
0.14083781866477,0.0032188645205168,1
0.121250030391045,0.00243050210335394,1
0.111290601170087,0.00369111452087835,1
0.101181839993399,0.00397396741410152,1
0.0989580815431825,0.00337950145127238,1
0.0698441629008731,0.000347285942742582,1
0.0646251754827714,0.00137706284883702,1
0.0746281271279821,0.00405711213389832,1
0.0709971399902571,0.0058357645344604,1
0.0711800214642807,0.0079733276878862,1
0.093606193677984,0.0131659771135593,1
0.126442440166897,0.01987768045704,1
0.124534486355622,0.0166391604957779,1
0.117748906322936,0.0140357540572215,1
0.126026097571397,0.0146438332781799,1
0.100309462634396,0.0151797393976036,1
0.0360065671090993,0.00979381650832477,1
0.0368919781848097,0.0149419084987904,1
0.0332171106160498,0.0142692342371522,1
0.0329567715049377,0.0133817162462914,1
0.0312272073186753,0.0160327187339279,1
0.0301357319875912,0.0146654554521385,1
0.0260806709179918,0.0180282538200371,1
0.0159553373741144,0.00750650913845729,1
0.120903934241889,0.0233130237316768,1
0.154008106421657,0.0110818964805259,1
0.156615057866212,0.0101032276846549,1
0.160817121239176,0.00958944235901395,1
0.160559802569149,0.00961949676417314,1
0.162735595243433,0.00937227724444234,1
0.203988444599333,0.0108627324842642,1
0.194741645769334,0.00844808855905137,1
0.290013839796168,0.0116397788335787,1
0.281914774991262,0.00552476319541385,1
0.274722958709677,0.00454117421687569,1
0.268526074940216,0.00597606854474462,1
0.258638679366661,0.00522296167666707,1
0.30690947264934,0.00470570395052485,1
0.312038967230435,0.00227136926966469,1
0.316571133681753,0.00235096197357639,1
0.311829019445046,0.00239746175700059,1
0.309424231421652,0.00337286700429117,1
0.240424027750138,0.00136785785901774,1
0.21523207891557,0.00316528454521408,1
0.200814646020819,0.00400718477995376,1
0.219340078276532,0.00421273442223998,1
0.221238040389608,0.00364335016034613,1
0.165932441394317,0.00487368204931383,1
0.12790815724023,0.00618143660323792,1
0.174755448485253,0.00996073182037209,1
0.19577241981618,0.0110917750206417,1
0.19691165241699,0.0109133168920373,1
0.256561097499324,0.0131720359352347,1
0.288322766515234,0.0120870478217228,1
0.287875302478174,0.0106923707748103,1
0.306521231381566,0.0132879904402221,1
0.2248959842807,0.00660065898701892,1
0.189505899105536,0.00338312885303437,1
0.232371131479444,0.00430394844142832,1
0.308478968565946,0.00708806990203449,1
0.369149695354801,0.00932498257132091,1
0.372073866716605,0.00854570168304588,1
0.398088718333684,0.00963455120183323,1
0.39367650646148,0.0163554193978779,1
0.214934620215607,0.00877403489976744,1
0.196299031787548,0.0118416517970961,1
0.16356949711013,0.0210276185715178,1
0.0227419864610032,0.00106248129928429,1
0.0111268665234081,0.0104475102269335,1
0.0087531215449331,0.00654352205130306,1
0.00797218943212116,0.00795929174423738,1
0.00822152437883971,0.00780995300762407,1
0.0111497732301076,0.0116963383446133,1
0.0109575549450963,0.0121646073597294,1
0.0140016641492886,0.0133407517632807,1
0.041005373932592,0.0293191588028191,1
0.0467875902193524,0.0315061135859822,1
0.0825474284594756,0.0282243164800637,1
0.143664802365571,0.0458076876157251,1
0.148989457954098,0.0429551886369182,1
0.129106538107966,0.0387742820678344,1
0.112117586354139,0.0364547623500951,1
0.0978788209190888,0.0347799180204605,1
0.0697812374093467,0.0192945703614152,1
0.046586145048916,0.0108666991670547,1
0.0439078852784267,0.0107886677190653,1
0.0385615448605194,0.00864105119033286,1
0.0675668594929128,0.0209048062653176,1
0.0623551961404044,0.0093560182866273,1
0.0639800897017129,0.00652081485756378,1
0.076369916212241,0.00779263671418745,1
0.0716167566482501,0.00631855879023963,1
0.0655605382002148,0.0045569001826417,1
0.0667269728530345,0.00461377071797101,1
0.0894716611004447,0.00783143257951221,1
0.0876223278827566,0.00458041926438913,1
0.0897154515105039,0.00335971156740573,1
0.0807261372136317,0.00297679468097181,1
0.0772106260442394,0.00314489475615194,1
0.0818233826266582,0.00635474344021541,1
0.0751291498718102,0.00582196631067919,1
0.0779314259528194,0.00685551326674452,1
0.0741328384908372,0.00636225132017539,1
0.0711462750529044,0.00947912835442604,1
0.0471462067478195,0.00715343713346633,1
0.0481635542038253,0.00789951986097233,1
0.0541910555049376,0.0152165164801436,1
0.031671641595838,0.00846548973088875,1
0.0289559442652521,0.00778772477886806,1
0.0605974749397713,0.0128651606546328,1
0.0681815172400835,0.0127214269154762,1
0.0723247046706731,0.0132301113782341,1
0.0713937240284468,0.0137724491934301,1
0.0712767530244673,0.0135550698734427,1
0.0822083827584857,0.0105483796541081,1
0.10599304368175,0.0129214361971531,1
0.0880020421381083,0.00964784865058109,1
0.0781152476736056,0.00738247464739403,1
0.0556712917715921,0.00473744567318932,1
0.0609371866284019,0.0065468722972123,1
0.0853696316232429,0.01018849052697,1
0.0877974542067695,0.00784101950093224,1
0.0955711283555434,0.0091867394020558,1
0.105781206964991,0.0108031470428027,1
0.10625670154408,0.0138447746429916,1
0.145746971001862,0.0165262897317792,1
0.157103044498001,0.0153817002059035,1
0.177408867973834,0.0170095961763411,1
0.207725077552958,0.0163325119934723,1
0.271627780478926,0.0242537742952035,1
0.261116584791845,0.0245001742201666,1
0.230405361649234,0.0169965252223426,1
0.246544513710147,0.0150221053157435,1
0.307390700288384,0.0177744776832899,1
0.295145876340001,0.016426172088162,1
0.287872868048988,0.01908369510086,1
0.294781480858496,0.0217376101589195,1
0.300738283461672,0.023226141380542,1
0.303126737713575,0.0277137230430157,1
0.284696321234659,0.0234948111065171,1
0.245495544395649,0.015306206897781,1
0.22929285674307,0.0167288539202596,1
0.219098485873804,0.0188598379968545,1
0.123675952159742,0.00795017869738016,1
0.0917845409040956,0.00317725741064119,1
0.196305031537654,0.0119041842975507,1
0.223513370900371,0.00590524325201842,1
0.230515615003821,0.00551982585592249,1
0.245748306454038,0.00587614699554973,1
0.256825517231307,0.00593829238473965,1
0.250878596084899,0.00653109603063385,1
0.254340242489142,0.00701007750795291,1
0.295370479983719,0.0101399673557353,1
0.337764762768755,0.0126529912904198,1
0.348352679516885,0.0170307532820611,1
0.195703946725831,0.00896791473470753,1
0.132864891000913,0.0104367084455155,1
0.120435067263538,0.00590193987569565,1
0.179208975538327,0.0108156333451225,1
0.18578053734414,0.00321330371412939,1
0.172372884204445,0.00109945512702369,1
0.185958594328786,0.00175564146660953,1
0.187401134732765,0.00131787427217972,1
0.253464420812447,0.0028602040143193,1
0.30711389402727,0.00416744529854588,1
0.337317429643972,0.00485578535514749,1
0.359392454731234,0.00709200452877237,1
0.346767575555764,0.00814338751890999,1
0.356846059865509,0.0083482746113318,1
0.286526352565934,0.016306611559575,1
0.165522193362155,0.0158113116191931,1
0.140690526521842,0.0151009529040261,1
0.0481662343385832,0.00427779618581084,1
0.040533928071486,0.00993945384734811,1
0.0321581168194981,0.0135967728135198,1
0.0133657484294591,0.00861847227161282,1
0.0146056040176419,0.0114000885271567,1
0.0140582393219971,0.0165148015063485,1
0.00557122630352345,0.00601675111522345,1
0.00556712931870689,0.0122335751879537,1
0.00543698749857554,0.0156964887322071,1
0.00539152639258366,0.0115675585072861,1
0.00870870533802836,0.0236773182032955,1
0.0130847441447129,0.0359707677171808,1
0.0253905164827311,0.0518731136258202,1
0.0396530812657871,0.0820498369731595,1
0.0663586758526987,0.0912389460857603,1
0.100879460098703,0.124296106364528,1
0.125067409894612,0.124212479302095,1
0.114029160894578,0.0530277641730458,1
0.0887748923024382,0.0396294094941744,1
0.067126042071977,0.0312706393628838,1
0.0586101446161472,0.0233008227758821,1
0.053535414934595,0.0173559362200617,1
0.0515254768084354,0.0145746773702463,1
0.0575026567736858,0.00566127696866208,1
0.104946563851585,0.0108949482319442,1
0.102497240382603,0.00573297301049294,1
0.100822887093436,0.00322350803621879,1
0.113349683368986,0.00554163720564045,1
0.112330204673041,0.00355238053007953,1
0.119456769751969,0.00277491009829781,1
0.129401714886703,0.00437297547221409,1
0.124379763627314,0.00294831464539913,1
0.131766497932156,0.00350767608905944,1
0.13201411143334,0.00680990109649353,1
0.106887239434798,0.00322429584807741,1
0.117986229863927,0.00397766888546118,1
0.11033615995593,0.00380261927649093,1
0.129289031385167,0.00481559266482687,1
0.125298208982311,0.00349206286314166,1
0.1177051935646,0.00306628047342174,1
0.10969516792228,0.00205925131917249,1
0.11005460537227,0.00323717573689469,1
0.102064686529173,0.00258535071485225,1
0.0928561738884732,0.00159870019520186,1
0.0843187529427183,0.00273916971020838,1
0.0797513165183342,0.00384914443511036,1
0.0803991311529694,0.00371723394467377,1
0.052908547805368,0.00164663890124492,1
0.0457818451612567,0.00531626509850498,1
0.0649391300565522,0.0101026707809844,1
0.115684934657184,0.0222086182375357,1
0.139657140166452,0.0187191166754277,1
0.126992287140488,0.0169722440507165,1
0.133290031768801,0.0157633246755593,1
0.112547103723861,0.0132952059971718,1
0.110246292526234,0.0158424234714734,1
0.097623126451886,0.016161313254151,1
0.0725472781474149,0.0118453484922428,1
0.0500925063066961,0.00691964690807939,1
0.0551525710705363,0.00815706061659847,1
0.0572240533078446,0.0057224119145408,1
0.0873945998760152,0.00994972757600752,1
0.0963878751177921,0.00614934178043427,1
0.097191191998911,0.0058736113617472,1
0.0947328592909567,0.00481948668396948,1
0.0999060750051528,0.00447190639868683,1
0.102771951470573,0.00320234593447329,1
0.166172002151988,0.00776131507430256,1
0.183618101616107,0.00420508434460778,1
0.216868273615844,0.00590367358234052,1
0.215863183962631,0.00778302503431672,1
0.19347865025728,0.00401652961571473,1
0.225612732328981,0.00465711911074064,1
0.225797765455547,0.00523873281833695,1
0.22325040205202,0.00489457597402011,1
0.222171581864356,0.00521822509988071,1
0.21656599320339,0.00585850140004141,1
0.208561198691626,0.00468151627800608,1
0.196802734906117,0.00613378872165636,1
0.15325096637624,0.00440782428812162,1
0.137884562254203,0.00285997590065634,1
0.128631196128374,0.00687555911009655,1
0.103639772992903,0.00640633820771719,1
0.145122730925946,0.0102610784918404,1
0.229368432321048,0.00116551384699741,1
0.390362169871216,0.00229691681097597,1
0.430953684334497,0.00342160776802321,1
0.459511864975433,0.00452359562365472,1
0.501047921786854,0.00144974250957107,1
0.643935766937481,0.00249039004721351,1
0.677556976937103,0.00294519596599179,1
0.663941070949555,0.00274835117707824,1
0.70002176168588,0.00323343705391084,1
0.673372631269982,0.0027083181273674,1
0.623821988812816,0.00626600614545359,1
0.404141930636974,0.00457032225289172,1
0.40208528778835,0.00465330374455689,1
0.419610298004895,0.00478553810468779,1
0.377800302406147,0.0143496631997255,1
0.0938709271860043,0.00689644928792577,1
0.117474470358693,0.0135203826961595,1
0.062270308219813,0.00768105771699357,1
0.0803129860983274,0.0146729377702493,1
0.0855802023995938,0.0145107791470527,1
0.0809328652171148,0.0144704774965581,1
0.0666724523946429,0.0103661286514865,1
0.0561456211927423,0.00673197339500276,1
0.0536023207923922,0.00602815514251242,1
0.0448505561874448,0.0045749232605219,1
0.0427036761941279,0.00290035698909826,1
0.051683162472809,0.00330593844186545,1
0.0514349881416504,0.00296585209873036,1
0.0490206720172832,0.00362117282482206,1
0.0449391582335327,0.00433720922291703,1
0.0394909731558213,0.00361680897517633,1
0.043605750156401,0.00865632291687115,1
0.0469721154157419,0.0105567014196652,1
0.0455640250882163,0.0115723254741521,1
0.0459006908775739,0.012345818519967,1
0.036670027984307,0.0184558412464165,1
0.0137021120400139,0.0103609851791864,1
0.0137959294936975,0.0116016120501049,1
0.0112677018573747,0.0125727152520724,1
0.0166382317734164,0.0146969411678166,1
0.0233784622545747,0.0121555333297574,1
0.0220633211814779,0.0110258308652386,1
0.019227386098875,0.00918117714662718,1
0.0202516527960084,0.00919208997766958,1
0.0279939023104175,0.0130091168405941,1
0.032843585078498,0.014198353506708,1
0.0729645272705492,0.0211493314830013,1
0.101545802487217,0.0162583367172882,1
0.0966545801321952,0.0130803619296585,1
0.099249742571381,0.0119246040996453,1
0.109917061910639,0.0162836801920523,1
0.0823542845932649,0.0117601896235589,1
0.0669060419396322,0.00749533252388243,1
0.0724261952756001,0.00815552571186647,1
0.073173549819063,0.00872550023160608,1
0.0763561046456242,0.00947403247765145,1
0.0594084507845936,0.0122449204651251,1
0.0399468102436864,0.0128429987233167,1
0.0467795076168437,0.018124051691243,1
0.0465719431521832,0.0232446848252053,1
