Activity,Complexity,Tag
1.58758325579875e-07,0.209894402793731,0
1.30163340300554e-07,0.203959086873188,0
1.17666461107209e-07,0.20273310289804,0
1.19938781568994e-07,0.201287693824024,0
1.16235204265266e-07,0.192938912680969,0
1.17740544431237e-07,0.195053776560264,0
6.09297061779124e-08,0.163800501380035,0
2.92102655411965e-08,0.139680892148911,0
1.97781274838126e-08,0.133940598999683,0
1.80815133620063e-08,0.132032559478887,0
2.65578705378587e-08,0.138954025745975,0
2.98321414567213e-08,0.138272284182975,0
1.70931075508159e-08,0.123711755358322,0
1.49595313747298e-08,0.124854373820318,0
1.61552291577619e-08,0.124372973869676,0
8.42641865536325e-09,0.11753675476678,0
6.62392073657657e-09,0.113801124058842,0
3.25884180050391e-09,0.108331719736852,0
6.1773007608815e-09,0.111719521055208,0
2.27042421136047e-08,0.124503511951105,0
3.79279529729031e-08,0.135115145360522,0
4.36803051915092e-08,0.142567877148123,0
4.26777658367839e-08,0.141800613252262,0
1.78585449347941e-07,0.227396398966578,0
1.87477803821831e-07,0.225886485410346,0
1.86591630642208e-07,0.224310177459074,0
1.79473389220506e-07,0.218369183166123,0
1.52133462607063e-07,0.198559335185325,0
1.51983647045596e-07,0.197555848974258,0
1.49288851411654e-07,0.204931936315331,0
1.4404436452406e-07,0.206212908872951,0
1.35734429823328e-07,0.199632981274583,0
1.27460182320022e-07,0.189098444007299,0
7.32156422340025e-08,0.16340354101444,0
2.05813603187931e-07,0.214724913557091,0
2.87072056149861e-06,0.587828698400545,0
9.24375770902769e-06,0.82341428450824,0
4.99119603807774e-05,0.740532236404266,0
9.90663556435458e-05,1,0
0.00013363571167678,0.598466716114678,0
0.000126965773064691,0.447055725275553,0
0.000126779805901114,0.458703449752515,0
0.000119975261187093,0.457646180939343,0
0.000111600802148944,0.456576692094692,0
0.000109102964039812,0.206853128440378,0
0.000292150272851265,0.18868884414098,0
0.00031747538592381,0.144744882538002,0
0.000320489249718653,0.148284195268173,0
0.000318313306361349,0.140854546737147,0
0.000304137104965595,0.143547367445811,0
0.000309503659028634,0.11293535145545,0
0.000411369856337309,0.112997485710845,0
0.00039406060156073,0.103002121084671,0
0.000349008537976613,0.0854128250187312,0
0.000349673302718892,0.0993845105163844,0
0.00029840486949062,0.11902733515492,0
0.000318327992526436,0.0988231417664892,0
0.00039967426131663,0.107462777461397,0
0.000363694621206704,0.0891650104930775,0
0.000401935471046504,0.094036166919997,0
0.000408787691382914,0.12667665010761,0
0.000331777460658285,0.132286045991185,0
0.000347951739006022,0.14279882492161,0
0.000341830873484475,0.157215358905966,0
0.000343196561637914,0.162997929749631,0
0.000346671977732755,0.167845509393656,0
0.000308495327276651,0.421964230026826,0
0.000102789321813413,0.275923336322028,0
3.4479008533984e-05,0.341358465244607,0
3.48658124089522e-05,0.435754586918217,0
2.51509281019765e-05,0.445896258286468,0
6.54927831312274e-06,0.383441822848454,0
3.49745332792383e-05,0.249130127928914,0
0.000111850245176567,0.292541635861131,0
0.000114313455161804,0.267741669472926,0
0.000113172150674403,0.2693963808048,0
0.000108750720329951,0.255323115069434,0
0.000145253435465985,0.171434599436284,0
0.000263213070551206,0.161841398665413,0
0.000242475464850874,0.143661344215369,0
0.000222077698909257,0.130542338797254,0
0.000199206450487404,0.11977246934803,0
0.000187099630830781,0.134541039738022,0
0.000183285375514326,0.149728190071208,0
0.00016564121205459,0.147165852816032,0
0.000149726148548695,0.105217834954217,0
0.000489591750920204,0.123177572747111,0
0.000627425418415585,0.10600274172261,0
0.000769234309685871,0.119498232949211,0
0.000751843022527041,0.101464790307506,0
0.000702451200104245,0.0999456436265159,0
0.000698762424036204,0.0907752297303335,1
0.00118912021089596,0.0700934349355572,1
0.00376271637097216,0.109968805517043,1
0.00504966479516627,0.111047932178614,1
0.00641704438513845,0.114167750840179,1
0.0105034132092385,0.0986472617212162,1
0.0185946367631835,0.110631462651155,1
0.0190869528026741,0.0862915664745167,1
0.0169788279587999,0.0859787613598625,1
0.0129344061527575,0.0751585951152765,1
0.00838495543026761,0.0442159241766231,1
0.00661262641087711,0.0249491568518617,1
0.00711073932419064,0.0081501879496955,1
0.0272369446413024,0.02010593399395,1
0.0271269704073157,0.0143190887017148,1
0.0719927253978369,0.023886702785582,1
0.0801839565504264,0.0176052867206471,1
0.0899842931218743,0.0173427662566852,1
0.0886217474676171,0.0159812812854189,1
0.0811762440735098,0.0144064209636501,1
0.0680639318062989,0.0111743008721866,1
0.0607347882158922,0.00961469336089835,1
0.0538478376764212,0.00798150609317529,1
0.113975810855917,0.0196988313668533,1
0.131147184370176,0.0199719097411141,1
0.132295227631845,0.0235242451596553,1
0.118115634902684,0.0231838466377649,1
0.126500966359529,0.0272166647330258,1
0.122432046696268,0.0219462844733645,1
0.119522632279419,0.0202773420884634,1
0.0961769110672185,0.0177310244086561,1
0.089649935240812,0.01753780354968,1
0.0906981037011989,0.0216804814448159,1
0.0622775527953112,0.0167411580152937,1
0.035861436121891,0.0122892645067766,1
0.0319434510876924,0.0109922568026413,1
0.0284010437048887,0.00853420472319479,1
0.104100140339355,0.0183686647585748,1
0.116232773441001,0.0114468386176794,1
0.120366529758952,0.0122718823309069,1
0.136030642092138,0.0142838527510494,1
0.142883719477206,0.0147275724977732,1
0.150198510094219,0.0152858287690533,1
0.160266250892624,0.0152203798853403,1
0.166810524376646,0.0150866099201858,1
0.167688516148716,0.0143311204275331,1
0.179381546811645,0.0160956859746594,1
0.0865663676718878,0.0111195606371733,1
0.0847807806001278,0.0223659586485272,1
0.10885567298647,0.021226588108729,1
0.0995039294924024,0.0181655453717184,1
0.0985039760941903,0.0137834735803579,1
0.0979009482312388,0.015268771236172,1
0.078354341193384,0.0107361805455189,1
0.0788309569110135,0.0119908361771099,1
0.0754790300936925,0.012340760023884,1
0.0824940009146225,0.0154056194398248,1
0.0895151980182286,0.0174083300358347,1
0.084771474397479,0.0191927963285077,1
0.0785076464027179,0.0210361061935918,1
0.0690778976862363,0.0192845505695102,1
0.0615256696650855,0.0292308841211066,1
0.0447454989979389,0.0223779777018347,1
0.0379350622358735,0.021664775415925,1
0.0500244693428352,0.0187784486658693,1
0.109797755416182,0.0183285864198371,1
0.137169806404765,0.0116672974486954,1
0.136629751716349,0.0120198948647616,1
0.151430055283103,0.0122894199228336,1
0.163620216369012,0.0130934491117193,1
0.168193235948784,0.0142165914132715,1
0.166538919980557,0.0134567930241687,1
0.16939524628305,0.0134720021952367,1
0.159869757068689,0.0129212296527806,1
0.149619223715532,0.0139088511913727,1
0.0745412582384652,0.00953709305397396,1
0.038900238144428,0.0105953932780521,1
0.0447086649130413,0.0112541919747541,1
0.03877907823518,0.0130081581972545,1
0.0371466439455491,0.0137900307080678,1
0.0378582132760651,0.0133840238998972,1
0.0386610757857047,0.0167846487189302,1
0.0381548953055839,0.0143643632201235,1
0.0385322037877029,0.0114392335555659,1
0.0401770480417123,0.00951324924882746,1
0.0393974430712041,0.0104991540419987,1
0.0326786027509992,0.0120016725930273,1
0.0552445106183258,0.0185633976258279,1
0.069487640804691,0.00902315977647952,1
0.0904455446402796,0.0122129300740616,1
0.0890676008747738,0.0114262131198589,1
0.0953655961642973,0.0111220289128452,1
0.0903962386082305,0.00933209236250872,1
0.0866305070030987,0.0110516554324328,1
0.0948794115334807,0.0145527662416169,1
0.111539322994666,0.0190971304918913,1
0.121441532199485,0.0138866676876907,1
0.101967604374642,0.00953870455427811,1
0.0968876265695226,0.015668902992614,1
0.0774429992746852,0.00827485945884763,1
0.11371912661091,0.0119721101704494,1
0.096102050782729,0.0100147205528302,1
0.0944521830057694,0.0101122745716679,1
0.0988348837266409,0.00897104054648653,1
0.101185083990363,0.00799580584859443,1
0.0975103212875119,0.00714159945134711,1
0.0900577909540852,0.00926093825953053,1
0.0826028027558617,0.00821901602704733,1
0.0859802864233684,0.0106702535813329,1
0.07790999663587,0.0151619232235226,1
0.0442443762425304,0.00947311203371344,1
0.0462602639657155,0.00866173171501216,1
0.0570294785269862,0.0111804426852908,1
0.053039299067386,0.0126858588749545,1
0.0473835216052139,0.0162582144070303,1
0.0531307018019656,0.0169263200503587,1
0.0559243139729241,0.0163569365238049,1
0.0518022933109338,0.0239519338116067,1
0.0374890998769987,0.0184458076587291,1
0.0391847614898388,0.0192480288683843,1
0.0433224800708699,0.0210287807644202,1
0.0424789996810404,0.0249920997397728,1
0.0352813540195207,0.0174939093743403,1
0.0464408162964582,0.0172333615246477,1
0.101171666026371,0.0288176951696664,1
0.145090706716264,0.0359497093122898,1
0.185201705598599,0.0473479926640333,1
0.180635872155437,0.0389714634702077,1
0.167976577439256,0.0330440191965582,1
0.162738703828073,0.0340099416773553,1
0.157020550625791,0.032982026773337,1
0.113385765173877,0.0263931252921124,1
0.102667119237795,0.0254812081117601,1
0.106171168362117,0.0323139832325813,1
0.0954796389910742,0.0311477659095225,1
0.0823980949846758,0.0347003857079397,1
0.0432986082657939,0.0206107661060192,1
0.0236960588058346,0.0121271596646667,1
0.0392048898393468,0.0256970966126812,1
0.0449152935358506,0.0273819588842741,1
0.047810461170272,0.0338550813903208,1
0.0538540499096483,0.0315305003929477,1
0.10222850895876,0.0536843134259964,1
0.145369946736634,0.0648491598768802,1
0.150323238714847,0.0515931337519486,1
0.133398128812803,0.0336044073879559,1
0.107078865858517,0.0216536370056424,1
0.129159846552979,0.0214669433447674,1
0.144782130110394,0.0141009785593325,1
0.154345948180872,0.0140848333142473,1
0.151061024216639,0.0117415291285616,1
0.183390311549798,0.0145344454769696,1
0.171772922460806,0.0127063119477464,1
0.159430363580281,0.0101203870155415,1
0.149704106544129,0.00801855159917758,1
0.1494323541411,0.00826255610614193,1
0.168023640366526,0.00998498865046891,1
0.171728690939054,0.0105748372456516,1
0.171469405913685,0.0104819873340945,1
0.202407652617792,0.0107625508823188,1
0.194431264561344,0.0114160272495129,1
0.213063594745597,0.010056845599944,1
0.3408359066785,0.0177034367981148,1
0.337621103998406,0.0208806289021102,1
0.335175492638117,0.0230895210691489,1
0.383625231438329,0.0201179020273543,1
0.367505355641692,0.0208771934934841,1
0.315933616908018,0.0192321502568685,1
0.353789328477387,0.0281607609336161,1
0.353408788743087,0.0325436987528962,1
0.361409982212201,0.0344250569299029,1
0.385232136664204,0.0472715272598428,1
0.24515614413238,0.0357883252649689,1
0.214999833648817,0.0282016097540814,1
0.0764851165043824,0.00877153209362681,1
0.0658205385641747,0.0143462290217554,1
0.0740612896758949,0.0169075262549831,1
0.065236060630134,0.0150388492856592,1
0.0642398435009363,0.0159747876302168,1
0.0602313591474363,0.0136752629730355,1
0.0434130385782715,0.0096253348765255,1
0.0414051809815478,0.0112171498765871,1
0.0588019315770546,0.0162620386900797,1
0.0620989950212082,0.0192551054146886,1
0.048809107351978,0.0218592680898231,1
0.0562506098546176,0.0295368938488458,1
0.0585599367440809,0.026251298625328,1
0.0591232899282813,0.0266754073295725,1
0.0615571617742701,0.026377064823901,1
0.0540964782429004,0.0234732634892109,1
0.0593307698499871,0.0222209202158977,1
0.0577760916671695,0.0202894689629277,1
0.0467759386157807,0.0188727456357768,1
0.0732434116187009,0.0244513294362734,1
0.101745729258879,0.019342974092105,1
0.0966529749374607,0.0196375829735195,1
0.100458742857971,0.0213723168115235,1
0.106281105597549,0.0220901263010233,1
0.105306885419539,0.0219040848281825,1
0.105937254299154,0.023292202595393,1
0.0926294692573181,0.0224207718051628,1
0.0923961909993483,0.0194443230923559,1
0.100594941956776,0.023386381607496,1
0.0716740365900776,0.0176832686493689,1
0.0439563843339089,0.0158811014893886,1
0.0456278319043942,0.0129116492338252,1
0.0579680522817842,0.016041908477202,1
0.0683479450575189,0.0168858989144166,1
0.115435816127253,0.0242449577889333,1
0.135169060545088,0.0274022035305311,1
0.193610924766645,0.0361634309730756,1
0.265968423018413,0.0509342513806322,1
0.214479500369976,0.0377555539396081,1
0.283626138440972,0.0385118188200256,1
0.292684899215908,0.0402775949751788,1
0.240151039105097,0.0158291568092847,1
0.248301472803052,0.0171583406124136,1
0.243970580819578,0.0173390324768196,1
0.290553693547895,0.0204246203163583,1
0.334231394691131,0.0226968701228657,1
0.353419509490958,0.0183718489128006,1
0.377738861254937,0.0150338994536077,1
0.455018257013316,0.017134168243576,1
0.390766275532853,0.0147754425815858,1
0.31626212018303,0.0111958519324192,1
0.255053006263399,0.0126805582307983,1
0.400412868531925,0.017800518062703,1
0.499204467125603,0.0185545036289147,1
0.4761884290889,0.0145107488452024,1
0.460925473254152,0.0147967782512596,1
0.450953488587564,0.0199206632404927,1
0.453688847042827,0.0255111000213456,1
0.447019609869081,0.0281000405233481,1
0.485903734958021,0.0320688783667075,1
0.478839990312104,0.0299248240343272,1
0.452337529615455,0.0368680207790112,1
0.316568320780993,0.0241980801349836,1
0.197503287737663,0.0144410041555126,1
0.18478897581282,0.0200891237316801,1
0.194287746671317,0.0183095141750959,1
0.231147835195086,0.0153529163293243,1
0.236207464779519,0.0163883352346262,1
0.214902985896748,0.0149824884858497,1
0.205457492902025,0.0142361665136036,1
0.285775169243047,0.0218180674572021,1
0.38755693681014,0.027204254409792,1
0.413122426588284,0.0329475431797708,1
0.331897877213104,0.0276634383781424,1
0.332490256621142,0.0225698906426348,1
0.275666302239545,0.0229426325903321,1
0.137300181887787,0.0163004725134301,1
0.13569783018412,0.0169186385954712,1
0.1286021573933,0.0166178206232914,1
0.125719868711921,0.0139685315258228,1
0.128191885970643,0.0149958407297479,1
0.10607160491373,0.0126517290108198,1
0.0777389483380473,0.010565741820542,1
0.0645214784565005,0.0159708274449813,1
0.0560488901048666,0.0205720880590721,1
0.113152014232499,0.0155515439621464,1
0.166905029292119,0.0178185614957772,1
0.20363097130935,0.0195749751317774,1
0.222540578994425,0.0136727439794058,1
0.22546388079147,0.0134206263771021,1
0.243302169278562,0.012247765510277,1
0.249146711366948,0.0100907665815786,1
0.229523825161797,0.00829300639142804,1
0.28199294837659,0.0101660292303466,1
0.265851402594868,0.00540346591771438,1
0.343491117552354,0.00956308227021055,1
0.331393447503899,0.00866154863025119,1
0.398887964299821,0.0111421177039486,1
0.434071297249602,0.0143540187293274,1
0.462325002462126,0.0158089762352129,1
0.445969445088306,0.0159434152389702,1
0.390337504858166,0.0136536898925439,1
0.381663133511176,0.013688445564437,1
0.242202922948221,0.00880912639277549,1
0.255558534939826,0.0162149871982916,1
0.272390204095658,0.0139826735688794,1
0.264292691081744,0.0154430703177452,1
0.23649239166716,0.0176302501509421,1
0.18424882202094,0.0133972708145832,1
0.14357631104467,0.00725917236409573,1
0.152206134969193,0.0104036841792674,1
0.14615519288526,0.0107898766934636,1
0.250426638964345,0.015513285825398,1
0.315481125495931,0.0169947708388405,1
0.442688585880666,0.0229432175183043,1
0.48871691888753,0.0265738106321504,1
0.477377166041438,0.0218857595226473,1
0.589114079563225,0.025815432881135,1
0.56925318184186,0.0185317252513791,1
0.642351572547798,0.020041294923225,1
0.657282356996002,0.020090411393732,1
0.665210168675657,0.0219909101726342,1
0.68261120865876,0.0213609569220971,1
0.687221855278116,0.0186237686871563,1
0.766561170753486,0.0216498084078854,1
0.771089264592223,0.0172385676681752,1
0.663711297782014,0.0195526736082193,1
0.38406055935617,0.0110921801040366,1
0.242155535126119,0.00949489844528723,1
0.251425311370723,0.0103611282133135,1
0.310954753364244,0.0135999972402041,1
0.355343776050242,0.0154909886489843,1
0.335410054372008,0.0200651121979212,1
0.239745750573337,0.022602776472818,1
0.223497700234444,0.024043656095048,1
0.214905319699066,0.0396258886024922,1
0.174808748537254,0.0344478614557034,1
0.151118263786513,0.0299591312180815,1
0.1470361777202,0.0312553965047988,1
0.145016024975058,0.0348651387975746,1
0.128937510321879,0.0318844484640266,1
0.113441008291214,0.0266349915421208,1
0.111211527703359,0.0253279016810793,1
0.117524827608739,0.0255158410107237,1
0.123046786053299,0.0278283044654261,1
0.122428996917255,0.0289993539120705,1
0.109380599888975,0.026589242611583,1
0.117487198864296,0.0251158699071451,1
0.110822898835053,0.0187849401372345,1
0.106876782597913,0.0238505527936167,1
0.0731254771061071,0.0177614839524353,1
0.0596842066098292,0.0134036439435543,1
0.0961355350818914,0.0189353558619103,1
0.113820160633774,0.0107075223588838,1
0.127542206383268,0.0114736893359969,1
0.132701790888861,0.0110068605955718,1
0.174256771452374,0.0148705857096174,1
0.165299738333866,0.0123111620393432,1
0.161146827926308,0.0126608910771049,1
0.166857134755626,0.0116563513068847,1
0.170662202551742,0.0113042891779581,1
0.176837438593305,0.0093857790669644,1
0.243450906000858,0.0127290398001681,1
0.236452434055361,0.0125456025755123,1
0.227607265561379,0.0122406584155949,1
0.237421171962451,0.0134935903812425,1
0.209495738233648,0.0107455017514721,1
0.223304221732139,0.0121558058455183,1
0.219823938996681,0.0113706577815675,1
0.23153440563515,0.0135069542999466,1
0.254664310007771,0.0162512226272155,1
0.283566490124723,0.0141758786046799,1
0.19609136414295,0.00620384499175312,1
0.217213576489306,0.0046459779763954,1
0.349258863553693,0.00701489218972395,1
0.371018052851986,0.00744211576921031,1
0.37211311575108,0.00826094267030926,1
0.368605353785388,0.00700615367373527,1
0.396252690381501,0.00795425832592886,1
0.380774534492188,0.00758848820756213,1
0.356273444374447,0.00664031738385557,1
0.347328018181701,0.00788814706873437,1
0.465994837491597,0.0149951915527935,1
0.493908033178094,0.0228145680724305,1
0.465575584812946,0.0316271363206402,1
0.354079534844686,0.0296104836367979,1
0.267782873839741,0.0216655158804426,1
0.231235780381079,0.0218143576037569,1
0.228278435270482,0.0224750159521656,1
0.180231401889538,0.0172975582065722,1
0.186072177229805,0.0171445577467502,1
0.213954788150461,0.0112394639948184,1
0.224520231141641,0.0111352415506463,1
0.198292528268436,0.00887614314834756,1
0.216192289689163,0.0107502851079533,1
0.213463416929994,0.0101174110971876,1
0.270230252765247,0.0128656097593705,1
0.294587411145728,0.0149552809962086,1
0.303929590326017,0.0130800101332687,1
0.369097116999685,0.0152390537831856,1
0.308631554327483,0.00993767604627718,1
0.275698902630546,0.01187400089957,1
0.365030553062107,0.0116616206407331,1
0.419721622533578,0.0139990295833174,1
0.433630505872353,0.0141618434142236,1
0.439772135556882,0.0143851079206913,1
0.392045189663074,0.0143213924628032,1
0.296101615758077,0.0105632832540768,1
0.269713533830169,0.0118072796495501,1
0.237812449788483,0.0110950714187323,1
0.245171033420986,0.0167377362718652,1
0.171161695591801,0.00764437571399852,1
0.218810265541173,0.0199713721737191,1
0.24733263000163,0.021747056845052,1
0.22670524717482,0.0135904802287239,1
0.229407044183681,0.0130738767999151,1
0.261537977235168,0.0113575410835403,1
0.326267306910632,0.0146052893880434,1
0.339161943149171,0.0148496129906917,1
0.378055650619387,0.0179912565450685,1
0.326930812346762,0.0136993640855421,1
0.252118216244927,0.00873487390322439,1
0.26406738160359,0.0086361237199058,1
0.262273764949157,0.00793400332995113,1
0.265679175385789,0.0102902094946148,1
0.179825019563787,0.00551321193432986,1
0.173520551136883,0.00763986631797666,1
0.203173896635136,0.00913704485343449,1
0.207089810836081,0.0085914222140256,1
0.283422562280783,0.0109597189042718,1
0.265447909213587,0.0093221937371433,1
0.256508444061543,0.0099623092532419,1
0.274783068325343,0.00873011535615464,1
0.333770417874633,0.0109167597267987,1
0.306590991107871,0.00934780423213057,1
0.315892195439299,0.00991606171737458,1
0.339106538150937,0.00867773237285988,1
0.463638429167105,0.0113192432091048,1
0.487647770727151,0.00992765124929557,1
0.449894980683112,0.00844893082636048,1
0.447882334238326,0.00748684170285192,1
0.524815971024095,0.0121914043177473,1
0.502074826914269,0.0128527784710273,1
0.465163318053008,0.01240373425832,1
0.469414634721779,0.0129868045367191,1
0.473978164648098,0.0134063758195081,1
0.500940434069451,0.0171533272195947,1
0.395331900206146,0.0102316606492668,1
0.443749321632618,0.0140271541551394,1
0.449385218020931,0.0135482960248892,1
0.684778763700146,0.0308460562516549,1
0.729912658943223,0.0299372599524688,1
0.662030703675286,0.0284344711187178,1
0.618624413540865,0.0246714231436901,1
0.57025677694296,0.0229104099906243,1
0.535506590248995,0.0217194607494294,1
0.402577187709708,0.013008670495237,1
0.446259327675438,0.0182141403489994,1
0.558413864969672,0.0241543592923341,1
0.666722922539006,0.0266502556504406,1
0.621755573778172,0.0252029367681389,1
0.627677252489322,0.025778574005326,1
0.662352622212337,0.0268470256627321,1
0.712952415479623,0.0309105007945308,1
0.688156045379411,0.0301974634903529,1
0.641929476111618,0.0273059679325139,1
0.653181683615788,0.0392932778196721,1
0.568908486848061,0.0439406815164997,1
0.401871665422507,0.0305797606416899,1
0.142600015874965,0.0147092032574754,1
0.0870273255692239,0.00859723446134989,1
0.0929149561492859,0.0107713553347207,1
0.095698953854882,0.00937508712633946,1
0.0969149219472068,0.00988183284717275,1
0.140910098032102,0.0133698204539788,1
0.199214296246384,0.0165143159642261,1
0.201872499045004,0.0146830397335594,1
0.155816741450306,0.0113054064521029,1
0.151350985554462,0.0179611355748484,1
0.147575488342209,0.017519267435028,1
0.153042134870168,0.0162870204144633,1
0.153790098265971,0.0162057526808701,1
0.155568073474293,0.0155350604764866,1
0.155997396744856,0.0154364570320722,1
0.148767703287505,0.0149182373246906,1
0.121179636302521,0.00802715655819456,1
0.163630424628824,0.0147879325022976,1
0.157919613255557,0.00750122529338515,1
0.186708078807527,0.00967369833738278,1
0.189039399282745,0.00980851696673641,1
0.180702781240354,0.0099146813228954,1
0.167953368161346,0.00704637328742558,1
0.277936212652431,0.0110430279761429,1
0.280446337407948,0.00987864636498395,1
0.280209394845787,0.0116116293512138,1
0.262457206189978,0.0127927802565921,1
0.208331889483244,0.00967145213536853,1
0.222536658918677,0.0143675626944922,1
0.213470209885438,0.0105347960600986,1
0.213378016249658,0.00939033103672023,1
0.217956041773195,0.00978197434906543,1
0.218925362819927,0.0120486208860616,1
0.118265991368525,0.00590324106933246,1
0.120382439139831,0.00753651869813142,1
0.123258285532408,0.00751983597683366,1
0.13354140171764,0.00792975771969451,1
0.145175324496634,0.00801185888061145,1
0.147449810500548,0.00831305738736149,1
0.129461334488923,0.0114291135673904,1
0.16464498025819,0.0149195762954065,1
0.165974013519805,0.0114460171738293,1
0.203496373164133,0.0144672692978325,1
0.193845961630696,0.0108905757128863,1
0.220925646215337,0.00766918926066744,1
0.25502199388237,0.00745496190065023,1
0.315716161010346,0.00952613310359319,1
0.331952175873237,0.00971922676020182,1
0.313676815948956,0.00931607648232016,1
0.315372465833311,0.00898308348940346,1
0.299660468294008,0.00809949264878377,1
0.415991906499793,0.0133192900896487,1
0.436771803338168,0.0146003089941754,1
0.483002423212168,0.0202939919636556,1
0.532649490805277,0.0288672619005283,1
0.663450809806234,0.0458910986820758,1
0.498374012261907,0.029592410791269,1
0.398862396998586,0.0254197993438813,1
0.327753359554684,0.0172923168356362,1
0.26579562693409,0.0147886236503218,1
0.311537262649255,0.0180447650166868,1
0.324732574683119,0.0170924251085978,1
0.351041581847665,0.0162205982342483,1
0.412826833271395,0.0169064854713544,1
0.403564554740194,0.0172013891959417,1
0.471940919212227,0.0178356684122543,1
0.594646226158509,0.0277349090276735,1
0.644974706688804,0.0275992374515998,1
0.618669373004299,0.0361062582386563,1
0.527806458695136,0.031103227459666,1
0.330776626723939,0.0204245694052603,1
0.286421665137144,0.0208048871045484,1
0.285640705899328,0.0213557296794671,1
0.289760831561949,0.0232147471082945,1
0.315701683908636,0.0235475839875927,1
0.292001491822784,0.0196613749103395,1
0.209538541804982,0.0154670340913348,1
0.137214005858566,0.00870434672916486,1
0.177049740975584,0.0114445067688696,1
0.176528858061607,0.0113140236443861,1
0.210476571559454,0.012769153863117,1
0.200366988462419,0.0122638757822546,1
0.238946298139125,0.0174531448514578,1
0.266951321432306,0.0204434912741264,1
0.229859623094887,0.0241893231858771,1
0.186564722228343,0.023795474861789,1
0.157359022763944,0.0210298932309135,1
0.119251323755755,0.022038658814719,1
0.126858125096781,0.0260659806440198,1
0.0446224678196582,0.00631927453265418,1
0.0550115937217327,0.0138808549177929,1
0.126504763497475,0.0252256755571577,1
0.130937023533036,0.0225615708986244,1
0.133037163123978,0.0224992781604693,1
0.115361542259149,0.0196984720995353,1
0.119364686212708,0.0180558446712343,1
0.111439403226101,0.0177374359964041,1
0.120500377417836,0.0187775376246123,1
0.101962281627379,0.0142906591957988,1
0.0872700207494314,0.0131882275922532,1
0.0927276064567316,0.0152763461858537,1
0.105856969763237,0.0125147245037696,1
0.121315024130745,0.00916913146080078,1
0.136143553191552,0.00642031891170495,1
0.238515365353698,0.0126713626920418,1
0.243971214249665,0.0125911327632598,1
0.229938264032194,0.0113350377204964,1
0.220340741242285,0.0108857945825742,1
0.229521068334393,0.0103062259255017,1
0.244063927880772,0.00817703579972662,1
0.22329109988838,0.00740880447575678,1
0.231131048578138,0.0091513116861168,1
0.223881438288356,0.0117095705723584,1
0.245493501005334,0.0178981340576691,1
0.187917371940534,0.0106404702693609,1
0.190768892551314,0.00869857449701911,1
0.253648264769697,0.0119506918091233,1
0.320490249408332,0.00783541274970561,1
0.341934504264234,0.00534685123835354,1
0.392371862014903,0.00806984091959798,1
0.404763695946278,0.00758390756474499,1
0.410777258796872,0.00731533522941953,1
0.466431694175009,0.00871865676299827,1
0.47616498125515,0.00768541162595429,1
0.413273585010819,0.00727187573838591,1
0.379282251748696,0.00767211972696607,1
0.478960812644491,0.0083616585760973,1
0.475486047310759,0.00936794335137357,1
0.385431339152234,0.0114030290008175,1
0.434453412621958,0.0118274050998941,1
0.472424113590865,0.0131723530209986,1
0.497405579744887,0.0156914732674567,1
0.405492147873694,0.0112072658201464,1
0.331596306077465,0.00989572433384489,1
0.31881957608514,0.00943961794339705,1
0.271112953701638,0.00731402780529196,1
0.244422042723389,0.00688138071187882,1
0.336532780721476,0.0169828992625447,1
0.221496343892255,0.00841434687049551,1
0.223787075849956,0.0120489425534684,1
0.232680730768029,0.0110337477006166,1
0.254452096039287,0.00797503681085819,1
0.310919506813017,0.00956621125452095,1
0.406260069874794,0.00713178485524802,1
0.712739288165162,0.0126686767675827,1
0.721388488743381,0.00870914935280584,1
0.739193793379712,0.00992671326717147,1
0.667572150204285,0.00863476302765617,1
0.785195314907854,0.0113865346181443,1
0.8661089903494,0.0121495402869589,1
0.896736748585536,0.0130999206769541,1
0.897980966905497,0.0145017535804245,1
0.852414237082805,0.0145079724528719,1
0.751943755929787,0.0238270081641268,1
0.200068586712791,0.00477033429819834,1
0.159502285006042,0.0100099295368585,1
0.169520010530573,0.0104446470625952,1
0.141995619118136,0.00915853185929331,1
0.124808602909892,0.0100593675012279,1
0.116027858081038,0.00953974883992463,1
0.123659626981809,0.0103908123982307,1
0.123234576066509,0.0111701927958485,1
0.105371151443952,0.00810836877402619,1
0.112117374230852,0.0112277658004378,1
0.116659110309479,0.01137451498802,1
0.0985456432829262,0.0100640739414684,1
0.166498465703318,0.0167721949494269,1
0.171839852671249,0.0148230880778287,1
0.171324370995994,0.0153279984211692,1
0.169277656471565,0.0156540479697926,1
0.157997434132395,0.0138235711819212,1
0.158767954750483,0.0122103602570995,1
0.166865716337623,0.0146892687201766,1
0.145740630388758,0.0155514731992452,1
0.143116841515588,0.0168427803459084,1
0.140858892021907,0.0218958174766082,1
0.0851596804754349,0.0161344173206752,1
0.0859964161527869,0.0142222826239991,1
0.104167493053237,0.0150676798286113,1
0.130403596356219,0.0118973786507813,1
0.152777692037639,0.00945634756372084,1
0.175668867882776,0.00554608622715235,1
0.335847713191022,0.0127652072791362,1
0.309717116527995,0.0113135058476558,1
0.314321190679308,0.011392086075718,1
0.29642783922232,0.0106354790587851,1
0.330956782218582,0.0115320011864398,1
0.362697796302745,0.0078667052559363,1
0.365336323952882,0.00741902041684099,1
0.360115782878781,0.00860262605216259,1
0.389353589884443,0.0108751132182595,1
0.357636483950706,0.0134439738548818,1
0.265522422608152,0.0094535915638888,1
0.287884504456618,0.0108811790783154,1
0.302930079463658,0.0116127339260276,1
0.315167525169595,0.00869461550204926,1
0.342004438115915,0.0102974579551254,1
0.320683307646187,0.0175705005153761,1
0.17958027583009,0.0103242357720084,1
0.178834989201291,0.0094790163126181,1
0.175504116940391,0.00932369323670046,1
0.178029087788399,0.0122642692166348,1
0.180105834445457,0.013402138233075,1
0.203781144041363,0.00661167983175144,1
0.274701279215416,0.0120122671135889,1
0.306063260152376,0.01711902972025,1
0.364805514118939,0.0226621718895837,1
0.478288167024204,0.0373639366886204,1
0.494936191425375,0.0247988507683371,1
0.472954192150908,0.024647899469724,1
0.453199220132009,0.0234337972364274,1
0.384365268541751,0.020067155548814,1
0.239757940351006,0.0122823168590936,1
0.177907846782999,0.0133160097299799,1
0.187022610034526,0.0148057103033945,1
0.21082594754636,0.0137970250129741,1
0.267789069177377,0.0171846566072809,1
0.221760098666314,0.00858865064525255,1
0.238309542029459,0.0133036819779686,1
0.241040162512941,0.0117203286176909,1
0.334624925605169,0.0161404675960629,1
0.355098042833758,0.0150956647139629,1
0.329965608799157,0.0141373765974443,1
0.328918091716691,0.0148179280096924,1
0.320536689125363,0.0119971904023251,1
0.47187007264681,0.0216189675716664,1
0.516810466721971,0.0209684881599724,1
0.439922153260058,0.0194075913730138,1
0.5285584032859,0.0172269937142707,1
0.559149947275469,0.0150907159772825,1
0.549943717128846,0.0149094976145225,1
0.588809592114569,0.018134970709947,1
0.57560612009819,0.0158810479586977,1
0.546538270492911,0.0142322874123346,1
0.644946670306981,0.0167984341705523,1
0.656103908918298,0.0275341764660079,1
0.419939839890866,0.0158661010892112,1
0.24927998793115,0.0106346250718425,1
0.243152751375649,0.0155295416533992,1
0.239000299410658,0.0221523980556828,1
0.230456486597633,0.020281366079387,1
0.28359565663458,0.0232804280675213,1
0.2065071187106,0.0225528032741622,1
0.0948674827644366,0.0102501383930377,1
0.115582133766371,0.0209182009441464,1
0.123435938164114,0.0191185666071605,1
0.137293641065219,0.0158564954379649,1
0.184848238586378,0.0182468260687877,1
0.17908347257073,0.0156242285182384,1
0.167696411474503,0.0151930602072203,1
0.168317406324594,0.0177182063241371,1
0.153688836170116,0.0163357270255266,1
0.156842761137569,0.0155492008656817,1
0.174169564481147,0.0203161604442092,1
0.136444151402204,0.010666609656116,1
0.146083274563932,0.0124598740391523,1
0.14567112543406,0.0192207148970011,1
0.0890572974725407,0.0143770077409257,1
0.102663707883282,0.0151693969561744,1
0.118877799173752,0.0148399365704946,1
0.115796217364161,0.0139204678484051,1
0.141141034293007,0.015596699537816,1
0.150905232926655,0.0140709089846385,1
0.118312974426552,0.00785481934338353,1
0.18982797888144,0.0160502363399437,1
0.170947234455027,0.0127185672037457,1
0.271933526551875,0.0139526271339848,1
0.427664969079118,0.0186400372643428,1
0.371732698310328,0.00986362737059899,1
0.414779691169504,0.011051096678397,1
0.402796341054438,0.010369496396789,1
0.469608194090449,0.0127081108767487,1
0.579161879284809,0.00923666218311322,1
0.697415655108213,0.00862401029431553,1
0.766186594852087,0.00831997072945669,1
0.819678215603013,0.00849525699444462,1
0.781419699560731,0.0106129637890621,1
0.589809815898894,0.00716070205179048,1
0.567498531807918,0.00994905771663744,1
0.551691056115805,0.00948270181134949,1
0.558558971794122,0.00957375374631309,1
0.518416732405588,0.00883898252187413,1
0.480047082850969,0.0193268322232784,1
0.290328165701782,0.0215394841323921,1
0.389954422684415,0.0376577731207362,1
0.342704313303514,0.0328910701904332,1
0.340962545632568,0.0308261451866374,1
0.315884408239359,0.0231491522831632,1
0.300902748855566,0.0193740155083126,1
0.304086625767929,0.0173159243721601,1
0.30814033218987,0.0167192392457188,1
0.292934867773907,0.0134675811291202,1
0.290431656583488,0.0150726630807992,1
0.307446975345555,0.017427967750138,1
0.255046863383353,0.0158512686209167,1
0.274468600780793,0.016657542132741,1
0.226199160820213,0.0136038240186983,1
0.222321292978122,0.0150398556382815,1
0.267471759752586,0.0162194236608101,1
0.260861941526993,0.0173885693317363,1
0.162561537330433,0.0100647998512239,1
0.259756417593784,0.0192826240102552,1
0.285599731531714,0.0119428289714532,1
0.275855274716476,0.0102776539097532,1
0.28773680588526,0.00632345609145936,1
0.500360386665755,0.0122513421830476,1
0.729673427838944,0.0173422012105817,1
0.837606152819425,0.0200865872224904,1
0.841765950782239,0.0228691219714589,1
0.870596602815835,0.0251274814814561,1
0.869637957458413,0.0235493958050083,1
0.581029062301001,0.0182426605996287,1
0.419664649866252,0.0170789306001577,1
0.330208980776346,0.0102078017040651,1
0.263471462013319,0.0162923632960865,1
0.241400934324412,0.0181445943035056,1
0.204349943565482,0.0165072665845774,1
0.195918782496636,0.0159314686717584,1
0.184586639240367,0.0157517260911709,1
0.146992813352589,0.0129805058091054,1
0.147783999683046,0.0185705831344437,1
0.144699977787478,0.0179267238060957,1
0.139869293428212,0.0173241727961006,1
0.100001334346985,0.0382515411918267,1
0.0206071508038736,0.0139997031663789,1
0.064614017912766,0.0112526164222197,1
0.221937539045527,0.034746504326869,1
0.300957673464666,0.0428901834604109,1
0.332243002285686,0.0465554452223758,1
0.308270541261606,0.0315189228725511,1
0.273996805384507,0.0255786815607204,1
0.33668243505749,0.0312060391824693,1
0.335415602812881,0.0269825294588048,1
0.347089699003332,0.0228888584653473,1
0.404106510399283,0.0256881664431999,1
0.396492018102095,0.0336700305426877,1
0.291047842226028,0.0233210869854533,1
0.22791806512313,0.0187692550102307,1
0.128503893881819,0.00842727310609489,1
0.123929970540968,0.00901460803938034,1
0.133957032080031,0.00690724497777192,1
0.124033065580633,0.00523212756103118,1
0.183852105319621,0.00706507763346082,1
0.312025679379295,0.0175806044253882,1
0.337442973575783,0.0138521890085988,1
0.33568809728077,0.0151949215772069,1
0.331723364547848,0.0166867600873972,1
0.274613321758562,0.0140627549424731,1
0.247579809269361,0.0111005502453268,1
0.287289172121676,0.0132398725103923,1
0.27283249643462,0.0167878217922282,1
0.271024089963813,0.0151519555496446,1
0.289315602065938,0.0202971177873502,1
0.190143659244558,0.0130056346630111,1
0.0974084818369921,0.00522382855134249,1
0.112949512167558,0.00667832232548012,1
0.183493478050543,0.00860774718636635,1
0.216386156713982,0.00655394100183,1
0.214076745040807,0.00761957420006376,1
0.216910330958182,0.00794917455936791,1
0.221476359195613,0.00621559108097017,1
0.222443714043011,0.00784958598353345,1
0.202970413246231,0.00696761239260371,1
0.205052704914539,0.00612860637846654,1
0.210218129480882,0.00780571642553412,1
0.181208100154972,0.00633389460461118,1
0.158149276754944,0.00700298305375458,1
0.309464687184503,0.0239229629803526,1
0.328016755603273,0.0152145801490429,1
0.324090140029543,0.0152796143586141,1
0.310005430466579,0.0184387944530663,1
0.276238518955802,0.0151428665895318,1
0.278020939882138,0.0112374525120137,1
0.296728811855627,0.0140798549184806,1
0.259894371178978,0.00820371395251737,1
0.349303290923957,0.0126472256978314,1
0.353092660418131,0.0125762773426907,1
0.232389980971282,0.00805063318132505,1
0.236760197518544,0.0080682617943189,1
0.352901658207819,0.0131090464101747,1
0.435414465067066,0.0155218448058016,1
0.663516043326705,0.0242132693205896,1
0.722649113320369,0.0182237847111588,1
0.731118437620932,0.0186550387863032,1
0.680387596731705,0.022211296030487,1
0.512968363691777,0.0167681044420109,1
0.483985773462256,0.0163551448889888,1
0.416240999019423,0.0128123156913174,1
0.435199123402874,0.0223283933015326,1
0.441482658086299,0.0224837008606529,1
0.415431389984208,0.0195250931676413,1
0.16250217463131,0.00689563619451028,1
0.0812839773594969,0.00872850905249253,1
0.156350202380027,0.0172676929814661,1
0.179255379663056,0.0143267683450468,1
0.174394430996262,0.0144323615308799,1
0.185763754502419,0.0112331840934537,1
0.251687721384637,0.0149582451177619,1
0.285735314856172,0.015559919205903,1
0.301076745624811,0.0161268571972656,1
0.249900715029856,0.0154276445386444,1
0.160319480114277,0.00875903379774877,1
0.176769518306348,0.0175136134671261,1
0.205542053024251,0.019679507719675,1
0.223061543058026,0.0229431399752889,1
0.196622302713806,0.0196231669055796,1
0.192304505006143,0.0280378487297556,1
0.149653340804414,0.0258656880446546,1
0.112411675333167,0.0213873832623208,1
0.0779705390446767,0.0123827041467363,1
0.080274607860677,0.0166044223146204,1
0.0851980856268938,0.0205934865860622,1
0.079977404794778,0.0170153708836771,1
0.0581995610487238,0.0140293664885144,1
0.0367728938298808,0.00958566332049936,1
0.0507946599744818,0.0134914486278782,1
0.0895150097001856,0.0216929803264517,1
0.253221360480433,0.0407074334442228,1
0.327126087867764,0.0348296996638375,1
0.352490475547557,0.0436139661640548,1
0.290123688951846,0.0365321796205255,1
0.241201016605584,0.0310844621552019,1
0.247915573470041,0.0326775822127777,1
0.184610971172022,0.0230885212911049,1
0.119618610059825,0.0147861835720847,1
0.111658219938091,0.0156539164875922,1
0.178776961434316,0.0243481130345338,1
0.174458252394235,0.0152855599717244,1
0.241836307593143,0.018758652937986,1
0.268809470391353,0.00730221185242138,1
0.376671506016177,0.0113466665633064,1
0.463551184879672,0.0155479576093742,1
0.447656262129239,0.0116318631529137,1
0.433301294990177,0.0117521462774586,1
0.443130790443137,0.00969312684161449,1
0.460766010041998,0.0101058256840433,1
0.468299826093994,0.0105036426728174,1
0.516020710948981,0.0143058199271178,1
0.291969818886217,0.00660763660242215,1
0.201956781158545,0.0128919991178572,1
0.215376198858359,0.0137228497245902,1
0.23447448486175,0.0147657914007841,1
0.264139584263783,0.0262702717233577,1
0.109585427912118,0.00884479297662622,1
0.0835982149622059,0.0192836164851795,1
0.0992256331610785,0.0165610846955895,1
0.0955337885301918,0.0150476952871758,1
0.098713102943899,0.0132348773989893,1
0.121218395261331,0.0171930114366008,1
0.12254521619973,0.0177015973889205,1
0.173712003281957,0.0175925733783134,1
0.186501814586926,0.0105277746199647,1
0.164920177266777,0.00913419505736162,1
0.163526880849741,0.0102641509536576,1
0.161614539982629,0.0100794306387329,1
0.158520680591908,0.0108755475085862,1
0.157851222170371,0.0115232891690777,1
0.165293320232975,0.0138394300886783,1
0.161543918871139,0.0143698422140227,1
0.16070220453412,0.0137120411914769,1
0.0868244204377634,0.0117735346045216,1
0.0400427685150914,0.0143003577674634,1
0.117730576721392,0.0331185888972305,1
0.16804322956846,0.0375236201033487,1
0.528261257342602,0.050972921438204,1
0.68165386747925,0.0217202143771457,1
0.653307330940891,0.0187804670785116,1
0.850453712591347,0.022626558966519,1
0.750367076744872,0.0123021800962538,1
0.689249110499182,0.0113049814071016,1
0.629892276938926,0.0101263226410656,1
0.592751065060655,0.00986125047375274,1
0.659209915393257,0.0106576765590737,1
0.784829836403077,0.0131999357317769,1
0.638070431454367,0.0118707795087048,1
0.530513148399919,0.0147985735716743,1
0.551767336654997,0.0199654332514313,1
0.168748529457876,0.00356001549131236,1
0.0680556365120649,0.0150012349739749,1
0.0715063517493668,0.0138687102430643,1
0.0671860601170554,0.0144487184696485,1
0.0424832364038733,0.00785095025902987,1
0.0356540627729924,0.0171760371310585,1
0.0294280405136243,0.0158341939062282,1
0.0244011668969402,0.0253226980701123,1
0.0199881666472786,0.0221006240542956,1
0.022339469378866,0.0120810230656038,1
0.0271368996231592,0.015583189851095,1
0.0358779546548454,0.0195261499271652,1
0.0403959329970463,0.0209505679663335,1
0.0403463717249789,0.0198761293433645,1
0.0429877471002846,0.0206694967064622,1
0.0467474462814858,0.0210628612208132,1
0.0394564812362545,0.0174936152883946,1
0.0427746631010121,0.0178908222437055,1
0.0318601680140415,0.019361366982081,1
0.0221675971902678,0.0295977336879872,1
0.0240808554029141,0.028670277134934,1
0.0268743974279183,0.0312893953590494,1
0.0264399374909134,0.0492860149931752,1
0.0137511219156208,0.03342405252292,1
0.00979292053496843,0.0541614674313934,1
0.00954665839228903,0.0799952493741314,1
0.00357018846830934,0.0535915582179586,1
0.00145863344039081,0.160208576671573,0
0.00143793724031961,0.217671304215024,0
0.000656640293023108,0.320503505618415,0
0.000187625531034461,0.339337836091797,0
1.21628881305026e-05,0.382312267257285,0
2.63745584782143e-06,0.409114736928684,0
2.00575817955563e-06,0.376753270379682,0
1.92388150184359e-06,0.410527609343731,0
8.19173587615151e-07,0.296351344652193,0
8.56252467960209e-07,0.317480001669239,0
8.05466994874768e-07,0.303034301826838,0
8.05879223227863e-07,0.31414887899411,0
8.31086280342397e-07,0.324225366133008,0
7.22476593932198e-07,0.299625979199216,0
1.18079690586304e-06,0.38825933055419,0
1.32157500847624e-06,0.381325607992226,0
1.503802436434e-06,0.410470280011511,0
1.64833487932813e-06,0.367908824270393,0
1.09372756425636e-05,0.577515050306136,0
2.40496651212051e-05,0.847747560280022,0
2.63856845214643e-05,0.785302521080739,0
5.35500640440809e-05,0.581682055994488,0
7.13303694508121e-05,0.400009657745809,0
6.68302957122909e-05,0.362069297066996,0
7.01511093322494e-05,0.376655098948647,0
7.25492268116187e-05,0.376471631990625,0
6.95683880434966e-05,0.365388953380243,0
6.91179172660858e-05,0.364781142997308,0
7.26881394042648e-05,0.412196444616619,0
7.14198922577969e-05,0.394032108957765,0
7.06086733818217e-05,0.390830801878231,0
4.01736552610308e-05,0.532807976053905,0
6.02523796599198e-06,0.283616632051473,0
1.68748937654283e-05,0.397456398334185,0
1.62826035965844e-05,0.346662705070876,0
1.60533310200581e-05,0.344742219511818,0
1.65197096896148e-05,0.348962935370372,0
1.64355761205593e-05,0.354863868798433,0
1.59782630591644e-05,0.357782469846112,0
1.67458661731303e-05,0.366314148455921,0
1.6631718022127e-05,0.381643168766812,0
1.70227366375568e-05,0.393660006837053,0
1.53257013361532e-05,0.577112463227679,0
1.66955651272495e-06,0.309107593177201,0
9.59488581118533e-07,0.309179312743438,0
9.39010018773049e-07,0.305393302151617,0
9.6951691915402e-07,0.29657016243056,0
9.25307666095728e-07,0.297271647670892,0
8.16344994435749e-07,0.286183922803567,0
6.95201681619013e-07,0.272742144467503,0
3.90004887019836e-07,0.225968459000515,0
3.86428040489802e-07,0.238083520451332,0
5.62110931113843e-07,0.279643697565449,0
8.58524199524346e-07,0.347080716771201,0
1.00720342409154e-06,0.386929149210211,0
1.01130839403165e-06,0.401504955252408,0
9.67850103253167e-07,0.419893049554719,0
4.65860439627053e-07,0.310125812259513,0
5.21488771404645e-07,0.343458309081198,0
6.70924965007648e-07,0.392699060933744,0
8.1301795828769e-07,0.447769558042971,0
9.13032565756346e-07,0.471307192754147,0
8.67852927154868e-07,0.449643833195656,0
7.2471440499185e-07,0.437312608940238,0
6.12798411630777e-07,0.398896262619453,0
5.82862624188134e-07,0.376607901513054,0
5.87770850519132e-07,0.382113524586938,0
6.34573491036505e-07,0.397788605041711,0
6.771669267302e-07,0.39469879816643,0
5.83323024368776e-07,0.368969745890392,0
4.22914254242641e-07,0.315942194034367,0
2.8608800818126e-07,0.27324382611188,0
2.87201260293673e-07,0.276664576569803,0
4.75194231777342e-07,0.32873866983285,0
5.90180619691792e-07,0.347085661130403,0
6.30040981404471e-07,0.359111264194313,0
6.40038461203241e-07,0.354607028490745,0
6.64105059134058e-07,0.352188999321604,0
6.40448922863393e-07,0.354717019008345,0
5.98542966283132e-07,0.331940446723738,0
7.35668961246976e-07,0.361422525832344,0
9.37256517138516e-07,0.39449507149105,0
9.78983448834005e-07,0.394210908925723,0
7.40652448697297e-07,0.344157114307971,0
6.65474717282095e-07,0.336184733772183,0
7.25338165379847e-07,0.347873849297284,0
7.03985207807685e-07,0.353391948880254,0
6.44429282061342e-07,0.349755098177963,0
6.43003796416342e-07,0.361678386009233,0
6.26078289135943e-07,0.364986529623635,0
4.30746239612843e-07,0.305879256900845,0
1.70758292938447e-07,0.209608260668198,0
2.63642998811987e-07,0.247664301984104,0
3.82348275368994e-07,0.299904769895443,0
3.21911240962793e-07,0.274088552824127,0
3.28195603315949e-07,0.273966446828952,0
4.70453016819111e-07,0.323706637233711,0
5.3037123239806e-07,0.335833231702815,0
5.22560447343161e-07,0.32301361515586,0
5.16409529196877e-07,0.32849508291823,0
5.40213243217949e-07,0.327172377603084,0
5.87958355530025e-07,0.329271548709171,0
5.17482382930687e-07,0.322426164178503,0
4.10860343859578e-07,0.278746618461389,0
4.40994000911705e-07,0.285216083974184,0
4.8400237388767e-07,0.299907650798334,0
4.17637377984446e-07,0.279853565152852,0
3.90071668013037e-07,0.273037085139745,0
5.08780242396869e-07,0.312505270261123,0
5.56717099782899e-07,0.323693490176305,0
5.68464430050788e-07,0.342467364158008,0
5.94420682752189e-07,0.35800628980277,0
5.88242793093661e-07,0.363261845686082,0
6.06376129448627e-07,0.375928857411446,0
4.33796729425739e-07,0.339298661476948,0
2.39536238061626e-07,0.267677416840829,0
2.47133135491034e-07,0.264835503509004,0
2.61659002638309e-07,0.275308100642832,0
2.83468120328052e-07,0.279520858969717,0
2.63996690738942e-07,0.269580363194794,0
3.34211192782889e-07,0.284090544643331,0
3.43688322620525e-07,0.276547404506784,0
3.39599959594066e-07,0.269894777739092,0
3.38586113404513e-07,0.274564629946857,0
4.80658259707841e-07,0.304811289716061,0
5.23429189152424e-07,0.311336997211775,0
4.96886512173865e-07,0.301080169978275,0
5.08525838613246e-07,0.30319676581199,0
4.51321734511068e-07,0.271342234846607,0
6.99257655274871e-07,0.322011610355997,0
6.69873429368669e-07,0.313622403002351,0
6.73273135486402e-07,0.330453186728021,0
6.53622798792048e-07,0.328086050588782,0
7.40488499592295e-07,0.340038793856302,0
6.75977353482699e-07,0.327587614623739,0
7.10805113681276e-07,0.318152324759047,0
9.57004964180905e-07,0.371855253940495,0
1.00015643928516e-06,0.37746715408594,0
1.02553804566235e-06,0.391120721841506,0
6.48499389260735e-07,0.322344035877583,0
6.84758995198902e-07,0.336979381880012,0
6.85039310479005e-07,0.335666444594279,0
7.11044441685129e-07,0.344388117573019,0
6.81211475771702e-07,0.342409982226667,0
6.51960694072373e-07,0.351729101780435,0
6.13056584359342e-07,0.371603033709133,0
3.76424318375971e-07,0.287060978929875,0
3.6350920407353e-07,0.292245827769355,0
2.91057715426634e-07,0.275761608621916,0
2.08486727388453e-07,0.238047316247002,0
1.80821375935124e-07,0.220848735859754,0
1.92155535613685e-07,0.218960036578394,0
2.35782015560232e-07,0.236121733987812,0
2.34367718970531e-07,0.230721388062739,0
2.19475086368532e-07,0.215816426915137,0
1.83308290699577e-07,0.200595497679348,0
1.83453395079866e-07,0.209312241590832,0
1.84820226519197e-07,0.205081616999044,0
1.84671706532553e-07,0.205984004125469,0
1.73623986669629e-07,0.208623776227873,0
1.89446017538561e-07,0.218627275335261,0
1.99648669277643e-07,0.241993192804568,0
1.01793196142964e-07,0.189434831007252,0
1.09454872313573e-07,0.202346532186586,0
8.8523683236391e-08,0.192766669886989,0
7.27058924305192e-08,0.182935779095326,0
6.81472357429444e-08,0.174160345080153,0
6.97264236738839e-08,0.180586410926504,0
1.09274080735858e-07,0.207727683035176,0
1.09410587210498e-07,0.199491353368156,0
8.79982687554901e-08,0.182131885167201,0
6.69468267787342e-08,0.158412691756805,0
5.67753866149584e-08,0.152346243826472,0
4.70440885527577e-08,0.150039096647547,0
4.84884189224706e-08,0.159783037116324,0
5.32463585738839e-08,0.159469084468185,0
5.43888200096015e-08,0.160507892014325,0
4.35611123077003e-08,0.150088379964197,0
1.7414056768582e-08,0.124185611010473,0
2.47271055320028e-08,0.133258100148533,0
5.15654091294948e-08,0.169976847415017,0
5.01910398002789e-08,0.163688463428455,0
1.64561558555206e-07,0.23753073734952,0
1.87218571077499e-07,0.229671859082384,0
2.64889106233626e-07,0.249223928668277,0
2.72441011882782e-07,0.24880304432067,0
3.44765180858336e-07,0.279582132516044,0
3.52592455047359e-07,0.285250672547621,0
3.5121007671014e-07,0.293625283466851,0
3.48777340529237e-07,0.295872475057638,0
3.30649539812156e-07,0.267312203776031,0
3.32628824804654e-07,0.27233282949769,0
2.78346006371562e-07,0.258729326526839,0
2.68583614513585e-07,0.264857186565007,0
1.30076654566875e-07,0.195901956267022,0
1.2938787987862e-07,0.197660984731989,0
1.19514775262954e-07,0.185462872111217,0
1.62508543577267e-07,0.207414810560087,0
2.05773204809328e-07,0.208572542692071,0
4.93633794908893e-07,0.307392754971994,0
6.79084377469735e-07,0.325128496684659,0
9.03150509896443e-07,0.363941876253868,0
9.92441997885354e-07,0.378479935692786,0
1.00719788845365e-06,0.372734743076869,0
1.01828094217542e-06,0.373624857028509,0
1.01491715881417e-06,0.38009013880374,0
1.00578641857266e-06,0.385903055375187,0
1.02731639877759e-06,0.377653847645303,0
1.05018930117738e-06,0.393206242614871,0
7.65423839332374e-07,0.335266503206661,0
5.6435863565397e-07,0.328732482187927,0
4.41292689798404e-07,0.299932395196682,0
3.90957370074543e-07,0.280396116900437,0
9.16193414988343e-07,0.309182734314765,0
2.93621646225398e-06,0.539449478462353,0
3.33996751593609e-06,0.563721538395113,0
3.28920218315019e-06,0.54226446541346,0
2.9180378985597e-06,0.518920237047241,0
2.55345077623259e-06,0.476112779475614,0
3.14614186659473e-06,0.533157241107824,0
4.09328067515221e-06,0.588895733315218,0
3.82841571372212e-06,0.524464177599627,0
3.38725540811482e-06,0.486041411702987,0
3.91269344492164e-06,0.634489831260435,0
3.36919462395e-06,0.602646971055858,0
3.30570015073867e-06,0.604214931116951,0
3.34915137474539e-06,0.611111872933242,0
3.72049986651993e-06,0.64167883902408,0
3.68912210429818e-06,0.660368065788955,0
2.89089195483127e-06,0.594948890719412,0
9.74107376314547e-07,0.360777020330213,0
5.28812184766658e-07,0.299650613128373,0
5.21051102673188e-07,0.301717665084268,0
4.38482941343714e-07,0.282776290052745,0
4.48882284896986e-07,0.279918351036492,0
7.44786510181184e-07,0.361178195236171,0
8.51246013501645e-07,0.387733411555667,0
8.89384909611803e-07,0.383236738354818,0
8.34351128898902e-07,0.361515716814978,0
7.81599091010144e-07,0.334440528120093,0
1.04886911043171e-06,0.368636259912186,0
1.87449336509561e-06,0.47567330770126,0
1.93274888705724e-06,0.457519657189854,0
1.94641037023784e-06,0.446251379281,0
2.07067401612844e-06,0.467519122129592,0
2.13845613533007e-06,0.45698677605515,0
1.87430444673036e-06,0.409568416489898,0
2.16011425966305e-06,0.433000078329958,0
2.12559885077659e-06,0.436987514827217,0
1.81896031695735e-06,0.402580160015364,0
1.7742242360638e-06,0.405702028160592,0
1.91487655013954e-06,0.421907517277074,0
1.86797674151037e-06,0.429530320488275,0
1.55450522828977e-06,0.397587106874645,0
1.69650670687542e-06,0.410180497963057,0
2.48250509886979e-06,0.4420985501846,0
3.40548544146347e-06,0.521185273778296,0
2.62142935168936e-06,0.465511103355268,0
2.64005465313886e-06,0.477143047582199,0
2.73902950292148e-06,0.492338935778304,0
2.51979221342292e-06,0.466055545503896,0
2.93272912816633e-06,0.502855171921883,0
3.71747352151058e-06,0.580085016097107,0
3.90198964128473e-06,0.598556892651528,0
3.92407754312069e-06,0.63348462159816,0
4.11047318862588e-06,0.811709739734148,0
3.22377742123061e-06,0.76547561508337,0
2.94646693248202e-06,0.765672616070851,0
2.25785053991392e-06,0.670120241783012,0
1.13574623584632e-06,0.482060132705984,0
1.7646588893586e-07,0.217612826251303,0
7.25710348692925e-08,0.170683357764821,0
1.47960298319396e-07,0.21903679599813,0
1.68756040937704e-07,0.230608478324919,0
1.85244232825236e-07,0.223781834127463,0
1.90784935229411e-07,0.226349061373811,0
2.56862195742175e-07,0.239388771652994,0
4.08085458145606e-07,0.284827337262799,0
4.0623101945433e-07,0.28055368545076,0
6.74138579468841e-07,0.326939504964477,0
1.4714084724321e-06,0.473170454458679,0
2.41487232411151e-06,0.601685474322597,0
2.36368121832662e-06,0.572082806949068,0
1.93943782209407e-06,0.501295314285727,0
1.71568780992443e-06,0.463271162438509,0
1.59623769562314e-06,0.458497626337465,0
1.42797138196891e-06,0.411517332694735,0
2.02840718306992e-06,0.47700916663878,0
1.87695966844241e-06,0.449741905852626,0
1.90585475596278e-06,0.484670107769154,0
2.1261542990375e-06,0.51275906260174,0
1.83054923375812e-06,0.478648957107895,0
1.77135230001756e-06,0.488438725620233,0
2.05085878809285e-06,0.534370093878174,0
1.72836088729384e-06,0.493823017884347,0
1.11755919202592e-06,0.391382288700079,0
4.79971016153469e-07,0.272690753794438,0
7.63984573482429e-07,0.350822500290362,0
7.82348757715128e-07,0.329089720457114,0
1.0261376612468e-06,0.361962095153485,0
1.03994236433522e-06,0.362342398310689,0
1.02882115004592e-06,0.371250798605454,0
1.02458108698552e-06,0.358495261696164,0
1.13367567171849e-06,0.364005192682855,0
1.22419383350668e-06,0.377194644010438,0
1.16549063155359e-06,0.370968097887223,0
1.14067684028791e-06,0.377188399211421,0
8.38632650353669e-07,0.330174238502905,0
7.67349299079912e-07,0.344272915164094,0
6.72178728098703e-07,0.290120022412313,0
1.59756683761305e-06,0.423461511082326,0
1.59506991158859e-06,0.41804585596275,0
1.58304638832413e-06,0.420894443044213,0
1.46421544100919e-06,0.426142345359834,0
1.40428532969777e-06,0.41600884851562,0
1.57058531410774e-06,0.444118009238015,0
1.56866880560444e-06,0.438766753107317,0
1.5572743428068e-06,0.441969930380916,0
1.50851938880917e-06,0.429270448813903,0
1.74156350142768e-06,0.501416331700794,0
1.00130973643759e-06,0.396214697177605,0
9.58339052911047e-07,0.393283080151623,0
9.62537657577077e-07,0.402617205974813,0
9.71248278237016e-07,0.407370733671927,0
9.28653075850379e-07,0.404358207403174,0
7.39284203903613e-07,0.354122438673816,0
7.33270970027263e-07,0.34450408742022,0
7.82536616064609e-07,0.363666381949533,0
8.50915288582934e-07,0.398193138517876,0
4.77615896682476e-07,0.305718303129132,0
5.66473956002991e-07,0.306098468083289,0
6.72115951609502e-07,0.303738726011053,0
7.66855920631024e-07,0.317261624572727,0
7.67292176008127e-07,0.309120274434839,0
7.76419618422809e-07,0.306691302900007,0
6.79674217353249e-07,0.273570210460156,0
1.33016490511849e-06,0.37432989995064,0
1.4664810480378e-06,0.378056784297965,0
1.36204582149009e-06,0.361892280904754,0
1.32024080196657e-06,0.367796787656471,0
1.00583058589621e-06,0.351021817502428,0
1.16069841805911e-06,0.386472328221039,0
1.72101721585276e-06,0.355294088275453,0
3.57034604224396e-06,0.50124590146589,0
3.58850199226859e-06,0.49576143688165,0
3.42144821887011e-06,0.451401580027689,0
6.14163393931495e-06,0.592442903558998,0
7.96824969012785e-06,0.661067106896326,0
7.7660995014241e-06,0.644093448317238,0
7.20241480023767e-06,0.609725901493573,0
6.40271287777069e-06,0.573302176922249,0
4.79322274727275e-06,0.490137462770589,0
5.08194454129169e-06,0.613740517421737,0
5.27730650681527e-06,0.641923167869749,0
5.95340281762272e-06,0.693026047212945,0
6.0971305907716e-06,0.792028354911141,0
4.1528300052449e-06,0.731094252958864,0
1.92441951873415e-06,0.519340564801288,0
1.28988242157224e-06,0.422408478020074,0
1.10798183180871e-06,0.410168707997483,0
5.76540807944612e-07,0.300900915619159,0
4.07060776239344e-07,0.280860886245866,0
3.68782782504898e-07,0.275734556021062,0
3.23689829637101e-07,0.253739801160048,0
3.10483799896905e-07,0.254341585648001,0
1.35878591967382e-07,0.188812176386829,0
1.88042085547452e-07,0.221393437225511,0
2.2365013512867e-07,0.249102322281114,0
2.55174532864608e-07,0.282456035800185,0
3.06967374265481e-07,0.306762096996895,0
2.9745455723042e-07,0.287655854156218,0
3.08613578748681e-07,0.281210588493107,0
3.17303352431906e-07,0.277424218227436,0
2.83568939605266e-07,0.26355952528665,0
3.91382318616818e-07,0.316232637051927,0
5.044927141861e-07,0.309105702752315,0
8.77331234787799e-07,0.397681124786216,0
9.51911117311485e-07,0.386434375885899,0
1.31141004618658e-06,0.429546710106263,0
1.42200408210905e-06,0.423640572297924,0
1.39227652887449e-06,0.42930867651512,0
1.37434577331018e-06,0.428967334403532,0
1.43447846541227e-06,0.44467737356922,0
1.42929699057293e-06,0.448368151176149,0
1.34722927446412e-06,0.426986925548096,0
1.30499059071314e-06,0.446444177084649,0
1.03273013484902e-06,0.393772462878579,0
9.63841712527207e-07,0.396865963028676,0
6.16503402288857e-07,0.327285350780763,0
3.83580720365216e-07,0.260156139213958,0
4.07882877354943e-07,0.274261487922192,0
4.87046621385506e-07,0.276007237485128,0
9.01255201708445e-07,0.365025858938102,0
9.87694422832532e-07,0.364794593255561,0
1.09187901454156e-06,0.383995908909917,0
1.07584156491325e-06,0.37732933396896,0
1.44411659986667e-06,0.421182455888155,0
1.71352361107068e-06,0.44456590274764,0
1.59282974493835e-06,0.438376935472121,0
1.62525009155485e-06,0.454434642927644,0
1.61088758461493e-06,0.426566396520034,0
1.51202639207823e-06,0.413892745165279,0
1.39974292658526e-06,0.408914932859151,0
1.36237277746386e-06,0.414008572943617,0
1.09855711386169e-06,0.364017078144049,0
1.03667009566836e-06,0.348961964172835,0
9.56149295899411e-07,0.345966544476493,0
7.96902538610883e-07,0.314494072961291,0
1.26159601866009e-06,0.386435355355638,0
1.66631757566492e-06,0.441536620372025,0
1.24631624474477e-06,0.385586627790056,0
1.24010926354247e-06,0.404981981616873,0
1.26472895414361e-06,0.390880462866234,0
1.2522937914237e-06,0.381635976304737,0
1.45906223325692e-06,0.410869594654086,0
1.51039915009927e-06,0.408581867163747,0
1.17043642955449e-06,0.370592303953655,0
1.07581859790501e-06,0.35749755510625,0
1.31719031215367e-06,0.389881821185824,0
1.10705372911661e-06,0.336955538013759,0
1.17005011269788e-06,0.360868607874278,0
1.15886576858078e-06,0.362126712258533,0
1.09995998583703e-06,0.367204894925839,0
9.12943642211607e-07,0.341705817216766,0
7.29065298589466e-07,0.324023049159181,0
6.17309956506569e-07,0.326546172470508,0
6.76333401000243e-07,0.336413606433615,0
7.6610401611498e-07,0.362764533827844,0
4.91971336850629e-07,0.326271379179746,0
4.0141619229019e-07,0.31914306064079,0
4.85543754589655e-07,0.322384536032515,0
5.09663706647314e-07,0.320699520229931,0
4.5250235651433e-07,0.298561105769894,0
4.12403609034033e-07,0.28762472259143,0
4.69234587586894e-07,0.301600246129158,0
4.16260299726053e-07,0.28631471145874,0
4.0034969865097e-07,0.291334333700126,0
3.97394374697873e-07,0.292984696488152,0
2.71925726441415e-07,0.242174875410997,0
2.33513581822919e-07,0.224869419721124,0
1.81609438766711e-07,0.208812932681519,0
1.70993263099711e-07,0.205357062813371,0
1.5892380581876e-07,0.199139813644041,0
2.31166471359931e-07,0.232311922459424,0
3.42512294018911e-07,0.285442219503116,0
3.59765699509316e-07,0.272348536380559,0
4.45317805217545e-07,0.294214737137722,0
4.357518696147e-07,0.295014530969431,0
4.3919326968586e-07,0.296153589007074,0
4.09885129355686e-07,0.284402415319487,0
4.13359036576976e-07,0.290339186227502,0
3.94547290132346e-07,0.282797366508064,0
4.04873374818296e-07,0.282608031859955,0
4.0172536355501e-07,0.282855286027526,0
3.38183660752364e-07,0.262093869883513,0
3.28250724135735e-07,0.263807586065856,0
2.41281377349568e-07,0.229095561144242,0
2.8987992013208e-07,0.246659257222663,0
2.72589885208014e-07,0.24244056006464,0
2.10839491268855e-07,0.22000837247059,0
2.07274069353179e-07,0.21950522202113,0
2.85667181922516e-07,0.254169887855568,0
3.04349959782392e-07,0.2641942933104,0
2.56178603353216e-07,0.252105589034632,0
1.57491017842934e-07,0.207050805275806,0
1.22061168689782e-07,0.195568785708052,0
9.13489785889691e-08,0.182238662407266,0
8.78635289737931e-08,0.182336046105958,0
8.71709853405948e-08,0.181836911860534,0
1.14893106527121e-07,0.19811714632969,0
1.14922786968544e-07,0.19327388292815,0
8.69289484075638e-08,0.175362109341596,0
6.98344275023944e-08,0.170816396873157,0
8.96547200577521e-08,0.181046370672079,0
8.89376782824271e-08,0.176078979760952,0
1.31531467314709e-07,0.201499507541381,0
2.05812660951696e-07,0.237026170300762,0
2.39156516858662e-07,0.244557515176502,0
2.73287140022391e-07,0.258390285134678,0
2.89206221223594e-07,0.267446995907577,0
2.84784306569718e-07,0.278869342304849,0
3.34076099662603e-07,0.291718269466673,0
3.90785883079655e-07,0.305288092390594,0
3.78501595936977e-07,0.304118802419065,0
4.07993001214984e-07,0.301561515245863,0
4.73093162751386e-07,0.328866213307335,0
3.34650274868699e-07,0.274555559316434,0
1.86901155245616e-07,0.22446714136126,0
1.84980877797374e-07,0.223413723262152,0
1.91844597655922e-07,0.22688112452253,0
1.95032653959223e-07,0.226020497820453,0
1.75495385613147e-07,0.223693260191018,0
1.81956770599075e-07,0.225643132061898,0
1.94789439230898e-07,0.224691815183101,0
2.02421552739613e-07,0.240754175534886,0
1.09495977369353e-07,0.187875489512346,0
8.49152717924633e-08,0.177600123927385,0
8.12829511040558e-08,0.173865787024665,0
8.38759852245482e-08,0.183898321223941,0
5.81389202274646e-08,0.168265493456054,0
7.736701730872e-08,0.18949751121919,0
1.07950238824779e-07,0.212868975288767,0
1.09914801376097e-07,0.224783456266142,0
1.03240824339501e-07,0.229298830123954,0
7.10210562616585e-08,0.203254448698873,0
5.47439252909101e-08,0.19141737866641,0
3.94053793903927e-08,0.169330464242239,0
1.63116757067376e-07,0.242959829285863,0
1.82252632777067e-07,0.247507085547808,0
1.80234362760318e-07,0.242962299952859,0
1.71619850196415e-07,0.230681864165508,0
1.45561364863447e-07,0.214470593371486,0
1.29142898457352e-07,0.200896642137335,0
1.01039878272566e-07,0.18884835574407,0
1.03212557252432e-07,0.192734020511848,0
1.12993911614651e-07,0.194526554679049,0
1.30060283212281e-07,0.196923578495923,0
1.72684694922221e-07,0.237426359595816,0
2.45787033248888e-07,0.264199420434487,0
2.46460732157373e-07,0.261453479392491,0
2.37628798582095e-07,0.263459300168825,0
2.17063550502931e-07,0.253294350380616,0
2.14823266073159e-07,0.252115019160517,0
1.94386279901571e-07,0.236112725341536,0
2.29575858814634e-07,0.250860919372803,0
2.13576687533401e-07,0.244616889893627,0
2.22898348392156e-07,0.257711340531967,0
1.72500841076742e-07,0.229092746108577,0
1.34584312718196e-07,0.218783734029764,0
1.53824776650044e-07,0.240434063482714,0
1.8301348853735e-07,0.25817580244485,0
1.90226306921204e-07,0.258757100753397,0
2.12094196596145e-07,0.270922377548782,0
2.26990362584028e-07,0.279205440118039,0
1.75258884318001e-07,0.250511931483754,0
1.29557482401035e-07,0.221950094572017,0
5.60377334219783e-08,0.174948867457784,0
2.99329607339353e-08,0.154085666414148,0
2.83990001423069e-08,0.157584996075731,0
3.43224860172117e-08,0.153439547354261,0
4.34003432499934e-08,0.160029409964925,0
4.24581070143495e-08,0.155462773471316,0
4.67223148782853e-08,0.16813651665392,0
6.61355613798447e-08,0.177527352885416,0
5.45187308305914e-08,0.16882782445677,0
4.34127101005862e-08,0.162372745153355,0
5.97848891516049e-08,0.174887720387313,0
7.51448709264834e-08,0.193959795785354,0
1.32233433310264e-07,0.230660420985176,0
1.39545775396508e-07,0.231289303501224,0
1.14089379018117e-07,0.220853053493972,0
9.12725396743527e-08,0.19747532033095,0
8.93409553912827e-08,0.184314631165375,0
8.92297715154768e-08,0.19329857100159,0
7.30380307035837e-08,0.180613887707343,0
5.78344601438221e-08,0.162578755169462,0
6.21367107957723e-08,0.162583461373191,0
1.00367946057023e-07,0.188619544382096,0
8.70373055746629e-08,0.172680721463591,0
1.25642490841935e-07,0.203017827072312,0
2.1154145726441e-07,0.239542221990226,0
2.34579133225904e-07,0.259138605290059,0
2.19843618516198e-07,0.248766368473307,0
2.34516003398115e-07,0.261944699106102,0
2.69001849622682e-07,0.276614741250148,0
2.71185953216905e-07,0.279238743081894,0
2.61958633761243e-07,0.278335239952072,0
2.5554388946898e-07,0.271968584976384,0
2.35541156422496e-07,0.26561104042127,0
2.07839057755977e-07,0.251715350835399,0
1.06101100212328e-07,0.196190391617976,0
6.60235530473328e-08,0.172440746092704,0
7.2533345419867e-08,0.169580685330109,0
1.21300312929499e-07,0.199706411092642,0
1.16768156636052e-07,0.192290079284359,0
1.17012549159672e-07,0.190512581512231,0
1.62421857843588e-07,0.222960129803831,0
1.65346559119027e-07,0.223204986625505,0
1.62705353170987e-07,0.229936655460592,0
1.61503177513835e-07,0.230985447241283,0
1.58748903217519e-07,0.219681960910549,0
2.37274988875611e-07,0.248683287514088,0
2.16472179485535e-07,0.244274294537072,0
1.91783705639194e-07,0.240198021468921,0
1.84455109977885e-07,0.236334551554482,0
1.83293214919807e-07,0.237090192373096,0
2.3704131428917e-07,0.260030886051284,0
2.31807074220639e-07,0.25750552415352,0
2.65866676328107e-07,0.258911411865339,0
3.03902868688579e-07,0.266478906438637,0
2.95095197696368e-07,0.261715701835789,0
2.67153182128348e-07,0.245357528872435,0
2.79277995788144e-07,0.251513183251861,0
2.88244198027002e-07,0.2526942976726,0
3.0069926548739e-07,0.260062206319376,0
3.20652413351973e-07,0.26568850518428,0
2.18981354581055e-07,0.218695601604869,0
1.96138839299869e-07,0.211260491236322,0
1.69139531085611e-07,0.200506789643532,0
1.28275216663854e-07,0.188408818437994,0
1.23268055528112e-07,0.193741003436496,0
6.87956120525969e-08,0.167626764108392,0
7.34878307265742e-08,0.170207023028954,0
3.74689661466152e-08,0.139837612289511,0
8.45244793137299e-09,0.106972054210039,0
2.61941673509002e-08,0.131230338074997,0
3.49090280739001e-08,0.134974943063733,0
4.2841714941786e-08,0.138482288241702,0
6.67519016574854e-08,0.158291835804857,0
8.16221561488879e-08,0.159753603233428,0
1.13959821535716e-07,0.176425134989219,0
1.46108804116356e-07,0.192537211973192,0
1.36058912426978e-07,0.18523225182149,0
2.01749738303599e-07,0.213906732556393,0
2.00638017325069e-07,0.213335190716489,0
1.79030538189754e-07,0.201466960120756,0
1.80970602598944e-07,0.206137431090599,0
1.77766174941049e-07,0.210760132367994,0
1.32649548387831e-07,0.189075905465669,0
1.31103692063727e-07,0.194618183672749,0
1.42150469690416e-07,0.190332763242744,0
1.95295537868968e-07,0.225286525151721,0
2.01467067432906e-07,0.217174509460818,0
2.31783518314748e-07,0.239123025944108,0
2.78111389548887e-07,0.272773213047264,0
3.11773367964913e-07,0.290667699386246,0
2.88427109636246e-07,0.287544944133525,0
2.61177637701424e-07,0.265594609176012,0
2.87752350711994e-07,0.281727637600526,0
2.83311591333405e-07,0.281419837801663,0
2.65656910986146e-07,0.284461641228491,0
8.2577583691831e-08,0.170786768824091,0
5.6523927319571e-08,0.164768280958032,0
6.10339410614805e-08,0.166060899134205,0
5.57050062512669e-08,0.153387920219234,0
5.18399532126557e-08,0.14842015111773,0
5.22433481010408e-08,0.148746074445377,0
5.55180901380209e-08,0.153268438538399,0
3.87504074270909e-08,0.136616489103118,0
3.93722833426157e-08,0.138167821816751,0
6.01806283705754e-08,0.157067812381908,0
7.07422721154373e-08,0.167139782517098,0
1.20710826384575e-07,0.194920016880492,0
2.63491652116637e-07,0.260750390058719,0
2.46173939003149e-07,0.244944513833859,0
2.20469145597136e-07,0.228849770077705,0
1.97886569737459e-07,0.211075922087648,0
1.91147696180134e-07,0.20513381235484,0
2.13812246592312e-07,0.210097837539825,0
2.07971913065203e-07,0.202005421328413,0
2.55779448527892e-07,0.225147729037943,0
2.71982142836024e-07,0.233253250528312,0
2.54324635780057e-07,0.231515190871443,0
1.63192135966227e-07,0.196447567729866,0
1.96780502176343e-07,0.211757496962363,0
2.18023218108934e-07,0.221142460682938,0
2.09593854965335e-07,0.22157311997,0
1.94543515573395e-07,0.223418698724416,0
1.15339726502816e-07,0.187218858144182,0
8.33753044448329e-08,0.178782437643261,0
9.50722250741163e-08,0.184833779625524,0
1.41490904325465e-07,0.198012729454092,0
1.60439863921911e-07,0.207186016678441,0
1.18526840569882e-07,0.188894969935022,0
1.02553580785129e-07,0.190331330461864,0
9.91431567302158e-08,0.187633154884273,0
1.38137485562809e-07,0.20775111396138,0
1.46965885752203e-07,0.215296307196711,0
1.64152628028937e-07,0.217354721579254,0
2.24633005301976e-07,0.237939186339026,0
2.93355005148664e-07,0.279395548953329,0
2.47256921776492e-07,0.27475122368574,0
3.12398423927733e-07,0.291198890576002,0
3.35559179497507e-07,0.281664016973734,0
3.9471277037123e-07,0.294892874147627,0
4.0321586350027e-07,0.295117709657706,0
3.90293093528414e-07,0.293347026874541,0
3.89895587616501e-07,0.282740379224455,0
3.79010403504225e-07,0.286581888777472,0
3.34356414942708e-07,0.284335260141659,0
2.22716967916794e-07,0.232471823263228,0
1.78528444055685e-07,0.212121937578945,0
1.7380112708193e-07,0.221474170818423,0
1.83642431224642e-07,0.245175570280836,0
7.91234634314896e-08,0.180666949799966,0
5.66841074796305e-08,0.16130369908197,0
7.32029220448216e-08,0.175793784379926,0
9.89071265531868e-08,0.192349593265844,0
8.8998923637744e-08,0.185216209724761,0
1.34615406513972e-07,0.201958358900293,0
1.37471442323738e-07,0.204682898276839,0
1.49175900842906e-07,0.209053546194743,0
1.63102034626194e-07,0.212007408065191,0
1.64072537948907e-07,0.20802425266598,0
1.6371272148642e-07,0.210042086759274,0
1.71506899627666e-07,0.221404705523553,0
1.73002228533634e-07,0.219985532464134,0
1.54388351698488e-07,0.214418517967512,0
1.56996343819221e-07,0.218441708117297,0
1.02417309869548e-07,0.191110640019696,0
8.61967130729392e-08,0.185665226659388,0
5.1014200931643e-08,0.159804999051577,0
2.49607801184424e-08,0.13745012404065,0
9.10353317020297e-09,0.129977096495392,0
1.74247747057625e-08,0.137647967670378,0
8.85619615834646e-09,0.123568336170537,0
4.74239275352518e-09,0.124375603239337,0
0,0.116123610909998,0
1.81851593479203e-10,0.120435115346461,0
6.516741364773e-10,0.117021437099443,0
4.46148857577378e-09,0.118125928722804,0
1.95947447564504e-08,0.131734986892171,0
3.83819930589539e-08,0.152766057224701,0
5.23257937716596e-08,0.151136970725292,0
1.51082044747614e-07,0.220618014654724,0
2.08413232962072e-07,0.248901621065805,0
2.14375703861227e-07,0.249485925012398,0
2.42662695671022e-07,0.262717435402872,0
2.48247800957801e-07,0.253683799250059,0
2.31786345023455e-07,0.248838901099156,0
2.39012354714608e-07,0.249481342759255,0
2.32333430937775e-07,0.251989953245626,0
1.86331102323052e-07,0.224177980276096,0
2.04458667481075e-07,0.228217753865625,0
1.6599469986962e-07,0.207163712013687,0
1.37943973795913e-07,0.195989212704342,0
1.42467061065592e-07,0.193403516781667,0
1.33368003517509e-07,0.18565628924444,0
1.34438266101671e-07,0.182617434081937,0
1.39455674056474e-07,0.180040660455372,0
2.31475053727104e-07,0.221385436365564,0
3.26330917805611e-07,0.248166542980939,0
3.21016234318461e-07,0.253668734498039,0
2.40362697019815e-07,0.233126429923253,0
2.28817358644941e-07,0.232446979623002,0
2.28733146281381e-07,0.230161254603876,0
1.86453121915568e-07,0.21081884507899,0
2.02760757784445e-07,0.225646528033465,0
1.9716387454472e-07,0.224922367916244,0
1.64790521960467e-07,0.22020472109755,0
1.02045126556469e-07,0.187582798867624,0
2.01088524025236e-08,0.126833725459634,0
8.74942901489502e-08,0.175281315037405,0
1.08256347821834e-07,0.18907361023482,0
1.63964180781808e-07,0.204387601607146,0
2.84559229888928e-07,0.25489063204388,0
2.80400670262913e-07,0.254456446756089,0
2.6834887991138e-07,0.253552054280747,0
3.45753586669527e-07,0.27098718633519,0
5.08772822286513e-07,0.303502671530034,0
5.12878027785684e-07,0.298551966119009,0
5.24351285088532e-07,0.302865108598519,0
5.46562148753246e-07,0.30610306696902,0
5.47260228024329e-07,0.299424219640656,0
5.66300937874222e-07,0.311451647940354,0
5.74263894081178e-07,0.301833083053186,0
8.10331289441281e-07,0.344903977388099,0
1.37287270473528e-06,0.430434160559162,0
1.36890494794699e-06,0.441210977303105,0
1.48794648506059e-06,0.437250501975173,0
8.00586482067051e-06,0.535552937379514,0
2.5026046938013e-05,0.93075706423305,0
0.000111394202720736,0.314412526458711,0
0.000267160419444875,0.284138821815454,0
0.000264870222995007,0.26618637887949,0
0.000271906395640583,0.244050162004616,0
0.000291241419456553,0.223054930639394,0
0.000258533464298141,0.205539132368964,0
0.000207159532058611,0.177126406927264,0
0.000147256830045943,0.150408037732699,0
0.000120714277913685,0.135568570427951,0
0.000104605913230694,0.119365818434265,0
0.000102421541099144,0.172647779947822,0
8.95517342260938e-05,0.22233963297684,0
0.000127116602119009,0.275278363704677,0
0.000120594995399655,0.243617724900692,0
0.000139195437830552,0.27002815808573,0
0.000158865215802935,0.184915700872779,0
0.000179474632972337,0.192096523286017,0
0.000185672986235211,0.163861793989783,0
0.00021707859907563,0.165992703607445,0
0.000213523541758546,0.151714969939341,0
0.000226620154315878,0.169835506952834,0
0.000217240734846997,0.166561017661299,0
0.000193292443155691,0.143153073841319,0
0.000189750570079134,0.153522150385579,0
0.000133374358076461,0.139465363502451,0
0.000103594154094403,0.189092547338557,0
9.21763756611106e-05,0.146355063548543,0
0.0003269300349471,0.173567749613498,0
0.000375205567487859,0.12168157004096,0
0.000431746867288025,0.119629353898376,0
0.000752010887919177,0.139916563811193,0
0.000898072059167113,0.086559179287327,1
0.000874637128517444,0.0676512376691679,1
0.00147000158747262,0.0690499206768968,1
0.00155232695996455,0.051575293236723,1
0.00129894353679825,0.0391695700957272,1
0.00140329847857637,0.0350595216112067,1
0.00138303236788835,0.031910056021123,1
0.0011937201550798,0.0306088468731503,1
0.000993986530956444,0.0274916115943896,1
0.00124035634143936,0.0257202762252009,1
0.00215138663258129,0.0472940063292817,1
0.00408701135560055,0.0652094281223878,1
0.0048162894032408,0.0497840659636949,1
0.00460992847857949,0.0547530695376064,1
0.00434897830459658,0.0538468845660503,1
0.00431187265449561,0.0547218435509434,1
0.00380173646254569,0.0531212663622399,1
0.00313574336728512,0.0470299897154802,1
0.00693071061049551,0.0219614002252269,1
0.0326131622997863,0.0429840709822689,1
0.0855965514296043,0.0723556182634775,1
0.101931107081133,0.0515861762531681,1
0.109637084048586,0.0613724071479932,1
0.101893892569533,0.0560167579917679,1
0.105092402897772,0.0505584937132418,1
0.101911490825948,0.0544397098119697,1
0.0802020244013629,0.0293314119111439,1
0.0483553068285478,0.0189061731009177,1
0.0356401609271148,0.0146826598445312,1
0.0434115710312009,0.0178765995629628,1
0.0421649170382263,0.0187653862019617,1
0.0770748778831279,0.0190227003411524,1
0.121804054448791,0.0218508813970953,1
0.109705963814701,0.0198101804293584,1
0.114480044123471,0.0221033867779253,1
0.133134949578897,0.0226470755367514,1
0.123806305829425,0.0175718235434175,1
0.0921484274820219,0.0137966148817866,1
0.0912542817555226,0.0141050405032979,1
0.0946891527071602,0.0125741584207053,1
0.0757006628898516,0.00998921110956977,1
0.0775851701532124,0.0125021980532196,1
0.0808468505850094,0.0114384327339282,1
0.0919933521339883,0.0114401381080447,1
0.100858016852623,0.0124539823898393,1
0.101591934358655,0.0137871554667763,1
0.111038341568097,0.019034285399707,1
0.11584429770057,0.0130750038823778,1
0.109306708158793,0.0117399984793067,1
0.102840353175411,0.0128093322989997,1
0.108650832642293,0.0127688885720682,1
0.103543388470113,0.0140604618367077,1
0.099162072353494,0.0162744422066066,1
0.0972369274730385,0.0175321394717057,1
0.110414385071178,0.0161045116712039,1
0.114965379728772,0.0146882864831255,1
0.0980174996307867,0.0125696424249163,1
0.0925373654630564,0.018966106474107,1
0.0907395486592785,0.0190802960622552,1
0.0883012788229561,0.018916761460462,1
0.0884878331245542,0.0173439821948853,1
0.0877796660108621,0.0168000619902017,1
0.0697458068074575,0.0128308795571372,1
0.0708403442822948,0.0106880395263199,1
0.0548374811098427,0.00847093197510124,1
0.055546749021993,0.00802854961470668,1
0.0778600463773551,0.0104255789891371,1
0.0797203342786131,0.00857079655863373,1
0.0810543286485076,0.00810344514526772,1
0.0816727134764291,0.00592999306660261,1
0.107745033497269,0.00867188483409639,1
0.113459336362476,0.00837197471030127,1
0.122850178182463,0.00956924786388286,1
0.113300537985732,0.0108162687003838,1
0.10382408562019,0.0109682498226287,1
0.102185385775241,0.0118224887187368,1
0.0933127312685731,0.0115420957956753,1
0.103892062624939,0.00523150856919031,1
0.176553328218258,0.0104304007825486,1
0.174293818957195,0.0121278010033318,1
0.146416298082073,0.00958915592441633,1
0.170603499638113,0.012130936023279,1
0.192442786052114,0.0130142990177425,1
0.194214158068543,0.0128647035899461,1
0.198585822965166,0.0117795567420824,1
0.229786662991478,0.0133263306866196,1
0.224184213100517,0.0130376191680836,1
0.21751265264452,0.0205364855386232,1
0.16207445021303,0.0229995746098232,1
0.178279774820726,0.0270302312017285,1
0.200308487532203,0.0369489159343931,1
0.168717586742025,0.0261980251262124,1
0.116341115633021,0.0191657024074812,1
0.104208925156388,0.0151299790359033,1
0.133270743793021,0.0231765907562032,1
0.171443056495601,0.0334164503508256,1
0.199783370078202,0.0319693503698078,1
0.203731719831218,0.0282597686673432,1
0.193386499721713,0.0277512055571951,1
0.179731682292545,0.0250352127195663,1
0.145486969611289,0.0189797855239838,1
0.179661730875931,0.0253774474923623,1
0.311649172910051,0.0408702622966606,1
0.342894068414112,0.0206962262008301,1
0.328723861784404,0.0201677505767319,1
0.305754478928012,0.0184052815683809,1
0.313460789232498,0.0201808576216898,1
0.316614764917112,0.0159006610652535,1
0.364037941401514,0.0178306614675819,1
0.367276824656906,0.0159333806775688,1
0.357635740791673,0.0158038866651349,1
0.339285107486161,0.0162507982341214,1
0.258719656939791,0.0123391966763362,1
0.230125473381016,0.0259739131436638,1
0.211337108846696,0.0225992908133433,1
0.221205908768844,0.0222466868390413,1
0.205683701936882,0.0188719349718257,1
0.199143361991397,0.0284854432703741,1
0.113796550115281,0.0159515126017452,1
0.0886278865230092,0.0149711715726859,1
0.0778417358931678,0.0132745834971728,1
0.0739535302096385,0.0170861697846036,1
0.0756417133825176,0.0155303799665717,1
0.0730964672903715,0.0138208809761108,1
0.0736757979750086,0.0127538401533642,1
0.0718261902466917,0.0151370359876524,1
0.06823593582046,0.0244721473551566,1
0.0379402004262646,0.0196413148650146,1
0.0257898936444316,0.0368857615612303,1
0.0255807373786966,0.0386754652546045,1
0.0268231540138888,0.0353030230646222,1
0.0235491483763383,0.0317656753683788,1
0.0303928399249549,0.0128553297423114,1
0.0573655147719966,0.0190463360526407,1
0.0588775138034191,0.0199944508936936,1
0.0889623230534723,0.025677444923889,1
0.124719031854287,0.0349302016222826,1
0.255533685182461,0.0471000611876655,1
0.293571022766064,0.0371007326432896,1
0.279152477670718,0.0352161440921837,1
0.226349583251895,0.0319261559305638,1
0.148430409870746,0.0217962361945589,1
0.145846867376396,0.0190470359992548,1
0.213833624968238,0.0263276720973592,1
0.298246325558293,0.0340507829166672,1
0.313520199607244,0.0201239275506606,1
0.32867031745104,0.0216845477436893,1
0.265907520710463,0.0198135964758568,1
0.240135098255294,0.0181993639653491,1
0.261341504661447,0.0180260518721674,1
0.257439362998826,0.0178490351341099,1
0.282781924792893,0.0138673924106599,1
0.377610751009351,0.0232791349598083,1
0.564176651257594,0.0327035444049796,1
0.622579329047901,0.0354339718516528,1
0.585672532109711,0.0236567417381858,1
0.584967195876477,0.0241843704951227,1
0.603462177095808,0.0252585582736874,1
0.586449071983507,0.0257523303470162,1
0.678663194300031,0.0278832886195607,1
0.639354009132662,0.0199478248719764,1
0.635843727483938,0.0206316347763085,1
0.807409015312677,0.02549039158167,1
0.789084103267681,0.0288725384529104,1
0.543410808165239,0.0200038718307925,1
0.412237408758121,0.0208695737677083,1
0.464011315636225,0.0222354169606141,1
0.474161591810732,0.0159092866202406,1
0.461843651334655,0.015601933492605,1
0.476853602707526,0.01166434069713,1
0.448822247539522,0.0157296910837684,1
0.23220756925923,0.0086706555920886,1
0.242541606290041,0.0109624814099735,1
0.258045504188147,0.011013935387848,1
0.261147667734362,0.00867328585264199,1
0.281627903906927,0.00900973417785427,1
0.307318762274671,0.00661764499109915,1
0.463205859710388,0.0152190100374155,1
0.40328212478105,0.0119915745096006,1
0.460527558091707,0.0230230842767536,1
0.443746289591202,0.0197860362877089,1
0.417343684542175,0.0184790182546046,1
0.339728172177107,0.0152979764817335,1
0.338225121353096,0.0161906956221054,1
0.285515274781401,0.0151907296846287,1
0.189679951892935,0.0104969305063753,1
0.18802682305992,0.0196905790188148,1
0.153197248700425,0.0153187719571627,1
0.218702419861832,0.0246924173639718,1
0.177430493884825,0.0195998234680675,1
0.144601559653264,0.0184415983160099,1
0.143367902989296,0.0190992401023164,1
0.154239887562898,0.0197291600182817,1
0.132772026901805,0.0108957375568537,1
0.180539847855649,0.0163691752068716,1
0.192787671229584,0.0133141291343527,1
0.192141425889057,0.0116947647136995,1
0.195550579581033,0.0127574409675899,1
0.176172189045042,0.0110412145671043,1
0.169302689560188,0.0125729658695384,1
0.169023511508457,0.0130351318407349,1
0.172701410671815,0.0115395353077902,1
0.189226898410787,0.0112349300341917,1
0.177466672062708,0.0139723829904742,1
0.11594986336185,0.00958653873691722,1
0.10401317258165,0.0120357408683419,1
0.109898631031703,0.0146699938266303,1
0.0999965642064347,0.0161221372121786,1
0.0755476304376499,0.00797057519766878,1
0.0765002607016925,0.00491076577970737,1
0.120180136980789,0.00798800999714364,1
0.149722926044824,0.00651428785665867,1
0.326281837818743,0.0180144713748994,1
0.294247098256395,0.0159821827765959,1
0.279410396417623,0.0145903272773053,1
0.269949450585511,0.0125946458118622,1
0.319401517857968,0.0136383174144211,1
0.328349458678177,0.0129822969888136,1
0.313966958693637,0.0134045869555327,1
0.29563099651253,0.0141879198393766,1
0.350619054442642,0.0184654178451442,1
0.330283634190985,0.0251703847264233,1
0.262128747007382,0.0181646189965659,1
0.28378212186482,0.0189170347409249,1
0.289709590058185,0.0168675765075924,1
0.296329898347838,0.0149190529476666,1
0.222394200545854,0.0098238742822343,1
0.349892744021969,0.0161929026118717,1
0.416595722568678,0.00690677487083839,1
0.523812560498476,0.00997947961319145,1
0.480611819739704,0.00895672885449186,1
0.509549107023819,0.00971850414137154,1
0.586326204779772,0.0120446061197782,1
0.59354851853657,0.0121849859355653,1
0.58141734918761,0.0130052303206218,1
0.572866116149277,0.0136487465121017,1
0.570360721199062,0.0161969631382448,1
0.154668853085914,0.00131803051986864,1
0.0564566142173003,0.011684973244244,1
0.0645119761829712,0.0155017070674845,1
0.0671798246827922,0.0069441207343318,1
0.107271685344781,0.015021591367361,1
0.117977940396649,0.0106677274169904,1
0.151556627932597,0.0120923957165051,1
0.188508352026471,0.0163022868343207,1
0.208134902876314,0.0170181703243782,1
0.211014992887362,0.0164910619291301,1
0.204153401054394,0.0140728482764353,1
0.213618765694018,0.0165790836420669,1
0.204896015730663,0.0148495593488064,1
0.193326049202964,0.0258864914751497,1
0.132631022643061,0.0164949219238784,1
0.0914799825359051,0.0149257138921486,1
0.0915248435384788,0.0234084960764751,1
0.0797263098607295,0.0203557604959084,1
0.0730697010260343,0.0195961510118648,1
0.0923208026127669,0.0236922125089116,1
0.0915585176874069,0.0234398464489431,1
0.0895530062082648,0.0248770626146873,1
0.0865142879637205,0.0179276202342546,1
0.0977175138510751,0.0203705787842882,1
0.0695034123334645,0.0152223561246787,1
0.0817610506497739,0.0156119263136015,1
0.0874412074813085,0.0137028470912366,1
0.155875237991703,0.0133596493351691,1
0.331088562504693,0.0255811550103461,1
0.435263806152345,0.0249677626020978,1
0.410960885201247,0.0220963779780199,1
0.364975128077747,0.0191223875041513,1
0.361974819033687,0.0217908567606823,1
0.37075975605623,0.0187574864645459,1
0.365396752624471,0.0173544224110801,1
0.35527607667646,0.0185746024553813,1
0.338501665807907,0.0146138270483078,1
0.364361161507072,0.0140504186170585,1
0.323358090485059,0.0132054086614442,1
0.266807529281808,0.0122309003983907,1
0.265359851551912,0.0136000118732131,1
0.225460453301161,0.0118034789166093,1
0.159809682091265,0.00725039103072669,1
0.256813323654669,0.0140864712173561,1
0.372609556470915,0.019437567457195,1
0.405193233243682,0.020914923340532,1
0.309616337284514,0.0239907879276364,1
0.228800644760268,0.0338932866898976,1
0.224276086437929,0.0391179163994244,1
0.162547972564387,0.0333503748726997,1
0.124255705190012,0.0267708932831966,1
0.088327200851164,0.00535367202246641,1
0.357643110961153,0.0193212855522926,1
0.632262548440156,0.0411062485923377,1
0.622018259632333,0.020768623158095,1
0.654966612743772,0.0149223207530111,1
0.766297853751097,0.01743801688214,1
0.782252375980498,0.0179301127714992,1
0.84615475226508,0.0178657893520715,1
0.92972973505551,0.0188767296343717,1
0.944522282956497,0.0194807930762121,1
0.96535847074486,0.0241843588692135,1
0.725067692248248,0.0239698614451268,1
0.323510148031693,0.010534110239293,1
0.118280263442458,0.00378973920777863,1
0.183078831066191,0.0216131686459951,1
0.164680589330215,0.0141208152617146,1
0.165808118814755,0.0145723426031122,1
0.144710699334483,0.017563959267127,1
0.126264802277893,0.013202168068013,1
0.151074908496289,0.0146936552805639,1
0.140353444496989,0.0145244898059127,1
0.134199920547871,0.0154374367659782,1
0.132781434025846,0.0174804395067532,1
0.146626457429067,0.0230208258122637,1
0.083266469228644,0.0112713183841478,1
0.0554935114733279,0.0116781699484102,1
0.0547374631662688,0.0101346680672424,1
0.0829731084437004,0.0122088274158576,1
0.115328999319118,0.0245407973848344,1
0.122714507065144,0.0269563011845015,1
0.129925944871274,0.0243011066891524,1
0.137855600974121,0.0193934281434629,1
0.17162601163557,0.020619556291264,1
0.177191558825518,0.0168997358618923,1
0.150861173742973,0.0130478073126746,1
0.175540262535744,0.0106544879992951,1
0.247822791970247,0.0164361675487688,1
0.289860566591319,0.0206932785978403,1
0.30047030421912,0.0177640147950139,1
0.311976827719824,0.0181863555199316,1
0.322921003067072,0.0190240206564125,1
0.345045829672754,0.0219081386566127,1
0.279291156563338,0.0188578933034365,1
0.298108522593919,0.0249718571642893,1
0.296094256572716,0.0246161012376385,1
0.313095577283054,0.0409431266808597,1
0.219426534667257,0.0317390059236949,1
0.122302201781288,0.0167359085196786,1
0.0612550063505215,0.00867412149991673,1
0.0991374962837193,0.0146356159355388,1
0.119747459822936,0.0182203948383983,1
0.133252547431073,0.0207791189003689,1
0.129877011843108,0.0194495134596909,1
0.122790936162719,0.0226162145017856,1
0.101049176072235,0.0120600348923536,1
0.148222899988519,0.0138575926198379,1
0.147820970837522,0.0136451395651432,1
0.143455418818966,0.0144697182072375,1
0.136790986117326,0.016382122480318,1
0.13892182393113,0.0105995656085836,1
0.226421624923489,0.0187307830706851,1
0.391938748689418,0.0179579615748017,1
0.949591105176905,0.0306352393561322,1
0.940726757251755,0.0284642791103734,1
1,0.0267640801393208,1
0.997186407119589,0.027749699122583,1
0.87739964550165,0.0248691093075857,1
0.780166228749002,0.0219852670929929,1
0.664687878526681,0.0184126081736709,1
0.647500087343619,0.0155015933594116,1
0.682499734386806,0.0147593385204584,1
0.67134965216994,0.018570326152515,1
0.447178747263955,0.0138683623575963,1
0.442252184379683,0.014842628010578,1
0.399011922565063,0.0160776685401359,1
0.440981979855215,0.0153270521762432,1
0.523578452418471,0.0173685070570796,1
0.514653355926877,0.0178628398970826,1
0.466243993805566,0.0168460699824402,1
0.35181583178495,0.0254173516185475,1
0.283710119873149,0.0231610576148107,1
0.206901801177593,0.0182762879576518,1
0.148998676186206,0.0171500900831925,1
0.138412116265746,0.0179064294801999,1
0.0636272130268965,0.00923743956177741,1
0.0580339119187048,0.0179833340582258,1
0.0754596015367944,0.0108305462060879,1
0.128096564868472,0.0118904008621696,1
0.12341337624113,0.00945068500692602,1
0.112647227189153,0.00739200200327619,1
0.108506057031782,0.00746755174898631,1
0.14525306678885,0.00835961221897988,1
0.316051725168974,0.0191725230089866,1
0.351613861370209,0.0134012805062607,1
0.338255791966081,0.0134906959440367,1
0.346924460761217,0.0135921580152764,1
0.314432899123114,0.0148771339310836,1
0.29944136810742,0.0156254886671231,1
0.299216992930341,0.0162025511321881,1
0.308704286563778,0.015179229478655,1
0.295437971650921,0.0134799197390594,1
0.289969797103051,0.0158265777531751,1
0.172610491773187,0.00925706282334552,1
0.140179467915509,0.0140021721713052,1
0.16414671609582,0.0154528813117379,1
0.173773329528137,0.0173183485596838,1
0.169205326882258,0.0165479669753685,1
0.170106617688247,0.0176301721126556,1
0.117791972825084,0.0150600670331233,1
0.120096969204817,0.0208666059269912,1
0.113783028228286,0.0323264046058302,1
0.0514943817272723,0.00531937791119963,1
0.126354350945493,0.0203968843914619,1
0.133337776528188,0.0111359047757558,1
0.146699123174107,0.0125126696599113,1
0.147414650524813,0.0099349818182835,1
0.222971501838318,0.0147711997913636,1
0.227027052646939,0.0121393293128882,1
0.225496743360175,0.0117532179795665,1
0.2179198543422,0.0104435726886875,1
0.205182056544705,0.0100113073084378,1
0.235595719116774,0.0156730201535929,1
0.209874944273661,0.0139406126907883,1
0.252371871699821,0.0205959552579605,1
0.221936352257648,0.0101406271358719,1
0.230590847953701,0.011521260805659,1
0.194393552819198,0.0109385394929446,1
0.220266163397936,0.0141342123473334,1
0.258549549694991,0.0158099772544328,1
0.25727430561719,0.0166875370722971,1
0.265264034759633,0.0170127514633961,1
0.207270344847042,0.0138097599457178,1
0.19398700903903,0.0129690297396489,1
0.0780408255101309,0.00306732050295392,1
0.0626756807833642,0.00800004676054196,1
0.0720141490462115,0.0136225666760785,1
0.0545748242465236,0.00952021255848423,1
0.051681550362656,0.0123657370993879,1
0.052140016908355,0.0114137491023483,1
0.0536310902998828,0.0116838304649968,1
0.051879215012204,0.0105999163518143,1
0.0760529983517324,0.0143479952930895,1
0.0948883266542665,0.0204399171279272,1
0.31066102640133,0.029134648033329,1
0.439034159216448,0.0233989954308939,1
0.418293141887882,0.0189829545950089,1
0.574402133191629,0.0221122842002925,1
0.53436055260947,0.0182262146634576,1
0.515472734736959,0.0178226919782882,1
0.423127473147175,0.0122957523973074,1
0.446702949060517,0.0134213879634346,1
0.499785363839488,0.0154603117465093,1
0.564209411822513,0.0167085366011572,1
0.539015712522201,0.0216023133938561,1
0.466828271735126,0.021414922997601,1
0.458991302139114,0.0264154450048052,1
0.228154634261523,0.0169385079485561,1
0.202635641475182,0.0183933454540077,1
0.140717377615501,0.00945081296029258,1
0.149004694465757,0.0188866932278724,1
0.162288975156864,0.0169155105810212,1
0.183926707968456,0.0127554897177093,1
0.179368187032507,0.0119409359217654,1
0.159723817600324,0.00980024481471724,1
0.157916883900111,0.014582564971034,1
0.147759725774298,0.0134746381059628,1
0.146032605680331,0.0147728792723509,1
0.144837504554144,0.0140605175727595,1
0.134098542092907,0.0161337360630521,1
0.121005353021969,0.0141804656758454,1
0.0904063838333799,0.0153172484945197,1
0.0398102460612002,0.00177249606097503,1
0.180173719127073,0.0197840729432617,1
0.206698482061098,0.0111945726566718,1
0.201368155627325,0.00945041246956948,1
0.315081477492029,0.0129112206419767,1
0.372190554582219,0.0112644499987349,1
0.323235118790034,0.0102319017624488,1
0.327246205839109,0.00961878721079836,1
0.346108917791669,0.0100479942918102,1
0.303478237575445,0.00867942335306791,1
0.295545082954638,0.0109608325158884,1
0.247142444762429,0.00907388738263307,1
0.248510483049967,0.0145306017831953,1
0.242285212684868,0.0135604672957862,1
0.180639637356404,0.0151617350429498,1
0.133828504192356,0.015543168521132,1
0.193728239088984,0.010574707208569,1
0.337211644118166,0.0230111317897194,1
0.329534243043341,0.0173084454660239,1
0.322268623078817,0.0161084113491731,1
0.320840631941924,0.0165353432717699,1
0.343491064733535,0.0136822063616901,1
0.342137069293641,0.0130795287618849,1
0.338943265124933,0.0124045051099517,1
0.340377935591825,0.012893771247492,1
0.31950533601212,0.0118612065154481,1
0.320526706370714,0.0282543071891862,1
0.186240629986923,0.0161980471060263,1
0.104507345242405,0.0127978229088365,1
0.100397524207514,0.0137061827126048,1
0.096655872675704,0.0119860874869568,1
0.0916553669671947,0.0189907009833296,1
0.0491465887224878,0.00564875269195568,1
0.0696978193990974,0.0120182695271674,1
0.0927528848240512,0.0172024122646196,1
0.0954861299434332,0.014884359699507,1
0.114554875683889,0.0149610513530179,1
0.126302941857713,0.0163189756600166,1
0.154055009798723,0.0188090491847472,1
0.149913225781157,0.0166879240320446,1
0.147992130098148,0.0176120120036774,1
0.145113447392297,0.0172452655706749,1
0.147356265714377,0.0199772566456739,1
0.139683473771718,0.0181844096153696,1
0.128443607249045,0.0167316489444769,1
0.111738532115569,0.0150213421321974,1
0.102015221883198,0.0173668397135403,1
0.0928022526849353,0.0150548431228782,1
0.0843302696475307,0.0137661518718166,1
0.0987085078941613,0.0197440840340039,1
0.10923426968231,0.0202967692869694,1
0.105808240847584,0.0230504217253089,1
0.114264061897524,0.0317715608142357,1
0.0816855894692008,0.0253012720763007,1
0.0513681377156442,0.0151494617651748,1
0.0541182509346795,0.0086468186404128,1
0.0931617164702833,0.0119230065633227,1
0.0949411529484974,0.0111690277993224,1
0.0956927057554326,0.00969883780142116,1
0.10326615485783,0.0108764341707683,1
0.0996947431087139,0.0100218517905948,1
0.10245819783092,0.0106107231474674,1
0.0856099137236885,0.00879052253091371,1
0.0834810851055772,0.00884540410319079,1
0.0621271359569792,0.00544749980007853,1
0.0563487341648283,0.0102458416250181,1
0.0507826928148467,0.0117261213795853,1
0.0388784066542811,0.0110848691957144,1
0.0422491392687671,0.0151853642802238,1
0.0922473800774802,0.0258606490122188,1
0.13827429222449,0.0441052060077628,1
0.158155577451904,0.0362769178302357,1
0.153578423676734,0.0280701900026388,1
0.146381178073997,0.0275087945448328,1
0.127251801927879,0.0216241774213705,1
0.186656093751347,0.0278183307897287,1
0.205972306910097,0.0257656142084662,1
0.216142925860226,0.0272096321968866,1
0.216466857752236,0.0265313156368935,1
0.192002030157126,0.0252245452712783,1
0.173749948181049,0.016635419155799,1
0.149582777052027,0.0147627095571042,1
0.186782227903883,0.0185652206349272,1
0.221388010595769,0.0209443746455432,1
0.214497323147623,0.0208202999807408,1
0.205649130568585,0.0217272795019684,1
0.197867696718452,0.0266979974019649,1
0.186707724666506,0.0252958245050474,1
0.156867472615525,0.0263464347265127,1
0.0561962582077119,0.00417759149601276,1
0.0727371782555714,0.0171136035453998,1
0.101573321448672,0.0240358236930451,1
0.117773502990847,0.00581526230655966,1
0.205306974927,0.0117529218627164,1
0.209153007666953,0.0102457529940392,1
0.240220401359177,0.0122833988723895,1
0.254066816995937,0.00910101420806388,1
0.273394735400091,0.00964390985331204,1
0.269900419471024,0.0096302651420167,1
0.271528179444351,0.0110939909293792,1
0.257127465028128,0.0102549495227549,1
0.241840787849651,0.00853593963906044,1
0.21336547679446,0.0144034118684823,1
0.118815556374223,0.00851499493532554,1
0.137119423536031,0.00639861600325637,1
0.172392653136212,0.0085921564135258,1
0.166368751580621,0.0113417991941387,1
0.153455384156835,0.0107402425558406,1
0.182734025247155,0.0115776747866247,1
0.284541321163789,0.0147820599984253,1
0.316392087549382,0.0117958608695107,1
0.337022764811438,0.0121428209267605,1
0.347763536298995,0.0132796741961915,1
0.366268569893279,0.0140059267207104,1
0.401657633980201,0.0203350098478309,1
0.399821210568733,0.02049669381601,1
0.420783150136976,0.0239169010966634,1
0.380678857253458,0.0229126764810885,1
0.332152649082255,0.0279957184526428,1
0.0962927258914917,0,1
0.222659650862712,0.0167219956387547,1
0.241487243779231,0.0143768758601739,1
0.24160127398864,0.0141124488134765,1
0.238354793944057,0.0125214627398076,1
0.23475364070568,0.0122959491214784,1
0.227808384745418,0.0107748194767747,1
0.223389190809036,0.0105608073079203,1
0.220009771337442,0.0103566137023607,1
0.183443908354294,0.00772692116889742,1
0.160900589522681,0.0222149258239806,1
0.0705820343792082,0.00889909429622356,1
0.0554135765024606,0.00757158062190121,1
0.102580971663167,0.0170047452871515,1
0.108891059548348,0.0161129016811194,1
0.109957610858668,0.0125408079705892,1
0.140068340065069,0.0176396388635035,1
0.186710333779064,0.0242984222321421,1
0.20263249117982,0.014243697110985,1
0.21245903868112,0.0154138625548545,1
0.217750174648163,0.0156516157586588,1
0.230137201645134,0.0159483176200342,1
0.26772142703149,0.0228577144496223,1
0.179094454121464,0.0096206664408383,1
0.195707409087322,0.012488692858917,1
0.234483771219962,0.0191516614232098,1
0.359355111405772,0.0256808865788581,1
0.387924063079508,0.0171028520973913,1
0.364133486475476,0.0210627245262925,1
0.365614252319167,0.0212005141069698,1
0.357723019337402,0.0198772490798081,1
0.322696792566152,0.0187845067833956,1
0.24114675582323,0.0123344056854172,1
0.276033374323499,0.0194387643226074,1
0.321763552556162,0.0238140221346542,1
0.321753993758941,0.0223043457588641,1
0.205252383497461,0.0203158222849368,1
0.0995766469766942,0.0172846682416701,1
0.109428075949499,0.019293752590487,1
0.0703150805562471,0.0134161539952665,1
0.0720537367681005,0.0137456072716662,1
0.0553741268728299,0.00999625465828892,1
0.0461648504155651,0.0135183628784202,1
0.0537923945129086,0.0174804799141784,1
0.0566330059899339,0.0192499559256519,1
0.061740333322936,0.0237646336353567,1
0.0752667988799297,0.0257100624452517,1
0.0975322388862728,0.0488077185827048,1
0.152027293359615,0.0529376231630575,1
0.167641759425608,0.0233453287841775,1
0.113565487942995,0.0188465963100006,1
0.106926404643746,0.0157477349543961,1
0.12792671785872,0.0184526545044798,1
0.139407436664361,0.017140797200228,1
0.138259626214425,0.0167734553026498,1
0.135648607882951,0.0164952722137206,1
0.136956209096391,0.0149563837998757,1
0.188381696276806,0.0176018473023624,1
0.162767996284881,0.0133961187546699,1
0.109660477249713,0.0138679685070425,1
0.11816905300407,0.0111371580580784,1
0.125755719363777,0.0126170524969064,1
0.138854568975553,0.00309186461734584,1
0.351395392273193,0.0168197137277638,1
0.390693841656368,0.0110652991956138,1
0.384374288260652,0.0115487807169279,1
0.382953170011929,0.0118439958826855,1
0.362488423351296,0.0121745028028924,1
0.337588907949359,0.0118428817240276,1
0.340025241467485,0.0123293871862611,1
0.352758474370806,0.0121550028382139,1
0.334249772357351,0.00992568465104464,1
0.316411050897044,0.0126854808331902,1
0.218805039702436,0.00758114007120648,1
0.196628310312049,0.0134395000631775,1
0.201530125001186,0.013043985625847,1
0.188040145124168,0.0105217584867888,1
0.169636777643211,0.00965995158453049,1
0.190131814073422,0.0124825738187554,1
0.246308641714093,0.0152569137169309,1
0.217213385090975,0.0134469470102645,1
0.137089919316929,0.00861023722194143,1
0.142131788627426,0.0123651220534566,1
0.17302183147879,0.0172080980422099,1
0.193949722908054,0.0190372441445856,1
0.143050802274778,0.0113918800293901,1
0.120708002139816,0.0122946797183781,1
0.136361705185912,0.013742497347214,1
0.138986015848898,0.0127988224237682,1
0.126171628776613,0.0106903046660785,1
0.115946036812353,0.022884389498533,1
0.0846609800341322,0.0176277333633315,1
0.0913502348001078,0.0136131884472342,1
0.108763167735147,0.0206590267467288,1
0.0972263665227796,0.017768555327426,1
0.0900801683856828,0.0167900974548882,1
0.0927858224253828,0.0198704393197779,1
0.0944065017911461,0.0134033010268928,1
0.11383000613499,0.0164541084650426,1
0.113067675815633,0.0157381566345864,1
0.107163647251849,0.0166615293599687,1
0.108570137592421,0.0143843104823903,1
0.154416623666341,0.0286954089973318,1
0.142863872945138,0.0265756028692026,1
0.111493472397179,0.0216609461631871,1
0.101015293815005,0.019620697911743,1
0.0801683544374948,0.0145763623122863,1
0.0683871198555666,0.024562077634037,1
0.150344290092752,0.0253880217612869,1
0.252503801652031,0.0273898443288842,1
0.257172510232585,0.0215625031836391,1
0.247699618600863,0.0238809398490894,1
0.210284176047578,0.0202813173055349,1
0.18860581906684,0.0186333179596014,1
0.161472208278038,0.0159072853204252,1
0.163862100617372,0.0166549790515991,1
0.191659539200635,0.0206570436951255,1
0.209712856956793,0.0209533174267982,1
0.173486353690914,0.0376056572007996,1
0.0679623705717569,0.0253074768999702,1
0.0609155561697417,0.0402454440998522,1
0.050389039564271,0.0529365141180293,1
0.028798307950049,0.0373979771418879,1
0.0160827770972953,0.0214193273483602,1
0.00592137859571758,0.00936265735965262,1
0.00752517043091422,0.0190813449060233,1
0.00927423200956604,0.0431224003977358,1
0.0083755736093919,0.0486894500714093,1
0.00882497721004216,0.0393402124677791,1
0.00904961678084623,0.0359899659172479,1
0.00887758171823456,0.0296841683844577,1
0.00805109796415663,0.0317045908899683,1
0.00852195436561731,0.0348271714332152,1
0.00722636881978305,0.0341378920292984,1
0.00726422476859396,0.0393491064938152,1
0.00881888263385382,0.0463980779460176,1
0.0102479910670558,0.0509503257640739,1
0.0114733427835786,0.05447463166127,1
0.0118654661761771,0.0796147324785988,1
0.00670453334407538,0.0780586539815179,1
0.00222397636989763,0.0946703862796138,1
0.0018758580535364,0.129109460879443,0
0.000797048024596848,0.14901908545913,0
6.39599253093334e-05,0.262318056400361,0
3.02442719350265e-05,0.380709865660422,0
3.62812614713494e-05,0.465131383961673,0
4.07918470328744e-05,0.483657969498345,0
4.300373870482e-05,0.494212772288965,0
4.57012417368052e-05,0.535650076249551,0
4.65804706353715e-05,0.646402365471683,0
1.82274327766393e-05,0.684109173912179,0
5.54434697393393e-06,0.631423663881364,0
2.97585210062446e-06,0.468826443607826,0
2.1533800972869e-06,0.452358291558133,0
3.31030674369473e-06,0.519022939264907,0
3.40363524283526e-06,0.442715200996048,0
4.74881986466803e-06,0.533332272182835,0
4.95840853733406e-06,0.540327035158672,0
4.46623191076359e-06,0.5456563334711,0
5.25781635028097e-06,0.618874953985102,0
6.54737440702911e-06,0.7138475382512,0
6.68070554555388e-06,0.701654366647658,0
6.39286474241527e-06,0.686496058787827,0
5.3575081240594e-06,0.644284246962423,0
5.58354694582495e-06,0.365510632330942,0
1.79154759081675e-05,0.647205308701803,0
1.99900844672569e-05,0.662610687746551,0
2.26323683335498e-05,0.672975197330339,0
2.26673762964284e-05,0.613958952239134,0
2.18908054490898e-05,0.601415123016677,0
1.92350394778397e-05,0.55976311144538,0
1.71346940893123e-05,0.512420010013045,0
1.74097899695685e-05,0.516417430293071,0
1.70929526707346e-05,0.512380685811911,0
1.79538573123288e-05,0.86821141268369,0
1.0499182904801e-05,0.757108911385767,0
7.96928909447529e-06,0.694755665802205,0
3.14696455660798e-06,0.465677771410128,0
2.32456380988574e-06,0.446681015636954,0
6.29806164356595e-06,0.600307271507464,0
7.31787124625418e-06,0.459363537611368,0
7.31686399571828e-06,0.473976406039014,0
7.56131540910313e-06,0.482019827955215,0
8.18528721135477e-06,0.503468976004274,0
8.57923441478454e-06,0.513533768852082,0
8.43797341610056e-06,0.509814155781985,0
8.38366939735218e-06,0.509985183506726,0
8.52591515068192e-06,0.514267834283575,0
8.57616354911305e-06,0.503151791249168,0
4.28919985562964e-06,0.428978426251362,0
2.07304986479661e-06,0.473198635688163,0
2.21521246577856e-06,0.458097991499823,0
2.12667900684123e-06,0.432945194392983,0
1.74925309134677e-06,0.401151077481485,0
1.09279015698143e-06,0.32131804252045,0
1.38629898219556e-06,0.326001257699167,0
2.09960490862576e-06,0.37879858631407,0
1.65251569928521e-06,0.341358490327316,0
1.48266996214098e-06,0.341887850077646,0
1.44565762723007e-06,0.34332305961404,0
1.71641050511716e-06,0.375107272545795,0
1.75352672157306e-06,0.394965406071631,0
1.94279689427414e-06,0.416891796643141,0
2.09609496086846e-06,0.404058962661369,0
2.14025663099686e-06,0.394155749219392,0
2.06022308514126e-06,0.443492273717444,0
1.4547176997539e-06,0.401510722024586,0
1.03300573894794e-06,0.347585087925897,0
7.2841550892546e-07,0.300684926814771,0
6.49997898213997e-07,0.288721679150469,0
9.50948740776304e-07,0.353453513446566,0
1.59025261105433e-06,0.46425931866302,0
1.74102265782842e-06,0.484749287773494,0
1.59814383952785e-06,0.484458829342552,0
1.78341386607004e-06,0.513749775348705,0
1.84126622870234e-06,0.485819054282579,0
1.81746451693326e-06,0.455707240906508,0
3.04520669432385e-06,0.505938981899239,0
3.31765913082099e-06,0.459358186459327,0
3.29973014194963e-06,0.451946967127393,0
3.08913657433827e-06,0.434713123720404,0
2.36092835738466e-06,0.372327300897671,0
2.1117822519557e-06,0.346847779743494,0
2.28594390217729e-06,0.356940398856942,0
2.06739350289451e-06,0.346906704549938,0
1.87796786121455e-06,0.340092484921826,0
1.5906087763514e-06,0.319607188679546,0
8.95624751302825e-07,0.275328193119793,0
8.19924549894959e-07,0.305765487821557,0
9.61675158082873e-07,0.329622561592303,0
1.06143206394108e-06,0.35187798042796,0
1.06520619118295e-06,0.353286800295752,0
1.65046810216563e-06,0.434559499905442,0
1.53040930325612e-06,0.396197273735958,0
1.80356794581187e-06,0.44135983296281,0
2.01477526255122e-06,0.484612544481459,0
2.5173489948639e-06,0.538342970856101,0
2.68551095585503e-06,0.550170737828494,0
2.35701336582555e-06,0.511605144475267,0
2.33553603307029e-06,0.531363684512722,0
2.45717366657215e-06,0.528008883312945,0
2.66973603679787e-06,0.574611265374466,0
1.54410847588614e-06,0.442604117213771,0
1.50471357887387e-06,0.484599699426276,0
1.47438405446426e-06,0.46381127468713,0
1.59938770913843e-06,0.459705101457882,0
1.42712796275848e-06,0.423581911031025,0
1.16987638789193e-06,0.386440338801475,0
1.17611340287424e-06,0.383239906699825,0
1.33781150550933e-06,0.404153974465168,0
1.24125490502548e-06,0.406099606066033,0
9.37050167402912e-07,0.356503942927504,0
9.06621237070436e-07,0.386429160602688,0
6.51212440721741e-07,0.341295756713802,0
5.97690242489875e-07,0.330699558333135,0
1.80998045229307e-07,0.203030005401836,0
9.70182962393088e-08,0.177364391812961,0
2.24639483176096e-07,0.237650998492981,0
3.13901290723585e-07,0.249660325140212,0
2.99765862716455e-07,0.241383129624845,0
3.37027654670758e-07,0.248726632624498,0
3.83948074717588e-07,0.252245227199925,0
4.29622622901836e-07,0.251950827762353,0
5.06530771163798e-07,0.260485714929573,0
5.8186385377835e-07,0.272127912628837,0
7.28099859786519e-07,0.284286104616281,0
9.02656778108965e-07,0.315305185953207,0
6.71348971313688e-07,0.280856393333514,0
5.99180389096544e-07,0.28802139184521,0
5.93558065478458e-07,0.292199542864014,0
6.74377907472695e-07,0.30147897905946,0
6.61936031319605e-07,0.298925414265008,0
6.38432066200998e-07,0.297174031281408,0
1.04500594186557e-06,0.381964948828045,0
9.40795674219123e-07,0.358535388410662,0
1.07883316496142e-06,0.377756824475078,0
1.11581652610809e-06,0.366955251465762,0
1.15302072387249e-06,0.359522167854535,0
1.14212505738209e-06,0.348405212071467,0
1.0742435322576e-06,0.336126642139677,0
1.05331469877101e-06,0.340198349853335,0
1.01306978689466e-06,0.345953692275824,0
9.73787604892076e-07,0.345633976662276,0
7.97663394371166e-07,0.3108557528407,0
6.21872735477674e-07,0.280532960341083,0
4.42092530582936e-07,0.258525213545127,0
4.00135693245949e-07,0.261585639251017,0
3.68924117940245e-07,0.260021782714483,0
3.35453060141468e-07,0.263529094002081,0
2.35288754890873e-07,0.217945426903463,0
9.49835370884361e-07,0.365555295806826,0
4.18291560824901e-06,0.707703269658133,0
7.10299050377064e-06,0.738358173012659,0
6.84093752860631e-06,0.671824327305703,0
8.17406423555201e-06,0.662160341774498,0
7.8930782010277e-06,0.587588607482194,0
7.24996604744426e-06,0.555944822873101,0
6.92392875400558e-06,0.536624089069251,0
7.00881764318345e-06,0.534505177924049,0
6.10647380528425e-06,0.50346400083754,0
6.05401951404595e-06,0.524816086216027,0
4.99210985411293e-06,0.493958125720048,0
2.90928911733222e-06,0.4154430121311,0
3.31230993793171e-06,0.477103248380742,0
2.13537172501269e-06,0.443246338082924,0
1.46768428371071e-06,0.391826313259479,0
1.19017910539993e-06,0.358911483078939,0
1.13354846982668e-06,0.35482281686066,0
1.04650409748025e-06,0.33731693236564,0
1.24117764165416e-06,0.368900744007043,0
1.22890313021243e-06,0.381461761589985,0
1.21696405487058e-06,0.402536669859469,0
1.04027685819888e-06,0.395477549101614,0
1.0827416786464e-06,0.392058111692903,0
1.00597380580402e-06,0.355290504170151,0
1.00323943624818e-06,0.372285187597405,0
7.47931694735763e-07,0.326188239258047,0
7.7900853025977e-07,0.359787610937742,0
4.87361446067741e-07,0.310113348783141,0
5.76491340542239e-07,0.33787077432057,0
8.54972557813619e-07,0.397053743390851,0
8.86070122534808e-07,0.386439170701962,0
8.9789082944955e-07,0.383239857874208,0
8.02484699409427e-07,0.374320177498973,0
4.67020921330779e-07,0.307556344091848,0
5.32811977586966e-07,0.320972059655012,0
9.54508038156449e-07,0.437285682477978,0
1.20278021947685e-06,0.478043202390064,0
1.42931112411647e-06,0.511377378198465,0
1.32949061731235e-06,0.484808582091017,0
8.56680360990719e-07,0.364731657392268,0
8.25121571632182e-07,0.31959361505685,0
8.00166916049272e-07,0.302545540759831,0
7.52445477422615e-07,0.294908141933206,0
8.38659150747797e-07,0.312764884202903,0
9.6788390597812e-07,0.351975526514085,0
9.25228871590521e-07,0.328422404304421,0
9.69901233758633e-07,0.320111959915257,0
1.12301462205077e-06,0.334419709258884,0
1.15106876373083e-06,0.33547027018756,0
1.1189630062375e-06,0.346969933230794,0
8.88218774490665e-07,0.334397837814001,0
9.24444931042465e-07,0.346802931821965,0
9.17112448656684e-07,0.338430704959741,0
9.08891437500691e-07,0.326071217145152,0
8.35594998509482e-07,0.3047752822855,0
9.05532954218267e-07,0.320279371261008,0
8.50327333171893e-07,0.32531337216171,0
5.48999596115328e-07,0.272083356507477,0
3.67421251144394e-07,0.22940915794941,0
4.45123351214414e-07,0.249794757184491,0
4.36538990210051e-07,0.249652173090122,0
4.16296929159714e-07,0.242509171146545,0
3.95421803138553e-07,0.248897617950629,0
3.97681167852097e-07,0.262541319124972,0
3.53591107677613e-07,0.238160502385897,0
6.95614027751637e-07,0.334078984631061,0
1.21919998145777e-06,0.41672609444232,0
1.26518110975719e-06,0.394885036613451,0
1.27982534533156e-06,0.377790200061386,0
1.5092928469791e-06,0.398256523285659,0
1.88456763714759e-06,0.438085265856137,0
1.88965005940265e-06,0.447806832837284,0
1.93083909198712e-06,0.449826969419012,0
2.05021182513755e-06,0.464334358187484,0
2.10543157972746e-06,0.493193975534785,0
1.59133865609544e-06,0.439805591866061,0
6.49821346699343e-07,0.293322038643232,0
6.76682028407435e-07,0.307551665813066,0
2.82959194981275e-07,0.21002519900037,0
2.61584565975693e-07,0.221780242849278,0
2.48829631833311e-07,0.217640988033677,0
9.0138181470261e-07,0.338941392050423,0
2.06233934772652e-06,0.510001038606658,0
2.43950438156324e-06,0.551177468053217,0
2.51358535000015e-06,0.546881358214116,0
2.57403392680023e-06,0.528581720202011,0
2.44628082679046e-06,0.512926977023085,0
2.08361939976995e-06,0.469265311082232,0
2.11903853098592e-06,0.48202150958345,0
1.70727846930083e-06,0.424080326941271,0
1.23615363804571e-06,0.356623110960285,0
1.04681786214672e-06,0.364329714549658,0
6.75785137290629e-07,0.274949219092377,0
8.27655598208418e-07,0.290748659831784,0
8.38827339915859e-07,0.294366054927882,0
8.00609649300496e-07,0.293059470313852,0
1.22953442849031e-06,0.341046719298456,0
2.19419588654253e-06,0.45776291571395,0
1.96094907535382e-06,0.404616184301421,0
2.27469301262605e-06,0.436159655318167,0
2.28412962630556e-06,0.437074289368971,0
2.31977901650162e-06,0.444834898729799,0
2.34603454698736e-06,0.463220406382452,0
2.2310081140329e-06,0.460121307182525,0
2.32623439473154e-06,0.456294892184013,0
2.25738990417422e-06,0.437177625329553,0
1.97185828649011e-06,0.431381290438041,0
9.91336165883296e-07,0.30022547941333,0
9.63648554098901e-07,0.30384487822856,0
8.40791313569529e-07,0.285792242821593,0
8.25811759674791e-07,0.284109551097933,0
8.28289723195006e-07,0.293141065228886,0
7.51099492959999e-07,0.283971761767869,0
5.71013179068205e-07,0.258319794323832,0
4.93185290460725e-07,0.247650883274945,0
7.57671944042204e-07,0.316752508837438,0
7.51568255487231e-07,0.313012421434497,0
6.19299841656719e-07,0.294553084015447,0
1.16203262456878e-06,0.410425974689097,0
1.12339811219867e-06,0.383192518638104,0
1.27970815469976e-06,0.398438848205303,0
1.30088020291468e-06,0.372437061814096,0
1.53734239525751e-06,0.407273521849399,0
1.69080111313001e-06,0.425618037931078,0
1.68568712596105e-06,0.435704403610753,0
1.55867839257743e-06,0.41725863017279,0
1.69595985652016e-06,0.438574572352938,0
1.9936264169036e-06,0.492914655744784,0
1.41034485092919e-06,0.436976834438032,0
1.11675829122562e-06,0.396390957585072,0
6.66861100123316e-07,0.309721866754764,0
6.32975458380855e-07,0.324620769284954,0
6.54438775372116e-07,0.32622659892898,0
5.87965422301793e-07,0.313989937645527,0
6.11144433698632e-07,0.318313809433342,0
5.59505530142758e-07,0.31159951047181,0
5.19366266504328e-07,0.307755721666655,0
4.34536738209308e-07,0.27700093744885,0
8.82447224208758e-07,0.337429308128494,0
1.1718403615456e-06,0.372680113806272,0
1.42472537813712e-06,0.412534227181429,0
1.49058627765427e-06,0.409872389693645,0
1.47687992047295e-06,0.422985305617487,0
1.4772347901952e-06,0.414951475028433,0
1.43379711083437e-06,0.412687919226481,0
1.21865690004744e-06,0.384158710033134,0
1.19010843768226e-06,0.369378754099837,0
1.03892003801955e-06,0.330982496314597,0
7.75131581488684e-07,0.322178782671584,0
5.882993272678e-07,0.291904900858493,0
3.30261927380717e-07,0.233826062522802,0
2.83637605070938e-07,0.221201576824999,0
3.19128817358937e-07,0.217634962776068,0
3.17958559954267e-07,0.214407461555861,0
2.942468317457e-07,0.208222850668917,0
2.8025874592992e-07,0.203718231977683,0
3.41905493883157e-07,0.224038052945602,0
4.17406883445302e-07,0.236920626360635,0
5.24960323035346e-07,0.261119105440823,0
5.3878763979342e-07,0.260250762626728,0
7.53570389708445e-07,0.294019609754069,0
7.60409140306748e-07,0.298401284903473,0
7.60348483849079e-07,0.312088812457845,0
7.20422636718022e-07,0.307675745402502,0
6.79932743420403e-07,0.296308931710352,0
6.99116319839524e-07,0.309487478712961,0
5.64172543997431e-07,0.290102665696269,0
6.451736486875e-07,0.323973753999925,0
7.12262870917346e-07,0.317428721458431,0
7.21610796611169e-07,0.317705899576704,0
7.50797977364592e-07,0.328108888190169,0
7.49950906988749e-07,0.32337127970597,0
1.2428388041376e-06,0.39536448889867,0
1.56440895558309e-06,0.418702633853044,0
1.5559388407223e-06,0.413649913112118,0
1.50973569800985e-06,0.398420515790358,0
1.35457859932261e-06,0.378844906448398,0
1.01770570695356e-06,0.338763903461275,0
9.01972596822358e-07,0.344314173101427,0
8.61289662875962e-07,0.354069777829885,0
9.18794929234955e-07,0.39715380839216,0
8.83610297062132e-07,0.402090844520087,0
8.96080793640877e-07,0.445455191812039,0
9.08237172214567e-07,0.433789681844731,0
2.120048490451e-06,0.58924230982802,0
3.82737831162668e-06,0.630722264936478,0
3.82717514193837e-06,0.612947718160391,0
3.7905024831904e-06,0.607125504751961,0
3.82914724237957e-06,0.589147731832452,0
3.56058635931517e-06,0.557547988997641,0
3.20167727032358e-06,0.524703507012855,0
2.93082404427739e-06,0.50585205545403,0
2.5297441125438e-06,0.46366462322899,0
2.41762836510077e-06,0.454280919353177,0
1.84514824199319e-06,0.419818858277191,0
6.1905733360557e-07,0.283625564315038,0
6.78401609537482e-07,0.31601137440538,0
7.11850053666604e-07,0.317208793180333,0
6.1289934868752e-07,0.289711184264093,0
7.94854588152712e-07,0.324847777638085,0
8.54608265729011e-07,0.336535548330122,0
9.33256724318207e-07,0.335855637023354,0
9.91534035492782e-07,0.331633093521514,0
8.95085909955566e-07,0.335847977785455,0
6.1388575224671e-07,0.286240869476111,0
6.58062498154875e-07,0.289030888955474,0
6.06595788271062e-07,0.274903736552422,0
6.28327053691835e-07,0.281093141439999,0
8.24302179445761e-07,0.317945035662712,0
7.09715888592871e-07,0.290697034865661,0
6.22657147143848e-07,0.273336024288276,0
5.71975084485269e-07,0.272855538179119,0
6.838813021454e-07,0.303568563806212,0
1.35864434867941e-06,0.402028646457181,0
1.42503148713417e-06,0.384281156398443,0
1.44139589273625e-06,0.39593075887474,0
1.80250887228301e-06,0.440796429763862,0
1.97758343163741e-06,0.466826109650763,0
1.76096508775582e-06,0.467118668381739,0
1.65255904215204e-06,0.47279770457639,0
1.76202333682798e-06,0.472611308824315,0
1.9157628410987e-06,0.478146008719243,0
1.84606974903165e-06,0.477367487614305,0
9.98041118936139e-07,0.37772919140438,0
9.28090089699583e-07,0.393957386052256,0
1.01805327434498e-06,0.408024038861269,0
8.66850741138732e-07,0.362753354246645,0
8.5840465330195e-07,0.352863884547527,0
9.45727220896954e-07,0.360302938604407,0
1.03957866114826e-06,0.365917887134833,0
9.83295121848311e-07,0.371745656646276,0
4.53149672808217e-07,0.258772173241315,0
4.32362056977442e-07,0.249397939187929,0
9.22175201730328e-07,0.345837916164933,0
1.554186281324e-06,0.445851461118179,0
1.63762459781709e-06,0.460178856670117,0
1.68578653188391e-06,0.466442893438902,0
1.82742100945578e-06,0.5034182718786,0
1.82583239916249e-06,0.528417467370167,0
1.78569784670524e-06,0.551910509287834,0
1.59131368683519e-06,0.522845718838851,0
1.51295343475458e-06,0.487707705453479,0
1.76900236284586e-06,0.533829433135668,0
1.62892681512586e-06,0.524543893468044,0
1.16943447909741e-06,0.45166771131246,0
1.04618291270342e-06,0.448955611007497,0
9.58211851019235e-07,0.467545858236132,0
6.98600445500511e-07,0.396721451672548,0
6.13506973279983e-07,0.374477878649301,0
5.56304400311686e-07,0.344003901057756,0
4.6065046214159e-07,0.314205759971484,0
4.18197419647008e-07,0.327726075721838,0
1.5718479106635e-07,0.229005439314722,0
6.50387984015554e-08,0.178055842491339,0
1.02534147162768e-07,0.194872858599688,0
1.25216600063424e-07,0.185233204716623,0
1.87675555651786e-07,0.207398010024143,0
1.96367331587013e-07,0.21975447008294,0
2.33432431727125e-07,0.223899373255179,0
2.43349468107277e-07,0.221934963183318,0
2.43644388049033e-07,0.218323968933421,0
4.16417653177405e-07,0.25882595947651,0
3.89347088347827e-07,0.241610851530869,0
4.54644059477948e-07,0.240265132764026,0
6.23070671071766e-07,0.275993581986381,0
6.30414106953786e-07,0.28838134329835,0
6.17912045461145e-07,0.297962017946079,0
5.69566846446493e-07,0.282764919143693,0
5.6214814944515e-07,0.283742804743712,0
5.60411961401446e-07,0.279640552726345,0
6.58395696443702e-07,0.297444779832846,0
6.25121919356762e-07,0.314876624274245,0
6.47462929401527e-07,0.338691461727771,0
3.49951249099319e-07,0.272577553485091,0
3.26148477314484e-07,0.28395845656808,0
3.36586688112476e-07,0.288085183644298,0
4.23246039177117e-07,0.293835202989715,0
4.24248107413724e-07,0.277073776369585,0
8.00179165120336e-07,0.360554678869267,0
9.46514930389952e-07,0.396977423945516,0
1.02373495884591e-06,0.406084431638774,0
9.37002113354892e-07,0.369273807671892,0
7.88694718762189e-07,0.335327946322495,0
5.90978693783383e-07,0.293515581605361,0
6.687183655233e-07,0.311962756480574,0
7.62678162941708e-07,0.330235594013834,0
7.66678780218723e-07,0.349089680761125,0
7.97214889923001e-07,0.356543387354848,0
5.96704074489743e-07,0.318197700562407,0
5.60325864565415e-07,0.309109795430261,0
5.04733337764778e-07,0.289672794397414,0
5.23526828382343e-07,0.299178743022732,0
5.48725994268403e-07,0.302562208877663,0
6.32268781204124e-07,0.304464494369742,0
6.36696467054941e-07,0.293108196530415,0
5.116201424111e-07,0.261899975655982,0
4.8573090626196e-07,0.255486954799495,0
4.46840576753876e-07,0.255051919320886,0
4.09844495418024e-07,0.247954528347013,0
2.91394682660407e-07,0.214683005462197,0
2.70808705384058e-07,0.220430050536144,0
2.44383101257778e-07,0.208466829413819,0
3.25105421801626e-07,0.237915671178444,0
4.07683594391104e-07,0.276402760484582,0
3.89599725438509e-07,0.293913822363312,0
3.56707082908887e-07,0.274811069356555,0
4.51115031436874e-07,0.308615186589244,0
4.49662574279629e-07,0.289489079641435,0
