Activity,Complexity,Tag
2.58666807517908e-05,0.240017648203998,1
1.46303229359127e-05,0.251597338390812,1
1.2877398370972e-05,0.270555504707974,1
1.27182345519334e-05,0.270623822386051,1
1.23218544694711e-05,0.320142811465676,1
1.57152597800738e-06,0.164332162116087,1
3.54986183713048e-07,0.172139165322103,1
2.98320439689149e-07,0.163073559963464,1
4.20110150585929e-07,0.195314847718674,1
4.71726118292564e-07,0.187994659321455,1
7.18725654839067e-07,0.223614150584614,1
7.12400860166205e-07,0.212767909990091,1
7.55145443917782e-07,0.216391616046173,1
8.07878732202256e-07,0.225629636142904,1
8.07916830712466e-07,0.222165443903205,1
8.64488610197265e-07,0.229147166578119,1
9.73481818235634e-07,0.237035322111926,1
1.11991808299584e-06,0.241828193038679,1
1.23244570131778e-06,0.248210481888552,1
1.1792137733672e-06,0.24700418909063,1
9.75727066865152e-07,0.228734222794786,1
1.05164343120556e-06,0.250063818640991,1
1.00813510933749e-06,0.239951011394221,1
1.1031631360871e-06,0.248440572845772,1
1.18002701302828e-06,0.24198732504741,1
1.81046816582045e-06,0.302779403089239,1
2.02549297520099e-06,0.311281452562481,1
1.99093842200147e-06,0.307483580103158,1
2.26798751760754e-06,0.303657533129354,1
2.71179078694989e-06,0.339393402788537,1
2.51713444883738e-06,0.331100579554445,1
2.53906902522232e-06,0.336703766490469,1
2.75164801632215e-06,0.357056572061014,1
2.21567145662745e-06,0.335116959079254,1
1.85117081085778e-06,0.320572851669288,1
2.00689064832735e-06,0.340979227954856,1
2.92016974878267e-06,0.21265130831876,1
8.8182447541087e-05,0.0649516841169158,1
0.0011130687120574,0.0742352344469419,1
0.00143630631137239,0.0406854381391401,1
0.00142818081598401,0.0432081620005231,1
0.0013898212226065,0.0424926397637733,1
0.00128774260387997,0.0380190135432751,1
0.00126562959564174,0.036420779244925,1
0.00112025173118518,0.0289756989860334,1
0.000948996335768625,0.0263469610210385,1
0.000854660145700022,0.0243583813925388,1
0.000963755528462245,0.0318633042483678,1
0.000538204209199185,0.0309813793205179,1
0.000416418688608153,0.0443734245335621,1
0.000428454908823066,0.040357643984115,1
0.00042827102897121,0.0311151999205034,1
0.000606780957247863,0.0364053744210725,1
0.000518910099565865,0.0341126082269302,1
0.000641558773993303,0.0300422791412074,1
0.0014835140290783,0.0348112879381809,1
0.00139756744184521,0.0222826701802125,1
0.00119076356073171,0.0199456471672306,1
0.00112561722702789,0.0205598746707575,1
0.00118914146804195,0.018715399226278,1
0.00161832369165661,0.0188339713274547,1
0.00157883661008401,0.0137878921316405,1
0.00170937720756884,0.015359662121084,1
0.00171739910479877,0.0158674891718824,1
0.00180133944534559,0.021178673034478,1
0.00131357546933109,0.0206588847506279,1
0.00137630192860211,0.0292488388071669,1
0.00151055408657579,0.031367546410037,1
0.00166193102439268,0.0330335039450127,1
0.0017525207052632,0.0453338865771694,1
0.000661002059713479,0.0545109863023193,1
0.000273197151388656,0.0887041281181628,1
0.000345620876881917,0.0864806104326652,1
0.000283022021278201,0.0798445379465409,1
0.000266592113533024,0.0958591072811813,1
0.000267196520320792,0.0940254186737941,1
0.000295795442361931,0.0909752264851444,1
0.000550559273459359,0.0937132896257898,1
0.000772951183449934,0.110431053152391,1
0.00122756531292161,0.100184691430768,1
0.00158342957554034,0.0823506393084587,1
0.00161008155409921,0.0947385447523459,1
0.00173345432509907,0.0857109028471491,1
0.00219438791615935,0.0965594040754896,1
0.00246535430262845,0.100706744379404,1
0.0024326585890014,0.084584622040041,1
0.00392284413138276,0.0188225930278651,1
0.0131865585323125,0.0308913298203394,1
0.013074850565958,0.0156775544993907,1
0.0123816597287424,0.0149766884729174,1
0.0118487697742157,0.0139533041534431,1
0.0115209891359951,0.013116703715565,1
0.00928180978964532,0.00962595940635362,1
0.00828425773998629,0.00826835751861517,1
0.00762687527051602,0.00613439112621118,1
0.00738738032724114,0.00407058327464812,1
0.00743779126673767,0.00753347019973764,1
0.00398487481524095,0.00350441542400163,1
0.00438187315643752,0.00651029387300003,1
0.00456610094899285,0.00571710862462002,1
0.00424738702746865,0.00607236648175664,1
0.0039806600671316,0.00596994338485647,1
0.00634983621484195,0.00904757345217591,1
0.00665209302973211,0.00778614145096181,1
0.00788365108490997,0.00949386482551915,1
0.00689571285008979,0.00532748401983161,1
0.00830440115248186,0.00702422125331632,1
0.00755788731764463,0.00571865066029752,1
0.00704998214618499,0.00713662794156867,1
0.00689131045028768,0.00723223634868795,1
0.00680507967963727,0.00668149405136644,1
0.00647632775667144,0.00627147842785759,1
0.00517021981668404,0.0065320852593902,1
0.00514318624539162,0.00740915344168435,1
0.00324961702569104,0.00495868624273918,1
0.00247092412475922,0.012403620696759,1
0.00130701171514487,0.00408903638775512,1
0.00168856307460205,0.0053797112401261,1
0.00171555621709905,0.00492168696505761,1
0.0016960875632516,0.00533385511715997,1
0.00197303757798036,0.00502516189554235,1
0.00346210313695436,0.00859569447185612,1
0.00339851327819552,0.00844962475291043,1
0.00351293322034901,0.00789070978867923,1
0.00380583052742559,0.00952074500679435,1
0.00373718779284563,0.00997136549256882,1
0.00380061816682095,0.0105652572171381,1
0.00395170226463791,0.0117240518048475,1
0.00428581646964707,0.0122013932533609,1
0.00429631348467997,0.0124010325686132,1
0.00428530765599922,0.0115796678522021,1
0.00427671334094038,0.0137928689930343,1
0.00445775390795243,0.0136256778705192,1
0.00422789360737968,0.0169535722008027,1
0.00433662510561357,0.0163116995301312,1
0.00426268134821245,0.0152476968813642,1
0.00458367635297628,0.0175503852616663,1
0.00334160868347327,0.01589855409268,1
0.00239255970723176,0.0130409932766677,1
0.0017258396965235,0.0101846316763975,1
0.00115178791400214,0.0118550548360137,1
0.00115870987232605,0.0124573153908746,1
0.00239280034166523,0.0237768547862766,1
0.00307875381492426,0.0297506067048436,1
0.00324481132513695,0.0338360151640301,1
0.00252251038729611,0.0349692283557208,1
0.00359166488497402,0.0110554352621615,1
0.0104034342884719,0.0218669513258494,1
0.0113363036096402,0.0165276064446075,1
0.0117478604689536,0.0122359424825376,1
0.016466723839114,0.0159526175126115,1
0.0204288457902121,0.0178035942511868,1
0.0229229430387417,0.0161536368930665,1
0.0191546649943845,0.0102090675931211,1
0.0189868598971109,0.0099635277195522,1
0.0157495730775955,0.006522224238858,1
0.0148555053520133,0.00742238905855052,1
0.015032018653345,0.00768263525993952,1
0.0158823961092701,0.0067088474306954,1
0.0187847942969505,0.00753448909958566,1
0.01838961720845,0.00671931424173796,1
0.0178489895253486,0.0070749324865815,1
0.0166225770771469,0.00819403684272417,1
0.0162054240752895,0.0111771799945883,1
0.0113561272258929,0.00776776041624343,1
0.0117183570965009,0.00714341235588175,1
0.0209463569266263,0.0156754612268127,1
0.0160984770560266,0.00747928889721712,1
0.014924468341521,0.0102550341858882,1
0.0163716346860008,0.00835668320991041,1
0.0290134606925533,0.0137068985235554,1
0.0285353687834694,0.00908217307119836,1
0.0277803191586307,0.00892011972649267,1
0.0262683723988701,0.00786714498355876,1
0.023362991842927,0.00707523788065947,1
0.0225647683703782,0.00821253336039282,1
0.024142376192925,0.00764764165722817,1
0.0224686406723845,0.00893325658513638,1
0.0200225226577843,0.00881011524035224,1
0.0224260973584658,0.0146288591255038,1
0.0322352485804914,0.0212321034346976,1
0.0364692306031218,0.0245596656480259,1
0.0332687296892027,0.0222271515288176,1
0.0294234793299091,0.0124206098978215,1
0.0290347866633587,0.0111596632908043,1
0.0322307732130259,0.0101946541711664,1
0.0392647057404523,0.013659826346897,1
0.0373950359580566,0.0141274680014671,1
0.0379145676130712,0.0126588964740428,1
0.0372110136181263,0.0109822850498724,1
0.0309148622318274,0.0104421128336875,1
0.0299247732546935,0.0107261853106712,1
0.0330959117282949,0.013097307767807,1
0.0345660467849552,0.0187068237191991,1
0.0332354520843002,0.0182656884750734,1
0.0319148592186396,0.0246868943114323,1
0.0312195311137844,0.0251699165353009,1
0.0323475360071535,0.026211385413188,1
0.0279291491950405,0.0163101537897629,1
0.0356089649268214,0.0196723962825797,1
0.0475581196293657,0.0243633019942351,1
0.0556417724940061,0.0294440278395566,1
0.0679858836428769,0.0329506954774332,1
0.0809769375602225,0.0392473074055093,1
0.0886911112636084,0.0490184869193463,1
0.0758685128036687,0.0447453505794534,1
0.063509732921492,0.0402347515783532,1
0.0293600203074452,0.019216043603893,1
0.00464387306798714,0.0125298363704037,1
0.00371127918508113,0.0160718190545034,1
0.00431465248092713,0.0194333986387997,1
0.00495109956392751,0.0196216234764505,1
0.0106750173284993,0.034191907434001,1
0.0133601619908899,0.0350004388073683,1
0.0213625122374932,0.0411841747892624,1
0.0269859968080508,0.0417951079982735,1
0.0234594315752329,0.0397019875694863,1
0.0197805543206861,0.0305338188861316,1
0.0176189822686564,0.0298341188274104,1
0.0146939185324309,0.0115417864034169,1
0.026321177396418,0.0135755536432768,1
0.0248394331123527,0.00607313469355158,1
0.0246493536171319,0.00581551408090033,1
0.0241712618066091,0.00585182170831257,1
0.0244354392564541,0.00581804000973081,1
0.0246249769894454,0.00509159515935493,1
0.0255611083188476,0.0053237665742554,1
0.0260551445001547,0.00508372688094623,1
0.0264257456811863,0.00403109693485,1
0.0212836527521896,0.00383814888906689,1
0.0152186251195787,0.00264962358893561,1
0.0133842209150998,0.00550648464179501,1
0.0146313796736716,0.00621289034088273,1
0.0164169206830293,0.0055260211544202,1
0.0169176468713282,0.00433460130898328,1
0.0192476499395529,0.00632357370579763,1
0.0214567326469848,0.0045599419595604,1
0.0234707204629388,0.00612278208093652,1
0.018322952684119,0.00574148437857943,1
0.0217408685325723,0.00628765856941002,1
0.0241912300105975,0.00552226647706988,1
0.0243916236141467,0.00484714023152326,1
0.0339741894863658,0.00695741445402509,1
0.0622249372678733,0.0150369768385218,1
0.0636339679735984,0.014194544541519,1
0.0470393010522333,0.0106384847927865,1
0.0484215498930039,0.0110394169202909,1
0.0806605083884113,0.0187296258003445,1
0.144708782108833,0.0191597661103364,1
0.318623800780473,0.0349471667232726,1
0.329547112840527,0.014282347095682,1
0.270879973833405,0.0121085088205151,1
0.269828974559081,0.0127633992919177,1
0.270886148309212,0.00929048890696057,1
0.272995443973451,0.00903865226162073,1
0.232730231979423,0.00682485084236708,1
0.200412501496228,0.00579018227743977,1
0.202390407938291,0.00584059858184134,1
0.203129566453886,0.00627500720235972,1
0.136151498391059,0.00284285642942443,1
0.116019705349204,0.00556180047309265,1
0.127383910734987,0.0061954844315129,1
0.11548292978057,0.00555144716654624,1
0.10698209539526,0.00723003991941371,1
0.0956567008221629,0.00852971625878429,1
0.11615257652228,0.01330484887738,1
0.134133801508256,0.0164228362457801,1
0.10791936904352,0.0161561782866954,1
0.0955465872042967,0.0220689940327766,1
0.104082120153318,0.0261012986191669,1
0.0592734601792624,0.0232210602918096,1
0.0590870613465502,0.0430379591347104,1
0.0719272907129311,0.0591374648891513,1
0.0734761983051667,0.0687175372824206,1
0.0538413220790757,0.0642277202591502,1
0.0496726268265615,0.0583517863601837,1
0.04112149286317,0.0402418153725407,1
0.0308807104903753,0.0383700634078411,1
0.0255486257845743,0.0299356930250193,1
0.0180532124577158,0.0220878944216971,1
0.0103859454472207,0.0130821006771149,1
0.00592379512747353,0.0111059823833218,1
0.00585458784890409,0.0131581759701468,1
0.00485979524737888,0.013667933867186,1
0.00451891040027891,0.0138552323641187,1
0.00529018644270883,0.0177209404125295,1
0.00591684213283031,0.0198063655889531,1
0.00771976067939294,0.0319110974616191,1
0.011127365187715,0.0872827777025643,1
0.011372708175668,0.0633122265003885,1
0.00981658410576859,0.054835591752647,1
0.00789964837452499,0.0481790269686665,1
0.00934737270510035,0.0306905441318595,1
0.011051967660378,0.0260450189913776,1
0.0166849490487855,0.0226754725833299,1
0.0183711393365918,0.0104366096134071,1
0.0159261750143597,0.00685621030017063,1
0.0182881154969889,0.00677574650682755,1
0.0179609712901383,0.00528022641052557,1
0.0167902227642429,0.00350413407824331,1
0.0197519419148662,0.00428561584829623,1
0.019365275608894,0.00395370213473248,1
0.0201106484921767,0.00438851565773216,1
0.0220758287602592,0.00414524088382141,1
0.0197270671111486,0.00379841210549797,1
0.0260903904735151,0.00802914533185935,1
0.0257801631790914,0.0065613466033336,1
0.023343868946761,0.00578558777220029,1
0.0227474568172909,0.00553759936481253,1
0.0309912260329389,0.00890931090105659,1
0.0304177050921643,0.00730072693241652,1
0.0336675537230303,0.00738611238224861,1
0.0325593132068852,0.00666084770161284,1
0.0313204313284414,0.00702045674401847,1
0.0323490536304576,0.00749699066987023,1
0.0231074475190314,0.00376185116822911,1
0.0240502356619877,0.0073172340276247,1
0.0333240027079768,0.00867865510006777,1
0.0646844933099689,0.0190506137029575,1
0.0887483503597145,0.0273816172089393,1
0.112741785811683,0.0280498264193211,1
0.122568901002187,0.0311815329323209,1
0.129274033135001,0.0364994900074088,1
0.120592010298229,0.0323799992489716,1
0.0855320566714582,0.0294393526241091,1
0.052952331630394,0.0220599376015369,1
0.0449980776246978,0.0100871670039666,1
0.0657654114057953,0.0110662172098427,1
0.0619425022663189,0.00904973437041115,1
0.0606224328802878,0.0100222797216698,1
0.0597443280930774,0.0108213041309297,1
0.0580706625377548,0.00790576762866903,1
0.072921739545411,0.0100372604802873,1
0.0717726080933471,0.0102743812610075,1
0.0922713919759722,0.00916344919528542,1
0.158795984364855,0.0154029701824219,1
0.161964000267411,0.00517114232605088,1
0.150113897306989,0.00530724336024627,1
0.154077654051813,0.00512037786063457,1
0.23582249363228,0.00834217249012805,1
0.297381028635705,0.010613259206639,1
0.417655633632149,0.0151414362099191,1
0.55232198816974,0.0191806100185206,1
0.546199076467189,0.0152115791185902,1
0.458847671896813,0.0144954229451012,1
0.268606065272606,0.0076706121379508,1
0.234391962196557,0.0123190156357012,1
0.315177378093901,0.0173975998290898,1
0.401158645609156,0.0233923524632218,1
0.534701778001834,0.0336376446090359,1
0.566989849686212,0.0320926898929559,1
0.530930768467462,0.0356310168205325,1
0.341880546493944,0.0249042924787421,1
0.243876997793665,0.0236732380958445,1
0.157486817494688,0.0189807978935884,1
0.139817504797526,0.0209097016312365,1
0.0918785242201821,0.0154060488490725,1
0.0772732985400612,0.0127666559855124,1
0.0698167463920302,0.0124418258843184,1
0.0713700921890655,0.0132108556456748,1
0.0404483634664557,0.0100731224123251,1
0.0208228329878096,0.0153070885784912,1
0.0169434625029049,0.0183213078236429,1
0.00390596238237815,0.0098607568469307,1
0.00355436271062043,0.00933067095410015,1
0.00313102624241429,0.00872045794791636,1
0.00294631420029187,0.00994116270638653,1
0.00264605478165379,0.00604489325751403,1
0.00381093611823711,0.00590181369874249,1
0.00376910900097468,0.0059150926361331,1
0.00384304081515581,0.00574309931918771,1
0.00466550148686553,0.00836728607476736,1
0.004823962231577,0.00558414193153575,1
0.0153472954727772,0.0160928883711184,1
0.032846736068932,0.026206688944252,1
0.0349965422645704,0.0209288568437989,1
0.0339228071104372,0.021697787720888,1
0.0328047408342587,0.0229714431251911,1
0.0343232680578054,0.0290717747867716,1
0.0286103451046385,0.0255376821568301,1
0.0222339124662024,0.0195780100388937,1
0.0239273013318256,0.0206276510348541,1
0.0147993767930056,0.00965064920350434,1
0.0158715481273137,0.0115676191977524,1
0.0148307361803489,0.0115723403151126,1
0.0141184201866031,0.0143027546421381,1
0.0136835728434895,0.00800737686140641,1
0.0144385045896812,0.00892833552976862,1
0.0196740521201814,0.0129643058807492,1
0.0257149751642914,0.0156262127891184,1
0.0271600789641551,0.0167872479686987,1
0.0248484581605052,0.0144721272192407,1
0.0240759733042346,0.00763078615648157,1
0.0373371158568262,0.0116572148053121,1
0.0382515602505134,0.00712008004498982,1
0.0366831797022157,0.0067945535145396,1
0.0334031196722055,0.00692931082177247,1
0.0339281080862319,0.00606134749618218,1
0.0473403141527491,0.00769792549027213,1
0.061019617360021,0.0123137002002595,1
0.111361517789185,0.0184201550883362,1
0.100121839725799,0.012398575592303,1
0.105800404825899,0.0144301115159096,1
0.177478222669542,0.018374699374446,1
0.216189736498983,0.0162360046306568,1
0.173511974965891,0.012747381740631,1
0.131343344838135,0.0090155891407363,1
0.096183221877113,0.00518961620942122,1
0.0958839590914583,0.00468130525898042,1
0.0974357009970799,0.00456364950271164,1
0.101138993419713,0.00581168543356079,1
0.0981721352387473,0.00532392101599782,1
0.107532012185609,0.00676834460328877,1
0.096083570132868,0.00812609585386972,1
0.0970713531413634,0.0138746563321172,1
0.115682665485874,0.0112184530911689,1
0.119285873991293,0.00631799088275047,1
0.269570116094046,0.0136204837056612,1
0.288697868742001,0.0146014669230298,1
0.245109186821076,0.0112830791820125,1
0.176477138088271,0.00651031735400654,1
0.209309107472981,0.00743227847020847,1
0.262832349593456,0.00930639890978815,1
0.265174779342477,0.00868288531316346,1
0.28268721570598,0.00826891035555349,1
0.315302246621959,0.0101563299094639,1
0.328273895943107,0.00991501897827212,1
0.2500479359281,0.00848991662466627,1
0.196415825062647,0.00567977389622435,1
0.195720036026192,0.00615493267914394,1
0.200904550677668,0.00702166231543416,1
0.233912778426601,0.0102551835051177,1
0.276219389060296,0.0130114388754873,1
0.321075607966224,0.0170076949026125,1
0.367175637123668,0.0225437331919162,1
0.424321491165234,0.0256067017398259,1
0.339630584493091,0.0845656572696595,1
0.171659775514793,0.0603782738820925,1
0.085668476600277,0.101598830056689,1
0.047959827284449,0.0694775248981099,1
0.0228485844882746,0.0526483565882213,1
0.0132075555739285,0.0430023329041975,1
0.00483179681231034,0.0347084514555234,1
0.00263111569354067,0.0222776468836975,1
0.00134922818892775,0.00819886118277832,1
0.00198912021338519,0.00960472496782339,1
0.00199941055062988,0.00908247914200332,1
0.00187790539149496,0.00976867001758963,1
0.00180009958157262,0.0104302193317064,1
0.00190089910832003,0.00513253869311957,1
0.00377230681887615,0.00715072966318766,1
0.00397429519706899,0.0051903396524475,1
0.00825176448988649,0.0114235228630475,1
0.00982789906664515,0.0120764215508698,1
0.00949279806001285,0.0129598414407493,1
0.00943904848300748,0.0142443752993448,1
0.0082717347154826,0.0126537786029921,1
0.00800638732535989,0.00993846227541046,1
0.0124700194526293,0.0134911400357639,1
0.0158017669525871,0.0176340226957358,1
0.0171213403285448,0.023710049584125,1
0.0145376455671772,0.0237546403922811,1
0.0144820639540063,0.0253599721279623,1
0.0172994504772204,0.0241630748967222,1
0.0175918334864084,0.019769602322925,1
0.0153752885470053,0.0184420765658131,1
0.010243134919558,0.0106522677654482,1
0.008830942554865,0.0102574879657841,1
0.0134676037136506,0.0209852691898591,1
0.0127676218498734,0.00463759833203243,1
0.0227077167934329,0.00952131248474227,1
0.0253243325729398,0.0118335710713885,1
0.025549110804244,0.0109938730742281,1
0.0248874390230181,0.0121804773061056,1
0.0249887003336754,0.0106350426803846,1
0.0261517150829873,0.0106299762475831,1
0.0253195537033721,0.0117232465247429,1
0.0227655604743555,0.0106134953578438,1
0.0137659165301019,0.00522807565492385,1
0.0141447925502952,0.014812685632797,1
0.00950092854506853,0.0111515951703353,1
0.00848867057592458,0.00817877565065121,1
0.00809948711632168,0.00905065837362816,1
0.0179880777793274,0.0155601266064366,1
0.0323918541519269,0.0292952752073635,1
0.051252396384566,0.0444509356606646,1
0.0603638702861619,0.0486212735491565,1
0.0656554046399302,0.0536441923820004,1
0.101883178300223,0.0469963531348974,1
0.119392188073995,0.0424876038655556,1
0.0907641007304054,0.0237027429766627,1
0.0735601567901511,0.0140597017129968,1
0.0863285646329747,0.0119003781424677,1
0.08963887891376,0.0127387730961879,1
0.0853632673077478,0.0085423830038269,1
0.0848286535241613,0.00681641921390573,1
0.0761916970216672,0.00590706931856335,1
0.106006823395741,0.00308336809595041,1
0.271824171142842,0.0124129143016439,1
0.350686976242285,0.0151889784159854,1
0.34415028594856,0.012750875838068,1
0.276133244503392,0.0112387015931467,1
0.27908777123092,0.0127595143953369,1
0.304397159231152,0.0129398061485629,1
0.355252105119546,0.0159065347806025,1
0.356505397873507,0.0060858343033456,1
0.410451410918001,0.00663985773361864,1
0.397287167911818,0.010206598618323,1
0.340075035542209,0.00831835187442765,1
0.309302610670209,0.00658273283871462,1
0.411524581051958,0.0106731815014497,1
0.425879812939032,0.00614127425750253,1
0.49179743641233,0.00653442611343807,1
0.553921238864997,0.00786678710711013,1
0.574545740579691,0.00825240884591848,1
0.711706615527556,0.0208043854171809,1
0.809135969451439,0.0235655140040219,1
0.93107334835355,0.0263967842023165,1
0.907429906466643,0.0262222028763567,1
0.878061363908134,0.0306945794129905,1
0.463152680125904,0.0213076917347546,1
0.139813422402316,0.0248805317828418,1
0.0938544024425307,0.0475976283806077,1
0.0580132827208677,0.0346365189691345,1
0.0265664247056642,0.0147104492278025,1
0.00581877882473297,0.0217198274350623,1
0.00514311573035296,0.0288652927707517,1
0.00394508046485212,0.0371474496183696,1
0.000727651090326222,0.01554336838967,1
0.000439143770274263,0.0366117081074367,1
0.000487320237097163,0.0384432801377104,1
0.000572351932186601,0.0218308003004743,1
0.00144270578487097,0.037758677294857,1
0.00208238018418522,0.0469099186625601,1
0.00269131741130139,0.0469108342303129,1
0.0061146182908516,0.0552492215787617,1
0.00802419400612855,0.0327658629803327,1
0.00935154941843273,0.0162507195681993,1
0.0161413798029588,0.0277656282736699,1
0.0230525289192947,0.032578341440252,1
0.0204536404823094,0.0255632455214344,1
0.022934067439533,0.0215496466556215,1
0.0250257074048361,0.0202037056577164,1
0.0282060854673449,0.0202721148540502,1
0.0273993220714157,0.0183625291860182,1
0.0311888744777707,0.0171198706989327,1
0.0237476395388486,0.0146479829007506,1
0.0146033784857868,0.00933718226140504,1
0.0141127958889948,0.00624427890357437,1
0.0166998816628037,0.00764183318482342,1
0.010998630129368,0.00410197784233248,1
0.0131245206841665,0.00636643090889167,1
0.0158938535310838,0.00808144355772584,1
0.0219105204870391,0.0132591996043304,1
0.0239390051347601,0.016388548715887,1
0.0202591547803525,0.014626672810098,1
0.0201202361206101,0.0150165786406828,1
0.0222798896521489,0.014367877670977,1
0.0226908612646009,0.0148271272901926,1
0.015137813721545,0.010512661468584,1
0.0120385191243654,0.0083455932304321,1
0.0131983807981006,0.0110524040812103,1
0.013767091099658,0.0118359805867072,1
0.0154129586688149,0.0106194240066508,1
0.0200217500199088,0.012976419299066,1
0.0257113550591438,0.0141207199825391,1
0.0380097196921059,0.00707987951158796,1
0.0748679757241549,0.00848867211232283,1
0.0751784553489012,0.00885519107526971,1
0.0824264839783022,0.00937028365133893,1
0.0735215379798139,0.0076845559665878,1
0.0701963581232727,0.00599267845122532,1
0.0637978890803269,0.00514062297837542,1
0.0680164641253608,0.00595836475369115,1
0.0833921731951474,0.00752871138222651,1
0.118958503976782,0.0119808606891023,1
0.126254609067864,0.0147525803193252,1
0.139613373020486,0.0263026722437378,1
0.111152864854071,0.0152159290307852,1
0.151333876065518,0.00899083524851738,1
0.124605243863386,0.00114973147120942,1
0.15398656725504,0.00299126523349332,1
0.154247833474319,0.00192168874977419,1
0.186894798453359,0.00298875184790172,1
0.199781855034012,0.00240211508281852,1
0.202463879326231,0.00147544313141364,1
0.220985433823815,0.00211648434338337,1
0.223605466583567,0.00174540947728419,1
0.207887816085293,0.000917036754991391,1
0.18595036043285,0.00138926352401386,1
0.218840920858748,0.00677491757615382,1
0.173736511161161,0.0047334177305773,1
0.241778427684957,0.0087315594873633,1
0.277867809476791,0.00765930838798777,1
0.219526715815686,0.00777331711934764,1
0.186530082190618,0.00776331059013638,1
0.183411469184911,0.00853396455250043,1
0.213302680068139,0.00747885349867341,1
0.284573963455846,0.0120099256145939,1
0.314724975895691,0.0164743691037431,1
0.365423744656385,0.0214095012681864,1
0.463539216673477,0.0248136983705074,1
0.478041085348201,0.0308804621753824,1
0.489889201889338,0.0374433633450397,1
0.51638335991095,0.0569384694157738,1
0.400873288911967,0.0496972405832861,1
0.295037527926512,0.0383602515662624,1
0.232378044813434,0.0712028075224687,1
0.202594972364047,0.0799410103207956,1
0.14080076266546,0.0612414141255203,1
0.0557732662489473,0.031919512871369,1
0.0180140512715951,0.0891607360670728,1
0.00613107035902395,0.0554706963288982,1
0.00165726974114749,0.0625563329262956,1
0.00066535183645664,0.0643186860914144,1
0.000763193737404382,0.0590528041602247,1
0.00108816926320026,0.056329217534709,1
0.00110853368462318,0.0409428074891852,1
0.00303240101594244,0.0253740003577661,1
0.00781793392821092,0.0430603121410062,1
0.0107411340293134,0.0475640753525907,1
0.0163333394707963,0.0564093143729428,1
0.0174050109699761,0.0521722759174002,1
0.0187303147974829,0.0455299241301682,1
0.0156848433732881,0.0371087129244575,1
0.0136876042910034,0.0308449928957424,1
0.0169184170535734,0.0149436790917271,1
0.0137218882076789,0.00910157406441599,1
0.0139501902845762,0.0094354061836211,1
0.014297452640809,0.00713226757600594,1
0.017077555041557,0.00828806404846027,1
0.0185637915122983,0.00808474615906866,1
0.0221531966725349,0.00862811805528365,1
0.0240987351575043,0.0054146257249874,1
0.0275803497295741,0.00653630829554475,1
0.0261136754347992,0.00616471160867262,1
0.0237306435953495,0.00712659217881941,1
0.0226569565819104,0.00654684362851174,1
0.0227322050756543,0.00288592917043909,1
0.0434916544014443,0.00982545851413036,1
0.040477884987589,0.00719350741609083,1
0.0371636218078002,0.00709295530772257,1
0.0359828273810774,0.00673141934638033,1
0.0391634649250256,0.0124005363419729,1
0.0296201082409286,0.00773892835824522,1
0.0277654488188815,0.00511004922401752,1
0.0266460563340929,0.00363044655048322,1
0.0261753357562332,0.00344543865523101,1
0.0256165049002834,0.00579658346373719,1
0.0217036589109914,0.00522010805853037,1
0.0195273737096878,0.00619505059646679,1
0.0309409351324781,0.00508859333888334,1
0.0460725827177232,0.00430167546221476,1
0.0493904057499099,0.00414598244164255,1
0.0441818734563908,0.00294386781342913,1
0.0423718193785045,0.00341082693491326,1
0.0392040519478909,0.00386739655912298,1
0.0371277819512385,0.00373230452924394,1
0.0397501184321698,0.00389128214863352,1
0.0416711554052765,0.0035546795616826,1
0.0567964416976527,0.00462747486714153,1
0.118475468249879,0.0150121674023678,1
0.212486650221378,0.035452706604827,1
0.195325306922781,0.0204782498234371,1
0.19431701562122,0.0217815368265606,1
0.18159282740935,0.0181662684212452,1
0.177195911882921,0.0154206673494516,1
0.150973323994958,0.0124264915979407,1
0.0940594337732196,0.00658522924990607,1
0.115931308804743,0.00827802658295648,1
0.13248083736832,0.00577217022874207,1
0.14324161798823,0.00684806212401575,1
0.136969125595384,0.00687554899543615,1
0.170643087847071,0.0132450445009461,1
0.243075801529546,0.0182882138987028,1
0.293685892142717,0.0245670635458016,1
0.365699051086179,0.0300876497904457,1
0.356611497733501,0.0272522208811361,1
0.334420401426041,0.0169589201010317,1
0.281256483204618,0.0140466209255934,1
0.198709203343079,0.0120031555649056,1
0.221980439913834,0.012108373732063,1
0.227603581615037,0.0112934488458853,1
0.328147472799242,0.0117782055217967,1
0.457948346952238,0.0167398772982555,1
0.491035925608196,0.017066983660771,1
0.47044294115895,0.0171195410116892,1
0.472617828699611,0.0176260375268345,1
0.447081599522938,0.0211367717158126,1
0.488118378803413,0.0256474566495723,1
0.380899484058495,0.0280032722772977,1
0.294060213623293,0.0241551968474048,1
0.0972130336718099,0.00689452413754844,1
0.0300725353075658,0.02792316626291,1
0.0194090934864612,0.0246539216355082,1
0.00259826060677376,0.0174376774260992,1
0.00185286816657988,0.027873955381082,1
0.00182160106257948,0.0291189964302941,1
0.00165028788639661,0.0322956797437037,1
0.000952334867998283,0.0408390077917705,1
0.000967833427606879,0.0586146881773044,1
0.00144001664236661,0.0603129826170189,1
0.00203721486538113,0.0476437274932207,1
0.00208483205235025,0.0290757417126455,1
0.0147948726276629,0.0170280212237157,1
0.0246279787900699,0.0183636847194304,1
0.0275203619651795,0.0200823425280443,1
0.0273899135872159,0.0176269040034236,1
0.0438212909979823,0.017771781836596,1
0.077674524864489,0.0277005741131571,1
0.094668083087419,0.027158809508896,1
0.0869505809753997,0.0153068165107365,1
0.0767416671418861,0.0111497287379303,1
0.0582876984141229,0.006453604036993,1
0.0597173007885922,0.00815672959612055,1
0.057285996688168,0.00807117747572438,1
0.0550734088172027,0.0075973297238873,1
0.0501524348581103,0.0074182283843349,1
0.0482227847534352,0.00940211032961357,1
0.0320343868292552,0.00565045474718676,1
0.0151285026251813,0,1
0.0123837565251568,0.00175702975846776,1
0.0101234056397382,0.00465152986732173,1
0.00908844589160345,0.00613337042516483,1
0.00684914126754023,0.00218229623288282,1
0.00998160395576408,0.005873793774128,1
0.0114647384659584,0.00762117456972893,1
0.0137642051874532,0.00927786832379704,1
0.0139003235150289,0.00381531034340046,1
0.0280408142502739,0.00868186902642489,1
0.0319008980413187,0.00962435368394207,1
0.0383503017531081,0.00733587737212331,1
0.0409348166076256,0.0057768152777037,1
0.0531843631475612,0.00743302453037388,1
0.0579386977273528,0.00891303844435394,1
0.0520779465641788,0.00771263768020233,1
0.04910353274112,0.00602406864238344,1
0.0524757282156955,0.0067116066269879,1
0.0441338308047951,0.00554287943468167,1
0.0472387602822176,0.00620221370121929,1
0.0470138405161856,0.00616233850717181,1
0.0520224746531487,0.00510076295315258,1
0.127548873590053,0.0130178281780757,1
0.163547555899961,0.0130788548044787,1
0.180377982993015,0.0144796650674049,1
0.165792219095927,0.0131493011501878,1
0.205468696169886,0.012844785110269,1
0.229091999057359,0.0128935657264653,1
0.252855543838054,0.0140710888403034,1
0.190365152692778,0.00858508027511374,1
0.125173782352419,0.00413307800416574,1
0.0889391828084332,0.00235305338986123,1
0.146278165818395,0.00653459751987783,1
0.189897718937834,0.0105410756244216,1
0.294935807675632,0.0153116494748001,1
0.295660830608915,0.0124020262461944,1
0.297268347183908,0.015798120872616,1
0.288861202864718,0.0148015533970196,1
0.301242319500611,0.0119464778354539,1
0.224318550626925,0.00586586729040019,1
0.179919016194849,0.00543528901548918,1
0.163716839489568,0.00541944058771489,1
0.188074283828,0.00668479804186306,1
0.273762795119293,0.00940578846367986,1
0.222712815949132,0.00601579197554527,1
0.195395050996542,0.00382979500192392,1
0.193080263641315,0.00179513642607048,1
0.20895673250706,0.00259668543578601,1
0.183035423296107,0.00316819383136522,1
0.264655638380436,0.00518735908482701,1
0.497984318977482,0.0110741843745545,1
0.694902241097685,0.0147301147603807,1
0.853644201287119,0.0180789431002549,1
1,0.0215566616599486,1
0.951549263662526,0.0259230800089892,1
0.8777310539991,0.0267116789278845,1
0.737081985385777,0.0425456536616904,1
0.365117017910271,0.0227943808259707,1
0.0727924195461399,0.000653757609462431,1
0.00496146699797159,0.0362476518800583,1
0.00252913273796338,0.0208951200715148,1
0.00184948979895457,0.0222220473555718,1
0.00186889671642031,0.0215809746624491,1
0.00185583424388433,0.0206950851406413,1
0.00185188997751834,0.0203455848478802,1
0.00138469043842585,0.021431850895023,1
0.00165972479995225,0.064262434207819,1
0.00224028600067065,0.0735159831480622,1
0.00185442448418067,0.0540963547002748,1
0.00200826376460102,0.0530892481538933,1
0.00345501252227147,0.0577059391624382,1
0.00682106377930055,0.0622297733534833,1
0.0219059682158302,0.0558878118074896,1
0.0242470144686344,0.0284114649936867,1
0.0253708423788877,0.0250439362874315,1
0.0344057838407806,0.0304342574627148,1
0.0429755946152243,0.0347323212350211,1
0.0415677780727774,0.0218930734053724,1
0.0336577666389957,0.0168137500510678,1
0.0254310629486929,0.0129951694962304,1
0.0204646023756291,0.0101934169935378,1
0.0214726492258341,0.00849348620970571,1
0.0267982597286601,0.0102196115518038,1
0.0248670901313788,0.0111302086090659,1
0.0252345161200739,0.0132504104701415,1
0.0238002779103964,0.0123883149133352,1
0.0215229959951524,0.011040866202469,1
0.0208370028607255,0.0162947567405315,1
0.0155992984270025,0.0148864709785117,1
0.0134537304786522,0.0128148720706662,1
0.0114358443121971,0.00988148526303623,1
0.0110223605766205,0.0193982480283616,1
0.0114933289244729,0.01609559942924,1
0.0219804906134044,0.0263751187534439,1
0.0238470011535684,0.0186960359067716,1
0.0303969187178958,0.0170613935094828,1
0.0319754211487096,0.00955272151307005,1
0.0325352810856402,0.00941310316764734,1
0.0375211760993821,0.0104221908493745,1
0.0378641142966283,0.00644822648148433,1
0.0401046021424104,0.00698693334631386,1
0.0444620323069157,0.00675852221363479,1
0.0473498173034376,0.0101230926983505,1
0.0485498342016004,0.00796022758287199,1
0.07828943883199,0.013744169283179,1
0.0941136072615637,0.0145243577883256,1
0.0959509188803042,0.0211541378801935,1
0.0812151888828224,0.0195230167223918,1
0.0501808093247674,0.0128584268809477,1
0.124427977251085,0.0122422229371661,1
0.203082807595325,0.0142001409082576,1
0.199945141403561,0.0142609595615035,1
0.254444245069978,0.0169700904375406,1
0.343265540689758,0.0225612722714441,1
0.379454508651229,0.0150738156498339,1
0.349594827689315,0.0154818851788276,1
0.305040286215492,0.0127445208660703,1
0.267666853335943,0.010173042399604,1
0.19808944469079,0.00719766455663762,1
0.19475186829397,0.0117874358411148,1
0.185098301076645,0.0139968688302032,1
0.191003067719597,0.0118335759577428,1
0.251993073188819,0.0110877680589001,1
0.320430140360131,0.0126223594508995,1
0.521517925961433,0.0212098850288448,1
0.512095491896814,0.0166640237943249,1
0.551275458164556,0.0156712587522506,1
0.541458545966528,0.01321527124462,1
0.517467240891319,0.00964681230818511,1
0.447705807966659,0.00766365615443643,1
0.371009867038331,0.00567784171254648,1
0.240862908039491,0.00216490420639962,1
0.304253645742043,0.00336602379189764,1
0.586934080823946,0.009945845348275,1
0.654532283926798,0.0100920453497368,1
0.758918257051539,0.0114464113075335,1
0.803936168732276,0.0186433431603602,1
0.675235200868907,0.0163778742190036,1
0.770638820996111,0.0199407342082879,1
0.821224155129814,0.0260961857048408,1
0.637673272193429,0.0252199557424478,1
0.306252961236183,0.0127590681687911,1
0.132607095286284,0.0135462071350348,1
0.125494293252585,0.0202893510694357,1
0.0967221488879771,0.0381513958981735,1
0.0367159710856217,0.0318809034468413,1
0.0214045178378783,0.0325223564789177,1
0.00361201462980774,0.0212933072143148,1
0.00120438569852637,0.0310769290109747,1
0.00112155323569579,0.0457447147009413,1
0.00113717804466247,0.0428196105117899,1
0.00118611711849157,0.0471048710429592,1
0.000613079851298266,0.0344077065687228,1
0.000335403764531872,0.0286229887961207,1
0.000752755796454041,0.0421905268280618,1
0.000850414459478886,0.041137605552153,1
0.00341511361940513,0.0252808927267831,1
0.0111215963059953,0.0473661405334421,1
0.0145146995692224,0.0508588812496619,1
0.0150284932035481,0.050903013569858,1
0.017002377171048,0.0456706855198297,1
0.0169474685924571,0.0412095253430232,1
0.0130673939216504,0.0318171555340544,1
0.00934704909768056,0.0213624303913059,1
0.0075068961902562,0.0190658512737021,1
0.0106520255295055,0.0109832576320691,1
0.0178735476573431,0.0117931805782105,1
0.0183885717333532,0.0123065459617472,1
0.0243370494230861,0.0152160391819713,1
0.0240091454219778,0.0101561407874386,1
0.0226996438109626,0.0108293196493348,1
0.0222164409169899,0.00794433134810903,1
0.0300213519769944,0.00858958338484491,1
0.0254712321155842,0.00516807657519424,1
0.0230739572576148,0.00361770640837847,1
0.0224041434615396,0.00500295014212048,1
0.0210084052582272,0.00569379360975678,1
0.0203022844086864,0.00564336384785236,1
0.0238201103767298,0.0020210633003359,1
0.0536181466218649,0.00822136163953595,1
0.0544054999909241,0.00361501123217307,1
0.0580199680578307,0.00446763258379347,1
0.052929117951776,0.00432569891292663,1
0.0576517050330213,0.00505598547162891,1
0.0643862256866599,0.00561859499750292,1
0.0652138234648699,0.00543719518207422,1
0.0668406914455896,0.00571717379298246,1
0.0755760843584273,0.00515204457383587,1
0.0768800672812582,0.00757794489592641,1
0.0373603897823598,0.00178813506812594,1
0.0405114555151413,0.00971386382912739,1
0.0817673759629526,0.015949323881978,1
0.105791528933768,0.0175644173473486,1
0.194791188083305,0.0244641678483799,1
0.19483585624581,0.0154119809907659,1
0.172230599323956,0.0142788330885993,1
0.138285193437077,0.0110955231758995,1
0.188343869604016,0.0138872431884379,1
0.167226742264163,0.00962854605554416,1
0.119041210531638,0.00641312863616818,1
0.0836981504042538,0.00356083315368992,1
0.0799521188834357,0.00369399288900508,1
0.0755602316663598,0.00197055929279512,1
0.104777431240957,0.0052552816419476,1
0.102455426613213,0.0060306377308439,1
0.100759171026869,0.00335078823896549,1
0.170319240271956,0.00761052787943489,1
0.217594685180052,0.00979160103553947,1
0.385931487127361,0.0234017634474126,1
0.450277405102472,0.0154307144588868,1
0.44700105423407,0.00995947482300238,1
0.401149422011103,0.00491010874922365,1
0.388092732031285,0.00485801322928118,1
0.387944014737913,0.00428387205485146,1
0.326757583986431,0.00340014706804671,1
0.298608645138174,0.0035663061086164,1
0.371517095711693,0.00490608944890409,1
0.454672566168816,0.00424021335210317,1
0.402224460218085,0.00338336515438884,1
0.373846567694553,0.00127143255072477,1
0.444045714151967,0.00310742657196916,1
0.437519366283841,0.00568075739201384,1
0.32491821399243,0.00285691960317241,1
0.313342969137274,0.00243665043671945,1
0.325301648670592,0.00238907678287318,1
0.363745677584156,0.00314111310549335,1
0.362667239516686,0.00374375476648112,1
0.410535773604047,0.00633930377999909,1
0.285480561530127,0.00287521979121076,1
0.29981197870285,0.00964912293517847,1
0.394918160168715,0.0133418615069785,1
0.459693609825805,0.0182234895864339,1
0.37766875336427,0.0187612758680057,1
0.235381942920266,0.0136834917118362,1
0.202468331141215,0.0134654535915909,1
0.195179551970408,0.0133060388048715,1
0.0814096406494375,0.00517027330876959,1
0.0397309677849075,0.0129872605154058,1
0.0273488987225891,0.0163565796631268,1
0.00295475021895784,0.0139274725563625,1
0.00283929944028666,0.0241683902275266,1
0.00268870953459882,0.0236169178421032,1
0.00265974995853551,0.0248771885415018,1
0.00249609185572324,0.0372049539681215,1
0.000427060545779292,0.022613888639766,1
0.000472313193617221,0.0427696576804139,1
0.000918878959592969,0.0336216395310552,1
0.00344103310725554,0.04521407934533,1
0.00371951190187583,0.0297024656260578,1
0.00408451308490028,0.0300837458560252,1
0.00741928680980982,0.031665008173199,1
0.0142896490500757,0.0427122960348678,1
0.0271412632646745,0.0613143167658253,1
0.0340070986799121,0.0670870345323937,1
0.0385248744284153,0.0524137689419018,1
0.0431230627389743,0.0449110871824054,1
0.0421512306693226,0.0233787287307366,1
0.0393426753542563,0.0200505075367511,1
0.0337589232254227,0.0188083492076621,1
0.0262692507380125,0.0148491592478827,1
0.0228426610649427,0.0144178110023621,1
0.0232569940061464,0.0139883999948387,1
0.0238122452280855,0.012187130363724,1
0.023391270782299,0.0111509852842182,1
0.0235769697804717,0.0103787106300594,1
0.0187051701483819,0.00759087306709526,1
0.0140598926687143,0.00717422806527647,1
0.0159323690627244,0.0102291024285148,1
0.0114180966192369,0.00600513730513231,1
0.0093502580186017,0.00457882492932562,1
0.0090741515166456,0.00427162440190719,1
0.00886351709118599,0.00426116559379373,1
0.00815353688899132,0.00667684592260846,1
0.017018719547245,0.00574728367207559,1
0.0400930342228953,0.0156482865832733,1
0.0413685313051019,0.0113513284711138,1
0.0421096783236428,0.0111952718390651,1
0.0540543495623903,0.0140825613111836,1
0.0590539178556521,0.0150625847013795,1
0.0639834632373721,0.0169170319544775,1
0.0693845319825938,0.0185113322755551,1
0.0709108770944227,0.0157447937477925,1
0.0732182469698146,0.0102880043288207,1
0.0718733191984024,0.0187798317919951,1
0.0370571703909301,0.00896090531479376,1
0.0196827071119353,0.00551675083061348,1
0.019737815823061,0.00732911608303831,1
0.0192658592596092,0.00695560223084746,1
0.0242075781728179,0.00901840855429172,1
0.0232694834810666,0.00682598456482649,1
0.0279359657464549,0.00785975864912579,1
0.0384341298233562,0.0127505818195637,1
0.0563175322333454,0.0364390784666612,1
0.0543788090833782,0.0371924160312367,1
0.0415706238010426,0.0191064178870002,1
0.0379616883433923,0.0189195255143978,1
0.0356106387091125,0.0107727782315474,1
0.0366662187923741,0.00789462277808822,1
0.0390395044300541,0.00726252184617574,1
0.0319578505937561,0.00555504140531115,1
0.031639761739108,0.00576945902975417,1
0.0314802223395636,0.0061913886412819,1
0.0280842145435069,0.00520949325188057,1
0.0253855260340806,0.00277270852331304,1
0.0317597650156345,0.00625708459039246,1
0.0258718439191747,0.00275113510213195,1
0.0266404465210786,0.00531264986295338,1
0.0219524129763949,0.00581439958971494,1
0.0176620569824519,0.00592591914527311,1
0.0172244923220574,0.00722365321042766,1
0.0187949294885756,0.00775624553760879,1
0.0229230650494416,0.00795323231336591,1
0.0333654888490533,0.0110825973844604,1
0.033337515784322,0.0165652937488815,1
0.0277444116524626,0.012944960978456,1
0.0323256924099225,0.0167223994951714,1
0.0324453870726051,0.01893909138049,1
0.0267394345097197,0.0138132807002753,1
0.0251909928083426,0.00977193536471186,1
0.036826299313545,0.0110247786252784,1
0.0366783060484163,0.0113091402338568,1
0.0379765225214677,0.0106089897288224,1
0.0475689575987508,0.0122246867632145,1
0.0532439449314024,0.00852572349616525,1
0.0526794169563872,0.00653467426336128,1
0.0490807750731175,0.00637449799635457,1
0.0493458330673102,0.0063763915365183,1
0.0495385146509119,0.00684749708935847,1
0.046990405347503,0.00805855164526741,1
0.0274501698162543,0.00405958952357851,1
0.0253867695820944,0.00322031683934682,1
0.0245396045293472,0.0042985289802116,1
0.0186369323610991,0.00167548939490142,1
0.0129244272226254,0.00451654705509797,1
0.0110348216817635,0.0114296774324977,1
0.0124554200837164,0.0122097671189147,1
0.0111081950816607,0.0122797460217836,1
0.0102141800865382,0.0100662552718912,1
0.0102767190098263,0.00945314163379089,1
0.0100245580405714,0.00861971733459174,1
0.010421627744609,0.00923331441168006,1
0.00687781858933213,0.00895583557722072,1
0.00441983977163783,0.00989938441229098,1
0.0045839882586729,0.00956475592702792,1
0.00459161153012975,0.00775894326719892,1
0.00666523839746626,0.0113887138946015,1
0.00869616239122946,0.0163481921545929,1
0.00951486764797125,0.0228534998731493,1
0.00849792479457159,0.0207594796375765,1
0.0078159696440724,0.0260935852621638,1
0.00540914972855603,0.018171782459671,1
0.00478160548279215,0.0112441902650649,1
0.00762066914651477,0.0160998917146808,1
0.00797296256642028,0.0120219656610079,1
0.00779520572043388,0.0108248608644179,1
0.00732852491845781,0.00989082399656897,1
0.00640243883672783,0.00693464320538626,1
0.00710931663869565,0.00803820587096738,1
0.00934878975549757,0.0126861029689868,1
0.0120798988154642,0.0157521126728641,1
0.0153835828553897,0.0203302925914961,1
0.0163105206381549,0.0253969613052363,1
0.0109261704866148,0.0216305455190773,1
0.0112327789715938,0.0341239252321807,1
0.00986808137186515,0.0579323795331311,1
0.00375138483194401,0.0470442646939985,1
0.002341116998467,0.0639742103076727,1
0.00154201278232672,0.0522754399573492,1
0.000964238973364053,0.0394635488007611,1
0.000762888112481415,0.0441519361340137,1
0.000803831943187275,0.0491174369219674,1
0.000456817457452974,0.0922638947638126,1
3.36205372832705e-05,0.242826924108923,1
1.8662847196865e-05,0.293553281687888,1
1.54042008250499e-05,0.337254432171511,1
1.28720730655218e-05,0.448553047834536,1
7.87887878163368e-06,0.314528235946567,1
1.33995176804243e-05,0.194566076161917,1
2.04481800694649e-05,0.162972378640724,1
2.39582448746371e-05,0.16591624207003,1
2.7438987616664e-05,0.172358971784213,1
2.89733360783781e-05,0.167685173444353,1
2.922690570743e-05,0.172784327952327,1
3.00638374265245e-05,0.172367301030606,1
3.03813011742532e-05,0.165837693862123,1
3.18102038323678e-05,0.173642608036652,1
3.16453482196577e-05,0.17728766021989,1
2.99423889227029e-05,0.260343715585395,1
2.8690139156121e-05,0.416385911797767,1
3.46172122546622e-05,0.17276160529794,1
9.58148461104143e-05,0.163467755348948,1
8.39923565046783e-05,0.112230546370032,1
7.85775858521327e-05,0.100465714094957,1
9.28066555437053e-05,0.10062700365601,1
8.32027273124489e-05,0.0816022476465818,1
7.96823676003322e-05,0.0804304303862143,1
7.59519672656056e-05,0.0779992674994949,1
9.38276503587661e-05,0.0428107811804401,1
0.000540940814049689,0.0673473550988175,1
0.000629516358660085,0.037610934952094,1
0.000642933338275549,0.0403471357171551,1
0.000631561617867227,0.0409048700795054,1
0.000613219169417706,0.0397694550812314,1
0.000614007323110324,0.0396234980620078,1
0.000613302348719385,0.0419679153350894,1
0.000575207540076228,0.039656691734044,1
0.000521858995679742,0.035990159170305,1
0.000503090965214255,0.0428973995009961,1
0.000271005300694054,0.0490486995686473,1
0.000231235938773326,0.0760354309101692,1
0.000309329665236609,0.0633979808180221,1
0.000255618115494582,0.0557458834135207,1
0.000278727630487346,0.0578585127119217,1
0.000304500814754818,0.0455449563136278,1
0.000331132335651243,0.0419159177581257,1
0.000326204910180242,0.0417255718281165,1
0.000327380858884765,0.0420036124612324,1
0.000334083513697929,0.0377757823698585,1
0.000347519143815878,0.0386070481099054,1
0.000359833920183242,0.058004814474888,1
0.000288908464304505,0.0493855107940004,1
0.000306634030427878,0.0416946212235067,1
0.000339136617226155,0.0449223119540235,1
0.000320648946979233,0.04590381032465,1
0.000280873601294116,0.0404442404512219,1
0.000340418410310107,0.0448555010904843,1
0.000324985066246242,0.0451475179679634,1
0.000329097963955251,0.0543454873191117,1
0.000357594226334191,0.057585806597432,1
0.000395313300574804,0.0679855231232205,1
0.000286220956853835,0.075662433071581,1
0.000196125809938276,0.07915527983033,1
0.000197008807794764,0.0833439930086735,1
0.000155627321204235,0.151233555334835,1
2.34431522210435e-05,0.152153688092883,1
2.27253798245202e-05,0.26099026962745,1
1.93079223321716e-05,0.313734738367242,1
7.84334232993901e-06,0.196580848447805,1
6.74317889905832e-06,0.190088952907397,1
9.47450087400779e-06,0.196152829546658,1
1.86384566367036e-05,0.252915237525063,1
1.89029363177871e-05,0.23408294218663,1
1.9505715919068e-05,0.259539110624336,1
2.06885769839195e-05,0.276434856305757,1
2.07126647007028e-05,0.238665689259858,1
2.05952213138165e-05,0.218188066158117,1
2.10879946933072e-05,0.199897058111023,1
2.1388465444735e-05,0.196668149285436,1
2.28995191867309e-05,0.197843178362936,1
2.61777589770588e-05,0.167265113723211,1
2.0942180733679e-05,0.137299323595252,1
2.16488263321219e-05,0.149384917318483,1
2.06710110072401e-05,0.147428234957131,1
2.13735871367398e-05,0.156107999668627,1
2.29554912903613e-05,0.177199143746888,0
2.37989290151401e-05,0.190667861930685,0
2.2983903497438e-05,0.20433376400938,0
2.15282436633525e-05,0.201381799475662,0
2.36104905130059e-05,0.234227057965668,0
1.28211274901619e-05,0.27839878028497,0
3.16310529691413e-06,0.192806644512483,0
3.76269240215155e-06,0.225376205355709,0
4.11882985035873e-06,0.238003614334644,0
4.7268812777426e-06,0.256524610671832,0
5.19707877065916e-06,0.281343850204999,0
5.19881212028027e-06,0.284648765765301,0
4.57643971925593e-06,0.285872063397174,0
3.77798661151687e-06,0.315382628872683,0
3.71519284145986e-06,0.325685882433837,0
2.33765104130598e-06,0.347947972609204,0
1.8654303495456e-07,0.137550727530685,0
1.51167109697341e-07,0.14415362109747,0
1.86844287211624e-07,0.152509084300085,0
1.5905668355287e-07,0.142906227415199,0
1.14621975636081e-07,0.123737593993687,0
1.32267154786868e-07,0.125635072403596,0
1.51578414495496e-07,0.133404813604218,0
1.14670328037669e-07,0.126522956732447,0
2.40569462695776e-07,0.180177047116021,0
3.36467655882747e-07,0.200013518948018,0
3.16336792028729e-07,0.196490169130392,0
5.6262439028932e-07,0.244013997453467,0
6.97027094747075e-07,0.252764774034904,0
6.88427262122327e-07,0.251101618637012,0
6.62387946943677e-07,0.244368839360836,0
6.73878669772354e-07,0.242672239696458,0
6.79326756732319e-07,0.247493720290647,0
6.65345752628414e-07,0.239039067185354,0
5.03192835857192e-07,0.207308438903972,0
4.95438330501895e-07,0.207339294732714,0
6.39808259358023e-07,0.236823374770079,0
4.51931422963667e-07,0.208836923642126,0
2.72155956319183e-07,0.179732824520117,0
3.10979310574482e-07,0.188935498725177,0
3.00855272354506e-07,0.189984697066215,0
3.35112020725964e-07,0.199641645821246,0
3.77849267641467e-07,0.202750098485201,0
4.94112396271865e-07,0.229207027720775,0
4.92523396690596e-07,0.236897377230436,0
3.80123510032816e-07,0.206362548444801,0
2.42626870642707e-07,0.167521123631652,0
2.0122775655215e-07,0.157267048263051,0
3.93035899542932e-07,0.192790378848088,0
6.80120107379955e-07,0.240047738912463,0
6.30657898840965e-07,0.222458423587348,0
6.90769303950638e-07,0.221631020888764,0
7.44183680451272e-07,0.215756164671948,0
8.94369952400852e-07,0.239480513450799,0
9.08643280804671e-07,0.235473565310453,0
8.64279731358227e-07,0.233849229308452,0
7.95939313230136e-07,0.225807566315173,0
7.76452323038222e-07,0.223141793413347,0
6.43253566861335e-07,0.217225092873967,0
3.89372520056588e-07,0.177149377668092,0
4.55045865678778e-07,0.192118230404296,0
2.9302439318756e-07,0.168221081274258,0
2.40032989706306e-07,0.166562322140693,0
1.98594274380079e-07,0.152693384091264,0
1.95139331754695e-07,0.155257617326179,0
2.0441309255076e-07,0.155146880939764,0
2.17248135897458e-07,0.157684194016704,0
1.23770126262754e-07,0.127626927385935,0
1.0184801365958e-07,0.122320497194101,0
9.28019599686187e-08,0.122593272096516,0
4.69038626399522e-08,0.105300806085621,0
4.77117985641175e-08,0.113739410392269,0
4.31908048177896e-08,0.11260106854313,0
2.94888568319368e-07,0.210960164026994,0
4.41987358216513e-07,0.227304704935106,0
4.14271355006181e-07,0.214696086511458,0
3.60310516811544e-07,0.190926712671682,0
3.97377185003283e-07,0.198033693392515,0
3.71465689884408e-07,0.191810716142865,0
3.59257459846053e-07,0.185680299383163,0
4.34767911520842e-07,0.191120502803431,0
5.42449682210096e-07,0.19909894363942,0
5.3041373522603e-07,0.195369596721466,0
4.7980335603945e-07,0.196892560088931,0
4.08098512396081e-07,0.193628766182156,0
4.14675146177033e-07,0.196752634230304,0
4.06136129735636e-07,0.195827096548198,0
3.601131294025e-07,0.189104137846922,0
4.46054263686863e-07,0.207503375982456,0
5.27204267224433e-07,0.227773815206986,0
4.33177851192189e-07,0.219684045516251,0
1.5905553440987e-07,0.146309503229229,0
1.41861968457832e-07,0.133169781859006,0
1.68070561239849e-07,0.140558854469314,0
2.27682796309723e-07,0.158214777498345,0
2.39966516203573e-07,0.163623054492189,0
1.4109071671403e-07,0.132965512040906,0
2.18910680630686e-07,0.148567171707041,0
3.63837501863426e-07,0.183950011434017,0
3.67089753342845e-07,0.182772432373927,0
3.88255199478749e-07,0.183322379904903,0
4.18092962643976e-07,0.191079025919798,0
4.84744670936698e-07,0.211342200142531,0
4.72685299114568e-07,0.211376101263323,0
4.51505709680212e-07,0.211265222072569,0
4.58567546993742e-07,0.224180368951139,0
4.67275575851658e-07,0.222509134465184,0
4.53523693182703e-07,0.240928504822362,0
3.00039469220575e-07,0.189098580553058,0
2.6317001164665e-07,0.171890309182191,0
2.45485938425115e-07,0.177318788717981,0
2.52250412888655e-07,0.185688815292518,0
2.46005439456441e-07,0.191381590803302,0
2.32210419727201e-07,0.183416543411271,0
2.20724647052983e-07,0.186394937473029,0
2.13595629071801e-07,0.186309135587215,0
1.86705682886777e-07,0.178453828542442,0
1.37095234900871e-07,0.155021115579971,0
1.11292289597627e-07,0.158207694217823,0
5.34602538249928e-08,0.125644192121824,0
1.42770675383479e-07,0.170616766167521,0
4.09196120751701e-07,0.247586558176911,0
4.380342179031e-07,0.223928920729696,0
4.3512856563141e-07,0.225517898875879,0
4.03636743712028e-07,0.215469265069836,0
3.28164125360603e-07,0.19583257947236,0
2.96443977566808e-07,0.193913375126246,0
3.24331733457738e-07,0.202253228100504,0
3.53715850325063e-07,0.202598614559157,0
3.62630636527252e-07,0.209696028481302,0
3.24713248933525e-07,0.188984283093469,0
6.33407621247202e-08,0.101941471577017,0
3.90432825462536e-08,0.099072541274588,0
6.23648745314177e-08,0.105556335872735,0
1.78385887571411e-07,0.149547288552159,0
1.81669254307429e-07,0.141772416130499,0
1.86348564600823e-07,0.141968545509144,0
2.00791435794855e-07,0.147147531707077,0
2.45856492844601e-07,0.159501869045761,0
2.84855312396341e-07,0.166734067845327,0
2.65046120186528e-07,0.162849962798199,0
2.54774549684556e-07,0.162844557346466,0
2.35129508132422e-07,0.155712205353557,0
2.3673972266137e-07,0.156413127417605,0
1.36905714701592e-07,0.125105490502915,0
1.2630045075173e-07,0.125844850782515,0
1.30777158294775e-07,0.130236643338403,0
1.209528696064e-07,0.129394617837041,0
4.78793082551784e-08,0.0981211539563965,0
2.18787103560447e-08,0.0867262956544549,0
4.17651603336604e-08,0.103535542672632,0
4.29284466314744e-08,0.103513813325517,0
4.5151065983467e-08,0.107124774432128,0
3.99754143099652e-08,0.113967809855045,0
1.6983272783156e-08,0.100069286053512,0
2.63758372862322e-08,0.109671671051894,0
3.40485766973432e-08,0.107995472706113,0
4.96542922111127e-08,0.118570545339603,0
4.74479376523416e-08,0.11711700563774,0
5.07433261920445e-08,0.123281553043595,0
2.17461169330415e-08,0.10310857137809,0
1.07229627116813e-07,0.147919080287017,0
1.51631009886621e-07,0.157175291947189,0
1.49212947829122e-07,0.151186352777305,0
1.69543585773798e-07,0.162471046509956,0
1.71698228897598e-07,0.157268003016326,0
1.93384855581519e-07,0.166610579889269,0
1.70643138832955e-07,0.155044304088662,0
2.5622777360067e-07,0.179007756357362,0
2.88678864737673e-07,0.184568753331189,0
2.92463346217026e-07,0.186555640614229,0
1.91380750190635e-07,0.169685421638437,0
1.27866467473011e-07,0.148831092080097,0
1.35721213456098e-07,0.146491541161415,0
1.35903396819304e-07,0.141420662579131,0
1.78495498134427e-07,0.159841409402436,0
1.6377586026878e-07,0.158096786770003,0
1.88928744216847e-07,0.163717948258032,0
1.29089420811176e-07,0.142304249959572,0
9.09916177665499e-08,0.123006889759482,0
8.14625704333962e-08,0.116940039027338,0
7.86176459494422e-08,0.11556020417319,0
9.24329082745932e-08,0.12308301068435,0
8.77577525751204e-08,0.119032323507272,0
8.40119883752837e-08,0.114804541706909,0
7.76014499555467e-08,0.116485328983074,0
5.80264177307571e-08,0.104970233439463,0
6.39489239582277e-08,0.109420732578029,0
8.42241378520886e-08,0.119775629852579,0
1.43501441935457e-07,0.140061489240736,0
2.08994548897978e-07,0.159177777628773,0
2.32512290753572e-07,0.164074364824726,0
2.06619889087609e-07,0.157520006276109,0
1.92515749891542e-07,0.157996322426211,0
2.04915621623943e-07,0.149105054499323,0
6.41791768570533e-07,0.230791663142025,0
6.98856530402057e-07,0.219845341953591,0
6.29818759264586e-07,0.205549294120928,0
5.23234862117798e-07,0.18610609682595,0
5.13931488790595e-07,0.188017619622313,0
5.10412636135324e-07,0.187393272023402,0
5.34812301045119e-07,0.191683061723203,0
5.674949886943e-07,0.198551192337571,0
5.89875697749834e-07,0.202393323019111,0
5.57145630050834e-07,0.207877785086743,0
1.96159151968819e-07,0.144667112988225,0
1.46929777480624e-07,0.142578844318735,0
1.27216140930989e-07,0.13882754850143,0
1.19276888739642e-07,0.141359810817613,0
1.06895049712769e-07,0.138417817170236,0
1.35615934278234e-07,0.150448686905633,0
1.20232180154571e-07,0.14432570221985,0
1.23916951379826e-07,0.145064855088729,0
1.7562865153787e-07,0.15876077531828,0
1.54372688291863e-07,0.147034606649691,0
1.90307715816079e-07,0.146560731274711,0
6.05577145715012e-07,0.23457655887699,0
6.43137591814014e-07,0.224596048069079,0
6.57255343934843e-07,0.215704398551873,0
5.85648265842035e-07,0.20261533612866,0
4.51291438708638e-07,0.18015182158297,0
4.40779432132955e-07,0.174654033058852,0
3.81826009584175e-07,0.164108922254942,0
3.8136599880197e-07,0.172213706691498,0
4.36610076144431e-07,0.186338841802526,0
5.7891914962463e-07,0.230628398808697,0
2.42806225346223e-07,0.161587993183233,0
1.90671552168799e-07,0.160570111536774,0
2.02151313941174e-07,0.178212443056107,0
1.8700693514384e-07,0.171335571678051,0
2.00073221420255e-07,0.174199107577887,0
2.34394056612831e-07,0.190022640473169,0
3.05407646544278e-07,0.199968616461328,0
3.01208854815847e-07,0.188106069171603,0
2.80356240762616e-07,0.192652265172985,0
2.0076765737433e-07,0.164510435984069,0
2.02762569621219e-07,0.168922677347631,0
1.9832555170946e-07,0.16171140421203,0
1.25236521125553e-07,0.124953324536979,0
9.99620048107844e-08,0.107815404914444,0
2.15109669171265e-07,0.138615209843101,0
2.58108832295007e-07,0.146072494560829,0
2.76970777090886e-07,0.155904385486376,0
3.15583661386071e-07,0.160851218616103,0
3.27727539416461e-07,0.153758472301265,0
3.54362552646857e-07,0.1605984514063,0
4.25006914093048e-07,0.163617536952335,0
5.45782815677547e-07,0.177500648107253,0
5.51649190689279e-07,0.184099800609456,0
5.47441559399315e-07,0.196072106351543,0
4.19489613366275e-07,0.184105503985944,0
3.86102147476025e-07,0.185821772288163,0
3.27127863562025e-07,0.173331942958855,0
4.31017815935854e-07,0.199557095777762,0
4.17594411373484e-07,0.199176153892108,0
3.90028769104838e-07,0.18284492462977,0
4.26964965368342e-07,0.197869753798503,0
3.69976754139699e-07,0.19504253853963,0
3.41507001517402e-07,0.189878418324286,0
2.83467854818036e-07,0.167884422770341,0
2.55941460202599e-07,0.156077483365053,0
3.19064769113594e-07,0.1684315204149,0
4.17217138887233e-07,0.19645794179181,0
3.3261899918666e-07,0.172365015087694,0
4.69162645447838e-07,0.201030009665751,0
4.59919292743448e-07,0.203338683050803,0
4.02569897030544e-07,0.193031079093906,0
4.42579874026106e-07,0.195627622943319,0
4.40256572068246e-07,0.185798968129211,0
7.31023341240141e-07,0.228034943360957,0
7.73108051723239e-07,0.228161027335049,0
7.56839722676915e-07,0.227193236072839,0
6.75850333972409e-07,0.212489231843886,0
6.20721789699192e-07,0.208877814520648,0
5.20812822257608e-07,0.203300535743879,0
4.72369638372207e-07,0.19640333564397,0
4.46503932182074e-07,0.203888612519158,0
4.47823236740954e-07,0.207747293160427,0
4.43397091489882e-07,0.219321256466321,0
9.18346467500035e-08,0.124428223902702,0
9.28161916626875e-08,0.135862049625973,0
9.99365468735678e-08,0.137588018426985,0
9.71878852147143e-08,0.137116243874592,0
9.25113151853959e-08,0.137659528749692,0
9.38697790018696e-08,0.13441356182235,0
9.4003433172257e-08,0.13644385745062,0
9.14434961521448e-08,0.133291512735603,0
6.68963873559707e-08,0.129681607966747,0
1.13010700359747e-07,0.148265225010206,0
8.58545065813344e-08,0.130510250186823,0
4.02772853363355e-08,0.100159758820301,0
5.35613784089366e-08,0.103756432903725,0
8.70908960530303e-08,0.12433377586274,0
1.08408824625387e-07,0.136216509667353,0
1.67036597727271e-07,0.161638240535033,0
2.39040572132935e-07,0.17716889534685,0
2.42414721165902e-07,0.174287759227607,0
2.3707818947249e-07,0.169102062518209,0
1.73259383860036e-07,0.150119403121692,0
1.62039770383592e-07,0.151757613112381,0
1.69702697881402e-07,0.144107597561206,0
6.24003476918518e-07,0.25384896723361,0
6.51561693955476e-07,0.232893160618953,0
6.50707438728875e-07,0.234569012295266,0
5.94848835068602e-07,0.22191060359368,0
5.13877655860856e-07,0.202138133441959,0
5.93992458347234e-07,0.202578303602881,0
6.86667128629769e-07,0.206271356602901,0
6.29051485323475e-07,0.199820884305192,0
6.25635878746917e-07,0.20051175890373,0
6.20464116480489e-07,0.201503293981221,0
3.85208998178676e-07,0.159744401490622,0
4.53465970845889e-07,0.185586680107178,0
4.84221280498296e-07,0.190168530145567,0
4.89565414214628e-07,0.189849537886688,0
5.03516275413704e-07,0.199698797347591,0
4.48590775868912e-07,0.20449660804833,0
3.31137753860485e-07,0.185245349218396,0
3.38141515254738e-07,0.187047751759091,0
3.98514748177034e-07,0.20050749679726,0
3.53503347265796e-07,0.197550442558406,0
2.41842359556606e-07,0.182257802236697,0
2.26070018307929e-07,0.171829974332142,0
2.29226095357863e-07,0.170041675673307,0
2.12562549515376e-07,0.170464962005953,0
8.38125678670869e-08,0.124360501366432,0
7.79837609918721e-08,0.127287037255812,0
1.0192438747123e-07,0.130127745567075,0
1.68214469301615e-07,0.149780969579107,0
1.56132114619499e-07,0.151279780897157,0
1.31831806381341e-07,0.148596958370681,0
1.12008294081844e-07,0.137804358237484,0
4.0805475656649e-07,0.215548937446284,0
4.29704610674431e-07,0.205424074166725,0
4.44857387055222e-07,0.208888260833768,0
4.45440356138359e-07,0.203573923955128,0
4.40242428769793e-07,0.206069215370106,0
4.25285890655046e-07,0.206078313515505,0
3.58931191629851e-07,0.184944808444442,0
3.25287820433205e-07,0.169856550277519,0
3.19239704036344e-07,0.169772332494764,0
3.79425803440975e-07,0.188288529506866,0
2.63694728019281e-07,0.18172638285791,0
2.69799682796803e-07,0.185842980968366,0
2.61950152155021e-07,0.17778447563211,0
3.06413146668718e-07,0.170485291971643,0
4.09001650397962e-07,0.181904968475282,0
3.8494381133267e-07,0.184991782483786,0
2.59084012723387e-07,0.159950852228077,0
2.64480476643997e-07,0.170357176175472,0
2.64955603076424e-07,0.165738172383016,0
2.50821232579913e-07,0.161779889780487,0
2.18622245737846e-07,0.150789769374822,0
2.06898777253992e-07,0.155267417103192,0
1.94948132038725e-07,0.157037017280727,0
2.43116228769204e-07,0.183712378737731,0
1.78586457222607e-07,0.172603430824377,0
1.86960969423866e-07,0.177298041886103,0
2.42828501041287e-07,0.198218077787489,0
2.20864665707675e-07,0.166380080909501,0
2.17612767810717e-07,0.168085382066735,0
2.25253949987153e-07,0.167818388345962,0
2.18206344367694e-07,0.16828483159121,0
1.92273987883599e-07,0.159354505418903,0
2.47288501813035e-07,0.174932403904511,0
1.81674204461888e-07,0.169973077373129,0
1.33115752694088e-07,0.157709408252986,0
1.36812810909874e-07,0.159561662977929,0
5.9915343634859e-08,0.117722580831327,0
6.234834455135e-08,0.11749408133831,0
8.39416254654767e-08,0.121164689304787,0
1.10007282537497e-07,0.135117822658729,0
1.32450664084304e-07,0.143319721765796,0
1.31172021508478e-07,0.144597925569441,0
9.76877624194357e-08,0.132743709552232,0
9.69089086527159e-08,0.127382186693334,0
1.06438309568331e-07,0.130357584253141,0
1.12777335935262e-07,0.131692821014862,0
1.07552713090864e-07,0.132313895106618,0
7.74175870756491e-08,0.127902086018416,0
3.08182473305272e-08,0.102353426395066,0
3.83601612309417e-08,0.100639019949789,0
4.27842733828623e-08,0.100084309667014,0
9.70583856382479e-08,0.129095275111276,0
1.12152820912917e-07,0.13440422480005,0
1.08419697286074e-07,0.13610866084821,0
1.0813020164585e-07,0.137829244898666,0
1.03463973903526e-07,0.134987367444252,0
1.09890600325255e-07,0.144711501494629,0
8.85215790872336e-08,0.132661599256736,0
5.48392254242248e-08,0.116535657033966,0
3.54000572602058e-08,0.107114992680513,0
2.47755230662005e-08,0.104544923455428,0
3.20331566676965e-08,0.110102665978889,0
4.38895721570158e-08,0.107970435965543,0
3.80128460187275e-07,0.210479823812463,0
4.59555367995113e-07,0.210530971315515,0
5.6120369595965e-07,0.220477842731766,0
5.20232947021009e-07,0.205657866013051,0
5.60517392402186e-07,0.205243534011478,0
7.58382049373287e-07,0.229591931228934,0
7.65216533164172e-07,0.222778409373109,0
7.02938993500705e-07,0.213809515703413,0
5.36521872245705e-07,0.186744204706142,0
4.64685849509178e-07,0.181610636139581,0
4.57670773476162e-07,0.191885628367491,0
4.57503263785102e-07,0.202962909827996,0
4.34583341476022e-07,0.21257649784492,0
5.14590478102921e-07,0.234846871699966,0
5.43474364183063e-07,0.259393966810875,0
1.57332261888907e-07,0.164541468346554,0
7.80113404238567e-08,0.14053167144175,0
4.28266148826078e-08,0.11625942337643,0
7.15266380828533e-08,0.130287201930414,0
7.12277725074043e-08,0.134146264394595,0
7.40338029206107e-08,0.133633086587621,0
1.15038760962387e-07,0.143863808480154,0
1.91710996209528e-07,0.165685351777356,0
2.91037966919743e-07,0.182607613533622,0
2.55017195648652e-07,0.176339568217853,0
2.55810546296287e-07,0.180498915621456,0
2.88822419216977e-07,0.182914813633053,0
3.37406505713224e-07,0.202397205887587,0
3.24339777458733e-07,0.205498915692282,0
3.24824980991309e-07,0.199985555490648,0
3.25756228798867e-07,0.202660189715774,0
2.99182473729898e-07,0.205354275339156,0
2.52008827671944e-07,0.193078798693247,0
1.26005562978971e-07,0.141736409324419,0
3.18505666846598e-07,0.186300374348867,0
3.26196085380776e-07,0.177385838341487,0
3.4545474969828e-07,0.178420962632697,0
4.84372613791751e-07,0.195003491064212,0
4.31473848915369e-07,0.176319482266086,0
4.2549123366947e-07,0.177559341747972,0
4.32632273454339e-07,0.181502830056684,0
3.66590760094276e-07,0.170234604901643,0
3.67708787837039e-07,0.173028159076754,0
3.69939186003182e-07,0.191995161993804,0
2.65717219698153e-07,0.185699045986121,0
3.12252914600234e-07,0.205674557146533,0
3.10018008257709e-07,0.223894958141452,0
6.35374423688416e-08,0.13229446315629,0
3.17799916253761e-08,0.1258678989337,0
2.0552758446891e-07,0.194051649542269,0
4.55483512370303e-07,0.229229480674621,0
4.54352136889626e-07,0.230174458648297,0
4.52996413337227e-07,0.227515349215568,0
5.74338135255489e-07,0.232563980530451,0
5.85724197675609e-07,0.219442845441686,0
4.93672628085571e-07,0.20254525776521,0
4.25605882782561e-07,0.185644831691334,0
3.7388163044714e-07,0.171820647293807,0
4.13085527826457e-07,0.175150676033112,0
4.16635849320787e-07,0.192349149850015,0
2.76106621555367e-07,0.174019214411687,0
3.58313836652348e-07,0.197794272981015,0
3.78322007392282e-07,0.202029626474906,0
2.3570770385233e-07,0.172744204610273,0
1.99880872561285e-07,0.16669570744316,0
1.69346993925292e-07,0.160425848983214,0
2.28306780958376e-07,0.169920280821072,0
3.19388208670106e-07,0.19423991826033,0
3.33898967696716e-07,0.191451798440242,0
7.36223036521014e-07,0.252703595014822,0
7.23730968161818e-07,0.235500018220825,0
6.14813426770175e-07,0.209475695972638,0
5.57090382791249e-07,0.199437637104946,0
5.45730485473269e-07,0.19753705278716,0
6.87222871863383e-07,0.219488665701652,0
7.36137469565369e-07,0.227229168344747,0
8.41508578869756e-07,0.252041908680082,0
8.21087777397438e-07,0.257057898978142,0
8.08763307124918e-07,0.269894295573987,0
3.76880451697392e-07,0.206997444264979,0
2.80424835760116e-07,0.191217379250501,0
1.23469581170614e-07,0.13955179340378,0
1.73039720755927e-07,0.154473530391729,0
2.89571041683252e-07,0.196465711550458,0
5.17970726433345e-07,0.249955545129734,0
5.94229270200717e-07,0.244743513594631,0
4.82046748361047e-07,0.225345996122832,0
4.06206846227904e-07,0.203901766722326,0
3.91327831067807e-07,0.198363075380864,0
4.16562569355676e-07,0.212247275639535,0
4.16213229883869e-07,0.217464344314666,0
3.24026503397986e-07,0.198734109027285,0
3.7562523395963e-07,0.215982634312142,0
3.57246282805943e-07,0.20591299018031,0
2.12165741598135e-07,0.169236704995099,0
7.43548557955086e-08,0.116243072656945,0
1.05829440569901e-07,0.126282964344955,0
1.83969661800917e-07,0.156366413632725,0
1.79001916614684e-07,0.156337566681595,0
1.78869323191681e-07,0.151981111736434,0
2.01132996452511e-07,0.164337989703023,0
2.1043530903233e-07,0.163872078980302,0
1.97716947897875e-07,0.167109121745823,0
1.9901247403623e-07,0.17043241047874,0
1.52999815990089e-07,0.16008767688872,0
1.45265199648244e-07,0.165612340940433,0
1.33605817985507e-07,0.162880702771859,0
6.24235692200002e-08,0.126781342237202,0
8.12307087343713e-08,0.129740140182276,0
8.86770669746083e-08,0.124320373109727,0
2.22322044217709e-07,0.167809605511748,0
2.66101298646786e-07,0.164529540416212,0
2.93894913207383e-07,0.173793663809635,0
3.12206241715337e-07,0.172540419071767,0
3.89362177769594e-07,0.188200776686521,0
3.98194402467059e-07,0.185286598071422,0
4.0014644284051e-07,0.185668090594689,0
3.95952247684078e-07,0.18939231777788,0
3.07431906135458e-07,0.174155114911999,0
3.0516712207495e-07,0.178359289721254,0
2.44396992839798e-07,0.16648375077114,0
2.00612788256261e-07,0.165988440045726,0
1.70889939390971e-07,0.155137632463923,0
1.47882770609555e-07,0.155596441104961,0
4.89309508908233e-08,0.112176707569938,0
4.15671541553093e-08,0.115077336460692,0
9.1263876261783e-08,0.145989173877907,0
8.79540792367804e-08,0.13945814422425,0
8.22087178224418e-08,0.140620581402821,0
7.90758888193409e-08,0.146180580534392,0
1.91273968287309e-08,0.105896102828027,0
2.47869261005787e-08,0.104816514311192,0
4.07793724314405e-08,0.110809680807561,0
4.24801040704932e-08,0.11195483316805,0
7.63855682666085e-08,0.135145451016633,0
7.99379228600912e-08,0.130907434519061,0
5.62791016024227e-08,0.113138927969202,0
9.95586556180091e-08,0.129017460980219,0
1.18794248679911e-07,0.124170808684429,0
1.33582039564982e-07,0.121508542893272,0
1.48766991949755e-07,0.128128850664004,0
1.37435116041836e-07,0.126946484538495,0
1.52348782283145e-07,0.134348881265815,0
1.50219950679023e-07,0.132309925139703,0
1.79774140710254e-07,0.134863782239532,0
1.79164476151286e-07,0.137148905962025,0
1.10971855492037e-07,0.113108335333564,0
1.1470992927334e-07,0.114140837948562,0
1.39828869305118e-07,0.131031295896098,0
3.06669847535652e-07,0.193678250901364,0
4.11952561224704e-07,0.227514501541492,0
4.69474858761204e-07,0.251663615401739,0
4.36038686886904e-07,0.226893235364807,0
4.03509100443483e-07,0.222972193123969,0
2.8604900678583e-07,0.200144347999565,0
2.82175068943756e-07,0.196296934341254,0
1.75094034856322e-07,0.165995321762148,0
1.58176263224129e-07,0.168943933466565,0
2.01850326870958e-07,0.184655711592161,0
1.56848561081792e-07,0.155319997910292,0
1.08718209279061e-07,0.13128852025464,0
6.97441404996152e-08,0.109878789537698,0
5.37834281946589e-08,0.106496036377559,0
3.41978592125216e-07,0.203694517275058,0
4.75019031755038e-07,0.220055719287984,0
4.96257227482363e-07,0.223061635917843,0
4.90788721135255e-07,0.220843611576299,0
4.82939190493472e-07,0.227548906340585,0
4.8307434738932e-07,0.230018757107032,0
4.1379401868337e-07,0.210444287324208,0
3.82183746639439e-07,0.201933590162711,0
3.48961845736711e-07,0.189743970395133,0
4.11144271718076e-07,0.210302890195532,0
2.61368950984191e-07,0.17843197428354,0
1.4798424877596e-07,0.149792088149998,0
8.04287837120485e-08,0.120981523987635,0
7.34596733990072e-08,0.118782103166864,0
9.23493744181015e-08,0.123799848737864,0
1.28296070163541e-07,0.142964083876606,0
1.28853227727e-07,0.149244088082064,0
1.13880866797109e-07,0.146486815990307,0
1.21118257802693e-07,0.149946873818885,0
1.29257814458391e-07,0.156058496916926,0
1.26028103860882e-07,0.15439425704799,0
3.12354746349101e-07,0.19063620030088,0
3.74754006774884e-07,0.196157242991766,0
3.84417061860886e-07,0.192431523852987,0
4.64806067546034e-07,0.211371340746762,0
4.5242007392524e-07,0.204291824489951,0
4.58550928618057e-07,0.203049826595241,0
4.42809437439132e-07,0.196366441629308,0
4.49484013561876e-07,0.202762347894051,0
4.43460029168e-07,0.199758537856774,0
4.60187573435992e-07,0.208865845101439,0
2.6080993711281e-07,0.181826201638,0
1.423742210487e-07,0.149303505302268,0
2.46757509351714e-07,0.181455236608229,0
5.04401645896903e-07,0.234985372729245,0
4.7865421304009e-07,0.216300030601084,0
4.77619188780128e-07,0.222160776192314,0
4.74364815805941e-07,0.232469265454424,0
4.81860763986383e-07,0.234209093521417,0
4.91446472908965e-07,0.230609434180759,0
5.60685344071324e-07,0.246789697246349,0
5.07919879782867e-07,0.222847479765395,0
5.1742620944288e-07,0.22862772507144,0
5.02951957805403e-07,0.244357486857371,0
2.43792013248443e-07,0.183252535831673,0
2.27953198497034e-07,0.182590273055242,0
2.72746439029623e-07,0.19000157977505,0
3.08036885726813e-07,0.190103717818579,0
3.73624222415282e-07,0.199682952909437,0
4.05339862032694e-07,0.2136167152443,0
3.23534405007413e-07,0.194752393259508,0
3.20509507050635e-07,0.202082086720244,0
3.05223695268765e-07,0.197837302063472,0
2.48681616710719e-07,0.178497891755417,0
2.10728782475243e-07,0.175767197990577,0
2.00950194319998e-07,0.176228387866912,0
1.72421393426657e-07,0.170848995190612,0
2.11159887891234e-07,0.190653259345111,0
1.80827816445051e-07,0.181101482823653,0
1.8081968404844e-07,0.17350245115078,0
1.87788440779021e-07,0.17163738971331,0
1.63316910233958e-07,0.159980713656604,0
1.51991398810343e-07,0.155355983225977,0
1.61795798485267e-07,0.148222547888536,0
1.79177293515509e-07,0.145897620434749,0
1.69092768135587e-07,0.147669573699864,0
1.35680197890583e-07,0.138227388065279,0
9.66326723547928e-08,0.125728570425838,0
1.00856303251133e-07,0.132559360910727,0
8.96162703875467e-08,0.127072516950633,0
2.4063628978097e-07,0.172588379310687,0
5.63279225007725e-07,0.241867109034588,0
5.45001398437983e-07,0.232327332319019,0
5.17873226069631e-07,0.237636114146159,0
5.32110489062393e-07,0.248160017132591,0
5.25466674613786e-07,0.241770371836678,0
4.82353039168184e-07,0.231973767141192,0
4.86967290288692e-07,0.2222173141078,0
5.03049546564733e-07,0.20874933368631,0
5.60638936373272e-07,0.213204311626373,0
4.53028324154363e-07,0.209839754899808,0
1.32329031717603e-07,0.122215106475122,0
2.88909135315621e-07,0.162584178918048,0
3.01111619638978e-07,0.155280043577596,0
2.83844066556904e-07,0.152406193203713,0
2.22983243420417e-07,0.139725463612797,0
2.20551303251311e-07,0.140175165599817,0
2.33203986443572e-07,0.147210718544687,0
2.46042565614881e-07,0.15752544873268,0
1.42344608517563e-07,0.128777349300191,0
1.74808782205635e-07,0.142263106718567,0
1.64966107229271e-07,0.147807518377188,0
1.06826896693345e-07,0.14163486334963,0
1.10021867814027e-07,0.151008155527748,0
1.53698760120546e-07,0.160434297725756,0
3.58726467384734e-07,0.213304260779207,0
3.69425165500006e-07,0.202566659494439,0
3.66418211853142e-07,0.197815281626051,0
3.68111606656122e-07,0.198241095681947,0
3.89638414067517e-07,0.199829293211147,0
3.6280954925269e-07,0.193385244311066,0
3.89780907799437e-07,0.192805039737678,0
4.45505503706861e-07,0.205324681013274,0
4.43159042097783e-07,0.203049716216793,0
4.11549477218774e-07,0.205344506535931,0
2.07277110487627e-07,0.161013520170278,0
2.29477227301031e-07,0.161725615348347,0
2.54873552773732e-07,0.158507952018769,0
3.2448121044327e-07,0.175517145837198,0
3.32412507029237e-07,0.169524051162679,0
3.52195445741295e-07,0.170152887176093,0
3.91991151765283e-07,0.18017789744739,0
2.95764657262957e-07,0.150312534339171,0
2.8830521647165e-07,0.147923281617301,0
2.92943069221451e-07,0.146966048502709,0
3.34981195215267e-07,0.154622931575521,0
3.04279630096983e-07,0.150028615940952,0
2.53780982968187e-07,0.147354293654956,0
1.84208771940399e-07,0.126562197082187,0
1.88681236493908e-07,0.127877399157188,0
1.75656230969855e-07,0.126985587926914,0
1.21576942650669e-07,0.114911873711401,0
1.30370538464232e-07,0.122522293096288,0
9.68381921604473e-08,0.113866315015841,0
9.61928157728836e-08,0.111809726611424,0
6.83694118899194e-08,0.102115865542057,0
5.47427858078939e-08,0.0997528466728062,0
1.04016888477449e-07,0.12464705710497,0
1.00114045269161e-07,0.127601225199252,0
1.24086228983194e-07,0.143284761665054,0
1.5225260785366e-07,0.162079716075556,0
1.59685353169135e-07,0.159798986831633,0
9.7816201248518e-08,0.132806603087649,0
9.99458284131782e-08,0.135675963135489,0
1.38830617621135e-07,0.156000319190458,0
1.58067625012882e-07,0.161907491674929,0
2.14412404557499e-07,0.179081045187244,0
6.0727151286976e-07,0.27394669614983,0
7.16549001207048e-07,0.262793181671098,0
6.5406815162831e-07,0.240671461569748,0
5.82505890112477e-07,0.216100475672426,0
4.33936992736689e-07,0.184397583640215,0
3.9294971381798e-07,0.174668066795813,0
3.76311891099554e-07,0.166305494944257,0
3.78832492070843e-07,0.162990048196618,0
3.82700684197919e-07,0.163360262297441,0
3.76472771119466e-07,0.164651244838295,0
2.20134517925005e-07,0.131054154457835,0
2.22534900859436e-07,0.140725513084331,0
2.21239463116696e-07,0.140905853199056,0
2.00898482885026e-07,0.136179857153876,0
1.76399461303595e-07,0.132645786925561,0
1.75312637213046e-07,0.132261899595416,0
1.90262722447873e-07,0.130352023288129,0
2.05132014090284e-07,0.129667635766649,0
1.83006591571838e-07,0.1190369199621,0
1.89023769503332e-07,0.115723893419571,0
2.10618464747305e-07,0.126601912128756,0
1.7630328687411e-07,0.118014042999506,0
1.45673145413016e-07,0.112287718911174,0
2.38711033278965e-07,0.137492221111304,0
3.80129432539044e-07,0.168375675003902,0
3.44994650520459e-07,0.162675769065686,0
3.38481661582548e-07,0.174489648617067,0
2.37972311121607e-07,0.160264969317132,0
2.42571711778738e-07,0.166493168104636,0
1.57201347982595e-07,0.148185115842317,0
1.62811729292317e-07,0.143946487517858,0
4.28170681561516e-07,0.209781631264421,0
5.56528893842639e-07,0.217416070401489,0
5.1107560325034e-07,0.214212070067527,0
5.01610465947073e-07,0.197324801258186,0
6.94576061125056e-07,0.215103504049512,0
7.2126870829665e-07,0.209998525267466,0
6.94293106760368e-07,0.208519351839174,0
7.49591989384336e-07,0.219292850252315,0
7.63847727060704e-07,0.222581414497943,0
8.5090724267029e-07,0.236694605161435,0
6.97604760093292e-07,0.226977338291348,0
5.66169054464269e-07,0.223765240443867,0
5.55973769378333e-07,0.219183362996318,0
6.505663593268e-07,0.244405936128082,0
4.32176770848516e-07,0.210728668858501,0
4.09166773407409e-07,0.219191119673803,0
4.69391324904711e-07,0.21880970503061,0
4.83946900508296e-07,0.201696958819837,0
5.98113019956092e-07,0.224499671133537,0
6.32541786194993e-07,0.234135683092296,0
6.18649089310808e-07,0.22006379285123,0
8.34588351331996e-07,0.247054321360442,0
9.69391311135989e-07,0.261671749099762,0
1.1896140478851e-06,0.289009044088605,0
1.1865682885631e-06,0.28769157271281,0
1.19355012784475e-06,0.290421988877251,0
1.17334651439931e-06,0.300159981741547,0
1.15990675664811e-06,0.306036314206944,0
1.0412260963339e-06,0.274198592422371,0
9.00049901059842e-07,0.23963849854736,0
8.46826459088332e-07,0.237221015052262,0
8.12451172196709e-07,0.237830404332763,0
7.51974428008854e-07,0.219636829105511,0
4.48897066676049e-07,0.175347101248494,0
4.32269409453388e-07,0.182683986005117,0
4.24755074984958e-07,0.176326399086635,0
4.35356626318976e-07,0.172540492712656,0
4.63913713809224e-07,0.185143147437276,0
3.59695902098118e-07,0.175279584299092,0
1.94762854828982e-07,0.144769184580177,0
1.74121683087633e-07,0.136157591472761,0
1.86514748357653e-07,0.139519575242018,0
2.0245990303431e-07,0.145906910724888,0
1.87540844660466e-07,0.142441255141478,0
2.25310523180968e-07,0.146196919360043,0
3.14373702203361e-07,0.161405773201988,0
3.13699155262737e-07,0.164402273626867,0
2.79371955585856e-07,0.155880075569059,0
2.73742127240761e-07,0.147543866950111,0
3.44252569329719e-07,0.161129930724918,0
4.56881577422449e-07,0.191895246574732,0
4.84952931006428e-07,0.198141031140059,0
3.63503985206765e-07,0.18745466699202,0
3.6182093269078e-07,0.192966528969943,0
3.55736927674091e-07,0.194165095004465,0
1.92913264973705e-07,0.16226148518159,0
1.26035263905724e-07,0.140538628690802,0
1.3547273338139e-07,0.142887241335651,0
2.11291420566853e-07,0.16877872461283,0
1.91041045840901e-07,0.162680479696356,0
1.19956385834725e-07,0.130517178730786,0
1.79956500864691e-07,0.145481350595222,0
1.93940775606363e-07,0.139318851674661,0
1.94968286239021e-07,0.135406786371173,0
2.43820565032196e-07,0.144870863656856,0
2.34724302631724e-07,0.139692185276786,0
2.86271410154013e-07,0.155247628032902,0
3.27761041354674e-07,0.155472647960126,0
3.25802194518842e-07,0.15549049094743,0
3.31779948005897e-07,0.160087128730739,0
3.18571433184407e-07,0.154372496540703,0
2.76723269367947e-07,0.151736167288802,0
2.77446699083851e-07,0.154752916074084,0
2.85665723397735e-07,0.158201193674563,0
2.8253713738417e-07,0.15311044590346,0
2.80403709208051e-07,0.15258053761139,0
2.74405182751392e-07,0.146644889683873,0
2.89008138404797e-07,0.148572699938403,0
2.75410064106524e-07,0.144815926536053,0
2.85957428928342e-07,0.144821888427422,0
2.93703271513336e-07,0.147109170588165,0
2.82409847698087e-07,0.144476462971758,0
2.85093538579669e-07,0.140873365731281,0
3.30154087453033e-07,0.147677497681895,0
3.11994799403455e-07,0.146444233094606,0
3.04901670042098e-07,0.146709756508336,0
2.8967322701458e-07,0.14334557986442,0
3.09823095925896e-07,0.15185209848246,0
2.80020779402418e-07,0.149106138385151,0
2.66711493579446e-07,0.149153332651565,0
3.03021318512684e-07,0.160990893484927,0
3.23387226307879e-07,0.166699247917042,0
2.62628058129028e-07,0.156801445854724,0
2.52984096495939e-07,0.153160852527336,0
2.28830878561699e-07,0.149767668648542,0
2.32381907220952e-07,0.153458219821197,0
3.07709821950072e-07,0.162608979091791,0
2.98998964432463e-07,0.157867252800261,0
2.91681486999385e-07,0.159594911487258,0
3.46949696344832e-07,0.166439330778572,0
3.31076318907827e-07,0.154540737772931,0
3.97991004156172e-07,0.16984490964166,0
4.23393163739485e-07,0.170761762714702,0
4.09616883880697e-07,0.176837565359109,0
4.09978245156188e-07,0.183484913942801,0
4.12252841129997e-07,0.172464628342121,0
5.93314905955688e-07,0.205045695829434,0
5.39423988692781e-07,0.199027494963359,0
5.51813606533804e-07,0.201187271393521,0
5.1137217053979e-07,0.201032556987103,0
4.80473306408078e-07,0.20677159514542,0
4.54990618419193e-07,0.205724199690301,0
4.36320138526132e-07,0.21272091720774,0
5.53896914396028e-07,0.221271047894681,0
6.37474526717553e-07,0.225420866989822,0
6.25936865817134e-07,0.24002499778725,0
3.69519572017185e-07,0.206686511700203,0
3.63257184648749e-07,0.210579734934848,0
3.68863676551396e-07,0.198613857559661,0
4.23999115682609e-07,0.193975722409189,0
3.92338016159859e-07,0.17533663411601,0
3.19486504594359e-07,0.155122282979994,0
4.22700760884563e-07,0.172282307537552,0
3.46721547261651e-07,0.162423211546067,0
5.35004207926012e-07,0.190194814034116,0
7.95030164326413e-07,0.214250643967614,0
9.146670000117e-07,0.221108973948663,0
1.0498181501445e-06,0.242784561206975,0
1.05381301318835e-06,0.250093735952086,0
9.707009805728e-07,0.258637383807759,0
9.48874600421032e-07,0.267168432859386,0
9.80711165240225e-07,0.271891326844086,0
8.95077470905997e-07,0.253403600646316,0
9.31456421210427e-07,0.25947024683253,0
6.63831977715795e-07,0.231297983885486,0
2.95975834387993e-07,0.168362459505926,0
2.40289778968855e-07,0.166803429375901,0
1.45750933554512e-07,0.133566797704605,0
1.72640172574612e-07,0.143234268438747,0
3.96350469931163e-07,0.196672082810353,0
4.12314718060732e-07,0.194729588491859,0
3.92346413743316e-07,0.200779028744356,0
3.73520976336571e-07,0.212233162629597,0
3.80056329365161e-07,0.209622290081351,0
4.51746587732001e-07,0.204734904033834,0
5.15432004360913e-07,0.206335386280091,0
5.13373447270983e-07,0.201299778446769,0
5.71654444373907e-07,0.213779940881079,0
5.61630823572949e-07,0.211163498994699,0
3.72491079022298e-07,0.17978082158197,0
3.09683784436127e-07,0.168818102735155,0
3.0916941035049e-07,0.168688894472977,0
3.4581991198523e-07,0.171340962934589,0
3.06570844446476e-07,0.164938555789981,0
2.41601481504816e-07,0.168407438296952,0
5.80056447611533e-08,0.104261263240355,0
1.29373435923249e-07,0.137150223276609,0
1.53225755182887e-07,0.145742124751689,0
1.3322845710364e-07,0.149401184304974,0
1.04376128258172e-07,0.134235162802543,0
1.91779591207028e-07,0.159608933236113,0
2.83920086786092e-07,0.176773721696905,0
2.82223156158499e-07,0.177172107955397,0
2.7096650491923e-07,0.173161594815755,0
2.76929319547294e-07,0.177398609932071,0
2.83695473527525e-07,0.183118422062203,0
2.19596630605689e-07,0.166936162360676,0
1.93222914814224e-07,0.161481704481266,0
2.23403034197646e-07,0.170112747229682,0
2.47311926651098e-07,0.174215683964897,0
1.67188372998802e-07,0.147051054287781,0
2.09734508593951e-07,0.169480385759464,0
2.32237645576725e-07,0.17493120769203,0
2.33237576777398e-07,0.177243526423679,0
2.36715413867154e-07,0.180545196669269,0
2.37989990244675e-07,0.178823363248494,0
2.41132631161078e-07,0.1757947960371,0
2.45156399571145e-07,0.175158330813374,0
2.22389932050287e-07,0.167801251674016,0
2.00497520373864e-07,0.157339928637661,0
1.83189658891197e-07,0.163578691391594,0
2.58129340077765e-07,0.177418450726273,0
2.95399141393545e-07,0.182729334545358,0
3.08768094256868e-07,0.179374730804692,0
3.83959172573449e-07,0.198457844133433,0
4.29901821292244e-07,0.213424819046469,0
4.55949268867506e-07,0.221409217422181,0
4.62399673709759e-07,0.212887993175473,0
4.57516611523017e-07,0.202723744647946,0
4.67060597715163e-07,0.201426864245263,0
4.70578743205511e-07,0.19633214588842,0
2.5994392526937e-07,0.153605454922925,0
1.87786230888637e-07,0.139865121506819,0
1.51243571904606e-07,0.130698974383301,0
1.00976521287989e-07,0.114440527052358,0
9.37266665006422e-08,0.108277587167065,0
7.48768319040641e-08,0.0965533950404349,0
4.62934909160615e-07,0.195716961416797,0
7.02109400650783e-07,0.22736847058902,0
6.69895916927803e-07,0.22584841928425,0
6.6319915350561e-07,0.233196193585691,0
6.2824222346508e-07,0.236080141837335,0
6.26587015567925e-07,0.237799601286234,0
5.96085578122759e-07,0.230132837364655,0
5.86480598956032e-07,0.225779228411906,0
6.27655276579254e-07,0.227161690652985,0
6.35326601660518e-07,0.222473462604893,0
3.63320564304944e-07,0.189228922145081,0
2.45323732470974e-07,0.167586902824736,0
2.72032202457714e-07,0.166169362680425,0
2.48425623008708e-07,0.152882840878721,0
2.653445437839e-07,0.147631396308895,0
3.55572158247106e-07,0.163156683080693,0
3.62018938869131e-07,0.165600741644838,0
3.31681563686028e-07,0.1618037442188,0
2.8097014831112e-07,0.161631623001963,0
2.67142598995437e-07,0.16642748374587,0
2.71441719747273e-07,0.166158072251775,0
2.04944173407695e-07,0.150951813303397,0
2.32046003882677e-07,0.172153924923211,0
2.4245228930242e-07,0.188950485697167,0
1.3171017401464e-07,0.159301618616848,0
1.20949333781787e-07,0.170033455997914,0
1.19792323572662e-07,0.175777250849825,0
1.49681091007938e-07,0.178872971973218,0
1.50948330549386e-07,0.179237734678823,0
7.48421808228525e-08,0.14419004259719,0
5.1616674871558e-08,0.130795155774172,0
8.87344357289611e-08,0.147388419518821,0
7.99613476981555e-08,0.135006393369686,0
9.71825814777942e-08,0.130588749811595,0
4.19100672658799e-07,0.220690861002471,0
4.39740341674688e-07,0.205870365745375,0
4.79921010603461e-07,0.201493834308468,0
5.83693927182585e-07,0.218360767388992,0
5.3326007403983e-07,0.200654875012497,0
5.1064449783435e-07,0.199374782095216,0
3.97105633672974e-07,0.178231680604857,0
3.87931671526621e-07,0.178747425257255,0
3.81639936813894e-07,0.180156699224996,0
3.56389906084574e-07,0.177953205526302,0
2.10760604896764e-07,0.145468209934716,0
2.1679669948994e-07,0.157540945760281,0
2.08175917104358e-07,0.161315221421315,0
1.19668569711193e-07,0.131489171671703,0
1.38596280844881e-07,0.142006512439934,0
1.30771058997317e-07,0.126292629467832,0
1.68214027323538e-07,0.141525233691306,0
1.75292748199596e-07,0.140298846682122,0
1.88714031267197e-07,0.142821803720401,0
1.84707941980198e-07,0.141518445067921,0
1.7085811696945e-07,0.14374426917963,0
1.52942093653275e-07,0.140906198193061,0
1.95676069931012e-07,0.15838010388371,0
2.08200402689805e-07,0.163403017125658,0
1.22057461215632e-07,0.134678919936939,0
9.19498262367853e-08,0.126572669103054,0
1.10870465721247e-07,0.131452504787177,0
9.81199285828104e-08,0.13312512877623,0
8.69268337909676e-08,0.136743513207092,0
8.23847134925745e-08,0.143114854757219,0
6.0178320590482e-08,0.131817217059167,0
5.44913002822645e-08,0.124728832633713,0
6.31152649099996e-08,0.144973170134832,0
4.87130556990218e-08,0.137263980933487,0
8.77762272587254e-08,0.171609724988988,0
5.05846560625176e-08,0.137977122485514,0
7.53272075641978e-08,0.162241401897402,0
1.17194906811648e-07,0.178047535228504,0
1.92948534824223e-07,0.205167158798084,0
2.14035220466863e-07,0.200648858280846,0
2.28994852428146e-07,0.189723484030705,0
4.63091192608528e-07,0.244212867008156,0
6.08153789506423e-07,0.25172690790112,0
6.02372716263489e-07,0.244002783328134,0
5.9858549452006e-07,0.241471373084255,0
6.08069283298162e-07,0.254128149037304,0
6.10704798569387e-07,0.254699667400456,0
5.98554025681002e-07,0.265619652997988,0
5.21921656856375e-07,0.244910281551849,0
5.0480835412306e-07,0.247873793274143,0
4.984812611642e-07,0.251970578421597,0
2.94368006540657e-07,0.213318666642911,0
9.36498507109154e-08,0.148431140639444,0
8.41886912103392e-08,0.157958096845388,0
7.4214129975895e-08,0.145291379952095,0
3.02453818662231e-07,0.219188790700479,0
3.15594268859911e-07,0.194180165350438,0
2.84213118250929e-07,0.181347185636126,0
2.90152684832159e-07,0.184995634643626,0
2.851346425408e-07,0.183845845179792,0
2.88463179436254e-07,0.19159901416215,0
2.78561544584461e-07,0.194034049611485,0
2.83578879710898e-07,0.193325217026817,0
2.8428074089666e-07,0.187231877931783,0
2.82369539297494e-07,0.190980102564174,0
4.51267571892497e-08,0.108265423438473,0
0,0.0880829682964422,0
1.2391650940175e-08,0.0920401956303132,0
4.77959511899169e-08,0.117438728431987,0
7.30265348838638e-08,0.133588750665222,0
7.77889370556729e-08,0.133706230537427,0
7.39206565329811e-08,0.129505099099189,0
6.02016570329301e-08,0.123310620619086,0
9.99033101222016e-08,0.132515242503756,0
1.8984947294618e-07,0.153392749864247,0
1.98190748396073e-07,0.153042156956166,0
1.94515347106043e-07,0.153349982821989,0
1.81697629299951e-07,0.16311204550963,0
1.89766381067765e-07,0.16603566269929,0
1.91939410479555e-07,0.16102371422785,0
1.86089035074198e-07,0.160757873546959,0
1.88909208785858e-07,0.151570723488095,0
2.36794969920956e-07,0.156857568828941,0
1.88659667963766e-07,0.153762624279866,0
5.76997959320929e-08,0.1087103747087,0
5.70314366845423e-08,0.115982880736415,0
5.71552789416274e-08,0.114414748561076,0
4.12564435674054e-08,0.106201572485606,0
7.46547821183417e-08,0.124680351465969,0
1.11106923992269e-07,0.12382910960943,0
3.38502169365306e-07,0.186375773764749,0
3.44858609668458e-07,0.189832308883291,0
3.06019255806783e-07,0.187549776780659,0
3.04285994581287e-07,0.188980051712754,0
3.16649358924555e-07,0.194609529718262,0
3.62102384330007e-07,0.2027787060671,0
3.75416973889899e-07,0.206117112324767,0
4.06396454822798e-07,0.202875940434206,0
4.01643599377445e-07,0.210648412016112,0
3.36862253909604e-07,0.226807238513467,0
8.72628255248577e-08,0.143585183162438,0
7.59640979726893e-08,0.129317006161603,0
6.00617267738544e-08,0.116275125678194,0
3.84457281865864e-08,0.100065395541166,0
4.27881627899369e-08,0.100170116705049,0
3.06037376907927e-07,0.189040484421119,0
4.12478073157872e-07,0.191409379910995,0
4.10978529939323e-07,0.186760446268882,0
4.38138171146734e-07,0.186915177027001,0
4.4037891159987e-07,0.188461519738264,0
4.36790049617254e-07,0.190598548585707,0
4.11939832256095e-07,0.193791140872547,0
3.24748607179659e-07,0.172023595018052,0
3.15084402950656e-07,0.166033766141169,0
3.79471769160948e-07,0.180495754360007,0
2.53975453321925e-07,0.157224554480974,0
1.84287974411739e-07,0.151516908085318,0
1.49035449433528e-07,0.150220745262734,0
1.18325751918633e-07,0.138347045795406,0
1.12985861191838e-07,0.136535282653271,0
1.25761591080645e-07,0.140531027281767,0
1.61201161180906e-07,0.157727386209652,0
1.01956298288366e-07,0.120352596855968,0
4.29967322443208e-07,0.210325397473816,0
4.02200049775982e-07,0.190406563810972,0
5.00353126714543e-07,0.211574135954995,0
5.00824805717973e-07,0.209938856952555,0
5.67709171270258e-07,0.202139625193173,0
8.97472638499123e-07,0.240419489929901,0
9.23633851231321e-07,0.240971597945674,0
8.65990628493043e-07,0.218769985511621,0
7.87237648856523e-07,0.208714246811792,0
7.02321550127588e-07,0.204343265942953,0
6.06499995939113e-07,0.19993017756024,0
7.06412234018464e-07,0.216216917820047,0
7.05919340067354e-07,0.212163842416064,0
7.05165767446619e-07,0.213974417489172,0
6.87195292431399e-07,0.21664698613849,0
5.2040973825168e-07,0.193745499008475,0
4.7439098090808e-07,0.186782013611029,0
4.48236486242648e-07,0.193673370461749,0
5.0314077083976e-07,0.200890856755592,0
5.46442600550411e-07,0.209058752005279,0
6.21997515219712e-07,0.225214334995708,0
4.95385293132694e-07,0.211590004471779,0
4.37735882701342e-07,0.209137358737002,0
4.56598092684068e-07,0.219604787491572,0
3.28216897542958e-07,0.203317356240542,0
8.13946826008185e-08,0.121472776587394,0
6.15881422594656e-08,0.110869301862439,0
1.15864110822773e-07,0.140009948247634,0
1.71158662061591e-07,0.171344789098235,0
1.76625488892007e-07,0.166181053522737,0
3.24383621683939e-07,0.198226995795587,0
4.1381638277405e-07,0.203651435569428,0
4.06461867578147e-07,0.19449132734842,0
3.77372196505503e-07,0.175153927655833,0
3.81762983510441e-07,0.172218632850967,0
4.5150403016352e-07,0.181553376525773,0
6.06886107986898e-07,0.204527892899806,0
6.18178205867916e-07,0.19937524285704,0
6.72891555935903e-07,0.201756342276595,0
6.58275075753352e-07,0.197612321852935,0
7.27761101056188e-07,0.211713621887501,0
6.63675075498575e-07,0.201783340190636,0
6.88068641110912e-07,0.201697474924906,0
7.51600337764756e-07,0.214091973374749,0
7.38556680765868e-07,0.204328535069403,0
6.78317278805189e-07,0.198202636566618,0
5.24821033039376e-07,0.177613544355605,0
6.16237038155151e-07,0.200122466860376,0
5.93297933997544e-07,0.190744585163637,0
6.02349379821041e-07,0.196334494735769,0
3.47331123425004e-07,0.157603855031603,0
3.27392608429956e-07,0.166617013750807,0
3.64042137712927e-07,0.173049716370106,0
2.91713044234059e-07,0.156825645197732,0
3.88416079498659e-07,0.183779799596574,0
4.21417963714816e-07,0.185988946331941,0
6.24650090844696e-07,0.211787727278011,0
6.11256387209079e-07,0.205581930356696,0
1.29100143199317e-06,0.243264093144515,0
6.21692090689605e-06,0.484089397528852,0
2.902520636027e-05,0.34198296548022,0
7.59654689002876e-05,0.301798281991698,0
7.84736060898137e-05,0.241295703256315,0
0.000129288637390688,0.230157457031856,1
0.00017868743727972,0.20485908635049,1
0.000163690802913857,0.190956709676682,1
0.000142816710405616,0.176082355454714,1
0.000114299686018128,0.154179186439385,1
7.73050530928428e-05,0.121371899101294,1
5.25258708901454e-05,0.0981199474557525,1
5.38718069264318e-05,0.117947838592441,1
6.68156631541121e-05,0.161899587978071,1
7.39231766035789e-05,0.194022714353183,1
7.06275373739109e-05,0.130103612055029,1
0.000105055558879752,0.202063105587333,1
0.000147097413842602,0.211102366790721,1
0.000148640225565715,0.182375915658578,1
0.000148661064390052,0.171720849619543,1
0.000156710293367449,0.153906780501653,1
0.000160432346769407,0.128589286447387,1
0.000149354657049956,0.122774271565947,1
0.000128883562715502,0.109993564586781,1
0.000102010417619899,0.0983166054030353,1
9.56082754576844e-05,0.149452941734453,1
6.01356301932424e-05,0.114422469630543,1
2.47307319471627e-05,0.0767275272056911,1
2.75588751423144e-05,0.0943024019906592,1
3.41106803628313e-05,0.117124644341997,1
3.68304793505525e-05,0.15421695154829,1
3.37872601649589e-05,0.236445875025137,1
2.55059877471517e-05,0.193767174568299,1
2.84509406210235e-05,0.205053427547787,1
9.22091086976654e-05,0.158476950343443,1
0.000313493604076638,0.167326784389553,1
0.000330133119394306,0.0893153454041778,1
0.000331561279617648,0.0866024309976806,1
0.000322449126514198,0.082027463452923,1
0.000436510546924553,0.0705069082519616,1
0.000424519634059072,0.0422584181870279,1
0.00044712190239306,0.0436913093944001,1
0.000515789742211736,0.0480376126862572,1
0.000563923735825423,0.0501317529621464,1
0.000560891939474826,0.0569111800248649,1
0.000390655737989464,0.0527041998062582,1
0.000393475361261627,0.0683322423058417,1
0.000421151175847425,0.074412172265224,1
0.00043100970899718,0.0832879565566025,1
0.000177724155608329,0.0893972940918988,1
4.82714882199779e-05,0.263839637215849,1
5.28253364066357e-05,0.332949520337802,1
5.34329347180953e-05,0.361480226489332,1
5.82871501449154e-05,0.45137805119861,1
4.7077352117599e-05,0.547241526350805,1
1.44730303636551e-05,0.32173030686305,1
5.07478237609528e-06,0.374258927069839,1
6.31009669192193e-06,0.236378863729938,1
4.9415021545193e-05,0.295351212658838,1
0.00017128347251585,0.348749076601932,1
0.000183357567158087,0.19108825142003,1
0.000176771978812906,0.189702320082716,1
0.00017396073235123,0.187347503215525,1
0.000171584726098848,0.190571799885768,1
0.000167112952445468,0.186680231728659,1
0.000155059758504499,0.168701538893865,1
0.000149614280983098,0.160132167378278,1
0.000153391948928422,0.171665820034091,1
0.000151842431690721,0.14571662386386,1
0.000106644975688326,0.135995729425638,1
0.000103713066383057,0.203210000447249,1
0.000143548363123637,0.0903579613592242,1
0.000619344691468236,0.117992165852985,1
0.000798335845032796,0.0971231504787002,1
0.00089411041978038,0.094818825170379,1
0.00182413914882225,0.083160137528911,1
0.00245102224797882,0.0614009875703418,1
0.00219656107675023,0.0575845400794048,1
0.00222113681255483,0.0561149829919595,1
0.00251452055911147,0.0569582885523764,1
0.00212444991382141,0.0279039986165697,1
0.00150662125957478,0.0212470448806976,1
0.00145503224148137,0.0203933477320386,1
0.00128679354904088,0.0200944652987107,1
0.000947908055625501,0.0141108951595638,1
0.000879964853448812,0.0168503412636012,1
0.00106290156466251,0.0212270435692688,1
0.00184681970287665,0.0313161904278616,1
0.0022557697978579,0.0312042825059064,1
0.00224653986785091,0.0335861003028226,1
0.00207438200889102,0.0577646386615641,1
0.00137700249930029,0.0461287935550181,1
0.00141176450428003,0.036570889487767,1
0.00152079429395985,0.0342308637036359,1
0.00132497559133901,0.0240275453430969,1
0.00148264336691832,0.0241683825643713,1
0.00295670479230765,0.0313242204199982,1
0.00298966348439305,0.0196806008492671,1
0.00312003243951502,0.0204015782206846,1
0.00363489042007549,0.0227141074673683,1
0.00364426768108766,0.0184525757151636,1
0.00370773884981626,0.0180426255251279,1
0.00369434204128465,0.019766435377951,1
0.00350681087497171,0.0167730843491278,1
0.00344707314323242,0.0179561069901129,1
0.0037231348456719,0.0170523154608136,1
0.00182203883717946,0.00800078743933775,1
0.00159210917848986,0.0106913920516699,1
0.00172356131368153,0.012566093177909,1
0.00172241277221434,0.0122642640870716,1
0.00198921956218962,0.00894115430377665,1
0.00236995357945681,0.0105100129278373,1
0.00230727885354287,0.0103582192922114,1
0.00220179808373194,0.0115863990039927,1
0.00224679061969293,0.0120530856756747,1
0.00225162389879505,0.01767957507664,1
0.00206337032735978,0.0174521785310244,1
0.00443649687308637,0.0183681178439637,1
0.00505806571553743,0.0144349321240905,1
0.00534027775674286,0.014704592537499,1
0.00488231544577615,0.0205012877415128,1
0.00354905231432823,0.0156259711795327,1
0.00295609843303753,0.0132986804091934,1
0.00233039871497722,0.0100202512912666,1
0.00482538245245975,0.0122918049488863,1
0.00609147147467708,0.00703451468609012,1
0.0058998356203979,0.00563916303845706,1
0.00797820814680432,0.00821423073812357,1
0.0087503923575654,0.0087239003641776,1
0.00867848188804164,0.00875561721974166,1
0.00831309796711844,0.00827400123233495,1
0.00762019045597113,0.0057611029909908,1
0.00803660650862203,0.00645782509134612,1
0.00697975855352511,0.00575883433691746,1
0.0176285847593098,0.00743531497622029,1
0.0278924234404505,0.00944379041581122,1
0.0245159821058681,0.0084987814882119,1
0.0245846914833168,0.00938080587550615,1
0.0244968731533149,0.010422405829329,1
0.0219813280465918,0.00984600874942291,1
0.0162612684783709,0.00682762580518985,1
0.0156964451311751,0.00635254307802201,1
0.0190054650806656,0.0082543863177721,1
0.0191307674758833,0.00400677565540621,1
0.0255127903943778,0.0116782224874022,1
0.0256026297364043,0.0118216437995285,1
0.0248205454629075,0.0105535931479453,1
0.0326619421996072,0.0116516742962419,1
0.0386321902929684,0.0115460768698622,1
0.0867350333886044,0.0174083826396138,1
0.100474158055589,0.0161319258481767,1
0.107525285562148,0.0176503130990497,1
0.0807581938437052,0.0109793994971696,1
0.0755227385139865,0.00804433415066288,1
0.10518265944209,0.0114299508106735,1
0.0953560696673443,0.0108314495627631,1
0.0685661210416168,0.00674462783314569,1
0.0595500036889865,0.00403744789501753,1
0.0410631165480143,0.00194302842927071,1
0.0425525983209254,0.00291153394941368,1
0.0432544768535323,0.00318409774857375,1
0.0441911850923214,0.00317894363534996,1
0.0553768130464275,0.00523690414603081,1
0.0678116307802542,0.0118051322633487,1
0.0528696109459405,0.00735905719972028,1
0.0560767143061326,0.00707796996809925,1
0.0470920574435958,0.00537459964041915,1
0.0487688967392686,0.00359918952968861,1
0.0879134714763037,0.00885712850331316,1
0.112039482899947,0.0115692216392162,1
0.121231228414581,0.014233185052512,1
0.118491911400613,0.0146095316217377,1
0.129226305456341,0.0160916341707706,1
0.139949437386224,0.0183111596164009,1
0.101706831848798,0.0158264303087123,1
0.0857184661967693,0.0154038383211949,1
0.023179211798207,0.0034792565430478,1
0.00458174544330948,0.0162598509604041,1
0.00544681171823419,0.0221148572785712,1
0.00510253350286139,0.0209015117609658,1
0.00474973143186757,0.0175538582021843,1
0.00651839947839122,0.0214233171381675,1
0.00680901761563966,0.0215051136944311,1
0.00922971861842528,0.0303783623463578,1
0.00727983311085482,0.0296495521664633,1
0.00582442199772213,0.0273432544145739,1
0.0058461353335832,0.0284066965935428,1
0.00567474998847971,0.0215979537232815,1
0.0053331444523699,0.0238189390595068,1
0.00229527925580818,0.0120203730600306,1
0.001926294182376,0.010159483946813,1
0.00399916986633686,0.0161898204058065,1
0.00567169382738047,0.0192911040395603,1
0.00572593719634801,0.0201602388112427,1
0.00546042745150133,0.015396949722757,1
0.005009640998822,0.0134405686206408,1
0.00645609864851621,0.0106223346641907,1
0.0133791732821994,0.0213424505244825,1
0.0152235992341994,0.0187796205253552,1
0.013333961298466,0.0188175862062386,1
0.0124196862325909,0.0187165453536715,1
0.0168508206064459,0.026187813216407,1
0.0224561159758778,0.0347316049153073,1
0.0206641561153767,0.022547869033549,1
0.0154008964364222,0.0175306374930569,1
0.00932023971313787,0.00622653457398696,1
0.011533086940728,0.00884138316357712,1
0.0119552208983196,0.00578625247804364,1
0.0118128457544206,0.00655064397663491,1
0.0108036246629608,0.00512774315866765,1
0.0123423572391368,0.00444661460319184,1
0.0143540278012493,0.004589739774218,1
0.0123514067389308,0.0028262095526715,1
0.0120224575332163,0.00330214269693821,1
0.012014056468033,0.00454370945372288,1
0.0112896860679119,0.00578248560214043,1
0.00699971436789567,0.00344230123558039,1
0.00870942308527551,0.00768865078813108,1
0.0125506365990001,0.0114369733258844,1
0.0261465881238617,0.0232342134586219,1
0.0294912283809286,0.0129023467850601,1
0.0259115478851353,0.00729718866089828,1
0.0459021099274065,0.0114978831282766,1
0.0558483327198543,0.0154247483330116,1
0.0514474759654813,0.00593790084623926,1
0.0529632955361282,0.0059725001888273,1
0.0530134125539277,0.00299904247751618,1
0.0947996115397607,0.0076236907431049,1
0.102451756367156,0.00696404950574086,1
0.105318823330446,0.00739584404257005,1
0.0958370956269405,0.00758758403536282,1
0.0912832698340743,0.00751507255713336,1
0.0921394480172119,0.00744028325176609,1
0.115506374492355,0.0066502794938303,1
0.113467460429706,0.00591075395290331,1
0.0689717100165484,0.00126388934882435,1
0.0677378895392408,0.00246397971555002,1
0.0871028133695628,0.00419621585448971,1
0.092545489207228,0.00433937475794416,1
0.0865183122885805,0.00359595112004459,1
0.0878962463241232,0.00414913653813269,1
0.110271711413024,0.00593487926795404,1
0.111153788989567,0.00436046522598472,1
0.11502283125785,0.00471600248590503,1
0.125529424394207,0.00684185473856597,1
0.158842451458484,0.012180535809922,1
0.21027252544113,0.0138065893095101,1
0.203021370233445,0.0149207012755653,1
0.200901865573518,0.0154990694643165,1
0.207916142226863,0.0150401960368905,1
0.217765583139135,0.016361984446413,1
0.23446995970015,0.0192608978607504,1
0.155743616580381,0.0319898179384622,1
0.0397697173559615,0.0218613706688698,1
0.0150365230768912,0.0131067802834993,1
0.00672202635028467,0.00587979877289949,1
0.00674102610985576,0.0086127048328449,1
0.0060312854909823,0.0103385942613074,1
0.0104145441747915,0.0228466484676195,1
0.0114062627388838,0.0421160243040963,1
0.00868532923374814,0.0429997036290004,1
0.01077944437714,0.047918179324269,1
0.0102644228654868,0.0513049770636837,1
0.00967447420484689,0.0503120291519763,1
0.00849649115417368,0.0512962320335377,1
0.00493433591889022,0.0370739809974136,1
0.00275262974377178,0.018828570350459,1
0.00183452054955034,0.0162468197410911,1
0.00263327298464353,0.020489825623487,1
0.00741550853113919,0.0375581892542197,1
0.0112033198228486,0.044827120736556,1
0.0108537814167109,0.0461621819657999,1
0.0121267348330551,0.0374473948933673,1
0.0129868293127716,0.0265940588021516,1
0.0110585838300703,0.0221922445304298,1
0.0091107469555024,0.017669562580574,1
0.00731233350349714,0.013361765072409,1
0.00551462311865901,0.0110706208697587,1
0.0049027983097216,0.00401082965174224,1
0.0128222314035999,0.0126748662950796,1
0.016579754342213,0.0174770487825584,1
0.0170334813476977,0.0144189783228779,1
0.0165243213348004,0.0173972391386835,1
0.0167791359528031,0.0197278357164932,1
0.0164089614325675,0.018869849117677,1
0.0165291079870718,0.017777361831199,1
0.0140495240688204,0.0154650272357937,1
0.00863767902827643,0.00823983893171654,1
0.0071764436770843,0.013237336891021,1
0.00724322821075012,0.00552546856776664,1
0.0160883461159653,0.0107064500318585,1
0.0158315811636246,0.01000089769056,1
0.014896328605089,0.00832785173237344,1
0.0147995952183059,0.00871352336396724,1
0.0161933297356647,0.0103196466940955,1
0.0146227003490799,0.00918406253053742,1
0.0286379007730531,0.00836755564517812,1
0.0418975712226351,0.00832330899668843,1
0.0369844673658772,0.00608443968892498,1
0.035994952989944,0.00690269084593347,1
0.056206440310531,0.00964805394565402,1
0.0799692713333165,0.0154480665764454,1
0.0853742932617235,0.0159922965665554,1
0.0731742359142375,0.0131942088361168,1
0.0664002714490336,0.0116133933847873,1
0.0522994253984673,0.00897575497921103,1
0.0499110251833341,0.0128600565849703,1
0.051124771814081,0.0165833491724532,1
0.0370479356302795,0.0147235800098425,1
0.0385281469328329,0.00156052656032293,1
0.12888037976698,0.011951460183557,1
0.136173160299942,0.00578701937757679,1
0.138591332355177,0.00526189447264334,1
0.134924510959876,0.00542065430595756,1
0.160601476912357,0.003529545358462,1
0.249821619419591,0.00777279817987454,1
0.264484428270977,0.00743646067734371,1
0.22680679863001,0.00614690376192376,1
0.182244249840257,0.00420858906047806,1
0.16065337506247,0.00641076839010197,1
0.148005377288993,0.00549157319733542,1
0.129943670019804,0.0104141046162106,1
0.133297115495647,0.0105565401071056,1
0.138395627397559,0.00969722477151641,1
0.147752577894782,0.0257218922717657,1
0.103611440269706,0.0198475159217628,1
0.0987056927565192,0.0154304372268402,1
0.0849549906422098,0.00961597832985878,1
0.117145454006988,0.0116544123571478,1
0.113401015934879,0.0114419596942601,1
0.133828966264337,0.0140293053506635,1
0.139285415235949,0.0154024619452684,1
0.157364909996987,0.0181790579276023,1
0.144430032157127,0.0189229968207317,1
0.123923215884535,0.0169099352004165,1
0.112513618840058,0.0159295495604352,1
0.099597181118642,0.0204134648475082,1
0.0185827987859387,0.00731056177091198,1
0.0114456868827783,0.046843869693248,1
0.00667136996153389,0.0460656469875177,1
0.00194433867643207,0.0439834636695523,1
0.00130546890412892,0.050390046711263,1
0.00131693617940186,0.0369507848507447,1
0.00223929298271426,0.0394609993209289,1
0.00224320167037545,0.0449082129325615,1
0.00302222129979944,0.0423840732113515,1
0.00443811469273209,0.0539408198679408,1
0.00821528022115654,0.0604087125331564,1
0.0126486554083027,0.0729184251499532,1
0.0124452444401362,0.0384459016652123,1
0.0122773792166954,0.020690570522871,1
0.0187727483386326,0.0276501999209111,1
0.0215832184735074,0.0313361759987989,1
0.0292205900387204,0.0400733600897293,1
0.0276800198262515,0.0316928418320017,1
0.021415100490495,0.0254679356212032,1
0.0227582601323241,0.0143357995212636,1
0.0280520071180658,0.0145020057152817,1
0.0267066330904943,0.0135019283531864,1
0.0176944721354675,0.0102121339758768,1
0.0121124357553621,0.00781160453836945,1
0.0156089211263963,0.0110062301257502,1
0.015556596846657,0.00745902713209537,1
0.0163319166083874,0.00821861749621302,1
0.0171544725654435,0.0089827544467892,1
0.0198042726565901,0.00989721373536496,1
0.0235746721132422,0.0247061673971196,1
0.0237204353359972,0.0167290283411874,1
0.0238848757395632,0.0157428909945629,1
0.0250435608307088,0.0156578730127098,1
0.0218352596296657,0.0154321637408658,1
0.0163748983310562,0.0108472467097703,1
0.0123314075332742,0.00961877766194029,1
0.0117355683872765,0.00867216358699238,1
0.0187565663751963,0.00710139664821237,1
0.0276002082914422,0.00893187836361126,1
0.0266475479260375,0.00825084751626083,1
0.0259514660289868,0.00932010559063799,1
0.0502183167378286,0.00810957060526759,1
0.0950884511706647,0.0145847146011884,1
0.105343190708415,0.0184799191760303,1
0.100552648074623,0.0202781178593865,1
0.0954237938438377,0.0194809280340538,1
0.0750521273049278,0.0149919834401616,1
0.0699826801367132,0.0152326015098786,1
0.0731161558378932,0.014616682288717,1
0.0540427346012922,0.00614903064303158,1
0.0449971174569388,0.00399520349818826,1
0.0450447229650792,0.00640509788538755,1
0.0683012765361828,0.0126298036076797,1
0.0853787776066477,0.0072352873889271,1
0.0912572734032329,0.00456333690145987,1
0.209588210128055,0.00646525577821421,1
0.291583604449183,0.00454213307493817,1
0.291998227035239,0.00463463018649309,1
0.234170514772767,0.00313368069453708,1
0.206360571569028,0.00307084870574463,1
0.20634953123998,0.00303609343369924,1
0.205223540298655,0.00303387616499795,1
0.224346998667728,0.00367118347464362,1
0.222398161020875,0.00392464773829783,1
0.205822802755084,0.00373378858739686,1
0.134909334275045,0.0050541989064922,1
0.0580022812690958,0.00603447717745605,1
0.0715481704295758,0.00944709511226565,1
0.0794942359587149,0.0102697385952017,1
0.10291364904251,0.0130779342823492,1
0.104796098921184,0.0137805430432456,1
0.134216622873106,0.0162422879621432,1
0.160239052091496,0.0187096588414096,1
0.192237927052584,0.0287587338103136,1
0.133775670462068,0.026481636152842,1
0.115415821370585,0.0332319042290324,1
0.10502150007745,0.0319923243877485,1
0.106101090495266,0.0357622778984135,1
0.0808694990651394,0.0383471894361108,1
0.0739839285728189,0.0463780574969541,1
0.0424970323001222,0.0337662118343545,1
0.0293241387657212,0.0424961499470115,1
0.0121731708671162,0.0410532846995591,1
0.00669005598835939,0.0459805538445523,1
0.00111914297578888,0.05774925188656,1
0.000748124701107053,0.138117743021928,1
0.000671408158441682,0.15224596818314,1
0.000250331743627905,0.120150745636791,1
0.000140818043554966,0.086306489916099,1
0.00037134759051366,0.111739199654235,1
0.000736701868497636,0.101403990607011,1
0.00273246585027732,0.0818255979488916,1
0.00334422826349013,0.0497843956901668,1
0.00438745251725075,0.0445738387000742,1
0.00592930384012429,0.0494540185886107,1
0.00837223490391481,0.0534918891279409,1
0.00964503566173846,0.0531342798745608,1
0.0122761309697475,0.0522289238186004,1
0.0252372680541384,0.048993036826171,1
0.0264074866503531,0.0297715906607622,1
0.03487242194131,0.0179842358683176,1
0.0487864029873843,0.0108119142903803,1
0.0417550985935765,0.0078450371993646,1
0.044041342494657,0.00747260379314861,1
0.0374540092956955,0.00551030743350912,1
0.0319046845170031,0.00391470425180264,1
0.0261923108850399,0.00245102308481824,1
0.0245506647619934,0.00161919325043629,1
0.0245137340246011,0.00172636210929771,1
0.0248438206712382,0.00212720117113135,1
0.0216348898093988,0.00378717966329313,1
0.014453650067678,0.00509947944628098,1
0.0117212319695077,0.00590211605501691,1
0.00911583344499379,0.00529890519191062,1
0.0113375163585885,0.00195049163260606,1
0.0190254741431405,0.00558237009577835,1
0.0207545685913251,0.00652216894631436,1
0.0210942158953905,0.00787964801306826,1
0.0196239818954848,0.00677780667074681,1
0.0316742081894202,0.00793516565424261,1
0.0610077203218847,0.0129517589891426,1
0.0628210747912374,0.0118936396038476,1
0.0627832429865105,0.0125411024893009,1
0.0653330405697986,0.0119068563367697,1
0.0744889391012387,0.0241817779243837,1
0.056967745855273,0.0123706502455295,1
0.04486350892344,0.00885764492093427,1
0.0590058486450634,0.00440932220969355,1
0.126459254557349,0.0113135799184123,1
0.143057155528211,0.0135952648589808,1
0.167205887307184,0.0161869363969119,1
0.180890976962152,0.0161678082301133,1
0.177710775906559,0.0144327786854275,1
0.171898778852836,0.00993544931787467,1
0.166825941115219,0.00966946655217052,1
0.137733353959356,0.00815501308971068,1
0.0685312947146836,0.00250931308967515,1
0.0598424456986235,0.00404185826862886,1
0.0540774990866529,0.0026579558781941,1
0.0583339724029332,0.00175275948539155,1
0.10090616938874,0.0058790016354363,1
0.10442613251437,0.00622722439301582,1
0.0979539289902005,0.00824092286908872,1
0.0905031358054592,0.0114180905470306,1
0.0950499025768542,0.0109947485393111,1
0.0879763995703047,0.0130895323735478,1
0.0733986879211697,0.00951038293187554,1
0.0686068642587388,0.00912780904378972,1
0.0605790686988736,0.00917724614024945,1
0.0447030588293945,0.00934772513944467,1
0.0572644473809787,0.00625648116726649,1
0.0696929885141291,0.00390595107902315,1
0.0767228469862058,0.00296494675900024,1
0.0739254249432263,0.00200037251019607,1
0.0700781066431179,0.0016963835402212,1
0.0714038256509518,0.00122592126174407,1
0.0822130153683375,0.00241769141394992,1
0.109185283434277,0.0044903413480401,1
0.129251466361219,0.00630701778441395,1
0.153484328363802,0.00788968798896913,1
0.184935068253978,0.0168994158059358,1
0.204604930665611,0.0247392584336936,1
0.211542199184349,0.0494467731451995,1
0.167363715947667,0.0488052511096447,1
0.129584996352888,0.0568293180821016,1
0.0690833239181232,0.0594956506096401,1
0.042414839181916,0.0412000369492262,1
0.0299740446040164,0.0357309279622568,1
0.0142214218959898,0.0216714658155206,1
0.00168644698610983,0.0367197899661937,1
0.00115924731236355,0.0649754854664104,1
0.00124308346727465,0.0629178050523533,1
0.00104461246941972,0.0624034043048581,1
0.000563965843960744,0.0504464625699932,1
0.000504021048321185,0.0378081769019991,1
0.000530656334605637,0.0378760329137049,1
0.000480719286036014,0.0223428831304346,1
0.00300384642147373,0.0484705635357784,1
0.00534291159461889,0.057998128655648,1
0.0091672331347948,0.0727001349057746,1
0.0191352175763461,0.0578421690080368,1
0.0246786054605683,0.0367824407960309,1
0.0226754884715336,0.0351051579159496,1
0.0242025178986373,0.0238623991486424,1
0.0253961426462595,0.0213014750008144,1
0.025159407141395,0.017177182798353,1
0.027186131946003,0.0187339724466825,1
0.0310687495285692,0.0207810276454364,1
0.0260563515227467,0.0114558439354971,1
0.0268962949688513,0.00781131453349239,1
0.0291780432949635,0.00873780273424689,1
0.0352244182350005,0.0113851390484998,1
0.0274231970246379,0.00381400886778355,1
0.0290053706635189,0.00540888162711539,1
0.0301009798646091,0.00571236031995216,1
0.0291708497163607,0.00643241397188397,1
0.0322741104200761,0.00664827607484483,1
0.0316344234218232,0.00448662314314626,1
0.0302241699565231,0.00455204988166487,1
0.029382963888664,0.00450165558867873,1
0.0376777079235049,0.00591811628012012,1
0.0322075317972782,0.00310911128144712,1
0.0342402278024295,0.00663723602754862,1
0.0345056822502499,0.0050469495684785,1
0.0379377367863531,0.00471319445682123,1
0.0530250491073343,0.00736797673331876,1
0.0599717714596975,0.00719802982215296,1
0.0588712712549586,0.00830867141764041,1
0.0685789623043906,0.00898705269975878,1
0.0732225797940467,0.00891768223266277,1
0.070074154261946,0.00907397443494677,1
0.0665400075078928,0.0115319537020313,1
0.0436467266670444,0.00667083618088981,1
0.0425247421743342,0.00336444822458828,1
0.126433602378282,0.013747807176827,1
0.167583503224986,0.0126402695756475,1
0.187208974482194,0.0142632762007544,1
0.18395037859665,0.00906365054253977,1
0.179394048917275,0.00846645070368791,1
0.197679347726168,0.0111268468051867,1
0.240045796143417,0.0130664072069097,1
0.216066897900565,0.00498535176102148,1
0.170280675342371,0.00167799884465492,1
0.184657537066365,0.00270154789521074,1
0.188608477479514,0.00313784040533257,1
0.204694453730159,0.00477165842466384,1
0.239869451539018,0.00627978419812414,1
0.228610206404404,0.00505803074111759,1
0.18080069715821,0.00296354778326269,1
0.187590799962112,0.00325297484113833,1
0.210378131593403,0.00149866333831961,1
0.287324685207752,0.00684795294860094,1
0.279015646863012,0.00921972151412294,1
0.264714591392387,0.00822661193803125,1
0.259454325501525,0.00862494733816919,1
0.234783081577593,0.00768443190719693,1
0.17501351284918,0.00504275734636053,1
0.169946066773833,0.00564959156556173,1
0.169135008835426,0.00639492002188471,1
0.114268069839931,0.00325835805693603,1
0.134596591095025,0.00952060104524228,1
0.112628455930314,0.00560870057536924,1
0.139295015001543,0.00468898954394975,1
0.245660382992016,0.0116668325943798,1
0.311691901082137,0.0133480449104549,1
0.324503008169806,0.0136201931144621,1
0.377856338375623,0.0156844720811577,1
0.344630654654757,0.0198919022936764,1
0.271216143136407,0.0164406223045779,1
0.18940197680716,0.0120114537776884,1
0.172083782733525,0.0111947518246583,1
0.0870911856908108,0.00717745140192357,1
0.0130749613345036,0.00951976075380958,1
0.0116880068933461,0.0132090465103932,1
0.0113640502571353,0.0233364631836286,1
0.00165980234482901,0.0137082089152102,1
0.000449209396671626,0.34148364632561,1
0.000308581769117105,0.16183386063694,1
0.000359830368093836,0.0854757352366975,1
0.000878815722736443,0.0624933391290715,1
0.00102818618094462,0.0206074059067285,1
0.00453631354560524,0.032337653840045,1
0.00982161501669363,0.0534029755275279,1
0.0144372658618803,0.0468301550571842,1
0.0322651151292468,0.051524865772027,1
0.0463699754263359,0.068257705386689,1
0.0533549715858114,0.0659609731390227,1
0.0620530444205593,0.0631166244233277,1
0.0683939238194706,0.0569089139313394,1
0.0752346228033056,0.048654181989639,1
0.0649006293491158,0.0249379203915119,1
0.0492489301073288,0.021762253998766,1
0.0353514442372281,0.0169472760977167,1
0.0194655727957348,0.00952434372127745,1
0.0170625589337638,0.00948566913393218,1
0.017292741385085,0.00843060402931454,1
0.0259917429815137,0.0125966732711222,1
0.0307687856658863,0.0172895833946494,1
0.0327055135900673,0.0179211262421555,1
0.0312342602743329,0.0264432134886227,1
0.0199841897577611,0.023890484352647,1
0.0198703758862661,0.0170019800371673,1
0.0196620384703725,0.00650224192465319,1
0.0243523578910177,0.00863108040570191,1
0.0243591119828859,0.00829285976147204,1
0.0219983675549859,0.00627333787265023,1
0.027706807510643,0.00765376291656646,1
0.0409050862681158,0.0117100590791837,1
0.054878123819993,0.0149558077983593,1
0.066203976090471,0.0192516647467212,1
0.0673907029709335,0.0128859385866654,1
0.0685866849895343,0.012929568329485,1
0.0709504187015047,0.0210667057269275,1
0.0525085264792858,0.0151411766175894,1
0.0420998896586525,0.00821579604280315,1
0.0381280195258113,0.00852755491822269,1
0.0660342730661446,0.0132838153162863,1
0.0760657654902813,0.00989991692719857,1
0.14086405503629,0.00580444573688746,1
0.23354860934527,0.00583883579548537,1
0.225149747800251,0.00587631949515312,1
0.206443686770449,0.00518566623706653,1
0.189669044298965,0.0042891838132959,1
0.17084713714013,0.00343237278735494,1
0.14558257211203,0.0016050404242432,1
0.141361203528917,0.001274532719759,1
0.143463554470574,0.000987084458979382,1
0.151971806604619,0.00163001597226501,1
0.161640251639166,0.00480032055544357,1
0.216136844821048,0.0129484964015933,1
0.196801777349854,0.0124037651983565,1
0.240927010779334,0.0150664585738421,1
0.260822751770714,0.0162092761983573,1
0.255378236800218,0.0150359926989998,1
0.196522432161079,0.0170322498648952,1
0.138115110432972,0.0113024574726877,1
0.0667839680915797,0.00234624022961628,1
