Activity,Complexity,Tag
8.66415557713648e-05,0.128155374476728,0
8.7334992492691e-05,0.114280892278256,0
9.32592676977254e-05,0.124221025751025,0
8.32045224282428e-05,0.122668705573021,0
7.31899377478972e-05,0.114453192762949,0
7.2555777378771e-05,0.134306131035928,0
5.36247519205335e-05,0.126740311306365,0
4.92536383149511e-05,0.155760933081244,0
3.62598278978922e-05,0.124433376796007,0
3.9073282765722e-05,0.107526503242402,0
4.12452978549588e-05,0.111860207155906,0
3.74605001179751e-05,0.132948293217677,0
3.87803887571453e-05,0.125814462608962,0
4.51551721696733e-05,0.131261959003725,0
4.47909962763117e-05,0.134172683256368,0
4.10350673654456e-05,0.131030808725702,0
4.29927949197609e-05,0.118390587498183,0
4.3766801306079e-05,0.100571216347388,0
4.52253001920004e-05,0.0940592177928813,0
4.47118073458892e-05,0.099023099903314,0
3.3173032114672e-05,0.0753007436247805,0
3.14434078917953e-05,0.0695405554275127,0
2.66333719954074e-05,0.0634587472610146,0
2.386811217477e-05,0.0616954350995807,0
2.63001066146505e-05,0.0645908979769428,0
3.39321226347579e-05,0.0691560034994011,0
3.2649118752955e-05,0.0740215448312875,0
3.13716246456466e-05,0.086912473368075,0
2.86116025479889e-05,0.0957533084490978,0
2.57269288515196e-05,0.103923773661388,0
2.29823293444806e-05,0.108127165854769,0
2.52163357755262e-05,0.143869971124859,0
2.3339095815704e-05,0.159143783724734,0
2.37436115531731e-05,0.170623598109017,0
2.45404670164112e-05,0.108594700403752,0
5.63423458455508e-05,0.121653110805074,0
5.75353427675829e-05,0.103249274187197,0
5.97700655684474e-05,0.100326179562078,0
6.19084923715981e-05,0.0995974513371115,0
5.99343539678463e-05,0.101194806124323,0
6.06595700114532e-05,0.102445727945718,0
5.40596997239769e-05,0.0838061803987227,0
6.50582646676439e-05,0.0872163321268758,0
7.09930746369189e-05,0.0810814791023393,0
8.9113550397249e-05,0.0948546622317536,0
7.08205153189187e-05,0.0864884327221408,0
7.43714116468707e-05,0.100042266332531,0
7.86388227578862e-05,0.104830283089946,0
8.28650933092548e-05,0.0988170073221026,0
8.56719856249843e-05,0.0912120789220347,0
8.52790124124743e-05,0.0942347705966426,0
8.1683418540704e-05,0.104565909522631,0
6.72834385253481e-05,0.0992332774683193,0
6.05466915475767e-05,0.105944455518623,0
6.42053730930066e-05,0.130172501527808,0
6.36668500448983e-05,0.13034006552599,0
6.40690234415779e-05,0.0693385866883432,0
0.000272479505873017,0.0926065080209168,0
0.000331696323970782,0.0799980937598333,0
0.000313132854735361,0.0770833478887127,0
0.000664535860086466,0.0573145645959922,0
0.00121595247932974,0.0503114372389984,0
0.00115494578312413,0.0385589328410824,0
0.00121386703951581,0.0391906492203377,0
0.00124548305938074,0.0327163064104834,0
0.00126166869843025,0.0283869303825415,0
0.00125732814414054,0.0274218304713236,0
0.0013135204584512,0.0271547928517186,0
0.00141883458635389,0.0279583796819804,0
0.00142988901367952,0.0252005164738661,0
0.00131958341606002,0.0303243544684449,0
0.000898798433755519,0.02899652073369,0
0.000845541517422529,0.0329816926051095,0
0.000702029092194571,0.0287491239008468,0
0.000663785452300118,0.0337259446692115,0
0.000678973772436288,0.0425913466158127,0
0.000652324617390131,0.0448276235147686,0
0.000538979185701896,0.0462010827181172,0
0.000621643265932486,0.0416211477355617,0
0.000828339457672987,0.0457251218548427,0
0.00085910166758627,0.0392038779262995,0
0.00103679429213957,0.0442081129174295,0
0.0011279536367743,0.0448606538940686,0
0.00105165654504653,0.0443971548314796,0
0.00101782439809312,0.0461030076469424,0
0.000962304564898909,0.0396434496782502,0
0.00153852104350203,0.0385541322084779,0
0.00167031220933847,0.032974680904633,0
0.00161736252854931,0.0362100925535674,0
0.00254549949576356,0.04072677593886,0
0.00275218059644576,0.0344191853407549,0
0.00220470310128044,0.0300437523498475,0
0.00171390598588119,0.0258921936576521,0
0.00156307868893018,0.0220427498045992,0
0.00249789873519161,0.0233283591339891,0
0.00293837611535933,0.0132473129597197,0
0.0031738947195063,0.0141216087061143,0
0.00302167474583455,0.0142871806604576,0
0.00376923846404367,0.013872968964532,0
0.00429673363178861,0.0124264063211567,0
0.00421840580535359,0.0136676003097122,0
0.0039411724157319,0.0128210363025917,0
0.00352004780652663,0.011113924579863,0
0.0039943487932779,0.0124356002488106,0
0.00406156448821332,0.0127437483456908,0
0.00955586336292228,0.0220143987589131,0
0.00851707509260783,0.0133357846922558,0
0.00867870664276446,0.012438116106077,0
0.00905517870228671,0.0119284024500191,0
0.0084677392154277,0.0131724028971212,0
0.00698289629664804,0.00643212188186394,0
0.0135739146982131,0.00886025285942708,0
0.0121837950114248,0.00685342059178208,0
0.0132264268937959,0.00717862151652858,0
0.0134789304768352,0.00683653530185705,0
0.0159589576211484,0.0076734297205683,0
0.016829428738063,0.00708954695264953,0
0.0167228126167902,0.0073908103678334,0
0.0164488763538761,0.00750484038182989,0
0.0165521217081266,0.00626714727965174,0
0.0169403476927241,0.00705869033720541,0
0.0144092661663417,0.00681762300268868,0
0.0143007393760885,0.00722209096201468,0
0.0124371479306798,0.00665767551232999,0
0.0102334030942939,0.00600720314872338,0
0.00967893968741664,0.00676170742244143,0
0.00917368004648121,0.0075775559037407,0
0.00927769258470318,0.00807833727225097,0
0.00947959077744544,0.00866191433521876,0
0.0121744444245341,0.00704385951399584,0
0.016690916403367,0.00868885015797863,0
0.014079643223347,0.00591850410130245,0
0.0207559649022395,0.00787721571492086,0
0.021575980476749,0.00824339806212017,0
0.0219314417002228,0.00641002858169074,0
0.0300220880878768,0.00847794205227702,0
0.0339373114456705,0.00997484610358505,0
0.0354293173686969,0.00797406377930338,0
0.0396989347336386,0.00801584640902917,0
0.0564883576928778,0.0128661171792475,0
0.0652207644032532,0.016838902993137,0
0.0674578935917495,0.0183100219329789,0
0.0778474605781729,0.0145893510164836,0
0.0943468399285915,0.00863317399858481,0
0.111788571399739,0.0103509043733149,0
0.111137414705677,0.0102548205941861,0
0.100092563002941,0.0085285317319528,0
0.0886364121049678,0.00777120585496321,0
0.0975098955380074,0.00892730634226994,0
0.0867677409201769,0.00757272413737251,0
0.0809137006080478,0.00622013354209349,0
0.086025389614243,0.00649839783841012,0
0.0671791183937224,0.00589421609598343,0
0.042854782528478,0.00598942144441349,0
0.0573748882130387,0.00937933366739651,0
0.0561637288495938,0.00689715144164857,0
0.0561556774183841,0.00843956908250689,0
0.0554158318525151,0.00905274001010035,0
0.0619206892113282,0.0101939103104724,0
0.0608503400117431,0.00883258667480854,0
0.0599132685082623,0.0129506884723088,0
0.050596928197294,0.0117548405282394,0
0.0460380644033766,0.0118292407357091,0
0.0548770951805866,0.0146321121692737,0
0.0463800547407864,0.00943827552664323,0
0.0407154192932982,0.0102763015343053,0
0.0400728713608022,0.0100548469386146,0
0.0388756019989316,0.0094661690924586,0
0.0289214921404289,0.00695721947149884,0
0.0263186039295384,0.00701514359081524,0
0.0281855321226913,0.00732736066210854,0
0.0296572734843527,0.00770779109918887,0
0.0296801336970204,0.00821774146532788,0
0.0138032374384855,0.00538271586794111,0
0.0121624338019531,0.0103582887001133,0
0.0117120434166552,0.00906278783005821,0
0.0132023147138712,0.00998705590894083,0
0.0134166745886557,0.0113196078405418,0
0.00885582695397638,0.00956180708791523,0
0.00530565831344633,0.00715964421192406,0
0.00750079011930034,0.010099978888728,0
0.00957167258132252,0.0114874805672896,0
0.00985721385474834,0.0116836311931354,0
0.0105983930411948,0.0112591449249802,0
0.0084018181463693,0.00970245436126069,0
0.00794684908954927,0.0114165147435123,0
0.00784937020226089,0.0147158483702222,0
0.00382304437172003,0.0116662316530938,0
0.0036147149833922,0.0126922508522508,0
0.00393155788247892,0.0151709868913673,0
0.00466562505093544,0.0193912405444311,0
0.00387903025353634,0.017922983541783,0
0.00588967515627713,0.0191088198704826,0
0.00605250659987794,0.0132770170547038,0
0.00698079383980059,0.0132835688658349,0
0.00844310856187152,0.0121955064055092,0
0.00827516692797062,0.00980665000465024,0
0.00749425515263851,0.00829925497875221,0
0.00942264516110385,0.0115718312934722,0
0.0100653416194255,0.012176926981868,0
0.00973132031249441,0.00807488074000918,0
0.0300544738482498,0.0117602379633696,0
0.0384441866371675,0.0124924504541856,0
0.0661285896418055,0.0168043709890001,0
0.132788302494115,0.0268133252564854,0
0.186623855783139,0.032795680578005,0
0.252225128191078,0.0420683488409047,0
0.275429713582209,0.0385834430151907,0
0.250502246474253,0.034174494442128,0
0.224195720532549,0.0297968357405344,0
0.153992858723025,0.0239602235156419,0
0.151608432694614,0.0247758405033867,0
0.128675733187913,0.0202655324927071,0
0.0815047446702165,0.0164307145971318,0
0.080457805942916,0.0129866895768188,0
0.0762176782744032,0.00997253022646063,0
0.0932877684981118,0.0104008952048178,0
0.105007424785446,0.006177273726538,0
0.117630575369205,0.00774781024204691,0
0.137024160821966,0.00916072436114226,0
0.156093296056178,0.00765024112142045,0
0.160849060037221,0.00713260928823135,0
0.141837963091833,0.00667710052869312,0
0.150037322897079,0.00644085482747354,0
0.145615733404872,0.00610258988974406,0
0.186307777960518,0.00843441385626383,1
0.149148036048643,0.00591859993900764,1
0.134572461405497,0.00725447126667736,1
0.133788476043506,0.00744053258162181,1
0.130487684749426,0.00784532304249125,1
0.0942818905417353,0.00856901955302756,1
0.0582334349447773,0.00586165270707468,1
0.0602344803744454,0.00505778119505382,1
0.0784370198052763,0.0068025276818848,1
0.0671775040479973,0.00684773163769458,1
0.0709432011196393,0.00671848408130249,1
0.107164491628633,0.0146808703100939,1
0.144000804945439,0.0201830187284656,1
0.171354802591152,0.0227950688358335,1
0.178302153670162,0.0200270602917722,1
0.16254930476371,0.0159277406498503,1
0.156053660839308,0.0149538412142848,1
0.127520135005592,0.0138635061895285,1
0.116191624098873,0.0145262973064826,1
0.0556415075223487,0.00762446525505924,1
0.025640504608028,0.0043739020869944,1
0.0258074794057865,0.00434372757454969,1
0.0259501767381862,0.00394987923344809,1
0.030622345918589,0.00534690756485675,1
0.0353865552950762,0.00678161735629083,1
0.0347556377390516,0.00944385691261308,1
0.0569856293804777,0.0212015839928593,1
0.0712590766514818,0.0235583929423665,1
0.104165652279297,0.0232708015030308,1
0.0954926654924896,0.0159597645683874,1
0.0943885496855012,0.010886238145439,1
0.081474015025227,0.00644455752178411,1
0.0696264350804418,0.00332792199299088,1
0.104287716296367,0.00447726537634455,1
0.101007367385233,0.00379496143124406,1
0.0934418469062231,0.00334288296385554,1
0.0934063864571719,0.00344004907440057,1
0.107879321621205,0.00406587294588547,1
0.153550650815534,0.00655248300140504,1
0.14407730124892,0.0071030282889293,1
0.159522385193441,0.00956300897769593,1
0.170957728920215,0.0134856782605985,1
0.213207730239222,0.0193628070056197,1
0.388267441977157,0.0371914511131108,1
0.345751858126708,0.0114654298025113,1
0.332290581372018,0.0113097329910674,1
0.301730035190525,0.00770683110286862,1
0.299562377576565,0.00807439667075122,1
0.323668422703952,0.00851780411989769,1
0.356143110504931,0.00842397039055775,1
0.348014389208965,0.00828216599883363,1
0.337048974793682,0.00776651180291802,1
0.348135110178401,0.00834590939017004,1
0.300294358907531,0.00588107845811431,1
0.349391439993592,0.0105080994458083,1
0.267127445572221,0.00365113152863445,1
0.364968655904865,0.00699777425995558,1
0.4286773439827,0.00740133350251591,1
0.429293838857359,0.00772996469491686,1
0.389804628340966,0.00656849476257291,1
0.38457896726996,0.00630087421085968,1
0.404578285544663,0.00661777394448178,1
0.430330489082945,0.00770836620343242,1
0.452361485847517,0.00894193615752713,1
0.251470834297382,0.00802595861489491,1
0.0617016942437477,0.00600949479053004,1
0.0628701742772113,0.00773509966981221,1
0.0615201491389734,0.00946107927285987,1
0.0515370811163087,0.00971708289758687,1
0.0481274299044078,0.0154499550967563,1
0.0127398424609987,0.00650719738778174,1
0.029480735345668,0.0176232206035212,1
0.0623616080703234,0.0258814849357193,1
0.0792924239436935,0.0297359086390503,1
0.0942101843950508,0.0302093179609337,1
0.0795704862809437,0.0231379093063312,1
0.0740280543445335,0.0227162632188613,1
0.0663398907096095,0.021058704894769,1
0.0546284472414641,0.0170292257033803,1
0.0314822220372049,0.0114212837796874,1
0.0136107933228828,0.00814700702425641,1
0.012639518255337,0.0064593000591438,1
0.0139841966218171,0.0071127575363611,1
0.014818616373801,0.007062654188313,1
0.0124035164361824,0.00656941690330278,1
0.0136756543490646,0.00797401789157656,1
0.032991427061055,0.01660518822884,1
0.0371992189277014,0.0156707919816728,1
0.0362534913942729,0.0166739647422618,1
0.0295880715968887,0.0150197113909669,1
0.0285510469816138,0.0144646554567601,1
0.0505655059860181,0.0131068718085991,1
0.10070684376587,0.0206435170048477,1
0.107891890730605,0.0230944820581127,1
0.0957017100195788,0.0169230413889019,1
0.0869521867467616,0.0154814399892095,1
0.0883860956834939,0.0122661793619871,1
0.109178261035869,0.0140769721665256,1
0.172212857750506,0.0162648478308588,1
0.201193484720441,0.0105619870527467,1
0.167495356981789,0.00860850546017371,1
0.159973242091018,0.0093090127446536,1
0.178299004027878,0.00907020030275909,1
0.201683520052433,0.00951873410340076,1
0.196445322199678,0.0100211280273762,1
0.177401280642737,0.00945664403449348,1
0.168006215024744,0.00771913076511222,1
0.157102289123201,0.0072820764381194,1
0.154509040422135,0.00773950916142968,1
0.152136619998466,0.00752102860791127,1
0.159154845319718,0.00806318897429451,1
0.132202268963634,0.0051644826211268,1
0.131166087648736,0.00525085598065949,1
0.152391728073507,0.00542525202847512,1
0.170235083791862,0.00459873932369399,1
0.192777273016845,0.00575092325665459,1
0.189346709958431,0.0061476601249517,1
0.182474130360534,0.00628172754744683,1
0.185985466321536,0.00640449821896915,1
0.206003416444176,0.00747409583088148,1
0.187678200340815,0.00590536822006016,1
0.183595335602496,0.00682413456925653,1
0.190766456933408,0.00722916738219605,1
0.172314923205961,0.00870304380406369,1
0.132920632019671,0.00618426273667309,1
0.209452587875765,0.00948452010424455,1
0.273133916004166,0.011424845150579,1
0.316223169327781,0.0130249403003754,1
0.367627872430308,0.0159645250049983,1
0.301449588897217,0.0177723234066354,1
0.21337015649102,0.0149019671459227,1
0.20798388160986,0.015102789541728,1
0.22615785447632,0.0184063610850037,1
0.147365171090811,0.0133136607692824,1
0.0973339180100611,0.0159089839515449,1
0.151060262007476,0.0230677960550356,1
0.17638610543679,0.0263275744689831,1
0.173107008429043,0.0253274376301913,1
0.163787074413775,0.0221415212206252,1
0.14464723732681,0.0231921734251637,1
0.0592991450361249,0.0156917701227184,1
0.0410926544201031,0.0128121930692113,1
0.0337672014323222,0.0129612000039114,1
0.0347179092766424,0.0120639053884739,1
0.0337547821365236,0.0168404458798379,1
0.024450937274651,0.0121511870553532,1
0.0192674820674558,0.00885540907527104,1
0.0172892133366535,0.00796967572269996,1
0.0201638895204062,0.00962343676845746,1
0.0220808403678865,0.00857440796883615,1
0.0241281777498173,0.00955091187736281,1
0.0227834852568104,0.0100193048114688,1
0.029964055540088,0.0162778167592906,1
0.029618523276737,0.016870035904503,1
0.0524350503841769,0.0226784182212519,1
0.0841823663730054,0.0280855412136447,1
0.134012169339446,0.022982803573479,1
0.113718662199517,0.0156546165700863,1
0.111835910229145,0.0128761556820485,1
0.102973135135063,0.00873048814774063,1
0.0947652842347562,0.0076644625124097,1
0.0827297931680511,0.00588114024371577,1
0.0975705379838874,0.00645836206821949,1
0.0964274719974437,0.00469400107255382,1
0.10997276915218,0.00535339830195274,1
0.112765016737253,0.00511494894959967,1
0.126864213398157,0.00720714408066711,1
0.1342163681576,0.00910731717191407,1
0.200886179965175,0.0126828376787417,1
0.293333994880564,0.0211280656097589,1
0.261664165160125,0.013421848510052,1
0.245944129649125,0.0138894531007856,1
0.17385742022352,0.0106148220427171,1
0.172251464673919,0.0133624745435544,1
0.180191421459742,0.0110289754594386,1
0.174329950191801,0.0106223080554328,1
0.17376248849427,0.0100881618400198,1
0.180102511991535,0.00960256428330953,1
0.1952138812905,0.00669586588031166,1
0.289689771496958,0.00847661143662677,1
0.286360643861857,0.00782635870221584,1
0.283879952711953,0.00680801858720049,1
0.269941421829867,0.00625027736982851,1
0.229353952826465,0.00518163246073093,1
0.222987251212856,0.00561209646706792,1
0.270638903236947,0.00739210074942885,1
0.288916073605518,0.00829558291173306,1
0.272513653524157,0.00822391437533506,1
0.265304081726268,0.0119985615712035,1
0.220349381070077,0.012770000928014,1
0.19321153770121,0.0165424719885325,1
0.169519515349094,0.01239512185209,1
0.304870366141085,0.0174797293136713,1
0.443702426669587,0.0233044662613151,1
0.549837353802386,0.0293510810175114,1
0.595960946970241,0.0335897600860089,1
0.595493374017832,0.0329684361432866,1
0.533015470823924,0.0261778146857204,1
0.436291539152136,0.0218594138461206,1
0.295797153057429,0.01675307238963,1
0.1760791524989,0.011404473571987,1
0.0331040627964747,0.00178884598139694,1
0.0419810200611564,0.00453880300188366,1
0.0486216012562173,0.00403557052753599,1
0.0503312929354757,0.00431766452922215,1
0.0501504428288749,0.00435592702157488,1
0.0509082164142096,0.00493981244335457,1
0.0488934581127181,0.00565404758252784,1
0.0495366418591819,0.00571757359278457,1
0.0568043691932722,0.00654114018253979,1
0.0576934344534743,0.00727286292913746,1
0.0553644614687976,0.0091640753887118,1
0.0315335997801272,0.00812717738246177,1
0.0306947958910058,0.0130468223412156,1
0.0333636839492076,0.0109872408926701,1
0.0343209122551635,0.0109064664286231,1
0.0248555697166944,0.00705684802540007,1
0.0368031520550643,0.00896069046355917,1
0.043948067181339,0.0137979042708562,1
0.053473565021535,0.0162625403012631,1
0.0751530509588101,0.0205184044078718,1
0.09371424585657,0.0193993590908679,1
0.0913520136482033,0.0178709865460248,1
0.0856438073709213,0.0193628864687633,1
0.110665676510501,0.0210236350266925,1
0.124470015095369,0.0187834948525755,1
0.0898835006311833,0.01220792783325,1
0.0880814876788462,0.0103656977447243,1
0.0921815775726905,0.00574888881636314,1
0.154544883579898,0.00994767696228478,1
0.167475202374415,0.00745403616517454,1
0.173393989155799,0.00744977426663285,1
0.176454515557486,0.00767660083759921,1
0.176323463896411,0.00738408279711196,1
0.141979240422424,0.00649812556038894,1
0.111423394056474,0.00493288674219426,1
0.126229799605894,0.00494258249773421,1
0.116938983001133,0.00448545284941682,1
0.17571671994041,0.00754097929923338,1
0.233265981191118,0.00793360868252394,1
0.226035799185213,0.00834277409319783,1
0.370808294655862,0.0125798044392382,1
0.3520761564391,0.00900955409542162,1
0.335181866714672,0.00829181620158038,1
0.348163785930989,0.00836173195885798,1
0.317540129953369,0.00796625831261186,1
0.336308691867462,0.00853502927568614,1
0.293331833025965,0.00689500605005755,1
0.316115485456969,0.00871810984832545,1
0.292343477131585,0.00716794735095031,1
0.290993400523931,0.00772046735205567,1
0.186209187484879,0.00543782029576435,1
0.176929111865258,0.00523047435348745,1
0.27021999680318,0.00879155982594813,1
0.267200472843803,0.00819803505761824,1
0.278134747562907,0.00891152507526785,1
0.222117622902109,0.00897342760881045,1
0.171089148739959,0.00740816278353584,1
0.166669438956002,0.00734965980419428,1
0.152731484318027,0.00897724825246196,1
0.134526195868071,0.00701247526404328,1
0.127426139149643,0.00419968102275509,1
0.209128687639255,0.00949464958266155,1
0.184747907951812,0.00779993349686093,1
0.186223505264221,0.00816057486868053,1
0.24285779471662,0.0106210059200581,1
0.271450044985257,0.0109329949217352,1
0.241906385675772,0.011056830967014,1
0.265613278136974,0.0127694268759146,1
0.325822334794869,0.0144374153544884,1
0.269394460338417,0.0150621673780914,1
0.193080045898,0.0180510455585762,1
0.277668675868763,0.0260145586952567,1
0.223619575617633,0.0206509196396805,1
0.134002217531221,0.013474228023432,1
0.108766186649668,0.012803224682567,1
0.0852736007130385,0.0105048293396349,1
0.0724473199782308,0.00886019934905644,1
0.0578458989284881,0.0080471571367332,1
0.0601794365821596,0.00691201252130877,1
0.0596734262449722,0.00631067489630215,1
0.0610175606675259,0.00699267022446016,1
0.0506888327752108,0.00495610873559244,1
0.0569193230398324,0.00819633772267267,1
0.0525039737838489,0.00681785256616581,1
0.0648282072587567,0.00659435591965624,1
0.0722839205110567,0.00700380373442999,1
0.0669235006342312,0.00663958465334662,1
0.0666188529243637,0.00654212148447343,1
0.0782811461264566,0.0081306559024095,1
0.084741469688348,0.00921170170726776,1
0.102518507692062,0.0129172299667122,1
0.0898118518038353,0.008653873821401,1
0.0962282907992681,0.00729540613048251,1
0.114641305595228,0.00926518941863115,1
0.105274598031022,0.00643236339456527,1
0.0974645883797249,0.00615529388437546,1
0.081116734327886,0.00493637777394064,1
0.0896096620085979,0.00583936004910686,1
0.0894058062566677,0.00642492015601399,1
0.128558511699994,0.00729669196222158,1
0.140555474872788,0.00744802712818777,1
0.234103774677663,0.00975522240943619,1
0.320417807021994,0.0131180549074717,1
0.459007451575216,0.0167399624562239,1
0.446723452829171,0.0142441913170802,1
0.401486447921404,0.0132559837661843,1
0.376100520731786,0.0130538076566431,1
0.331520706129392,0.0116804606292917,1
0.2889897409966,0.00936741821043138,1
0.286869490220374,0.00864640882537138,1
0.464619205347643,0.012114189877699,1
0.528985778066448,0.0127910625450275,1
0.523189887036422,0.0118773543947453,1
0.477491833900996,0.0113130984876166,1
0.502696697982629,0.0113321372809179,1
0.527730220951666,0.00994348094227285,1
0.482956394399164,0.00865138789948655,1
0.423429133377468,0.00739881722927348,1
0.480346028132934,0.00899490273090311,1
0.505199531937718,0.00706229717229211,1
0.432296461124286,0.00726210043231883,1
0.359457424351461,0.00597129279667968,1
0.355545076084617,0.00669329786064824,1
0.336600982099793,0.00557531808631694,1
0.36137366044583,0.00784110552543243,1
0.301719980879011,0.00656337199637963,1
0.313990808755095,0.00719502529239781,1
0.3047179235121,0.00687708666309912,1
0.22254760996823,0.00496791133272436,1
0.228516383147632,0.00894649119768748,1
0.198753951597225,0.00467088867004759,1
0.311313528571378,0.00865028543350646,1
0.386518381570926,0.00811427129697458,1
0.389941379011442,0.00880784183275537,1
0.342908902725731,0.00840600600504365,1
0.345154097401107,0.0102055165166721,1
0.334425010944202,0.00970464468411295,1
0.32346655252179,0.0101037493078645,1
0.344671031039688,0.0106891103768303,1
0.25008372343209,0.00856129459157001,1
0.283137890665036,0.013813839039455,1
0.297316559860966,0.0153606504515,1
0.340969893338828,0.0238041455162166,1
0.347197923437864,0.0323959806139938,1
0.297197679851129,0.0295942005158952,1
0.301839744770243,0.0283377073950004,1
0.234138655324643,0.0330490949716493,1
0.116396659524677,0.0223010555003597,1
0.0769157062827061,0.0247446794773363,1
0.0442936796274048,0.0194261030073069,1
0.0375915374841571,0.0203851213596667,1
0.0299064871448491,0.0188846324168366,1
0.0248466498110788,0.0153285838221866,1
0.0261463140106319,0.0171059058916124,1
0.026958532050802,0.0165816964633926,1
0.0293181589206218,0.00998666603757206,1
0.0634229860151383,0.013803345832219,1
0.0675706545826769,0.014647404059278,1
0.0672785706063477,0.0135962105877239,1
0.125717525234475,0.0165613436578707,1
0.147844695050442,0.0122541451703895,1
0.15142432393498,0.0103679021967606,1
0.259571194638491,0.0123452646225042,1
0.34833675544303,0.0135662215827073,1
0.28831171853533,0.00773770771442731,1
0.301075942610613,0.00814432117147555,1
0.318753307347333,0.00496305270346486,1
0.386223073394922,0.00658855427654102,1
0.381172192832835,0.00552999162116941,1
0.392141462870258,0.0064053856411798,1
0.388561379896313,0.00594404055643398,1
0.383906992691492,0.0064220642389354,1
0.362342401851789,0.0071155617493881,1
0.30507026607466,0.00542403021956912,1
0.359980423165044,0.0076223865065454,1
0.306977778184383,0.00444374030443014,1
0.350467168834576,0.00700565855864953,1
0.313923024412525,0.00597206094488813,1
0.31251653981384,0.00665975388331659,1
0.42653501146889,0.00683162100931417,1
0.668064168815732,0.0142558711696248,1
0.70642744105476,0.0140685207396262,1
0.683603064815664,0.0120197783476836,1
0.619424108502156,0.0130599151933238,1
0.325728293487465,0.00649358233476735,1
0.274732575004404,0.00842456322103679,1
0.335704253429411,0.0059894525443634,1
0.461377714385138,0.00832545709226662,1
0.45976073694567,0.00539593526438676,1
0.501621951278166,0.00777459632126648,1
0.534225217836156,0.0078478319315062,1
0.518452508613975,0.00623503015947594,1
0.520946116604356,0.00601332761850114,1
0.653886599195469,0.00736876161396887,1
0.709476845210612,0.00606465840977504,1
0.74863941329931,0.00603358175889952,1
0.76370449552945,0.00736458036114172,1
0.566037923345849,0.00496276046404666,1
0.798433323297695,0.00967118912596125,1
0.786624696900668,0.00705940092984226,1
0.674440318535811,0.00607129218755425,1
0.684206962526627,0.0066910514680429,1
0.827181390930325,0.00906719549687653,1
0.627410969744238,0.0083013116296094,1
0.435935985527032,0.00771987983773326,1
0.48088913553298,0.00909592371262905,1
0.479352658058712,0.00968258029432914,1
0.385787115511172,0.00908319991807952,1
0.369367680436518,0.0106642531787528,1
0.29753348701065,0.0196337549365673,1
0.220061830804776,0.0158252297219148,1
0.179621096195909,0.0168486810928439,1
0.20217943091983,0.0216086304982983,1
0.222689654473042,0.023170178472318,1
0.224468026488732,0.0232034148739127,1
0.23517147768742,0.0223698381228625,1
0.278684188670813,0.0341845958780875,1
0.277155598265734,0.0409560332453824,1
0.256862117443133,0.0383663110165284,1
0.146286385482095,0.028725517027652,1
0.0515049688694429,0.016506875126052,1
0.0321517227443135,0.0130556832288916,1
0.0354347302793632,0.0120011253801173,1
0.0464994495047555,0.00467931795466704,1
0.074184232955235,0.00605377971609672,1
0.0705554814342868,0.00654509253394599,1
0.0711364086561591,0.00661758038750221,1
0.0663053454828078,0.00630167234094401,1
0.063387028084789,0.00639686562686705,1
0.0635994895124343,0.00627639659180113,1
0.0708663619634808,0.00754584667452538,1
0.0717200318061573,0.00803184681089933,1
0.0499499259378823,0.00634398882839981,1
0.0444662622514765,0.0133295774430913,1
0.043643154112359,0.0201678260697982,1
0.0557167589174481,0.0291289983622824,1
0.0706014916954078,0.019480429898802,1
0.170504403851034,0.0217707393231543,1
0.161288066517082,0.017955923591552,1
0.211197304192987,0.0218329401559089,1
0.229420677256171,0.0122840584383497,1
0.204716110199956,0.0111858058871997,1
0.175780698662413,0.00905239279387787,1
0.161846984167992,0.0065569959120552,1
0.220709058055178,0.00736259587228876,1
0.231386444157018,0.0048572638349574,1
0.241368690779777,0.00405494283782317,1
0.241224552439096,0.00365177242105517,1
0.247185875303312,0.00407205235828055,1
0.223019484149347,0.00356942562420079,1
0.20543283019372,0.00449278311643211,1
0.216475282195213,0.00357695698979188,1
0.341882821202731,0.0060853836640102,1
0.293371786464125,0.00545411110279761,1
0.271847494161554,0.00461900553938066,1
0.290542282940546,0.00641215638994804,1
0.270708894923924,0.00810408500465189,1
0.264902228081452,0.00947820170138312,1
0.254030625377859,0.00898867460643657,1
0.32295302785264,0.00585750480801109,1
0.864827065582907,0.0112483814250335,1
0.888637597037074,0.00765960620985754,1
0.879714184360886,0.0073022893886497,1
0.961338633160386,0.00726135966509962,1
1,0.00819874569878702,1
0.793010396637974,0.00531412016856306,1
0.773061988154999,0.00528407703525796,1
0.791870514687041,0.00526768048464833,1
0.965925200773276,0.00644408717740059,1
0.945678384256628,0.00827023892052825,1
0.478977409553477,0.00392678484238808,1
0.496079373154533,0.00801714233552532,1
0.496606039204333,0.00791556574991522,1
0.360191082206875,0.0075875199370792,1
0.238332716319862,0.00467028229394145,1
0.209912365978922,0.00588943946515435,1
0.203786578153874,0.00600105260957755,1
0.222175857058434,0.00706784564620103,1
0.157850959742641,0.00516667503014002,1
0.166278706555436,0.00662874570536765,1
0.176783640203841,0.00629283317709906,1
0.176449050792079,0.00763888547801004,1
0.214914413986271,0.0122318714679168,1
0.247236088032265,0.0148358653300113,1
0.244205223266489,0.0161990798680872,1
0.257906849042659,0.0182334026403153,1
0.292100145503064,0.019627172204921,1
0.245636698927831,0.0254335974956669,1
0.212306708526219,0.0256900519154158,1
0.0730739094304666,0.0123112006127773,1
0.0332588121530155,0.0260144767351208,1
0.0466600145219656,0.029627106001326,1
0.0504877164425953,0.0273016796851815,1
0.0591933408605612,0.0262411609019522,1
0.0927352922768975,0.0388788635748338,1
0.117455825670525,0.0443354926967538,1
0.118521657045169,0.0244636071095032,1
0.0996678768201169,0.0198994599505708,1
0.0982545319824057,0.0192143273758847,1
0.0809617079713856,0.0185521194798155,1
0.0460238785907969,0.0100158096899145,1
0.0421215163258354,0.0104949212133778,1
0.0356190551740118,0.00897461774788394,1
0.0354409164545311,0.00987724564124458,1
0.0364003873672562,0.00720408397314613,1
0.057807954756368,0.00938348345828434,1
0.0603333771261344,0.00582552760014056,1
0.0641902818356179,0.00549113227744561,1
0.113628619086635,0.00697100553872794,1
0.132392294025933,0.00497529466834492,1
0.128315645393486,0.0047573890675932,1
0.134075306840462,0.00500888050609372,1
0.141845806413223,0.00500716014671648,1
0.163013661270888,0.00655181626526183,1
0.183781213113666,0.00783465481030622,1
0.191406976812546,0.00672474593412022,1
0.169362653936545,0.0082860048339197,1
0.117059981928885,0.0055356193400832,1
0.120822673267644,0.00620956827648992,1
0.178123353453198,0.0133301514303276,1
0.142858307377482,0.00806133027100282,1
0.140977752144434,0.00622190812493791,1
0.130575278288042,0.00514351715448758,1
0.135561913802044,0.00550790265006407,1
0.134057132010304,0.00380288571237024,1
0.189664133981168,0.00690059083376301,1
0.154910885329612,0.00353592444830292,1
0.203391860679177,0.00524444919950252,1
0.231257154534112,0.00631695397225827,1
0.200937152187687,0.00384524099211963,1
0.322542815663282,0.00782924879349064,1
0.36645722002292,0.00903964025692582,1
0.578134598636837,0.0138224510538476,1
0.566325145335656,0.0112319070531602,1
0.534198057883589,0.011826890581463,1
0.534121027111505,0.0110697406431004,1
0.611673314305611,0.0142308776585725,1
0.582305462364138,0.015101043073642,1
0.575585858981531,0.0147153626370124,1
0.484319993174268,0.00998127143537558,1
0.498034713875285,0.0105548479973491,1
0.465221568968728,0.0104688730116413,1
0.513305781105915,0.0099125852567651,1
0.547758717320778,0.01055505032334,1
0.506393635534109,0.0103764690647059,1
0.443223323614441,0.00888195912069495,1
0.458969824459147,0.010541854035213,1
0.419023472521436,0.00912524501354799,1
0.268532500467877,0.00637519093202643,1
0.214522899902721,0.00737204940176939,1
0.227653975106837,0.00795924626554053,1
0.244406094731451,0.00670811119443541,1
0.241543296574581,0.00906019423597329,1
0.189495835991473,0.00824831204596408,1
0.259257782777051,0.009479163308388,1
0.313603962458465,0.0135879418274867,1
0.431912787104658,0.0156581044902988,1
0.440311251979647,0.0167218939025979,1
0.461302318335177,0.0161804830784847,1
0.457223763552503,0.0155056973442144,1
0.487635415043713,0.0156179211918863,1
0.388760707644122,0.0158474202475423,1
0.223954158588568,0.011150168755666,1
0.155089264784455,0.00806453790343447,1
0.151544277259388,0.00931060150976491,1
0.161674373822456,0.0114646452751725,1
0.159172661071292,0.0126105718906366,1
0.227426638128752,0.0172278961137957,1
0.236277420549477,0.0129884738608655,1
0.231899293576757,0.0132230729062201,1
0.248011164382564,0.0136820336133623,1
0.239393405858633,0.0151822969021075,1
0.196247019308441,0.0126905359504074,1
0.16735772220711,0.0109478458099908,1
0.144041864026633,0.00907008191330602,1
0.141788208032999,0.0089543412240314,1
0.16657940316072,0.0103965664451157,1
0.217341554271756,0.0129993287384143,1
0.174048392462095,0.0168809530301711,1
0.0993606015977164,0.0123462216357096,1
0.090238482216948,0.0143996489172737,1
0.12291948826722,0.0098370222548682,1
0.137586706097645,0.00824695440412671,1
0.135223398149647,0.00826399657182671,1
0.12512510186934,0.00775187507387853,1
0.111702412731343,0.00739026767915449,1
0.10861097227323,0.00706126814721961,1
0.0845405150438785,0.00562515315352991,1
0.0735986681607376,0.0048534115298672,1
0.0852283448915593,0.00524558957571154,1
0.0650082715957497,0.00257914511504797,1
0.051839120894364,0.00494466162552454,1
0.0410636860652228,0.00671192164972437,1
0.0404834637021726,0.00790850947899706,1
0.109208884099396,0.00935968233866865,1
0.13271407487567,0.00683064243042756,1
0.137395142152713,0.00632951867461022,1
0.146050529171497,0.00581022135479826,1
0.151290654994507,0.0060552047545822,1
0.162014249216439,0.00668042877431467,1
0.162938795134374,0.00674123428754278,1
0.141695299463431,0.00506328164354462,1
0.229149017973913,0.00709154339573099,1
0.27619873817289,0.00736031739976767,1
0.258210765151561,0.00672545409648644,1
0.265935517276827,0.00883088264533621,1
0.283388099238399,0.00725124908334521,1
0.360749051211227,0.0108208074861809,1
0.335499223487542,0.00739579086486556,1
0.276311449183859,0.0058605563054028,1
0.298038178568369,0.00684124746098743,1
0.301964617296987,0.00539798690825295,1
0.270105301629993,0.00632967394075791,1
0.23803378649756,0.0050096848390058,1
0.380973113104999,0.00955794154480247,1
0.385266528094609,0.00840746467376437,1
0.399443245293293,0.0113560634038721,1
0.495510456408003,0.0123007108519314,1
0.489287856772319,0.0120844378299683,1
0.480683148368431,0.0088887463543373,1
0.564667189997182,0.0103468292539266,1
0.50437851776692,0.00784594691556354,1
0.452915347245346,0.00676764521907029,1
0.351209123147631,0.00412474507514957,1
0.382598566501664,0.00504100896734148,1
0.491405841186673,0.00683507423401737,1
0.575334378020146,0.00771511822883813,1
0.688348834652944,0.00932427645276819,1
0.681694020134448,0.00740221693656065,1
0.666428019150973,0.00999086704637945,1
0.504707454991559,0.00783044805134963,1
0.488966888238501,0.00875328248684334,1
0.39556325982951,0.00892890949806385,1
0.228218752658966,0.00589086196291053,1
0.221178254466064,0.00583724114616552,1
0.23424019143757,0.00582044696362817,1
0.247352601825948,0.00569879199598143,1
0.257049004854379,0.00429403177922491,1
0.376557798759531,0.00892429823106665,1
0.341197298289001,0.00812497684830111,1
0.472403730745241,0.0104614976277326,1
0.44091322925264,0.0081606183414007,1
0.488506416353764,0.0069389539971254,1
0.525782384234345,0.00645596611915793,1
0.467734216623156,0.0059422586214385,1
0.429264785554799,0.00524466189960847,1
0.406202068563067,0.00500048358852952,1
0.398572128712708,0.00661596063014638,1
0.413350118102266,0.00700922215733103,1
0.427327141632478,0.00764885464807466,1
0.385326794291781,0.00739696704240422,1
0.392273270496674,0.00705042879987082,1
0.348075304565906,0.00900774938539612,1
0.171564115434329,0.0052014220670508,1
0.174998173116499,0.0036601782052204,1
0.18258075061166,0.0037244273203353,1
0.174613848262214,0.00367406700835227,1
0.200895581704576,0.00407047569194222,1
0.243943742173445,0.00543643543496626,1
0.305573425318149,0.00699368236923804,1
0.324867085902582,0.0072403361847886,1
0.308389527875016,0.00864335757483934,1
0.252758368171688,0.00828892649603791,1
0.254807530817275,0.00921720447287597,1
0.193863540475808,0.0103177732786376,1
0.128940934624262,0.00832816529431098,1
0.10343711401865,0.00644062724966167,1
0.116109619731052,0.00711700761128479,1
0.184295767012689,0.010510394288226,1
0.222404797364808,0.0120744867577508,1
0.224868657840058,0.0128965375949125,1
0.217043488064635,0.0151902242077336,1
0.172696793595066,0.0135044889190776,1
0.154144236154131,0.0102832592369342,1
0.153075926438943,0.00989019077142995,1
0.135480377564348,0.00622169771998795,1
0.0860585844421694,0.00285886219616184,1
0.0852242525054566,0.00426271423939659,1
0.100554997283175,0.00507066280766558,0
0.108672615144676,0.00589558242946599,0
0.0886048304617533,0.00493748434837563,0
0.0881247785570678,0.00564886734033733,0
0.0923163862983372,0.00764433360627367,0
0.0753024086599687,0.00754257447321675,0
0.0712373562730673,0.00697926304165441,0
0.059922731370033,0.0119625251987722,0
0.044836423170414,0.0173365623593698,0
0.0441475317245801,0.0103483903074355,0
0.0434201751950943,0.0101597221936218,0
0.0410032414100574,0.00897126979979814,0
0.0402560271082157,0.0093067383563118,0
0.0392271930932892,0.00992994265156685,0
0.0289592589414621,0.00674622411824477,0
0.0289185183761995,0.00531650296621826,0
0.029116163355702,0.00568527607572387,0
0.0260531870067748,0.0045849768348409,0
0.0273644086959081,0.00530983483549338,0
0.0240596827470978,0.00683888333559358,0
0.0238275529432181,0.00321373508424869,0
0.0436368977100342,0.00549535221442581,0
0.0413907226892243,0.00484003912717499,0
0.0424948251692638,0.00457825328379844,0
0.0423382989488835,0.00304177331902164,0
0.0528445933105566,0.00464265017450013,0
0.0533345815953505,0.00485711762141445,0
0.0568951080203723,0.00518333276213313,0
0.0728710065787832,0.00356067170167919,0
0.0922084379752502,0.00279477942091731,0
0.102620167569089,0.00420656289758225,0
0.0875108504258813,0.00342923875670758,0
0.0962990733117206,0.00432993765616358,0
0.0971917989228309,0.00386910381407487,0
0.096160310022016,0.00462080755432817,0
0.0953361326739662,0.00465841792836559,0
0.108112246431443,0.00551298340637496,0
0.125326773500376,0.00665850805395008,0
0.121293271599965,0.0119026322344462,0
0.0857567833824926,0.0174236605473463,0
0.0953065477908727,0.0250261835330403,0
0.0886121115771489,0.0307642154820284,0
0.0436330461834562,0.0181435637706336,0
0.0197156008300815,0.027167954750627,0
0.012265963752316,0.0236025489268442,0
0.0092454743396441,0.0208303872455428,0
0.00533699661324406,0.0198261503201697,0
0.00501182675960704,0.0179654718688029,0
0.00510923080770143,0.0157745309267605,0
0.00295055663849917,0.0102114900936532,0
0.00270028009857471,0.0144676950176545,0
0.00267423548506096,0.0145719809066791,0
0.00252871359097337,0.0191879687081205,0
0.00226623710775384,0.0225666567859629,0
0.00235684012768048,0.0238837149049985,0
0.00248706486379933,0.0248774508903108,0
0.00261275929814778,0.0261162734441771,0
0.00266829211765767,0.0283758058068784,0
0.00148212597166769,0.0490995131796888,0
0.000109990104320852,0.0844879345258744,0
8.96209092455276e-05,0.149942244880379,0
5.33992540430281e-05,0.0795471574767356,0
0.00012748736369118,0.135900589554296,0
0.000137924444861437,0.120038109388535,0
0.000147933612563833,0.112512641415785,0
0.000156899455394054,0.116077888197369,0
0.00016930808007766,0.125363491430313,0
0.000193526902245876,0.133962407185504,0
0.000209379724295825,0.135181391965283,0
0.000210741720788916,0.127349334795065,0
0.000213633219500566,0.121475803354693,0
0.000203655234524806,0.178355773022934,0
0.000113516480258995,0.154825609919699,0
7.22484859294891e-05,0.145115712992162,0
7.28308087839201e-05,0.144669397650872,0
8.09615608869129e-05,0.132180077174377,0
8.42095008755922e-05,0.127095452432351,0
9.5441121333348e-05,0.0694558360094954,0
0.000282771370040115,0.0837625108300007,0
0.000297409929645448,0.0679162009507992,0
0.00028747549257646,0.0703675870377432,0
0.000286705898820206,0.0739165687122983,0
0.000269760791401289,0.0721112048118254,0
0.000268323851054009,0.071817795077688,0
0.000287755213376147,0.077001809446699,0
0.000299992034115373,0.0826786194275816,0
0.000294189015228239,0.0826599726954856,0
0.000284801830745658,0.129468575455286,0
6.20060486796445e-05,0.124010114332687,0
1.53279750347357e-05,0.312902335357623,0
1.12972092501799e-05,0.284198201607711,0
9.80677128890797e-06,0.281126053966459,0
6.1327497109057e-06,0.241260510942531,0
6.10019128769212e-06,0.27195059398562,0
5.89593358029902e-06,0.2690197199348,0
5.83390908525904e-06,0.287685433268381,0
4.32877432910601e-06,0.256835430508163,0
1.50036166595747e-06,0.151510096818136,0
7.88019802095603e-07,0.148239850195928,0
7.30823977668206e-07,0.141934875526755,0
6.23337951850201e-07,0.137302016142147,0
3.74821980952064e-07,0.11990797702976,0
2.47571266325208e-07,0.106108012231727,0
2.64323399023896e-07,0.115026953259124,0
2.72453253876941e-07,0.119958930117389,0
2.76494047701352e-07,0.115156245320858,0
3.0977062840809e-07,0.120363871650851,0
3.17758606933565e-07,0.123500732443691,0
2.3517212037792e-07,0.110722358819593,0
2.82713691381129e-07,0.122415866292646,0
4.45581864861715e-07,0.146349812657172,0
4.62431019516371e-07,0.139025728637338,0
5.64238741914778e-07,0.141490931623342,0
5.04178738338352e-07,0.128251333369521,0
4.57636802261702e-07,0.121880640697808,0
4.46248992381391e-07,0.126525972308451,0
4.24967868277513e-07,0.125912758028815,0
4.41443561533822e-07,0.123198416533916,0
4.18277903759259e-07,0.121262866567924,0
4.18106287033125e-07,0.125193590298719,0
2.69319948498297e-07,0.106420390499347,0
2.80179744417238e-07,0.110844025235323,0
1.29185628207672e-07,0.0787276626856268,0
1.34893997057512e-07,0.0819196573942962,0
1.79873668372496e-07,0.0912745302061693,0
1.9089955547904e-07,0.0903389426873429,0
3.07079528627749e-07,0.110587687335066,0
4.13169868419208e-07,0.121224218295247,0
8.13690804046369e-07,0.149663420919047,0
8.70560296668772e-07,0.146290667427071,0
8.89182661644298e-07,0.14445100697802,0
8.77567167073351e-07,0.145480826245321,0
8.73967116204691e-07,0.147499402199417,0
8.63459654625009e-07,0.138546545602184,0
9.17756196482127e-07,0.141026559607108,0
8.76728585343381e-07,0.133462013845866,0
9.79370989091618e-07,0.144795211419524,0
9.5728914944829e-07,0.147431369300722,0
7.43158279795676e-07,0.14091496612911,0
7.55941125639177e-07,0.151475532112437,0
7.74845455595613e-07,0.159001676068971,0
8.09713553915064e-07,0.160350449774307,0
8.5371634252097e-07,0.174814041189666,0
8.18683290624792e-07,0.1757196800442,0
6.54297219206624e-07,0.161743829913733,0
7.53282366510822e-07,0.182939931557891,0
5.33540637511855e-07,0.150479117919445,0
4.75205252020397e-07,0.152942705047279,0
4.89201116087249e-07,0.159325702087208,0
4.65545310541837e-07,0.147540119740933,0
4.74659198800881e-07,0.144287202958311,0
5.01880114309537e-07,0.144013377887298,0
5.66857197115023e-07,0.141718301230534,0
6.06822279697463e-07,0.154465503397431,0
7.20211693372277e-07,0.169852584295173,0
6.0214832416376e-07,0.155519726723531,0
5.42746834767534e-07,0.151325346166938,0
4.50495856289832e-07,0.141947448055066,0
3.23981825961805e-07,0.115771985075353,0
2.81711456201144e-07,0.111766759920643,0
3.10984946758154e-07,0.123758165915899,0
3.49118963380989e-07,0.143896921680104,0
2.93651657418697e-07,0.142881909050276,0
2.7498200033398e-07,0.133864809165114,0
2.50211823679576e-07,0.132940123121838,0
2.58881231118571e-07,0.140216366362043,0
2.75691869519349e-07,0.141417721934437,0
2.90237037122499e-07,0.131855838709637,0
2.90585958629135e-07,0.139646343314804,0
3.07241394403534e-07,0.129614365937308,0
8.33451429959241e-07,0.182016511415173,0
8.09344317928535e-07,0.163828968883174,0
8.4714306437522e-07,0.150253211981665,0
1.04592057515664e-06,0.158073387563974,0
1.04387417571017e-06,0.15798845445731,0
1.18175537640694e-06,0.163205328547919,0
1.19870577842938e-06,0.162229030858264,0
1.13753546663994e-06,0.155082908663452,0
1.12410759543089e-06,0.154161869422545,0
1.09934034406158e-06,0.156356913262633,0
7.42141580706008e-07,0.135138453467438,0
7.89007898397585e-07,0.146712804103193,0
5.67806777163126e-07,0.138763791767528,0
1.90620678299073e-07,0.0894610233957583,0
1.59517746940849e-07,0.0797127218284698,0
1.4743111895223e-07,0.0810076195189484,0
1.19555589643514e-07,0.0796496535749864,0
1.17484487789497e-07,0.0840274086934899,0
1.23274114558907e-07,0.0810851427647136,0
1.21016932069073e-07,0.0807528772944541,0
9.41714281488343e-08,0.0741964468328167,0
3.37027784948874e-07,0.112348641834714,0
6.00803993142381e-07,0.140267163414769,0
6.03924297253895e-07,0.143413892813619,0
5.96719157525564e-07,0.142492471457024,0
6.3839016887147e-07,0.147477034063124,0
6.33547196865059e-07,0.140131694991723,0
6.28410883768997e-07,0.134918612381936,0
7.18322446742258e-07,0.142191026651171,0
5.23776685896245e-07,0.11872933671572,0
4.15886970733812e-07,0.108712006561155,0
3.53965348220022e-07,0.116334679660295,0
2.86479670921551e-07,0.114844328692471,0
3.64041330246785e-07,0.124325604145678,0
3.71842090525569e-07,0.127809635067079,0
3.74893975468804e-07,0.123958612300113,0
6.17545724827365e-07,0.147746057848058,0
6.34429332839918e-07,0.149778628733832,0
5.64227690837717e-07,0.14848656906225,0
5.23447266290305e-07,0.148549017665439,0
5.33057802953767e-07,0.148130899339172,0
5.65219687519836e-07,0.142913809201552,0
5.58933412346008e-07,0.136919484826352,0
5.10300872514643e-07,0.128398823049285,0
4.89422300144319e-07,0.125876784514948,0
4.92311019185057e-07,0.127453399583527,0
1.44530536255236e-07,0.0814930438115758,0
1.4576370644264e-07,0.0877938934836174,0
1.48350308538414e-07,0.0872879471350173,0
1.7933167804896e-07,0.0970135619009671,0
2.89450460461054e-07,0.116800417293967,0
2.93616553997443e-07,0.114564597323364,0
3.08505767632054e-07,0.11450373177825,0
5.29592152684077e-07,0.153579724989501,0
6.93670744134589e-07,0.176755725945232,0
9.67608742717926e-07,0.207539144800086,0
1.0188467364824e-06,0.187303479848163,0
8.66435644671365e-07,0.163625382219391,0
7.53636488524313e-07,0.150286589209371,0
7.90787609352021e-07,0.150587775136114,0
8.24330878550791e-07,0.155498319672826,0
6.08422735681327e-07,0.132185169172587,0
9.64374840034852e-07,0.164070186016083,0
1.01622974392471e-06,0.158549464648365,0
1.17520598808954e-06,0.160371230371897,0
1.52866168663802e-06,0.179930665424363,0
1.54511072729671e-06,0.183200700813115,0
1.07098458044821e-06,0.152836793118345,0
1.33471122131078e-06,0.169414507584039,0
1.72479360207405e-06,0.192615426746524,0
1.88169549406808e-06,0.198661703813811,0
1.93259139199117e-06,0.212060064654823,0
1.44406877953233e-06,0.190817415849641,0
1.36159784173832e-06,0.19486042868513,0
1.18092719569067e-06,0.197377226691895,0
4.94427787989873e-07,0.136268350322314,0
4.79813713670928e-07,0.135518868451916,0
6.01493060300341e-07,0.15208017286065,0
6.74172906333608e-07,0.157318292888932,0
6.31207456328941e-07,0.152301629420665,0
6.71099406783767e-07,0.148308233656363,0
1.24801373408821e-06,0.1968847142681,0
1.53311705836808e-06,0.20354873816439,0
1.7701314582985e-06,0.207108236507578,0
2.21532084740869e-06,0.223800341788042,0
2.36566181246075e-06,0.206725124001549,0
2.83173123658382e-06,0.230170096817072,0
2.86056723450186e-06,0.230791586792909,0
2.81399019500395e-06,0.239213359693364,0
2.66914567814749e-06,0.22895557315694,0
2.74728150593241e-06,0.238116541495407,0
2.47897630633372e-06,0.226052283395924,0
2.35158989098118e-06,0.227207794468193,0
2.03830209478239e-06,0.225664213140152,0
9.99296893612897e-07,0.167149404823607,0
8.31999838484031e-07,0.185583420035666,0
4.33720971373665e-07,0.136881986717598,0
4.12207124588135e-07,0.131068564626159,0
7.30061290835116e-07,0.159587358678454,0
1.09196586282887e-06,0.184242704057238,0
9.15147329716392e-07,0.167926506040943,0
8.92262499311866e-07,0.167276204286205,0
9.20605261658114e-07,0.166959956114425,0
9.23709476701552e-07,0.160684615859346,0
1.24057050865554e-06,0.178053643013292,0
1.78085701613431e-06,0.2066683360415,0
1.95489197795398e-06,0.195546027946607,0
2.17396007879971e-06,0.199795701700193,0
1.96317947317099e-06,0.194355407270762,0
1.58853902241125e-06,0.182620823936327,0
1.60049612527607e-06,0.186434272186382,0
1.62225130808272e-06,0.190029136597966,0
1.4981587637579e-06,0.180295059663553,0
1.74198322741171e-06,0.191185547435568,0
1.53679641696624e-06,0.185492107399758,0
1.14200075183618e-06,0.159294222341235,0
9.79683182018609e-07,0.158219482214749,0
6.76400673456558e-07,0.136564339535874,0
6.66349881384863e-07,0.137232688788172,0
7.54329456062411e-07,0.135751919902429,0
6.4752030871443e-07,0.126828591743253,0
7.38756700808373e-07,0.128596000985269,0
8.43646861127773e-07,0.135724329781172,0
8.06477050978564e-07,0.14037333842481,0
8.03246236096434e-07,0.138743769653475,0
6.38620941363051e-07,0.124886704091855,0
1.09428008837824e-06,0.164694798309097,0
1.6349177925854e-06,0.189379711799359,0
1.68053322586311e-06,0.189023137773155,0
1.91270351617625e-06,0.212259877483467,0
2.01647703016491e-06,0.196715585529556,0
2.48027887078443e-06,0.214659367221127,0
2.46230998199809e-06,0.219564009290092,0
2.18739282548393e-06,0.200362944692646,0
2.42235318772345e-06,0.210013873439512,0
2.5167040333587e-06,0.215284987319987,0
2.12643394680122e-06,0.201981797868396,0
1.55978005700096e-06,0.178315889433829,0
1.51252841425478e-06,0.176124848113081,0
1.44289037718272e-06,0.167882244535209,0
1.83377347348544e-06,0.202789877198602,0
1.48052173231509e-06,0.1774414195147,0
1.45501974683703e-06,0.168498293182466,0
1.42814222729648e-06,0.172816482876468,0
1.21840074794324e-06,0.162072519674105,0
1.24722325704663e-06,0.162111105489945,0
1.41357040709571e-06,0.159341244668833,0
1.42743122050024e-06,0.147344470908532,0
1.93813383216924e-06,0.178412766871748,0
2.28505314366745e-06,0.195533301937014,0
1.42065609768228e-06,0.152897442559252,0
1.29302395838096e-06,0.152281670016076,0
1.22606694510721e-06,0.149597328510591,0
1.26228116212227e-06,0.147030240231537,0
1.27877408205753e-06,0.144579665075378,0
1.40340552890494e-06,0.153640240752782,0
1.45746918556457e-06,0.172447283355562,0
1.05868131884601e-06,0.157586158098223,0
1.26842312323094e-06,0.164559337113149,0
1.57423486579755e-06,0.181629718972991,0
1.62748415558724e-06,0.177569773903672,0
1.66594986703776e-06,0.177003187320923,0
1.62561928633309e-06,0.176786219828176,0
1.69016066417384e-06,0.183485003945821,0
1.87537021509286e-06,0.186568091752526,0
2.93558405830198e-06,0.231258034988677,0
2.58423586515548e-06,0.21750192650969,0
2.32340038107124e-06,0.202019848867905,0
2.45340996458336e-06,0.214234987449409,0
2.76083321421089e-06,0.209756278363979,0
3.70270351090481e-06,0.236078030466874,0
3.60408711203962e-06,0.225072054970913,0
3.19049649011288e-06,0.210525639826498,0
2.69970661918218e-06,0.191190565360658,0
2.58112969992198e-06,0.194245559448395,0
2.26928260663718e-06,0.184899276476137,0
2.20332474074247e-06,0.181297098019434,0
2.68264440626241e-06,0.199532863535746,0
2.50662480101515e-06,0.185461226873403,0
2.30814989472622e-06,0.189088849433622,0
1.30010184820724e-06,0.146125123688491,0
1.69821901205766e-06,0.17451547643843,0
1.54271085590011e-06,0.169248446815104,0
1.7107288312914e-06,0.176088739649516,0
1.68752140694618e-06,0.168477558126554,0
2.06234225028737e-06,0.17668045739151,0
2.92816358508678e-06,0.185084687983067,0
3.11986710642206e-06,0.170658832866707,0
3.02648046726043e-06,0.162540321707766,0
2.8961374012464e-06,0.149114519484444,0
3.2876876250688e-06,0.161458564744411,0
3.59472148674574e-06,0.171294136276289,0
3.89545769714013e-06,0.177533251476356,0
3.85231559241832e-06,0.177228630539138,0
3.77969831498312e-06,0.179057921617611,0
3.68293264649408e-06,0.17990447432122,0
3.54013046618811e-06,0.16763193888239,0
5.47439674641746e-06,0.225665073770704,0
5.27981701976107e-06,0.228738816709247,0
4.85299598336983e-06,0.238371768549079,0
4.50759391974584e-06,0.22797376361162,0
4.15455686199899e-06,0.216306736753332,0
3.71611643065666e-06,0.204469733402931,0
3.85228390182968e-06,0.21176708343321,0
3.90311235567953e-06,0.204636063006978,0
4.57819713838656e-06,0.221298184250705,0
4.0860837384619e-06,0.259961682347015,0
1.67035973433286e-06,0.179823056554789,0
1.85353328681912e-06,0.193569061033509,0
2.04828463020165e-06,0.201407743772552,0
2.41054657452567e-06,0.214830800902222,0
2.60014145284809e-06,0.209197893687513,0
2.61189849871493e-06,0.206280301854905,0
2.45472488023785e-06,0.191005287807075,0
2.43805481803793e-06,0.196666825075696,0
1.6122286312512e-06,0.158087757645677,0
1.57028524335889e-06,0.15335959360876,0
1.60005619489952e-06,0.143472872102923,0
1.8709687986214e-06,0.15415178840038,0
1.85120817270852e-06,0.154673058248483,0
1.68335206309301e-06,0.149436661548971,0
1.49888943497068e-06,0.144750426491227,0
1.48640236795442e-06,0.146905986876487,0
1.42066649869598e-06,0.149766978816915,0
1.28468445809542e-06,0.145619239452872,0
1.31283788948907e-06,0.149399194004061,0
1.05600435794368e-06,0.133172863038469,0
1.0462339056945e-06,0.145436874302947,0
6.37279048079261e-07,0.11489724247988,0
1.3318522426686e-06,0.156125860832731,0
1.53957430020468e-06,0.155018226701136,0
1.59992488210149e-06,0.153046324882234,0
1.63120398062934e-06,0.148480906977697,0
2.08910454609797e-06,0.165002793338772,0
2.15494296285091e-06,0.163070668640484,0
2.28237358251169e-06,0.167184976910092,0
2.4647210669876e-06,0.174234821748024,0
2.24561461240383e-06,0.168777950287776,0
2.38662830590005e-06,0.176330273092316,0
1.9619131497524e-06,0.165226974663126,0
1.74852335232628e-06,0.171211511871219,0
1.70390170340491e-06,0.184582978307383,0
1.80422598122364e-06,0.169307343444195,0
2.96037406188876e-06,0.177648327336534,0
3.23492653285988e-06,0.174383079643931,0
3.33318685952151e-06,0.178888716528524,0
3.14009967833179e-06,0.168505884200695,0
3.13947041700264e-06,0.165639000008248,0
3.04038077201387e-06,0.166057953351437,0
3.16415332265142e-06,0.168075404966759,0
3.77518118723419e-06,0.185402403254733,0
4.05774861436009e-06,0.175413243604268,0
6.03033986732327e-06,0.232062769940035,0
5.20713099812591e-06,0.227852371423341,0
5.0130760351141e-06,0.235071800228618,0
4.9783098342258e-06,0.237618482958433,0
4.82709209622157e-06,0.243896160294715,0
4.8980453739798e-06,0.248115054732016,0
4.84162491262095e-06,0.234500404850843,0
4.46160047462629e-06,0.230029035670852,0
3.09672485092833e-06,0.186434865729786,0
2.71109507912585e-06,0.197778522099129,0
1.6600562301313e-06,0.15282621389747,0
1.24551732828316e-06,0.150625000901916,0
1.26566295421896e-06,0.149497581332002,0
1.60836270446971e-06,0.167984808216186,0
1.75327937835874e-06,0.168976306416999,0
1.7204848196309e-06,0.165175131344337,0
2.2426308215972e-06,0.196976266386695,0
3.09743732036713e-06,0.175459043779691,0
4.63899756412611e-06,0.204834336344447,0
4.42213512824921e-06,0.198420713705704,0
4.38511532021953e-06,0.197745607035886,0
4.66542914020406e-06,0.20452728783399,0
4.7976182236349e-06,0.213748936683078,0
4.25228007381226e-06,0.196526133059938,0
4.23035814975464e-06,0.200783988663593,0
4.08417108955104e-06,0.198589110360567,0
2.84966323427467e-06,0.165244283962432,0
2.76514199665405e-06,0.216944225631944,0
2.2805737195932e-06,0.216025880362454,0
2.63600154784966e-06,0.223850668711525,0
2.67018967989814e-06,0.231633667239315,0
2.4527291857332e-06,0.212357418801251,0
3.29620069227054e-06,0.220591357073121,0
3.23097739796875e-06,0.216918444709567,0
3.15920634050796e-06,0.214074165838105,0
3.30071733247195e-06,0.221944892388406,0
3.35964297549117e-06,0.219443779124063,0
3.09216286880779e-06,0.213127825386169,0
2.62704188712195e-06,0.193008812077381,0
2.22162922473664e-06,0.183034028676592,0
2.42831410618732e-06,0.195910377783006,0
2.26089955210675e-06,0.200383804249957,0
1.04053886314347e-06,0.155543016053943,0
1.37617226219251e-06,0.148570276100871,0
3.77188471595305e-06,0.194518537247611,0
3.55070569687271e-06,0.174485343229882,0
3.60899037742236e-06,0.17709232408258,0
3.70217127153162e-06,0.177431774384999,0
4.26164748678036e-06,0.169589606031348,0
5.17917031051748e-06,0.170327727741261,0
5.28503979128355e-06,0.170600306364189,0
5.24922373807439e-06,0.170574431145551,0
5.00870679677879e-06,0.166844690995547,0
4.9094468351906e-06,0.178488971570627,0
3.6858603693362e-06,0.180050831433584,0
3.67127701051086e-06,0.185222088882859,0
4.22501722921711e-06,0.194891662398634,0
4.48209827238551e-06,0.203586999694099,0
4.58918970974607e-06,0.246139710683327,0
3.35633171526867e-06,0.226343533672149,0
3.32081079082338e-06,0.223766278430967,0
3.58478851865743e-06,0.231645250695188,0
3.50711326076064e-06,0.22273148562341,0
3.32373493831706e-06,0.22769623164333,0
2.17955306140375e-06,0.179507599190562,0
1.18295864367994e-06,0.138756597848018,0
1.11569723823948e-06,0.14055092948786,0
1.25437200377878e-06,0.147228066152675,0
1.77243268258074e-06,0.173445223952327,0
1.84320768046344e-06,0.17916911367972,0
2.23239232373129e-06,0.20309006607807,0
1.87500487948647e-06,0.183507715250321,0
1.87324467043273e-06,0.188796560771841,0
1.70841704347962e-06,0.184861895481386,0
1.504741792854e-06,0.173844412494187,0
1.45204326924316e-06,0.177586495576912,0
1.21451450668185e-06,0.165858632143354,0
1.26262325796366e-06,0.1680527260131,0
1.21134105989094e-06,0.159080844088571,0
1.17282025557095e-06,0.158684894181838,0
8.72263950210491e-07,0.136632824179858,0
8.85301783405604e-07,0.1397245785272,0
1.12924715884373e-06,0.149179280665154,0
1.04083854235085e-06,0.144912295483554,0
1.05037480927582e-06,0.150046683384278,0
1.06574832011107e-06,0.145291564538873,0
1.14486801878615e-06,0.147732310665259,0
1.32998266045512e-06,0.167137432179899,0
8.93991830356169e-07,0.145780509202314,0
9.00775729029446e-07,0.152051767339329,0
8.3466688592018e-07,0.14970958198481,0
8.95521916981686e-07,0.156245839402609,0
5.3793636592895e-07,0.128490178541185,0
7.10799913580085e-07,0.147202211302223,0
1.15819513017494e-06,0.189399344531703,0
1.32634230565835e-06,0.195413167514068,0
1.52046032481575e-06,0.201128255831651,0
1.52556982279835e-06,0.189112969877859,0
1.60463442860397e-06,0.202021616746542,0
1.52169300745564e-06,0.198984829655572,0
1.52095908592607e-06,0.197007041786707,0
1.68605096363363e-06,0.195808896027231,0
1.77668685970195e-06,0.183713604985669,0
1.90462062840071e-06,0.179801819834135,0
1.59659655771587e-06,0.157462616279326,0
1.64658317951896e-06,0.154077628008722,0
2.87810854411542e-06,0.20207153303924,0
3.08226094124475e-06,0.192801166143114,0
3.07344998250987e-06,0.18084041209384,0
2.94143267832099e-06,0.169704419988602,0
2.78813343744905e-06,0.162872565817846,0
2.62924218906809e-06,0.16126616363278,0
2.46846478185805e-06,0.163707692855925,0
2.46640538114446e-06,0.167465559632442,0
2.24647188345531e-06,0.164065285859401,0
2.11390072528664e-06,0.167038375557076,0
1.26949036474658e-06,0.131584917604499,0
1.14165930605815e-06,0.130441404647051,0
1.58256477764857e-06,0.160004511933138,0
1.52291886443028e-06,0.160106645934884,0
1.42277660435139e-06,0.155220756825085,0
1.55559754936482e-06,0.16542275077438,0
1.56657061882364e-06,0.166747064935034,0
1.48833500631349e-06,0.164982142233678,0
1.475482441175e-06,0.166913536369428,0
1.53404144846111e-06,0.172117302983268,0
1.68332151011525e-06,0.182457593482949,0
1.97669835324996e-06,0.217311892095886,0
1.27225963464555e-06,0.177095400084193,0
1.35319398518048e-06,0.191202026930144,0
1.37427814008732e-06,0.188405436585173,0
1.79102449457851e-06,0.212432352537196,0
2.24879781014509e-06,0.240042287806732,0
2.30422351205256e-06,0.24256084429047,0
2.30845412437709e-06,0.236977241634112,0
2.32015526479527e-06,0.232543672008749,0
1.89915554576207e-06,0.207705576466447,0
2.74434516975081e-06,0.221985611163651,0
3.50618415770826e-06,0.197577466467745,0
3.59498362479428e-06,0.202921736431564,0
3.55551112772028e-06,0.206448914785076,0
3.16376604740675e-06,0.19315392353697,0
2.9779036703619e-06,0.188952786060521,0
3.14868181476517e-06,0.195787055778334,0
3.20223923458587e-06,0.194919152016563,0
4.08774643801215e-06,0.214275496245278,0
4.3572991091921e-06,0.201324751154741,0
3.11763105099131e-06,0.180502097485414,0
2.29555767996204e-06,0.184959270157627,0
2.2475667526636e-06,0.182982880650384,0
2.67774617887069e-06,0.198478961346279,0
3.19984830156042e-06,0.221956163427145,0
3.37833619737257e-06,0.224193886736919,0
3.44941932528627e-06,0.220878667844682,0
4.96904123088788e-06,0.25035406084194,0
6.48238498710764e-06,0.259435187818465,0
6.36882135645326e-06,0.264592415235634,0
6.80497567748639e-06,0.279165196747129,0
6.84381176253432e-06,0.279240667893188,0
6.84968622257175e-06,0.275314698275062,0
6.56991585555331e-06,0.261983681563948,0
5.83081023323831e-06,0.240821048092213,0
5.24107600647905e-06,0.223654834567168,0
5.3356121201709e-06,0.221334774709064,0
5.26761143017819e-06,0.241402457102238,0
2.64625125930846e-06,0.184054035079811,0
2.48835395779969e-06,0.188217542945458,0
2.03055203944542e-06,0.168642992108162,0
1.90662136089638e-06,0.17003923505056,0
1.74326043939152e-06,0.166031504468531,0
1.40233471204084e-06,0.155352845636513,0
1.40678780854915e-06,0.155574304735121,0
1.18196339668104e-06,0.152530709039109,0
1.00944048222874e-06,0.147678138449832,0
7.37655330966511e-07,0.128026016193806,0
6.25206884000326e-07,0.123798893469,0
9.91342555866125e-07,0.152108472503811,0
1.21994334828837e-06,0.150980769878482,0
2.26694514132281e-06,0.19580479878406,0
2.99002101384411e-06,0.169105642028137,0
4.10439797340641e-06,0.178855477119167,0
4.47286087208871e-06,0.184564529329915,0
4.29257750128574e-06,0.177997261911132,0
4.35326481600125e-06,0.179552156864771,0
5.11025449383457e-06,0.194066668371977,0
5.91423985196742e-06,0.208975324270446,0
5.37552584774818e-06,0.202896746137302,0
4.7865692592792e-06,0.19815420305445,0
4.43773664880678e-06,0.194625027111626,0
3.81945310206971e-06,0.233623585061769,0
1.77346498319097e-06,0.183356588083853,0
1.7443876492518e-06,0.195890659832484,0
1.73870999589556e-06,0.190321685402517,0
2.25310512994569e-06,0.228319676857753,0
2.05305073221615e-06,0.220710060865843,0
2.1206833238332e-06,0.220043810630572,0
2.10777436569853e-06,0.201128737141023,0
1.68488214971853e-06,0.180990004295419,0
1.73680677290338e-06,0.197283309448914,0
1.69471517056577e-06,0.198802626703034,0
1.84225289990848e-06,0.193608664517002,0
2.14862840992107e-06,0.196175770594376,0
1.9925181325795e-06,0.189146763734928,0
2.05094663964678e-06,0.181826049134853,0
2.2979304112135e-06,0.18977562290413,0
2.16928336049674e-06,0.177075399851634,0
3.23569149491473e-06,0.220209676599038,0
3.09506085125136e-06,0.205041830339133,0
2.86920283864631e-06,0.197278634854193,0
2.50020331266316e-06,0.179970664077375,0
2.48625425315798e-06,0.187565747027265,0
2.25029295586519e-06,0.174174046375198,0
2.2903251574892e-06,0.175335868727819,0
2.30404799494629e-06,0.181940095874962,0
1.96282973908516e-06,0.170549102230737,0
1.95414440509393e-06,0.175496858449806,0
1.03678068436333e-06,0.134245334901934,0
9.78203475303229e-07,0.140414939420912,0
1.00137709635391e-06,0.142896584533048,0
1.05569964074529e-06,0.151802127791893,0
1.26113786319391e-06,0.160967446897056,0
9.77116081823532e-07,0.144415787360351,0
9.84197059450761e-07,0.154149327578005,0
1.05302706777061e-06,0.158079250687338,0
1.08376856390258e-06,0.161952761655148,0
1.13278610375687e-06,0.168014927926342,0
1.14174527693705e-06,0.16812125526812,0
1.17988319394003e-06,0.166209214317808,0
1.30150029700305e-06,0.165258885759439,0
1.37662080590854e-06,0.166705797334723,0
1.00819089794158e-06,0.151515819022929,0
8.83096605984296e-07,0.146295605069858,0
8.75434959263817e-07,0.143583268656131,0
8.79335339403208e-07,0.145497656583832,0
8.05763281413055e-07,0.136950588955334,0
1.00626232247849e-06,0.155657398792861,0
1.19323923314818e-06,0.155785677515662,0
1.55072207419058e-06,0.173130845250026,0
1.56216318926613e-06,0.171397465541721,0
1.57944138573612e-06,0.164056327622821,0
1.77773801214951e-06,0.165575862026889,0
1.71360796189763e-06,0.165378834583333,0
1.66629310049002e-06,0.16737304603433,0
1.61113116178948e-06,0.164915162531075,0
1.58736484547345e-06,0.169355498959006,0
1.20449703035718e-06,0.144841986081778,0
1.11926072304433e-06,0.152922058895913,0
6.57944074636955e-07,0.120874429884958,0
6.92176410993683e-07,0.126880004758828,0
8.7098088766047e-07,0.15005279000722,0
8.78524872913411e-07,0.149581677166949,0
8.96373499978785e-07,0.151119355818735,0
9.42597717589914e-07,0.151788054340398,0
1.13584513939703e-06,0.152726878162901,0
1.35041496433116e-06,0.161405254984767,0
1.32940150381435e-06,0.165900337476115,0
1.25362881884638e-06,0.159700757284098,0
1.15657826009132e-06,0.153186917587712,0
1.21152827813763e-06,0.16094678263228,0
1.28466414361553e-06,0.167803204869907,0
1.24825360746679e-06,0.16659694384626,0
1.23436175353698e-06,0.157808680184968,0
1.28236941996685e-06,0.159031424864328,0
1.87183468301234e-06,0.174778196261878,0
3.31179197433024e-06,0.203303172449576,0
3.52270828068464e-06,0.200126041647193,0
3.72171347615669e-06,0.208606345104815,0
3.87004282015185e-06,0.21192263879219,0
4.15601105372763e-06,0.220852468171552,0
3.97896743617794e-06,0.218745229866264,0
3.83910516740203e-06,0.223083867075809,0
3.78629402031467e-06,0.229551767008588,0
3.78062010482273e-06,0.224386489898858,0
4.1037418969638e-06,0.258285941932692,0
2.2256880578192e-06,0.217941598687061,0
2.33506251768802e-06,0.2368027501008,0
2.27494725872629e-06,0.224167414353536,0
2.10611361633834e-06,0.216197477974077,0
2.0657789727377e-06,0.203428651319729,0
1.9267434220355e-06,0.183214344177594,0
2.0342647137906e-06,0.182141481703579,0
2.2826219067139e-06,0.193180939281643,0
2.41818888186129e-06,0.208638204606026,0
1.30122532020322e-06,0.154687870809529,0
1.30568475482926e-06,0.158680210086175,0
1.12153805749822e-06,0.143430045437095,0
1.61799713096152e-06,0.169785659492107,0
1.73443924215877e-06,0.173962201076699,0
1.49313296143246e-06,0.171931302426362,0
1.41686769095605e-06,0.172640554215454,0
1.43286640022448e-06,0.183304573090176,0
1.27866812173041e-06,0.17133820535533,0
1.26442198327128e-06,0.169840190895388,0
1.17373814503042e-06,0.171639845273479,0
1.38884996028809e-06,0.176865613160554,0
2.26903964545766e-06,0.205282199194832,0
2.30644754131121e-06,0.203740113852986,0
2.34195400184681e-06,0.199259295301267,0
2.32091340118486e-06,0.192504238022151,0
2.6874930663232e-06,0.208802563514361,0
2.72939094978054e-06,0.201372359717886,0
2.82728155290813e-06,0.194515385692461,0
3.22459231316473e-06,0.209789136527856,0
3.38379022893415e-06,0.20394295275153,0
3.31569479220722e-06,0.205245917358246,0
1.73082732763385e-06,0.160076336932743,0
1.7992412954055e-06,0.168571441947302,0
1.84101436669839e-06,0.173941472498065,0
1.85105134492375e-06,0.177786386085869,0
1.56568344485777e-06,0.161167326327626,0
1.5502787309814e-06,0.16416279207077,0
1.62240147271809e-06,0.173062694262941,0
1.41062041958362e-06,0.157202703800956,0
1.43096171458974e-06,0.168054084349019,0
1.17754280334056e-06,0.160753349972786,0
1.2885295828495e-06,0.171326962500446,0
1.32560464626449e-06,0.177395272270571,0
1.3218607688782e-06,0.178959175750906,0
1.28691596308267e-06,0.176498412920912,0
1.41192785950951e-06,0.191424241702076,0
1.06681491156336e-06,0.173493447851583,0
3.7719796252031e-07,0.102244495882229,0
5.87187928591604e-07,0.121750603974038,0
9.6809238985521e-07,0.148259454454796,0
1.04873014898371e-06,0.148167050770387,0
1.13680154511038e-06,0.149877037049237,0
1.22184462109048e-06,0.14722238221619,0
1.39043465223555e-06,0.159224953673383,0
1.45327627691472e-06,0.160695578023957,0
1.63955843237208e-06,0.170129561312699,0
2.01729464735163e-06,0.190619214676491,0
1.98634529346139e-06,0.198192592454824,0
1.58125636262764e-06,0.186658114911097,0
1.68056182865079e-06,0.202649161500956,0
1.97834675140637e-06,0.239691242201149,0
2.05508364284796e-06,0.246394282011832,0
1.90230103982865e-06,0.239922386333211,0
1.15303281454461e-06,0.173167966968322,0
6.81103881841307e-07,0.142706107874921,0
7.4148436665252e-07,0.147529376783144,0
7.46410384252733e-07,0.145984171112356,0
1.25648665987769e-06,0.18224241795734,0
1.39318198249624e-06,0.176023439557939,0
1.24106390674317e-06,0.163493823752117,0
8.95606425218038e-07,0.138255977011932,0
7.82865937288916e-07,0.132886706900423,0
7.84681076696286e-07,0.134267353278692,0
9.36013225851264e-07,0.14378752865203,0
1.2736723848352e-06,0.156312601041169,0
1.44171945056171e-06,0.157056591419564,0
1.74932634308747e-06,0.17317225090716,0
1.68723407894258e-06,0.162215997160822,0
1.95458384792297e-06,0.17544250521251,0
1.83543942335248e-06,0.170869738547059,0
1.91119211887223e-06,0.168676553657427,0
2.01026567479293e-06,0.166423680194054,0
2.15199248779129e-06,0.174009276660651,0
2.11433691779889e-06,0.177177426960504,0
1.76954396354001e-06,0.164995908518531,0
1.62277119625214e-06,0.163965045194016,0
1.51846219257351e-06,0.159744605069878,0
1.39378004078428e-06,0.165192160660413,0
1.11934523128069e-06,0.150274143548136,0
1.17306646706725e-06,0.147913391723389,0
1.1729923598446e-06,0.155980913585932,0
8.74661383869505e-07,0.134903304352849,0
1.34731806250049e-06,0.164966150553285,0
1.36317099506121e-06,0.157673245851769,0
1.68277220657896e-06,0.154498731120469,0
3.96182737817122e-06,0.209862542509516,0
4.1924757076508e-06,0.200055250243724,0
4.50710230933244e-06,0.20388018691341,0
5.1131589769117e-06,0.222859895324362,0
5.34143733790909e-06,0.231610009716727,0
5.34561269484831e-06,0.224841975683929,0
5.8635734264092e-06,0.235670612674014,0
5.68150286892319e-06,0.232577619272565,0
6.22983911094632e-06,0.247198593154696,0
6.13736369809475e-06,0.247423939789509,0
4.90487607721475e-06,0.25180857177524,0
4.78955483776006e-06,0.27144320511629,0
5.00333158539919e-06,0.287231364393036,0
5.01970066826502e-06,0.28908915525866,0
5.31417888124159e-06,0.299119592055388,0
5.74529764899892e-06,0.333417168095164,0
5.19204156497748e-06,0.33937667904324,0
5.01122384209541e-06,0.344074680522825,0
2.77027213414822e-06,0.299024854356043,0
2.23122383484787e-07,0.10998171074112,0
7.63694431292931e-08,0.0796205199022109,0
2.57085593611898e-07,0.116235993333983,0
4.60868267207188e-07,0.141457172579742,0
4.43783789617456e-07,0.131545050341223,0
4.94834077587726e-07,0.140172652526241,0
6.84841746141559e-07,0.152921239605295,0
1.58200003510756e-06,0.211292937424897,0
1.52794726700915e-06,0.186771776634481,0
1.59319802648775e-06,0.195882732516253,0
1.41396125768885e-06,0.184661058636297,0
1.35458902114367e-06,0.179370332689139,0
1.45062223074571e-06,0.195586144611377,0
1.43491978785203e-06,0.204985429979118,0
1.43142520976297e-06,0.199802039790387,0
1.46575229285393e-06,0.194730849533208,0
1.42851666378987e-06,0.203995922940729,0
5.07538915828439e-07,0.131841467284134,0
4.0138405724884e-07,0.13409653035106,0
5.55629790367945e-07,0.133834964412781,0
1.28568880598131e-06,0.178946138433286,0
1.30801848227933e-06,0.178616111921143,0
1.32010169743533e-06,0.168550892322913,0
1.39015918788821e-06,0.163464026248194,0
1.418876224212e-06,0.170629526710484,0
1.47915529913959e-06,0.173847855752766,0
1.56913593134449e-06,0.170425774537569,0
1.46684959979981e-06,0.164356445501124,0
1.40314729123655e-06,0.158468400905822,0
1.29204236271254e-06,0.164120976132497,0
5.72948778313558e-07,0.117462010374658,0
5.55629790367945e-07,0.119388246921141,0
5.2706486886959e-07,0.122841689081449,0
5.40419770466868e-07,0.132662473907072,0
5.5886531820941e-07,0.125607159915553,0
5.5653549113948e-07,0.124297488423171,0
3.5045500609457e-07,0.106593283061381,0
3.53452448231692e-07,0.109011030289974,0
3.52105516956889e-07,0.109661294355024,0
4.46160421249059e-07,0.120408217923685,0
4.71320635917402e-07,0.123614595691091,0
4.68716319595162e-07,0.122198743167825,0
5.24525558883008e-07,0.124757419532409,0
5.36103187263435e-07,0.12685624542531,0
4.90530008103907e-07,0.12981685026551,0
4.85010970206668e-07,0.127528870793888,0
5.33696652717432e-07,0.122562071401082,0
5.51909640294161e-07,0.124588052440498,0
5.66909852246905e-07,0.126764287245859,0
5.37767349456243e-07,0.128470618639587,0
6.43219327031555e-07,0.135378344467688,0
1.14193054499368e-06,0.16006732121062,0
1.29729893752957e-06,0.160298962140638,0
1.22480257187869e-06,0.157379142126726,0
1.31079750312865e-06,0.165909553833303,0
1.30586140954641e-06,0.174063835496389,0
1.20113701538293e-06,0.173422269029148,0
1.17026209374702e-06,0.171197821970478,0
1.20717009087938e-06,0.166736732874392,0
1.46262808836227e-06,0.178680567562595,0
1.34483920840607e-06,0.174448701717927,0
9.03655509699031e-07,0.162994491457726,0
7.11337678491803e-07,0.161496317651121,0
7.32899467449879e-07,0.153909263403748,0
7.65614068384869e-07,0.1551073752149,0
7.31688561932438e-07,0.147976388094314,0
6.19434971457382e-07,0.141253879434763,0
7.10799913580086e-07,0.148418905668252,0
7.61239141995184e-07,0.15029299081537,0
6.40138839300631e-07,0.139648562479636,0
6.38653444530879e-07,0.141954619010569,0
5.4361791966533e-07,0.13421804308293,0
5.18606244473963e-07,0.137771652639116,0
4.89688663604672e-07,0.142328463305401,0
4.06556123829513e-07,0.128870473229592,0
4.25955152000295e-07,0.139615086629674,0
4.02504766475558e-07,0.131954514854146,0
1.84658134676817e-07,0.0999987264024082,0
1.49639221658644e-07,0.106886501507498,0
1.31904355680668e-07,0.106662092883091,0
1.51871051677571e-07,0.111909380445961,0
1.60228753737093e-07,0.109903451363243,0
1.55149321184731e-07,0.1046771808924,0
1.62017890610199e-07,0.101443846863928,0
1.78232908460525e-07,0.103970564013642,0
8.95104738822609e-08,0.0771688793890843,0
4.62897114943028e-08,0.0661012103231014,0
4.50024235324645e-08,0.066156422836184,0
1.34791774594692e-07,0.0824819582069216,0
6.44887552120341e-07,0.147272926936772,0
6.15727010071534e-07,0.141337957754083,0
6.49266216374326e-07,0.147112830558882,0
7.31725453027923e-07,0.16059055145829,0
7.6688559231031e-07,0.171026703579722,0
7.46353178677355e-07,0.168768096214588,0
9.19068511883193e-07,0.173831574662912,0
9.94972509649186e-07,0.162846047445762,0
1.03398947482607e-06,0.164630372406566,0
9.65268677150131e-07,0.173266223827173,0
4.8914602321778e-07,0.127740355123718,0
8.02867249159557e-07,0.155409728992148,0
7.65292937086724e-07,0.155340126818175,0
6.64614212222832e-07,0.138944304208125,0
6.93282168763202e-07,0.13605161818074,0
6.79831707852509e-07,0.131309978219049,0
6.48839937328258e-07,0.128849848447242,0
6.21847356573596e-07,0.132324203697282,0
4.93183566725407e-07,0.116123334262828,0
6.18021083656854e-07,0.129664769464333,0
8.78738581241881e-07,0.164971596281831,0
7.80396996660681e-07,0.158687281058811,0
8.05482454043018e-07,0.157638804365457,0
8.27147115527271e-07,0.162778817041507,0
6.96619594035809e-07,0.153166179753621,0
6.2764202133402e-07,0.15514707983702,0
6.86878394637677e-07,0.16579329980318,0
4.93079556588357e-07,0.146087935039225,0
4.901529713571e-07,0.147417708417904,0
4.3428376372461e-07,0.142758206978294,0
2.78639094262178e-07,0.114898958993204,0
2.26717233846592e-07,0.113530495917578,0
2.03706291150893e-07,0.10684955824082,0
1.94268183792761e-07,0.106278261050445,0
1.7820381812532e-07,0.101614530820514,0
1.88471406326429e-07,0.104837772951303,0
7.04199007741682e-08,0.0744320912979359,0
6.43119054758805e-08,0.0710864991469485,0
1.3503619841676e-07,0.0915456290415265,0
1.14396686845812e-07,0.0820303663686011,0
9.48518819673188e-08,0.0775585068614719,0
1.35267783487537e-07,0.0797134733372173,0
3.94381574771919e-07,0.130333553346208,0
4.36375667606038e-07,0.131287400196448,0
5.91807278803357e-07,0.144938070537443,0
5.30636154434721e-07,0.132069304500983,0
5.33105095062956e-07,0.131751881184117,0
4.96188809622808e-07,0.131554638965445,0
5.08505560039652e-07,0.13587343865624,0
5.76607334884306e-07,0.145759580093021,0
6.65126462147807e-07,0.153171542970325,0
8.4045651268959e-07,0.186065851567862,0
6.75642049519445e-07,0.166893563588769,0
5.58691588777368e-07,0.155556407420881,0
1.72574757004981e-07,0.0974278107000111,0
1.7037185480542e-07,0.102022115200776,0
1.38123999360446e-07,0.0998859356544319,0
1.41374316143272e-07,0.0974968516605949,0
1.72982996792904e-07,0.107670864691361,0
2.39647806587872e-07,0.128441367790332,0
2.22219607998356e-07,0.124268296853896,0
1.30342903498198e-07,0.0989074114558037,0
7.26179274985543e-08,0.0783002050794886,0
1.36466337801204e-07,0.100368124246043,0
1.55314274761459e-07,0.106593238657842,0
1.58155051629649e-07,0.111370430467273,0
1.77600559330426e-07,0.116872651627603,0
1.77960694429963e-07,0.119220699064943,0
1.62407928624139e-07,0.112621652425666,0
1.30515657835205e-07,0.10242622669672,0
1.19398274311226e-07,0.101672908249481,0
8.5017723509199e-08,0.0833234160161787,0
2.1503640790831e-07,0.116370132286616,0
1.87353459868976e-07,0.103035336977129,0
2.14764681425266e-07,0.103586181869352,0
3.94336070336959e-07,0.130130281851171,0
3.78253502895534e-07,0.119211200126306,0
3.70486545911291e-07,0.119254958261814,0
3.69810480020463e-07,0.120439325010929,0
3.46128671940789e-07,0.115541077009429,0
3.26112733644626e-07,0.107145752786218,0
3.35893586907507e-07,0.108810457712815,0
3.03705537291336e-07,0.107066917465738,0
3.00245900107696e-07,0.110555829780428,0
2.90632925706647e-07,0.109506307601931,0
2.05988826111634e-07,0.0990363350910558,0
2.05526468549277e-07,0.102837287948079,0
2.38886419881496e-07,0.109945272206815,0
2.95851471817314e-07,0.117206297503882,0
3.43066873531366e-07,0.12616559687194,0
3.24006528369353e-07,0.12834428011382,0
2.32244885083306e-07,0.116643512489929,0
2.49276545025317e-07,0.12599803869819,0
2.56244411628502e-07,0.123561740496353,0
2.10508554113993e-07,0.113419934336236,0
1.28694180310109e-07,0.0897117203616069,0
1.14273337323903e-07,0.0856103080406187,0
1.24411725432896e-07,0.0871914598829242,0
1.14626809274036e-07,0.0844338049875579,0
1.09882646897822e-07,0.0830870999954366,0
1.07918968013478e-07,0.0850477622329344,0
8.55169721670413e-08,0.0758623541604417,0
6.66534336862288e-08,0.0707902098408589,0
6.00229499651017e-08,0.0744125331374477,0
6.15309344364942e-08,0.0777656197468019,0
1.40143258661777e-07,0.100632434017138,0
8.57067906671581e-08,0.0852715348355212,0
7.22142381541277e-08,0.0834366534758776,0
6.44232288256923e-08,0.0836469725611735,0
1.63528637850857e-07,0.107316269456992,0
2.80293017957119e-07,0.132913442758394,0
3.06719393528212e-07,0.139433767793283,0
3.31905285699139e-07,0.136987448806445,0
3.84680841817734e-07,0.142255762154107,0
4.00727005711192e-07,0.147089958315487,0
3.64802554437322e-07,0.143098957760586,0
3.56633695782884e-07,0.136413474782933,0
3.25329407299964e-07,0.129786165220486,0
3.27454951960093e-07,0.124256387615851,0
2.56992147004392e-07,0.118831335551128,0
1.74842177992681e-07,0.100344810896894,0
1.51484263980415e-07,0.0869872351865179,0
1.72478060080692e-07,0.0930231917627137,0
1.32524353606992e-07,0.0808999048438669,0
2.4218435380519e-07,0.0993906176472392,0
2.51560055081093e-07,0.0992770643866807,0
2.64608289289911e-07,0.099003007027086,0
6.05145116237525e-07,0.134553011579204,0
6.19213299852793e-07,0.128763380641011,0
6.45990059573076e-07,0.131463004589933,0
5.35108590327891e-07,0.121793240387349,0
5.13544688663907e-07,0.122281827492093,0
5.19675598695513e-07,0.122986298388233,0
5.21224049610852e-07,0.125264291291521,0
4.78343757905895e-07,0.124768974465999,0
4.9217060550004e-07,0.127945382679051,0
4.7144788581945e-07,0.132285884374842,0
1.32387840302113e-07,0.0823660216127094,0
5.01206486156297e-07,0.152326796880746,0
5.54199650983501e-07,0.150957753693457,0
6.65197969117029e-07,0.152797718851432,0
8.76170830983448e-07,0.158315649916067,0
9.29706148650028e-07,0.157442801056174,0
9.64799981470046e-07,0.153764865216277,0
8.69720902359607e-07,0.141873975550084,0
8.15782545411957e-07,0.137341838569037,0
8.9406707518969e-07,0.142810984796536,0
9.25732473867184e-07,0.146881156896731,0
8.06480301295347e-07,0.146593885752779,0
7.58967170563987e-07,0.148001486523136,0
6.8108633013068e-07,0.149143752338922,0
4.33693018649332e-07,0.135800939060511,0
4.06018521433634e-07,0.144922240260729,0
1.3414301136484e-07,0.09416780646108,0
3.19281867893837e-07,0.128930626113713,0
3.47188437727829e-07,0.121608901947417,0
4.39906324211383e-07,0.127204805054403,0
5.36292518216036e-07,0.135516600308887,0
7.58727947248771e-07,0.145908737945185,0
7.72091949733042e-07,0.136374958951457,0
7.12308060567317e-07,0.131189876813267,0
6.86394097437036e-07,0.124430887555887,0
8.37887299788605e-07,0.136161715631071,0
1.04118161328727e-06,0.157393770104044,0
1.02289094313944e-06,0.164959368070885,0
1.02987831164332e-06,0.172156145244043,0
9.45866886210081e-07,0.17757060285158,0
8.09343017801819e-07,0.167906682885155,0
3.66913797703608e-07,0.124175600243049,0
2.99636140679236e-07,0.125101238238599,0
9.29480089117782e-08,0.0819680285824925,0
7.91159608107816e-08,0.0799161585409409,0
1.17026843186475e-07,0.0924396607900425,0
1.00668161334348e-07,0.0886517059562067,0
8.54987703930573e-08,0.0835338919025199,0
1.74530147581529e-07,0.0999588418906966,0
4.97122950666192e-07,0.141702825495831,0
5.00037672241192e-07,0.137524136868204,0
4.62580534088382e-07,0.137353600909573,0
6.05584559066563e-07,0.14898649514451,0
5.49581600898461e-07,0.13700335646175,0
4.81377766106824e-07,0.128410868047647,0
4.75911383341466e-07,0.12894637350639,0
5.89470951099861e-07,0.13432801200249,0
7.39455518916679e-07,0.142686783082017,0
7.42075274243638e-07,0.148905026169964,0
5.49130456929005e-07,0.139512679650916,0
5.43900209677919e-07,0.138869080551606,0
5.67897786033045e-07,0.139323540469886,0
3.90456492224977e-07,0.122568000801443,0
3.33955585525747e-07,0.117408959781111,0
3.29480061831634e-07,0.116719299922009,0
3.45069881248783e-07,0.112473554856697,0
3.16657562123383e-07,0.109201848421198,0
2.32582105449525e-07,0.0935706217552615,0
2.19511931602423e-07,0.0867053081943217,0
5.76919365295459e-07,0.128016141062613,0
9.90087446040437e-07,0.167168009346616,0
1.15728114109561e-06,0.167537239877152,0
1.11710381282725e-06,0.160687511503623,0
1.37628277296313e-06,0.181002597764103,0
1.44786531205051e-06,0.179465022620629,0
1.399079357267e-06,0.182304509865127,0
1.44376715013488e-06,0.188339296221239,0
1.66527315108357e-06,0.210561341582692,0
1.59151354981505e-06,0.214088151878093,0
2.38362875105702e-06,0.133528589893877,0
2.4857922206273e-05,0.215066166007263,0
2.76998066199072e-05,0.151157596117003,0
2.74145466303584e-05,0.15034225936282,0
2.69274788596916e-05,0.14812841782636,0
2.67734663368017e-05,0.146009663547501,0
2.70430801139371e-05,0.139362835921118,0
3.66171197828236e-05,0.140419167453061,0
5.08820736757448e-05,0.176708724779084,0
5.12990696545649e-05,0.152218314175139,0
6.46580011571059e-05,0.146847405064784,0
6.79742985580447e-05,0.129183223655578,0
6.69624268388624e-05,0.145789659567439,0
6.34448802237447e-05,0.142909771456191,0
5.67794555972023e-05,0.129287878848533,0
6.08818083087731e-05,0.125409006903416,0
5.42302418953818e-05,0.120850770007134,0
6.18536153231636e-05,0.137821135502627,0
6.14629467477685e-05,0.127687255164642,0
6.12659866516162e-05,0.1418188338421,0
8.41092716695392e-05,0.118147667974149,0
0.000303467924670602,0.222545716611348,0
0.000601212320038794,0.218971258673919,0
0.000554600356537121,0.105777076462646,0
0.000518445331040996,0.0544163182374822,0
0.00157646584667121,0.052884332906877,0
0.00177436966580077,0.0303719464947103,0
0.00171589284228696,0.0281773737858899,0
0.00156010478639978,0.0255498824706164,0
0.00135903790719162,0.0226228059131634,0
0.00123995626964049,0.0220280454223244,0
0.00126007873966947,0.0224195828236208,0
0.00123381146044174,0.02283896316749,0
0.00121461523513656,0.0237855752297401,0
0.00122222139374905,0.0301953494364435,0
0.000475874238071208,0.0274541573139032,0
0.000220957137992829,0.0481528440509362,0
0.000216638007353618,0.0515735174789564,0
0.00019206674667349,0.0474222663275858,0
0.000554191481637299,0.0394885549908882,0
0.000695170343926293,0.0279105450827712,0
0.000746444643729235,0.023838625559149,0
0.0010905219055352,0.0276549562252601,0
0.00104890371703752,0.0260410584468994,0
0.000951168999102846,0.0243530814926068,0
0.000850104741164076,0.0232063520900703,0
0.00109631685502338,0.021715760996796,0
0.00160993375028719,0.027451352724947,0
0.00129424066441373,0.0233700372433525,0
0.00140076065106699,0.0267910247897525,0
0.0013259801521121,0.0312872055036536,0
0.00118107839392678,0.0345269197385494,0
0.00117089458052804,0.0375757623940889,0
0.00123098560919073,0.038710008304701,0
0.00138480796498408,0.0390772004475304,0
0.00130917153800861,0.0370841635465117,0
0.00124382456444028,0.051740546126047,0
0.000828145135046389,0.0369587803420221,0
0.000739334235133603,0.0266164840619639,0
0.000811846386923031,0.0339135669939615,0
0.00161304513032895,0.0553313675540965,0
0.00177233988473647,0.0447144583817095,0
0.0017725027124435,0.0436997061615136,0
0.00156333360883772,0.0441403826135681,0
0.00123674941138073,0.0325363898523754,0
0.00166941386549646,0.0350966741128515,0
0.00170390789314568,0.0321520682358225,0
0.00167954446503386,0.0258035431236729,0
0.00234310787974372,0.0343305966006441,0
0.00262117356482021,0.029951166694562,0
0.00262782944212875,0.0279903442537323,0
0.00254179407482531,0.0304532234207766,0
0.0020921550971112,0.0270605027322203,0
0.0017192998046743,0.0225506417532576,0
0.00221729232169029,0.0118515753879527,0
0.00951283782447376,0.0203553034253328,0
0.00945672037519711,0.0117789845522196,0
0.00988179557657304,0.0112715021578719,0
0.0100070700812067,0.0104699150334182,0
0.00992227532731614,0.0106235634192047,0
0.00896527381530161,0.00974544216891299,0
0.00870915286630603,0.00946277627501098,0
0.0078849020152674,0.00744002784557436,0
0.00694792229406943,0.00643641945767507,0
0.006481129251921,0.00843663143723726,0
0.00448642707921778,0.00665570313526801,0
0.00454511724328672,0.00907533027052627,0
0.0043815454537427,0.0111992469590746,0
0.00507595069195016,0.0122840453118484,0
0.00591818578708419,0.0111199139560005,0
0.00607282134060853,0.0106200470012826,0
0.00595178906119367,0.0104979781765927,0
0.00591703584467085,0.0123836918343151,0
0.00568893335425169,0.011018059541055,0
0.00620396597504514,0.00987012573696849,0
0.00474822177030089,0.00852742174770409,0
0.00421989783840783,0.00898355757394629,0
0.00546335436184054,0.0105222182795197,0
0.00498534503699171,0.0084064344270608,0
0.00446332899894197,0.00827910964910167,0
0.00406630838731387,0.00704642990924826,0
0.00452033948120552,0.00784026126704568,0
0.00458497016345007,0.00807273923914554,0
0.00445112295740255,0.00819187826324291,0
0.00449641622854414,0.0074040546088409,0
0.00490215272974148,0.00651981390620196,0
0.00532636072904804,0.0079270351288127,0
0.00369226839731382,0.00615925682871811,0
0.00390623453847414,0.00681448844569208,0
0.00472554051942516,0.00929229392807167,0
0.00494949382689358,0.00979776934563973,0
0.00680295934672048,0.0123919095424486,0
0.00732304147992522,0.0128312423249412,0
0.0061050243026781,0.00915613468481751,0
0.00631351466668247,0.0115160778217866,0
0.00629678151193341,0.014483364727321,0
0.00432811359284674,0.0104180709806531,0
0.0032630482305982,0.00814718591558413,0
0.00286411636265748,0.0100667168464036,0
0.0034442469868166,0.0124276661478965,0
0.00357740986401796,0.0154575426452632,0
0.00292886463535014,0.0148245697202805,0
0.00239782367996265,0.0124301625546345,0
0.00266751811127135,0.0177524291957865,0
0.0348954850295552,0.0148516093018783,0
0.0586315621431682,0.00866561564308696,0
0.0574909656684333,0.00861673701813536,0
0.0557534601198383,0.00829281825230314,0
0.0554037768780615,0.00812730421033591,0
0.0550973227238716,0.00774594516801658,0
0.053483448024291,0.00719744990406889,0
0.0530588769390849,0.00730247193159733,0
0.0531435944360334,0.00695664900879521,0
0.05378704282719,0.00552999691248679,0
0.0376724201687941,0.00717399103683768,0
0.0153735053641565,0.00863339646889174,0
0.0181421566753484,0.0101663695760395,0
0.0211888774689618,0.0115366888372514,0
0.0235899461699661,0.0129334070910261,0
0.0210494113682973,0.0127029422020777,0
0.0185557268657838,0.0129630901897197,0
0.0184490628780709,0.0122263402680019,0
0.00837087519300287,0.00840844060737442,0
0.00548666018123805,0.0226184769479623,0
0.00567425353252486,0.0171117571808007,0
0.00613011789560335,0.0168749713221025,0
0.00588243279668377,0.0120864320733666,0
0.0124040216004167,0.0146337051365558,0
0.0111805533552469,0.00994636208567111,0
0.016305569802413,0.0107822897875433,0
0.0213589586819032,0.0122730241733897,0
0.022424451485511,0.011729344141747,0
0.0329570431260231,0.0156115019132186,0
0.0669445109911831,0.0218609815619557,0
0.0944035246593941,0.0265629897444394,0
0.0831758745320076,0.0233928493955777,0
0.0822978475335181,0.0213299485275549,0
0.0959969054498944,0.0263438520155637,0
0.126948630353426,0.0258411903888802,0
0.135408916587108,0.0215109875088862,0
0.145905391494919,0.0231868497337398,0
0.151047738793687,0.0212093310900482,0
0.12235030786068,0.0160123139102301,0
0.109361289266042,0.0141740891710125,0
0.119425236633481,0.0100802222175477,0
0.103195894623279,0.00692132889063045,0
0.0798992803387159,0.00548820936284087,0
0.0722573614122126,0.00435528091292747,0
0.0694026199135494,0.00406694736168446,0
0.065360292376948,0.0039872765958944,0
0.0777389787801047,0.0053679511568452,0
0.0853842959215803,0.00656016918034809,0
0.0923370069249176,0.00629546815024127,0
0.0899422407786237,0.00624877033934846,0
0.0785688751942846,0.00786803609752666,0
0.127587708072208,0.00945852318224076,0
0.14285580669296,0.0052008492658538,0
0.153134896485027,0.0061217513653039,0
0.156157677203965,0.00657151694798347,0
0.15696069133559,0.00691356750046983,0
0.157683732193099,0.00693347389792912,0
0.151909557631194,0.00644630616069593,1
0.166863306807865,0.0072546520856871,1
0.165209715038686,0.00669095838326752,1
0.169270590653298,0.00705405511123671,1
0.0923745749157744,0.00499747594493625,1
0.0761874547357525,0.0133411836167194,1
0.0636149096848172,0.0108055387318663,1
0.0580862824795457,0.008576324935874,1
0.0610100433582728,0.00829979656519341,1
0.0579795288118549,0.00671009087667717,1
0.0850854400745377,0.00943430703017408,1
0.0978662014282917,0.0132320411462121,1
0.154474960965078,0.0200138476137792,1
0.199617920665061,0.0268966437495997,1
0.220670560765437,0.0303046486332543,1
0.243472350520543,0.0287014376693579,1
0.189180703419479,0.0252972136231987,1
0.156105021495965,0.0250606126560728,1
0.130877085588165,0.0258264224773348,1
0.045315955868034,0.016217074586992,1
0.0262076061477071,0.0156109993497768,1
0.0128987148022869,0.00427911264793885,1
0.0263933739730368,0.0113543098823048,1
0.0268672118655414,0.00853130916765965,1
0.0270340189490666,0.00795982468583948,1
0.0265625247571215,0.00601966748063121,1
0.0295559124447014,0.00708495652655528,1
0.0298815186684805,0.00774979835701072,1
0.0306450624337767,0.00754103679427845,1
0.0290046238547861,0.00765212354252086,1
0.0243880682498014,0.00599531655893594,1
0.0261560119340122,0.00704586770061797,1
0.0501067028530833,0.0117182932529881,1
0.0662164579347373,0.0158213596143291,1
0.0687258542482074,0.0124005149012933,1
0.0636333201499405,0.0128059955019233,1
0.0658808608378263,0.0119594587537362,1
0.0633204548209788,0.0108957066144527,1
0.0616482260685249,0.0104072490697702,1
0.0562479418843764,0.00855008768934965,1
0.0511656856726142,0.00656104087588432,1
0.0578224174148421,0.00379019820150244,1
0.119176458809749,0.00689071010948391,1
0.12147191038117,0.00486180836773474,1
0.125065683322281,0.00544649157593083,1
0.129329016498102,0.00533041771564028,1
0.139891676324961,0.00533269217447984,1
0.138802741564063,0.00484331279761953,1
0.138268066180506,0.00496985774758678,1
0.137731002273546,0.00493768548790278,1
0.132432204413972,0.00481960327255503,1
0.159070070740869,0.00862092806225127,1
0.103818009965871,0.00565580606615469,1
0.105269668189749,0.00827185836100473,1
0.0950475985129096,0.0068002267829199,1
0.0904845189229117,0.00620799404658185,1
0.103081754647753,0.00530177587196123,1
0.107118263313835,0.0060092207632017,1
0.143858389038468,0.00734275834092163,1
0.139365614831483,0.00576926418756651,1
0.149275910298679,0.00585238788395481,1
0.199865057405636,0.0080409742193824,1
0.201561984793647,0.00923980515184185,1
0.220849912627953,0.00802594489025029,1
0.227167066530349,0.00831765164281636,1
0.133976138868527,0.00517649263658924,1
0.110671885446337,0.00591155859465239,1
0.0999019371216971,0.00549308029939816,1
0.0984834695310489,0.00533241182649096,1
0.129688154887998,0.00792143921325556,1
0.125915927520399,0.00964587999391781,1
0.0979221542865644,0.00677765672864734,1
0.119509944326824,0.00848441358279723,1
0.13871483337333,0.015953781517957,1
0.188796959816419,0.0220412332802239,1
0.196466054158546,0.0109962388237688,1
0.212531712667604,0.0112616060647646,1
0.209527834739923,0.012084831414263,1
0.205036384682905,0.0152590227738772,1
0.141075823521243,0.0123137868072062,1
0.129137400676814,0.0112811690129514,1
0.177482422442303,0.0156100745201442,1
0.234005553492454,0.017886345815252,1
0.2057127756176,0.0141148758391864,1
0.120717091733092,0.00965975105482036,1
0.0847936815641292,0.0142047808708094,1
0.0816586095182137,0.0169891494504665,1
0.0773099435889172,0.0170753459288983,1
0.0814301907180163,0.0137414885848235,1
0.101839375220309,0.0153465609187386,1
0.121267831038973,0.0181540240373038,1
0.140479734492881,0.0210692363684763,1
0.185973480225846,0.0277886165443857,1
0.232413071073423,0.0433481053062179,1
0.227994634704263,0.0402880630011206,1
0.196081624265399,0.0266745817661056,1
0.126288758625604,0.0177583451969251,1
0.0765605899786239,0.0107538113642257,1
0.0494686827569924,0.0109151711392041,1
0.0457968306393304,0.0102021177653981,1
0.0424153188467075,0.00937242287113518,1
0.0370662784404246,0.00828823248910981,1
0.035165211859209,0.0114516814802106,1
0.0228193526968779,0.00834323349512276,1
0.0136681538036454,0.00472670774237487,1
0.00867663314997742,0.00755072239563745,1
0.00390713362095064,0.00935735643506114,1
0.00607873470043723,0.0157671671281961,1
0.00716876338876493,0.0161089538995826,1
0.00711249199262179,0.0134210593059773,1
0.00779226123848662,0.012303451993413,1
0.00784190640411066,0.0130419512204104,1
0.00798491213875547,0.0111376504287008,1
0.0108724735864836,0.0148428094268832,1
0.0217110040673495,0.0160016148053499,1
0.0575718604796772,0.0305725818499522,1
0.0841161055151805,0.0361127394951374,1
0.0811191778887406,0.0365761987423002,1
0.0979952015250046,0.0322416899099487,1
0.103436999499589,0.0221159839692212,1
0.0842416434882174,0.021195006605479,1
0.0703070697714173,0.0173449720507889,1
0.0645164962937768,0.0159854839295358,1
0.0464971008115469,0.00890625850080522,1
0.0351375426107673,0.00803279245211443,1
0.0377900290137037,0.00914586527303779,1
0.0542362146905031,0.0116926115867126,1
0.0598018623785701,0.0107893597412238,1
0.0540157670302401,0.0116796949740638,1
0.0615220460604139,0.0152225690031988,1
0.0691916707789955,0.00834914460034352,1
0.0993609548343437,0.0114874383245602,1
0.409629436998389,0.0181645967622283,1
0.549471782738986,0.0140955086913559,1
0.564332144392734,0.0151199173410549,1
0.545020801001347,0.0141141930565551,1
0.488460515914021,0.0131446102081588,1
0.431478767360102,0.011245404060796,1
0.399395933501485,0.00941285640158467,1
0.30204898003486,0.00738846615129701,1
0.244812772960744,0.00686204134837171,1
0.239478225904377,0.00644408425731263,1
0.13390105015422,0.00569222555132851,1
0.103043989341378,0.00708994249058866,1
0.103650894331236,0.00662454563835495,1
0.115469400538233,0.00829671352994599,1
0.124380094366502,0.00671181390561228,1
0.129968440740957,0.00782670243828104,1
0.129641804238264,0.00767436265928389,1
0.154659286715373,0.00990497254713035,1
0.218922603975829,0.0130439136562335,1
0.258886707213283,0.0175928883839939,1
0.253973971047757,0.0146031076800867,1
0.193005441004398,0.0128769595915643,1
0.201361085715293,0.0110916880078641,1
0.258228669190189,0.013657742863476,1
0.301520114577113,0.019334360300005,1
0.289411958949152,0.018547812529357,1
0.306889782688842,0.0257974863793058,1
0.291726133212426,0.0228593049006783,1
0.221778586483956,0.018166010677453,1
0.131810716026284,0.0110636685399104,1
0.0935123231195481,0.00932185307669265,1
0.0736038741890657,0.00603411671509269,1
0.0667651251636691,0.00739568878299144,1
0.0680921800720292,0.00633784424260359,1
0.0647055997931083,0.00578637566505091,1
0.065186116644071,0.00583533828641421,1
0.0786419022763727,0.00702827513515124,1
0.0824183582378491,0.0078163089256188,1
0.105444368956697,0.0098666438096934,1
0.103671380570056,0.00981819464016709,1
0.153977860279082,0.0141126706882771,1
0.207270709768507,0.0209158686073704,1
0.145349015704031,0.0160274445749634,1
0.126310663410903,0.015692004748678,1
0.111994314336948,0.0145094104680374,1
0.0651498598802468,0.00883514368110507,1
0.0622673977007792,0.00938673113153557,1
0.0548719944660976,0.00793403435085019,1
0.0535021013322824,0.00923912920212739,1
0.0594462642507784,0.0116878593370492,1
0.0831772649946125,0.0179644878225568,1
0.0656547132972407,0.0106780386708846,1
0.063818161880711,0.0128003109116972,1
0.0472978323381668,0.0105867180912842,1
0.0436732441611496,0.0101895113089866,1
0.0443295812692556,0.00881021041392942,1
0.0860925273560184,0.0132651849266867,1
0.0840682399134341,0.00963853618288564,1
0.0682348475429561,0.00812249441050242,1
0.0691561761431124,0.00641549427144018,1
0.105334666025015,0.0102117547661361,1
0.101215013048786,0.0129456125803979,1
0.0729476653974531,0.00965294804383661,1
0.0610465328901207,0.00890600860733961,1
0.0694484199692083,0.00629748604852249,1
0.0777980248525613,0.00619042707604842,1
0.0802135887312967,0.00600862381721115,1
0.0714534082595186,0.00640942552682513,1
0.0577017660907559,0.00468408455639233,1
0.0917898111434837,0.00717433413004273,1
0.116974463427932,0.00890326765463653,1
0.133019256466483,0.00890149347435482,1
0.135445393328472,0.0085898351843932,1
0.136489014533327,0.00841284614067667,1
0.126186131781772,0.0110165668055391,1
0.102792411274991,0.0113398680046058,1
0.108160624835506,0.00914337327600075,1
0.114055216583139,0.00897612835028132,1
0.137169502044595,0.00931374911496799,1
0.144509662885323,0.00901626215017041,1
0.113012555781075,0.00719319918741075,1
0.0902733205230263,0.00590046938229547,1
0.0915589552162712,0.00633747586679751,1
0.111152064678932,0.00732060005491982,1
0.115860024743553,0.00625357334496545,1
0.119878086515286,0.00607196064830699,1
0.115159357983122,0.00737135521384042,1
0.112092262145001,0.00635417770160248,1
0.219626605656839,0.0113095902932806,1
0.250071591368085,0.014753129107808,1
0.407919649185811,0.0170120813183761,1
0.539303638966805,0.0183840357189674,1
0.512083063434135,0.0172550906582611,1
0.379041909084237,0.0122987660130234,1
0.295725735369208,0.0113994370972151,1
0.289445898056393,0.0114357934959955,1
0.298519821380908,0.0120681468863502,1
0.281966020597973,0.0122489324375023,1
0.283319880147433,0.01219612363786,1
0.31464885257269,0.0113391655510352,1
0.23642709631526,0.0113021953170198,1
0.117119471840712,0.00636386413304815,1
0.0946205980239286,0.00486108194262364,1
0.0735135816111204,0.00469418771412858,1
0.0813831884707767,0.00497137831066352,1
0.123357931772549,0.00493777048095219,1
0.184121829190975,0.00710551216525848,1
0.184775859788808,0.00706780724062321,1
0.186586146442668,0.00826289204078551,1
0.182967739167505,0.0108494098938098,1
0.155222867099122,0.0105965006729172,1
0.156151297037378,0.0113586668315985,1
0.155917027065338,0.0116251642693112,1
0.153346945643792,0.0116524602190915,1
0.126706113742326,0.0105174517536027,1
0.109657843269617,0.018289164610921,1
0.0565206050697137,0.00923241577211821,1
0.083189791982182,0.0138065945240883,1
0.10817700393341,0.0192076091507092,1
0.101218496192098,0.0095778246560734,1
0.155629373871442,0.0118730940664172,1
0.177472927796822,0.0102613208773135,1
0.194980408601665,0.0099279848028482,1
0.227380502949668,0.00607684940642733,1
0.326098509589956,0.0103102275719068,1
0.344444951450225,0.00625222064285687,1
0.404084487104948,0.00706375201498481,1
0.548646305783136,0.00641708750139934,1
0.539599946412563,0.00372127156631676,1
0.533843303173998,0.00446848769701256,1
0.525219457382689,0.00456542487334588,1
0.531544959589666,0.00492089323823518,1
0.501856037636724,0.00452663302507035,1
0.555869547881175,0.00653185621973672,1
0.575350626152386,0.0060277766627247,1
0.582750897490198,0.00790210690266738,1
0.577991234418254,0.00807634910005287,1
0.383300564849925,0.013349556794653,1
0.164398803188532,0.0256234053628471,1
0.148722086288106,0.0193806215897048,1
0.108005166781031,0.0108028472679474,1
0.096199951958104,0.00941183535140017,1
0.0615440691700833,0.00482347705604493,1
0.0568460606031186,0.005695011459398,1
0.10381732956552,0.00682385083502597,1
0.131347748051998,0.00709188776681908,1
0.202925767689608,0.00814613128146874,1
0.273345199894046,0.00885749053662975,1
0.266644861486794,0.00778817163423358,1
0.267923363612083,0.00807326017075433,1
0.256580115785648,0.00888142020959796,1
0.204493015663885,0.00702957348114342,1
0.194424199013288,0.00658133868942498,1
0.182577893734185,0.0057761394338444,1
0.167396782154476,0.00648058706811007,1
0.177010735910424,0.00781459363106125,1
0.163145926528743,0.0100287302160293,1
0.0956636529247905,0.00533507483865713,1
0.0943866432169051,0.0062957077001674,1
0.0845113218038054,0.00509175776433259,1
0.110034361167219,0.00616709911412229,1
0.110563448483138,0.0056884909076448,1
0.107873334547442,0.00648796067796656,1
0.121255709537036,0.00666210675715343,1
0.142391145274865,0.00574120921804172,1
0.123263390667183,0.00444551867765099,1
0.112394993527249,0.00497070942275975,1
0.120339470146385,0.00619492291600833,1
0.123700842296742,0.00649918499724769,1
0.131209643680488,0.00744149960292741,1
0.118829474252205,0.00742715018175846,1
0.107229028030888,0.00719638575480778,1
0.107490378423657,0.00715448141855964,1
0.0811848868882803,0.00648606732968707,1
0.049945618175226,0.00707872632801881,1
0.0453509146787945,0.0084193229060012,1
0.0404769390273138,0.00964436977285183,1
0.0492985938611148,0.0137403937867347,1
0.0435977830021436,0.0112593755677451,1
0.0537610535828226,0.00488324410725448,1
0.134760361328938,0.00785256788987916,1
0.136843971250105,0.00704376412722305,1
0.155832364535796,0.00767087420193966,1
0.162693004654208,0.00801609433951451,1
0.168568361966788,0.00850255281078531,1
0.191279236526917,0.00928757840557269,1
0.189275325788777,0.0101707880553968,1
0.120029916941417,0.00673122273488103,1
0.106051524101337,0.00377224426538619,1
0.285109525229671,0.00965608522995337,1
0.292651838648858,0.00829213847119132,1
0.238936373140585,0.00678318787822942,1
0.228808095067838,0.00661058682262491,1
0.202007416607147,0.00572060638338462,1
0.280399617854923,0.00709706662038885,1
0.339676021228647,0.00766548231612347,1
0.341686596238526,0.00702649559227143,1
0.416296258376899,0.00756722971727343,1
0.436567297309429,0.00644028674963983,1
0.360454992616585,0.00537296057283813,1
0.424148204592536,0.00843930712164054,1
0.522756651496447,0.00915292078308425,1
0.530907231454905,0.00809470132137863,1
0.549570487695982,0.00784764315207884,1
0.490774581994239,0.00778374985324784,1
0.464555419182045,0.00830002611495742,1
0.469060151481454,0.00865526474364541,1
0.405395091004908,0.00891705747512011,1
0.403291113264849,0.00908374515840472,1
0.397432249395831,0.0089968698483566,1
0.343646707408753,0.00780631528296221,1
0.253644974396927,0.00646217854240826,1
0.252447956418294,0.00699527825057606,1
0.25704792085293,0.0060988632007772,1
0.26866058144261,0.00495236931736435,1
0.254434893203103,0.00465076182225437,1
0.272957207857824,0.00491327804658572,1
0.354433064045145,0.00638721056036812,1
0.385955657484433,0.0124716001281002,1
0.267518418688485,0.00664334169436837,1
0.286498676546817,0.00677958503843208,1
0.288084772693703,0.00682828623055151,1
0.306790232520282,0.00737884560107927,1
0.23198377369787,0.00626323854111093,1
0.277801758513844,0.00771188208357149,1
0.415243207294,0.00851772611997364,1
0.414213456686003,0.00993270985617449,1
0.373766479793701,0.00920381227743215,1
0.337316724871677,0.00801990095248074,1
0.32601114901292,0.0105641440239869,1
0.313483024976651,0.0123446155478473,1
0.268591411847694,0.0107854844560411,1
0.210117601914656,0.00901073331268614,1
0.217729309020063,0.0107254889244673,1
0.178784145433297,0.0135517966068893,1
0.0883092960903538,0.0131715592259593,1
0.121831573421762,0.00963920439914876,1
0.237051002596051,0.0165759981081346,1
0.293988114586482,0.0195965665373106,1
0.270215455406453,0.0186138615891674,1
0.211937382238089,0.01488421455753,1
0.148683098556278,0.0145079209559346,1
0.177785050248006,0.0130722180670978,1
0.195152826547136,0.0101425705321885,1
0.209609033642842,0.0100880636438553,1
0.181835295692641,0.0073593247901478,1
0.166304743662018,0.012873857650493,1
0.138046407478375,0.0109439285553897,1
0.121841204573072,0.0105506724709567,1
0.128244202446404,0.00734458762573015,1
0.169478372122724,0.0096000081844977,1
0.173213389246883,0.0078044139904914,1
0.127879093418947,0.00533071056325709,1
0.102378866850467,0.00518124073592636,1
0.110327227088996,0.00695029226620041,1
0.111995704096347,0.00798729471214963,1
0.116022519895079,0.00682796880518449,1
0.135766974974744,0.00770627110681742,1
0.113797272511146,0.00634453618047017,1
0.125979120672039,0.00887047488911414,1
0.108885259311144,0.00711960431394881,1
0.10795716543273,0.00839629863408386,1
0.106587774154976,0.0122729033357419,1
0.0827223012333711,0.00861176340443088,1
0.13585391504871,0.0105572344606072,1
0.138263001477089,0.00504975393448913,1
0.134489582933396,0.00580425245744075,1
0.135225798819321,0.00584883789930915,1
0.154323040673864,0.00644180213476811,1
0.166821484352071,0.00719610280110547,1
0.168456150907358,0.00769092519462135,1
0.169904627400688,0.00813903824373396,1
0.196953144885063,0.00854562117292879,1
0.216032429641669,0.00857110324056327,1
0.130661372194038,0.00654269213819787,1
0.0793789576474533,0.00788728972792137,1
0.236366293227999,0.013209029124952,1
0.301608680088348,0.00880312026385872,1
0.323309829736552,0.00750533329703372,1
0.413011135433952,0.00881864956265938,1
0.396015737342348,0.00833618069963121,1
0.4852375251834,0.00971963603764815,1
0.420286831344777,0.00749156291731786,1
0.290759766346844,0.00534348531846539,1
0.280346951517737,0.0050747182901564,1
0.307832655923597,0.00295717221180336,1
0.55759552649333,0.00669605864521335,1
0.628720170918635,0.00968932420009446,1
0.577965814958319,0.00982095221406688,1
0.593453000624063,0.00942169142475924,1
0.57079079125596,0.00891432050732849,1
0.563661802240854,0.0092656613671136,1
0.5734965796737,0.0107535015264815,1
0.564244170700317,0.0111969113582386,1
0.591363857251794,0.0103177720658894,1
0.695108584028491,0.0285983795572498,1
0.451773579011422,0.0236304212097923,1
0.2623923969133,0.0132800243028895,1
0.236117289430056,0.0152861001996494,1
0.279773789656618,0.016484520677681,1
0.280350094500771,0.0164645937579892,1
0.289964586477813,0.0154012000176519,1
0.301103569833272,0.0166038417548448,1
0.350567777968695,0.0147834059169303,1
0.370278800798445,0.0113642682806768,1
0.343680299748635,0.011346034261531,1
0.345082496749954,0.0103893770137684,1
0.344654974398074,0.00965822611055278,1
0.292269703825681,0.00672007305193593,1
0.343091490246101,0.00738994827388899,1
0.382377529017791,0.00721601538460566,1
0.359029423234744,0.0073904457337137,1
0.331318701382327,0.0061781930194489,1
0.298843799200692,0.00597977671423638,1
0.212301903192068,0.00551324453989817,1
0.205737934272116,0.00539171334199234,1
0.208693500431616,0.00566418954130819,1
0.225090693822223,0.00605529540565111,1
0.274040618645545,0.00957654331291058,1
0.213353857945391,0.00864298672285259,1
0.169773728943294,0.00843711000732501,1
0.174675913587896,0.00810785159888112,1
0.152561464878819,0.00827898486482789,1
0.15147419858142,0.00869073373195293,1
0.172530915275422,0.00618258481092898,1
0.278187146893558,0.00792801370705353,1
0.254282405229112,0.0056858816137559,1
0.389440745546383,0.00841832987574688,1
0.383733372343332,0.00777440359056679,1
0.375504808363134,0.00767532801987626,1
0.38835120922303,0.00815916476630439,1
0.361588981468377,0.00590909637393898,1
0.409696173746632,0.00653416737477877,1
0.35477277526709,0.00555515001013648,1
0.39761468679837,0.00754356637911927,1
0.373503493474892,0.0060005998863338,1
0.424762610950632,0.00491547504446776,1
0.41396456759629,0.00498734951509482,1
0.382798636043433,0.00424198203906045,1
0.461177839672233,0.00521958266269031,1
0.413191913865055,0.00451484003205049,1
0.412685857433662,0.00537566036540757,1
0.434829454775465,0.00590482240070332,1
0.413568962707429,0.00579834771704216,1
0.412644318297907,0.00591906905840228,1
0.20819306191487,0.0036742864985391,1
0.126148111294976,0.00577957827038802,1
0.109241069311648,0.00777326945653368,1
0.175714786120886,0.00968322601104672,1
0.305767386636934,0.0120867148246625,1
0.311790733429985,0.00886563757862312,1
0.289581276424596,0.00652517137439945,1
0.295602153357341,0.00658631751380802,1
0.269641404199994,0.00551851112748237,1
0.332448651500183,0.00702491669877839,1
0.35360872910191,0.0072205820007852,1
0.386764075724866,0.00778900015724694,1
0.395207715379887,0.00766178744387615,1
0.321871697853205,0.00855831819756294,1
0.207281165776272,0.00646489991211236,1
0.20161831282331,0.00859107407810253,1
0.191584881060837,0.0137610668832147,1
0.128602505335708,0.0117691847088454,1
0.127673148141067,0.0141789648140091,1
0.0982244122614732,0.0126956190005066,1
0.103922443979333,0.0131490591006274,1
0.0985926348850378,0.0106273527911131,1
0.0910303583664915,0.0109253959316952,1
0.131737463646213,0.00972248291861942,1
0.187158013720814,0.0108706453888057,1
0.187440191277642,0.0105045433292696,1
0.197599915133775,0.0107262458852632,1
0.206141379985798,0.00923336853184868,1
0.196468728331489,0.00826479048377523,1
0.208476125402093,0.00736331692474584,1
0.213245069141739,0.00637630122120676,1
0.208594409360389,0.00469563200673138,1
0.228812837282787,0.00482874213396184,1
0.221500140288032,0.006578240371206,1
0.171954834603018,0.00540654189480555,1
0.17613611985466,0.00551346179845061,1
0.141845613626371,0.00436988954640698,1
0.144794873666375,0.00529913705468137,1
0.297451585792445,0.00546206893552273,1
0.426599491928644,0.00681975186065695,1
0.46325294790377,0.00784858026747356,1
0.532824231135795,0.0104843134869735,1
0.518958403773912,0.0096418427108955,1
0.482598172755267,0.00921186359619491,1
0.439716772250244,0.00787888996934601,1
0.559519784658147,0.00926819170117609,1
0.706592997872081,0.0105617719171444,1
0.517842674476498,0.00770103494629473,1
0.533220364351948,0.0120937065515713,1
0.507137672964951,0.0129529514836318,1
0.472757104893991,0.0122879645356534,1
0.477747251079701,0.0143767088024114,1
0.384932838029574,0.0130371840650466,1
0.366159061943484,0.0057871920805575,1
0.638875417375965,0.0114944536438363,1
0.711961902351134,0.0120911518354287,1
0.632111422096329,0.0094914614823677,1
0.639996266406122,0.00846044965480911,1
0.590629989973269,0.00671773540217851,1
0.66277671548482,0.00838756667653389,1
0.689303692402923,0.00779184018376037,1
0.644728844276935,0.00671180117983019,1
0.598491390644545,0.00513123855892758,1
0.594105907138841,0.00760698033474452,1
0.488841477045696,0.00606016881742816,1
0.443114625425233,0.00624469310168036,1
0.409468805988697,0.00670409350144932,1
0.371882106688667,0.00665269139823357,1
0.344032010371604,0.00786137486318975,1
0.170656147460391,0.00365333890915112,1
0.153730329633916,0.00463962918598733,1
0.12909191455999,0.00476293668647413,1
0.105072441810582,0.0113903643688758,1
0.081229372026497,0.00876762543953147,1
0.0801299922690941,0.0053999252345592,1
0.186041809522865,0.00948281039085471,1
0.178370094447715,0.00924042563194846,1
0.187188228516112,0.00964348384240046,1
0.221403262542282,0.00844215867165266,1
0.265990323783149,0.00968890514719589,1
0.276985296015,0.0108911890131837,1
0.263676723705886,0.010680353920474,1
0.284020157439306,0.0110713977428777,1
0.305027533035307,0.0117983442869093,1
0.333237583315165,0.0176974783483096,1
0.241357908223736,0.0173232940953733,1
0.209130849907132,0.00881528556372707,1
0.135404660079022,0.00650033823818087,1
0.167184295083781,0.0112263764222716,1
0.167764121007806,0.0107877513004668,1
0.177739980029204,0.00949170095580408,1
0.180621580756575,0.0104169880000746,1
0.223414005954974,0.0100188474613511,1
0.29461174082518,0.0106258056943177,1
0.294489877503957,0.00976038824450625,1
0.267654593537877,0.0093249833606722,1
0.249429529621062,0.0132332321835912,1
0.219813281624578,0.0111991503671254,1
0.226891416523447,0.011756655730483,1
0.238253213595894,0.00891573672030676,1
0.233558779881555,0.00892977990507024,1
0.237426642440401,0.00793001287214248,1
0.18847562851507,0.00943712686994325,1
0.094371888491628,0.00539550103908912,1
0.0994437224521152,0.00430371999918367,1
0.117907329433798,0.00527342800000536,1
0.156848882469709,0.00529150518429639,1
0.29724508968923,0.0102641370972756,1
0.300233350943377,0.00985873374518779,1
0.273040121350301,0.0111151920098885,1
0.333072307639032,0.0126789396501631,1
0.331153148495939,0.0116556155357707,1
0.315609658133418,0.0110104506166497,1
0.228422711370531,0.0093594542147593,1
0.138952235501112,0.00424854351863277,1
0.180918687044389,0.00531913519445991,1
0.173947008189017,0.00839547268789726,1
0.20526546220579,0.0105237858125322,1
0.202146538696721,0.00787179531550967,1
0.218161753802656,0.00599648594404384,1
0.237509224461834,0.00810510263201614,1
0.193792952024006,0.00713891341942636,1
0.200656571493942,0.00766721599097391,1
0.130833268230131,0.0043797040567767,1
0.105522691786908,0.00400925651931924,1
0.114267347646637,0.00324193329411132,1
0.142014349596252,0.00443374694043295,1
0.187350319560952,0.00612221174723865,1
0.228410867632215,0.00940465078330361,1
0.269343646055949,0.0169044036329157,1
0.239069829380978,0.0109365978759882,1
0.271986001771752,0.0117493024228827,1
0.277300613113979,0.0124444137094174,1
0.288458796535805,0.0114344939430967,1
0.260631021233108,0.0137613170967941,1
0.23300242063738,0.0182920552505632,1
0.235284605736622,0.0138590154488605,1
0.22912274955675,0.0148064282745629,1
0.185069346854573,0.00983208557019716,1
0.146981456360152,0.00799425883465598,1
0.143182931266471,0.01089020637998,1
0.148717214504804,0.0112495520513429,1
0.127758699807116,0.00910589739548462,1
0.107983660503746,0.0099479587856735,1
0.191578455745562,0.00575872456465521,1
0.315717397601875,0.0078116057393014,1
0.308712230135768,0.00769945744533319,1
0.291392960287743,0.00726816223632022,1
0.293655984729083,0.00788950963254171,1
0.310755436250007,0.00847554299297367,1
0.34346031786283,0.00944645179111157,1
0.335166409768205,0.00788568877193593,1
0.321910635461247,0.00692977344936829,1
0.329762380497552,0.00672751414970356,1
0.254207573153805,0.0112978182278155,1
0.106194977387701,0.00519044535831883,1
0.10013262273296,0.00254412155243994,1
0.239727103245495,0.00568560675624247,1
0.419158625439216,0.00991338474612921,1
0.510395961269299,0.0127774104520001,1
0.519501115710028,0.0134904856689704,1
0.577162016564908,0.0160106329817187,1
0.602050078595485,0.0170797843754735,1
0.670607490821086,0.0171036575941816,1
0.696297613354482,0.0102569469606649,1
0.472637907050465,0.00748277729903364,1
0.293541307101756,0.00381536199524485,1
0.337530860434137,0.00509791988585043,1
0.343085012901705,0.00540620473109661,1
0.331737525793538,0.00490279513679397,1
0.338923146301046,0.00473583321657948,1
0.330038332275565,0.00478191855641852,1
0.298397905638739,0.00438172105233824,1
0.278886074606448,0.00498800177925796,1
0.256646676998096,0.00850652735735143,1
0.0744099060922592,0.00237988493910541,1
0.0587222683148232,0.00482806164597662,1
0.123191520027004,0.00786933399194337,1
0.193448710723913,0.0105608394900175,1
0.253223481956684,0.0142192361692969,1
0.245683205628524,0.00460642970366882,1
0.405663699579974,0.00807545059133317,1
0.415480266944029,0.00666723577305093,1
0.429324332491971,0.00685343748835599,1
0.424374482071523,0.00702815415204644,1
0.421937893783417,0.00653762098588981,1
0.420887060389384,0.00691020873725742,1
0.409414461642481,0.00607864229059277,1
0.508862323372206,0.00769267588818619,1
0.509452827024518,0.00690366560282143,1
0.480984228246032,0.0151384378773308,1
0.274816454016482,0.00983491814714999,1
0.218348394529648,0.00666083720246952,1
0.278927826580585,0.0103848227422962,1
0.347266783836646,0.0125934520621397,1
0.354112361507502,0.011105129153185,1
0.326792383450286,0.00962242383854836,1
0.489788548592427,0.0128049834289703,1
0.497474745935049,0.00935693558397476,1
0.48853577899921,0.00949096988737311,1
0.546874102995624,0.0104732774961205,1
0.561186650796149,0.00977867201894072,1
0.543496613254686,0.0117213342508017,1
0.456639301528084,0.00927465922579415,1
0.313173500781249,0.00637094296178382,1
0.210769116314693,0.00462751479385528,1
0.187978545198767,0.00412355531930422,1
0.129018584175241,0.00397982693619603,1
0.101794472279222,0.00557977077007587,1
0.138985263869265,0.00775792781138037,1
0.203568618043116,0.0106840412815544,1
0.295767861122137,0.0164453299039501,1
0.351454521557522,0.0156550544397053,1
0.347397643465105,0.0134387678975141,1
0.372139269130169,0.0141822685558006,1
0.384283489167394,0.0115193590765074,1
0.430299576669718,0.0102707013310315,1
0.378178000401599,0.00786540779692753,1
0.308864153871993,0.00622964303530841,1
0.333865798875698,0.00710354361765654,1
0.347988694054723,0.00713237326789963,1
0.347102379277588,0.00555194450109005,1
0.312570050416748,0.00526980342798187,1
0.318165722162424,0.00465491245943763,1
0.322519820056719,0.00445541279300901,1
0.290972454498549,0.00490068910581722,1
0.245728051548003,0.00449961187491438,1
0.271869409058426,0.00362103548147482,1
0.311880437380436,0.00449063060183964,1
0.329511869491314,0.00420861853925195,1
0.320392088073808,0.00409762038680288,1
0.276786093366847,0.00423249309207755,1
0.330651408480684,0.00495690866204377,1
0.346366591152041,0.00446296702213135,1
0.339276455496116,0.00417719879331474,1
0.36440763377086,0.00420122628307416,1
0.298574802403076,0.00332412164474764,1
0.265920415769565,0.00459602831083237,1
0.279106206991021,0.00454042888387697,1
0.423681203175829,0.00787031966375381,1
0.582952782401334,0.0117574585567672,1
0.710448007524668,0.0135988819653779,1
0.593033935618391,0.0147223906052859,1
0.597059708237215,0.0194976976172729,1
0.456051944943318,0.0174378370776625,1
0.411821583600523,0.0172615154017281,1
0.307534214442539,0.0145943907418509,1
0.155066776512688,0.00557812103536761,1
0.10967098891972,0.00677787672314392,1
0.109177023066914,0.00669265358318942,1
0.153890188501603,0.00617043955514343,1
0.286685518392523,0.012001247049852,1
0.256339238491482,0.00722440696412651,1
0.204141744851843,0.00582858893382605,1
0.211097663188961,0.0061875407952475,1
0.213670075005082,0.00786817505382113,1
0.199840443424742,0.00581513605096476,1
0.209670124159354,0.00629122957446604,1
0.198900756178613,0.0055595321813675,1
0.151087147379619,0.00330692309553779,1
0.198366578404417,0.00607367460237897,1
0.195281316406033,0.00354380358457982,1
0.217285203433482,0.00494114956794824,1
0.206322264346675,0.00512765075045683,1
0.251372141483082,0.00601777862132942,1
0.239350310237179,0.00439755285190669,1
0.236187031210739,0.00526813149974539,1
0.251725510671686,0.00554456318902164,1
0.247481984472108,0.0054244477097456,1
0.226034852336081,0.00577879317558381,1
0.185501260988661,0.00330680141207175,1
0.23262003191717,0.00614759490972784,1
0.224112310075087,0.00687703887389432,1
0.22289053566604,0.00670428367957409,1
0.191979263073589,0.00670375249912029,1
0.208430117070523,0.00871205666090013,1
0.211391161389987,0.00950328991562048,1
0.190762237184455,0.00753975114916891,1
0.208919271610058,0.00491809176840696,1
0.298518104033944,0.00749965576045603,1
0.262432946461346,0.00735165037507983,1
0.192970978115759,0.00643428459634962,1
0.174293347580945,0.00542561194670512,1
0.176707268221402,0.00572104376269715,1
0.174357244015978,0.00428040867896922,1
0.226715718049498,0.00650012727102757,1
0.228531638800518,0.00630274993523707,1
0.371656224769332,0.00758417004367628,1
0.458360762327649,0.0112800051702024,1
0.41862173974875,0.0104157887835864,1
0.415281814344176,0.00869481807814269,1
0.428564444825194,0.00758589604001054,1
0.423952450797502,0.00416023800343416,1
0.507501521752282,0.00511848935959101,1
0.447109764326316,0.00402924234660234,1
0.518153487383988,0.00394199676391154,1
0.501131155332393,0.0038141417573707,1
0.51538946436983,0.00444089888187694,1
0.512260465434701,0.00450443256729189,1
0.633453098024122,0.00524211153678239,1
0.669071282582582,0.00473098913809882,1
0.510169514830882,0.0035348944875196,1
0.396984319060082,0.003493805753027,1
0.372258426513265,0.00326281387170265,1
0.316651375075017,0.00289461030904715,1
0.320639176668253,0.00311412858395189,1
0.410178243383783,0.00389125940586561,1
0.415068104802524,0.00366242315640095,1
0.454226973473132,0.0038685141984904,1
0.432976408312806,0.00308225645488427,1
0.426478196553475,0.00304379459998662,1
0.454413257911612,0.00346437393329588,1
0.474631860766709,0.00279185533798924,1
0.540122109422624,0.00350612913936213,1
