Activity,Complexity,Tag
1.18045415434074e-07,0.176993846959454,0
1.0484870915035e-07,0.170992537742183,0
1.17276471287421e-07,0.18618847885327,0
1.06306644993678e-07,0.180940027919205,0
1.12925657381738e-07,0.185829376405171,0
1.08231689895127e-07,0.182418794254782,0
9.80718928026244e-08,0.17485402048979,0
1.22138397278439e-07,0.187030746808994,0
1.59665042606738e-07,0.20011926581781,0
1.89650129321242e-07,0.210263799288605,0
1.96465579626548e-07,0.210088644217332,0
2.18491370765982e-07,0.221187690149468,0
2.21576368146095e-07,0.220209485747533,0
2.21754831351959e-07,0.209444926403889,0
2.23936541125674e-07,0.203096116104847,0
2.35340445027402e-07,0.198471206587978,0
2.22974193753307e-07,0.19693725237862,0
1.5557474529719e-07,0.165780716593233,0
1.54932674600356e-07,0.175619528538114,0
1.38091537224481e-07,0.177075368591564,0
1.08373153208081e-07,0.167682107213376,0
1.04611886491947e-07,0.167295921011499,0
1.04752532772566e-07,0.164122540584036,0
8.26575273224213e-08,0.160184639214115,0
1.05312199922414e-07,0.176452493469336,0
9.41016992464008e-08,0.169117115875237,0
1.01880664113125e-07,0.17074914115508,0
1.15080755245096e-07,0.186014032644008,0
1.44350588509282e-07,0.187083262851222,0
3.22904835119296e-07,0.253131248227573,0
3.26649527750909e-07,0.246871101039231,0
3.54371668333763e-07,0.257045327638259,0
3.71749712672996e-07,0.24895689064375,0
4.56948093840057e-07,0.276528130641171,0
4.52502504183451e-07,0.277259833704094,0
4.82842883245012e-07,0.29147110213772,0
4.82156459364249e-07,0.282163428079835,0
4.20841684148746e-07,0.262871650859294,0
4.18255776806746e-07,0.279295421746108,0
3.31871181407378e-07,0.252699078845622,0
4.2042161280937e-07,0.266463214708405,0
4.33556691511213e-07,0.253585079166635,0
4.84995063135742e-07,0.2567528296571,0
6.09930979131088e-07,0.269649528255988,0
6.70409113234993e-07,0.27474784495798,0
9.87780071626737e-07,0.330821712779281,0
2.65560160084893e-06,0.497571926551652,0
2.83838813331651e-05,0.247290102119719,1
0.000289142458167213,0.338211917583701,1
0.000518796404243189,0.385127863832099,1
0.000747051181627511,0.40745332586779,1
0.000930945021328662,0.29323986830381,1
0.00085483514305511,0.206245781560678,1
0.000750170811841139,0.178837162272578,1
0.000672101207861153,0.14505752011869,1
0.00065855442224683,0.146426334652786,1
0.000661920112836603,0.139922960408232,1
0.000690528976278845,0.15906029209395,1
0.000647727283063761,0.177674209955348,1
0.000677201371610579,0.163921776098423,1
0.000611509193922817,0.107184517476076,1
0.000453274702453178,0.107686919124372,1
0.000439607002706172,0.119250291841265,1
0.000461523330771262,0.115678680245521,1
0.000474204988274419,0.131480157175657,1
0.000417080321256233,0.112254609737907,1
0.000349672448613142,0.0980048996958311,1
0.000303587244721847,0.0908366197687365,1
0.000305594043863013,0.101006098540027,1
0.000223127072175178,0.102993410260066,1
0.000189000176830186,0.170588939872528,1
0.000171074943175652,0.1336821047077,1
0.000186547404673825,0.151312251631664,1
0.000198327217216252,0.209508296671119,1
0.000188012110797242,0.203705030327695,1
0.000184060596350993,0.221339615441326,1
0.000185748291024588,0.253676532700721,1
0.000152736339597678,0.241115353125448,1
0.000121533872718991,0.191457511378058,1
0.00010908911537559,0.162651057850614,1
7.43120809060133e-05,0.17546767038143,1
6.39703129711112e-05,0.194770588110488,1
9.59508998531736e-05,0.138582698750298,1
0.00013034485272174,0.131111122725075,1
0.000138190838984387,0.128666761275038,1
0.000326040482084673,0.164223872619141,1
0.000368704870331235,0.124372146578896,1
0.000368777368294902,0.11972738223818,1
0.000348298570807279,0.108244362988388,1
0.00033019950897132,0.0948972269592473,1
0.00041231893471239,0.0932772257283338,1
0.00033179259130046,0.0744779404018175,1
0.00063442883197673,0.0975314782306732,1
0.0012626673888166,0.0933710339825785,1
0.00291483902512987,0.138623033676976,1
0.0037066413157813,0.13352886443507,1
0.00350408300230655,0.125727726039269,1
0.00307536400360728,0.116161375337433,1
0.00302747102241519,0.0894703278441053,1
0.00300064043020142,0.0876287058351163,1
0.00290949407755896,0.0773784986092716,1
0.00216583171670664,0.0516439779563857,1
0.00207664471638685,0.0260508091250196,1
0.00936548630960692,0.0412813945484645,1
0.0112462152585898,0.0183789154978073,1
0.011750779769577,0.0194916058226509,1
0.0113529700097533,0.0157307694064756,1
0.0106390254471052,0.0127662708184609,1
0.0102645648333984,0.0129249722902671,1
0.0103332592057406,0.0127934396756542,1
0.0103878189989805,0.0121319810100206,1
0.00993308121186297,0.0117598623078903,1
0.0101481662563524,0.0153334067765733,1
0.00505739899739478,0.00969955166388432,1
0.00340635796867665,0.0240690990096565,1
0.00292348319549239,0.0206351584730358,1
0.00304119747238963,0.0352257477740335,1
0.00335457791821456,0.0378967430602231,1
0.00498825018968329,0.0389286532205176,1
0.00499740531677829,0.0368609312361442,1
0.00515081914927627,0.0362759667429396,1
0.00465927238589518,0.0269111813377051,1
0.00554337632516701,0.0273748681425176,1
0.00623721612796414,0.0296295180325068,1
0.00700576022232073,0.0298456935457764,1
0.00708090558551841,0.030385719913535,1
0.00693572325435654,0.0234705646602984,1
0.00621254096707964,0.0259655933931408,1
0.00403693071558392,0.0190817594645203,1
0.00403260906914903,0.015935368292474,1
0.00411523987998095,0.0178946436672966,1
0.00407160743809147,0.0214769870369492,1
0.00363563507387803,0.02183479700015,1
0.00319848128534272,0.0203410772531636,1
0.00446629146225225,0.0205676324182889,1
0.00950475881326502,0.0317536014978451,1
0.00913161451977037,0.0306393182356325,1
0.00919713351986789,0.0316100338515593,1
0.00911330920629163,0.0308234806154719,1
0.00805729544495459,0.0354425421749575,1
0.00613688651278446,0.0280081679034373,1
0.00685192293515248,0.0334694970512053,1
0.00711996559803323,0.0273083298212704,1
0.00692111587836713,0.0250172516629494,1
0.00631455976148066,0.0347610108921788,1
0.00320316986006576,0.0264100027219763,1
0.00376645556535876,0.0224649947819324,1
0.00384854354726024,0.023280321569085,1
0.00385474785095902,0.0236431287493492,1
0.00386786899050562,0.0227624670900143,1
0.00400941402641904,0.0236085509710808,1
0.00358102900532726,0.020578744872787,1
0.00391425826862092,0.0237812601834216,1
0.00417907595909137,0.0174102065450871,1
0.006151450381802,0.0222490146384022,1
0.00471886315016681,0.0154217951062545,1
0.00459982923940766,0.0221289953952382,1
0.00470640439390809,0.0229347566020757,1
0.00461389120779585,0.0235720768340195,1
0.0049075053487145,0.025012630642088,1
0.00524934503368287,0.0185086036035389,1
0.00668780494201138,0.0230061011969907,1
0.0059504316257009,0.0252264368234256,1
0.00543395677763739,0.0350457651060089,1
0.00543240293527039,0.0377121030949438,1
0.00533429914610898,0.0401318838608003,1
0.00501563236077695,0.043410171139284,1
0.00414760392219796,0.0358769960739741,1
0.00374629498982706,0.0312844281322557,1
0.0022932033965795,0.0236564424327859,1
0.00148541713643404,0.036026596185938,1
0.00169771006325716,0.0382489619367346,1
0.00170100802886945,0.037841594041134,1
0.00188562766255508,0.0452583131271129,1
0.00193396367031032,0.043688693190714,1
0.00143797951770946,0.0270063768011425,1
0.00151820121941007,0.0292740754929454,1
0.00123995184322245,0.0249429053261187,1
0.00118559637809776,0.022490277868778,1
0.00157017569777315,0.0254556972641078,1
0.00173142874310227,0.0183644597118833,1
0.00199773317727589,0.0205250354547081,1
0.00222107638053213,0.0193830810467567,1
0.00310790356059389,0.0275131449557996,1
0.00360831371099955,0.0333595975206153,1
0.00351847943221881,0.0324028754048315,1
0.00469679668248896,0.025845271128582,1
0.00481109721609007,0.0200313596916906,1
0.00476877720650607,0.0206408951686164,1
0.00333756336175702,0.0155579427670924,1
0.00289320695195183,0.0162619050231978,1
0.00306113603385728,0.0142189632684613,1
0.00381362355816026,0.0185962526786269,1
0.00382200859119395,0.0147561073490401,1
0.00371879479082581,0.0150209631380709,1
0.0031265725426352,0.0143328648667473,1
0.00236438389327179,0.018636731290644,1
0.00271949285543687,0.0283991097975224,1
0.00502501676115157,0.0451335533769498,1
0.00985291770060593,0.0598980050781846,1
0.0105417655079652,0.0376033856710904,1
0.0100399654175982,0.0407242154902581,1
0.00711842733157067,0.0255370285351605,1
0.00909005457517576,0.0303882280690502,1
0.0107022091339493,0.0336554025924586,1
0.0111336443701875,0.0319564038542332,1
0.010588072767239,0.0300675737968475,1
0.0114925118457865,0.0299649206594071,1
0.0117193058687993,0.0260831302564648,1
0.00689184347075078,0.0167185475310909,1
0.00615087910252172,0.0233961312982301,1
0.00699812240387513,0.0171116600221499,1
0.0261859845521679,0.0493836762951067,1
0.0409395573000852,0.0678979341525677,1
0.0398121819651636,0.0576176254068649,1
0.0405175623763122,0.0593254255441414,1
0.0428664700831187,0.064184697911932,1
0.0414438267336583,0.0692399445244793,1
0.0286229623699054,0.0496840144914402,1
0.0210874685048493,0.0403444398437152,1
0.0147298480749473,0.0275263578915902,1
0.0123978125534458,0.0216681231660199,1
0.0121192172727294,0.022444880851866,1
0.020119616472481,0.02908291676739,1
0.031276954106581,0.03441852948988,1
0.0314480775107458,0.0188181716033732,1
0.0367355200569028,0.0152746605586359,1
0.039185501593451,0.0137321309886968,1
0.0365898657532394,0.0118419858335188,1
0.0342588918116559,0.011045372134173,1
0.0336761580246964,0.011671360863254,1
0.0349020756077817,0.0113905149814513,1
0.0423201781905325,0.0147215417133606,1
0.0443134646729405,0.0139063087171023,1
0.0508513586797349,0.00815905221315969,1
0.060802071914407,0.0102803702753614,1
0.0551620369569526,0.0107315233737135,1
0.0595558901802507,0.0128934303717724,1
0.0651972148657324,0.0147561140389023,1
0.0661727784359734,0.0130377798743977,1
0.0670962137978483,0.0133226820514479,1
0.0671034287466188,0.0133436364275534,1
0.0667554740128984,0.0143005105072978,1
0.0661172623132712,0.0175885628647262,1
0.0381268202103334,0.0264257341034452,1
0.017550869225492,0.0320752125622567,1
0.0176104069181443,0.029763236411562,1
0.0193311913014178,0.0352048153633292,1
0.0321543559389419,0.0376313613123367,1
0.0327807815193541,0.0356783622332414,1
0.0354783440342711,0.0346984954629359,1
0.0354284282057887,0.0371790280503481,1
0.0313439922259883,0.0324078026824469,1
0.0273690667559117,0.0151631863726661,1
0.0400043702768671,0.0105200419132872,1
0.0343017664477671,0.00691301370481366,1
0.031137403234287,0.00644859070849429,1
0.0333311320886977,0.00735341354142154,1
0.0304912966460939,0.00658336225912845,1
0.0322240666816516,0.0074081130590344,1
0.0408877696616104,0.00768326162329494,1
0.0476518418101087,0.00849628227175468,1
0.0519712775204305,0.00943697131831715,1
0.0512830099641837,0.0135566682463523,1
0.0420089237042799,0.0166848238227442,1
0.049110973815971,0.0205429610389192,1
0.0489598409336125,0.0201331093389149,1
0.0492426973284722,0.0208111628087887,1
0.0487205640155874,0.0227364828618627,1
0.0408286371582868,0.0237575316051184,1
0.0131626636837056,0.0138100635617128,1
0.0150495104438268,0.0262321565513386,1
0.0151943094878457,0.0260608566870311,1
0.0119986264468613,0.0237036772449661,1
0.0117228667799282,0.0331747581126845,1
0.0147147102836666,0.0533869882330335,1
0.0167201174809237,0.0614350994990655,1
0.0151145921788398,0.0463247318193411,1
0.00761627879628424,0.0249384459026135,1
0.00553192365143798,0.0241039074628017,1
0.00559144858332917,0.0269169824902163,1
0.00573838178829092,0.03134264718431,1
0.00475812002113709,0.0277228045897944,1
0.00383522034569595,0.0196732544339319,1
0.00325646144345895,0.0163660258621063,1
0.00456134388285104,0.0183408235452115,1
0.00473853019031308,0.0127378008561592,1
0.00426849444019544,0.0156131905566823,1
0.00388581487757041,0.0145525044756081,1
0.00546654185978246,0.0162436161585537,1
0.00594961415111743,0.0108390143798704,1
0.00570525909058203,0.0079067920184521,1
0.0063148132077124,0.0109764531728954,1
0.00683601998048389,0.0143394780569433,1
0.00718614300597272,0.0156353079331755,1
0.00702118911148445,0.0176798068586719,1
0.00750398722369185,0.020887575959027,1
0.00749786125938778,0.0119860363525972,1
0.00738468179628008,0.0112211003689636,1
0.00804652858863489,0.00505086014337315,1
0.0269906685009676,0.0163878978032049,1
0.026374044608757,0.00973484511322077,1
0.0267412720171059,0.00900211869738706,1
0.0275151893474941,0.00880657733213328,1
0.0316551788117182,0.0101809154248635,1
0.0309271964766277,0.00986170145733197,1
0.025260428331687,0.0078617324218118,1
0.0205786291463391,0.00610166123503947,1
0.0206880210627689,0.00571589009685078,1
0.0217172798920044,0.00852928221656474,1
0.0147827160513521,0.00922684724903517,1
0.014914390478418,0.02096791055245,1
0.0171037084432358,0.0290356822996002,1
0.0165679864280599,0.0324844161959831,1
0.010345984772429,0.0262578560373387,1
0.00984108528331986,0.0267977186641934,1
0.00833475566513292,0.0241925961546778,1
0.00767319283540102,0.0316901062475173,1
0.00292172754940664,0.0190159394980628,1
0.00469852343410944,0.0699016080116685,1
0.00427271202927536,0.052438109077298,1
0.0043284108413416,0.0461654642178632,1
0.00638359825605402,0.0327179809144285,1
0.0193325869372616,0.0319203680287915,1
0.0247098470535379,0.0246258019782789,1
0.0379680691485355,0.0317981965808759,1
0.0387051926651463,0.0294594016474649,1
0.0474335084451094,0.0297519130068013,1
0.041695455859689,0.0230373580988536,1
0.0556379479744564,0.0248419553547135,1
0.0511782726954426,0.0110047599553758,1
0.0446067116591363,0.00526316552292878,1
0.093643168075376,0.00808280478516436,1
0.176548301241495,0.0130754206379247,1
0.164108078522798,0.0117398003256218,1
0.167597444647407,0.011546863701161,1
0.165227003979514,0.0106117426675024,1
0.166499362567966,0.00973450195329334,1
0.163530482413628,0.00999484994494679,1
0.182895684275608,0.0119070330630493,1
0.152083616326456,0.010268433925084,1
0.119416980267149,0.00911048717604374,1
0.130585437131476,0.0214289330846256,1
0.113489732426289,0.0270226379541991,1
0.149397238136717,0.0366452375162227,1
0.164993039127477,0.0373225244509116,1
0.173348547412532,0.0450136900969461,1
0.182752493284752,0.0593203872746581,1
0.161276938706787,0.0300705757575473,1
0.133103770520919,0.0240900341760806,1
0.119315654019352,0.0382259729634774,1
0.124418617870718,0.0320890475532715,1
0.123523109335168,0.0321014968442534,1
0.120642421967182,0.0326184062481386,1
0.105255550307526,0.0305645906456235,1
0.0870185488898684,0.0272211030839993,1
0.0772146445925744,0.0214121216148852,1
0.0696505064871596,0.0211227267648987,1
0.0743361725181263,0.0406742037159852,1
0.0595897409971014,0.0356502213179625,1
0.0484489426240868,0.0281485898215409,1
0.0397571927635387,0.0290638981595815,1
0.0376523666673998,0.0295682989015121,1
0.0384137617989684,0.0275953145258161,1
0.0330520542116084,0.0284869070865305,1
0.0256422733020841,0.0253574030651944,1
0.0134566416763188,0.0278036293345964,1
0.0147457703824274,0.0186939835277194,1
0.018479866222768,0.0231294592446865,1
0.0215420190365594,0.025508020601576,1
0.0178907035529144,0.0207393622700025,1
0.0186457052295115,0.0213072858243805,1
0.0187024036127099,0.0215841194370668,1
0.0181122700245812,0.0276658540954484,1
0.0181828897505464,0.0227745735650473,1
0.0174518638897033,0.0188686951917136,1
0.0124934503188867,0.0112422823698138,1
0.0144371474195993,0.0196688383635466,1
0.016252597047488,0.0205627171425647,1
0.0170568548328051,0.0223019201162455,1
0.0213625654558457,0.0293919062126113,1
0.0224527225158525,0.0333472883531568,1
0.0176810728832375,0.0289522861021512,1
0.0112466766959261,0.0182432170130255,1
0.00990757363975999,0.0217762305854989,1
0.00791213729409812,0.0220300447218434,1
0.00607528012157072,0.0234263291342492,1
0.00570952881426184,0.0244717204552779,1
0.00564496261311323,0.0282408882122366,1
0.00559446893629387,0.0295110965874546,1
0.00460388293518592,0.0238824059908681,1
0.00631273450470679,0.0221041800926032,1
0.00693414312514133,0.0160833241132336,1
0.00571632960700705,0.0130916978719098,1
0.00532067005919343,0.0129534233842785,1
0.00435894038206386,0.0133329203843255,1
0.00413423590757725,0.0152915290759414,1
0.00429064802698076,0.0130916328542813,1
0.00537480739500939,0.0142773364675143,1
0.0053133748549707,0.0138200188903983,1
0.00539352205277654,0.0139971709601267,1
0.00428069384891458,0.0143534469159502,1
0.00647964673384559,0.0157598183181008,1
0.00846932649330463,0.00682166648940228,1
0.0123982191695465,0.011433151608957,1
0.0126849537981718,0.0101101492500245,1
0.0148843686127595,0.0118838494822422,1
0.0178765074511605,0.0144301094651329,1
0.0330047468993868,0.0250397939376535,1
0.0364676089903856,0.0148891602302937,1
0.0377364313615769,0.015624892616694,1
0.0339779070354864,0.0140686775532604,1
0.0333264395283743,0.01623120799652,1
0.0314041009208303,0.0237854379103914,1
0.024018027731672,0.0187243326331469,1
0.0215529064798487,0.017927929758463,1
0.0229377072375765,0.0185177038053517,1
0.023116837383668,0.0220352134271123,1
0.0167499769950206,0.0200624469470258,1
0.0167176179651802,0.0196556524786295,1
0.0241475315760109,0.01862750377588,1
0.0235487873186467,0.0139421656818664,1
0.0204881865608395,0.0104415751173268,1
0.0201961070775516,0.0102693266493385,1
0.0261992546578354,0.0100441730072438,1
0.0466891779250174,0.0175853762602087,1
0.0496740901111266,0.0196229272553107,1
0.0470545127415728,0.0153657877673187,1
0.0427848326594179,0.0132189424315388,1
0.0394373409662958,0.0176898929936483,1
0.0389386435985921,0.021019840440726,1
0.0381942364129713,0.0122433842515769,1
0.0596450245095305,0.0216127216088662,1
0.0837063183201902,0.0293605174307586,1
0.0935869255635396,0.0335590863664983,1
0.091461496996312,0.0340353332070882,1
0.107519677255509,0.0359118270677569,1
0.105478180614704,0.0220567338970495,1
0.0968200338105024,0.0192247394207442,1
0.0894106796410521,0.0167448082484157,1
0.0633430718780437,0.0123750413164843,1
0.0832689341504794,0.0172695474163309,1
0.0899963956346703,0.0106911542482683,1
0.103831806406639,0.0124650727703249,1
0.111841744442334,0.0131436851193875,1
0.111956960600963,0.0131732283202049,1
0.128238156070687,0.0123833829791784,1
0.145153462519147,0.0145972915548421,1
0.117979737166478,0.0131183760311644,1
0.124340343225004,0.0152891923744812,1
0.125785790687647,0.0144723129229633,1
0.0905547253195095,0.0117175956190763,1
0.0856584017209202,0.0174792477494706,1
0.0743311458653439,0.0155300436516538,1
0.0816421142694488,0.0176851609813273,1
0.088021811825449,0.01771034567472,1
0.0620035608735472,0.0195718326056708,1
0.0258700695117831,0.0156851698502511,1
0.0259335786126853,0.0125355811954744,1
0.0321336520585001,0.0124630915854929,1
0.0293768134416909,0.0103488637290195,1
0.0241757958292203,0.00810521988725813,1
0.0258426008245518,0.00723992696912262,1
0.0310822886717727,0.0103025766249094,1
0.0292741737793991,0.0104336311404906,1
0.0289109126716809,0.0121785010006507,1
0.0344630131730009,0.0155238424232046,1
0.0359648890806967,0.0127175818127172,1
0.0363074497071778,0.0132936208853552,1
0.0240323024841099,0.00937766761889414,1
0.0235025591164721,0.0110555265104591,1
0.0193361196619421,0.0101160754861956,1
0.0155212110294539,0.0113841978986682,1
0.0146087499081818,0.0109449204270306,1
0.0138976232472231,0.0107018536481014,1
0.0218489625908224,0.0100733738972691,1
0.0294785561487269,0.00800639705030173,1
0.03119729268959,0.0126854572671221,1
0.0311196676449258,0.0129360061300085,1
0.0392124335610527,0.0111736061906052,1
0.0517384389912375,0.0139367101198847,1
0.0513023215560464,0.0108465994835472,1
0.0614250148580726,0.0134264147721491,1
0.0731812568903257,0.0156640299915193,1
0.0789360314476719,0.0159532249746184,1
0.0776256411651205,0.0188583725005106,1
0.0616461046297722,0.0199164693074924,1
0.0613184474841711,0.0171525940909998,1
0.0666110199250672,0.0169708879476715,1
0.0522796386304646,0.0271466823603542,1
0.0181173988331342,0.0104652813168077,1
0.011417593322396,0.0134638561409239,1
0.0105644581142093,0.014922643268081,1
0.00995377414593901,0.0132506547289892,1
0.0132453470572624,0.0180400476389606,1
0.0128948439716748,0.0185284411288438,1
0.00928872194022769,0.0175184461400862,1
0.0062175178886211,0.0109426046254852,1
0.00789325414547164,0.0201154497178007,1
0.00770267822432207,0.0193308894090611,1
0.00775585747382273,0.0183391531431803,1
0.00880059472399028,0.018104768350504,1
0.00898646857094169,0.0199727982228472,1
0.0101374244810579,0.024489403420841,1
0.0080286924174576,0.0173060482194244,1
0.00789965363574428,0.0189985953081763,1
0.00797507455605293,0.0180026503097608,1
0.00786327381621971,0.0171582924749525,1
0.0140359840236809,0.014836455242249,1
0.0350235129441618,0.0328116487576534,1
0.0442798059614013,0.0415606280923363,1
0.0445467100883218,0.0348308364332935,1
0.0411591650460932,0.0342006073560461,1
0.0345432823770782,0.032859865288138,1
0.0327862757158558,0.0286683600170213,1
0.0382788813883742,0.0211277661877178,1
0.0374141164354757,0.0198356127774312,1
0.0253483773647287,0.0144037950744582,1
0.0292975859152074,0.0188691178362397,1
0.02842372692834,0.0185176071932019,1
0.0318695040977221,0.0184589976060357,1
0.0325970047916673,0.0170568240563376,1
0.0270446539621443,0.0128796842333071,1
0.0331412271609563,0.0131003343333633,1
0.033537793443319,0.014469225935194,1
0.0402207132316936,0.0275650496592483,1
0.0420981676804663,0.0264119508911202,1
0.0413438056140148,0.0196247894166597,1
0.035061667808921,0.0188802114489081,1
0.0364106860492347,0.019208627275487,1
0.0354983724994092,0.0202472336618609,1
0.0340359842337003,0.0265885122807887,1
0.030054303412933,0.0267723964838958,1
0.0338842991832649,0.0375098656660933,1
0.0347661612465018,0.0359711902201578,1
0.0322666517805282,0.0400669771855138,1
0.040960706578118,0.0162309961842022,1
0.0679270976214128,0.0313651442704736,1
0.0821854487654969,0.0376282462997259,1
0.0885196968071633,0.0404727842121587,1
0.100913058297419,0.0439922791580283,1
0.107353459596647,0.0382286494724167,1
0.0958423855313678,0.0313469473665167,1
0.0737933050004111,0.0255282937037991,1
0.0645472511341796,0.0140243217348612,1
0.104316087347097,0.0190496650952851,1
0.0969829235681542,0.0136972990459964,1
0.0994338492314367,0.0131892900005994,1
0.109439854421984,0.0140676794340959,1
0.112323570865455,0.0117490362711445,1
0.186524017926246,0.016191990416381,1
0.255632509342993,0.0205311765729247,1
0.22557188293514,0.0151216916213128,1
0.251793861191357,0.0152350960678089,1
0.260644079008614,0.00963892212537594,1
0.307302287926973,0.0118354523147915,1
0.317642279021037,0.012531847107245,1
0.288707813465955,0.0113200582434506,1
0.246420907527516,0.00763096208785519,1
0.258106828712519,0.00713958808905708,1
0.264058137935528,0.00968383948456162,1
0.231521752297746,0.0079017857603419,1
0.233535708447484,0.010044464580815,1
0.174732543958913,0.00744997474217357,1
0.148735028678648,0.0143664072651676,1
0.114064185276788,0.0120126494664947,1
0.11727781068261,0.0150963093946333,1
0.127380307742725,0.0155042014683391,1
0.134964319978555,0.0167449912841974,1
0.178679016338831,0.0397036577080692,1
0.131622483278216,0.0414825441902608,1
0.115412337637787,0.0475862768267042,1
0.12020193765523,0.0487858319624756,1
0.0785931501722987,0.0378187530807231,1
0.0445862306567118,0.0258154309833896,1
0.0316131798130884,0.0169653451317945,1
0.0309939103579198,0.018112924997054,1
0.0198989956479288,0.0128842890182474,1
0.00986548231507561,0.00762588530270039,1
0.00884961672329947,0.00794253782765378,1
0.0102191152513677,0.0109036750290623,1
0.00979232048695709,0.00998842233131276,1
0.0139739887673277,0.0154004467115817,1
0.00897821062191871,0.00950972977150863,1
0.00953003831195872,0.00807463296041889,1
0.018353970266116,0.01514936578979,1
0.01923892540088,0.0113877749812035,1
0.0192253156730788,0.00844662090595735,1
0.0234036023948078,0.0096570017318134,1
0.0195157721184808,0.00689554871309694,1
0.020002198949198,0.00682775150871279,1
0.0181561092045979,0.00504598780749441,1
0.0175915715383638,0.00499094355664455,1
0.0211850619221567,0.00629161920693785,1
0.0215673331969161,0.00675722039241059,1
0.0184395010459172,0.00594526922003431,1
0.0170468493847927,0.00765208873986114,1
0.0158691340699065,0.0104389003312493,1
0.0135904771318523,0.00772566708351742,1
0.0145502487588921,0.00970613522214524,1
0.0141761145238084,0.0105802376889841,1
0.0147975038007689,0.0111486466367329,1
0.0155035444466438,0.0123969578208521,1
0.011236377551401,0.012657250132105,1
0.00986841314137198,0.0138857951576526,1
0.00852688805902674,0.0116804236199496,1
0.00749153600887503,0.00976989040766099,1
0.00791162949041015,0.00493977139942637,1
0.0175890593739093,0.0114349313919272,1
0.0215772861456988,0.00829618926648083,1
0.0250451236892149,0.0053649371523778,1
0.0284849197696497,0.00277189100359053,1
0.0346652817195383,0.00441118067007517,1
0.0384941549146366,0.00465626767867353,1
0.0405051215807586,0.00350357232072289,1
0.0439209595732902,0.00437023976035526,1
0.0450162574348341,0.00435127602123607,1
0.0437729488581474,0.00598999078763962,1
0.0315399648918743,0.0026245150762744,1
0.0367583277231262,0.00692355169403275,1
0.0373142228830592,0.00903896152470493,1
0.0332632376815859,0.0157256075483761,1
0.0239270073208291,0.0139129942635139,1
0.0219026680670398,0.0159198295220371,1
0.0287544752351298,0.0292823154882967,1
0.045246251291573,0.0250658133864499,1
0.040292179030475,0.0158871354426612,1
0.0376542884572444,0.012558090629921,1
0.0385707026344694,0.0093047912662415,1
0.0463101829242454,0.00597373183619984,1
0.0589279156461261,0.00897465924543532,1
0.0569232448531856,0.00620383628227773,1
0.0629917945330472,0.00748641682288796,1
0.0667118280562436,0.00829950360201283,1
0.0639826708513054,0.00915091226946769,1
0.0413678185656393,0.00508264903616545,1
0.0441147072612375,0.00705916254280883,1
0.0421838780644007,0.00743011465698118,1
0.0393046134164136,0.00971077153275057,1
0.0471470948371259,0.0215017803199796,1
0.0210460056965288,0.00741751283845719,1
0.0187244878557432,0.0119512306710748,1
0.0195880528235628,0.00798272051076199,1
0.038481111536376,0.0149789173019942,1
0.0573368498245732,0.0212914985847527,1
0.0832405294480109,0.0311254066046741,1
0.0892820132198415,0.0293116505734651,1
0.0857352916964154,0.0283737627667548,1
0.0847540191324553,0.0298073785070974,1
0.0593742273562405,0.0292068536679531,1
0.0441624297908093,0.0296611936863776,1
0.0403442990154106,0.0131775419548053,1
0.0757780808958428,0.0227851302130695,1
0.0940093800736039,0.0147947890279366,1
0.0956720182787242,0.0161146497402307,1
0.0959037258843642,0.0151662248155283,1
0.0996724666217019,0.0154958135970252,1
0.113272431626989,0.017386920483836,1
0.135285746474432,0.0214492752535325,1
0.345127876674015,0.0254460656594675,1
0.488243753905112,0.0261781175090471,1
0.525370212143629,0.0349495328030328,1
0.585292057024853,0.040070197226434,1
0.633203322737652,0.0541790435361505,1
0.547663026424049,0.042270280507896,1
0.373537136379976,0.0311308047430586,1
0.249981483108178,0.0154723477404728,1
0.21301548734388,0.0130052138021113,1
0.150959939393798,0.00728509895236184,1
0.158294141978,0.0110961533586998,1
0.193106287947305,0.0106922830912342,1
0.24584178206162,0.00957037426767116,1
0.284359520812811,0.0063732895280714,1
0.298155624280388,0.00683748429974053,1
0.346112297672781,0.00831054921774694,1
0.416360044445658,0.0119453757937133,1
0.410216762900796,0.0129161301554598,1
0.465869829553929,0.0140936565921018,1
0.490482590448186,0.0166027176680571,1
0.49168189513709,0.0188640114647233,1
0.48797315970172,0.0241684403745208,1
0.151460040455853,0.0109061434835888,1
0.0736366567802556,0.0258419613714052,1
0.0357036364176807,0.0147839508246101,1
0.0386972404357337,0.0268862010745468,1
0.051661834001173,0.0305724758181901,1
0.0497471437880913,0.0202971883465834,1
0.0728261409391493,0.0385178760943614,1
0.0764553923636111,0.0178355692242249,1
0.0828576790241991,0.0202458474324745,1
0.0929525163890107,0.0210217511725221,1
0.116563987776544,0.0220766338726383,1
0.104874935482139,0.0161940638406025,1
0.105271104530267,0.0147211069816525,1
0.109790262496515,0.0164773315153692,1
0.116748102521129,0.0179370925469822,1
0.11329471055809,0.0223305120006951,1
0.0588168074625849,0.0113792253838861,1
0.0330522431374969,0.0082247248644289,1
0.0390007524816164,0.00872082591888145,1
0.0392222398288372,0.013133670165923,1
0.0315527091494613,0.0116392185140531,1
0.0237805787483026,0.014478695463147,1
0.0250488183463194,0.024656209027212,1
0.0305172771322698,0.0240874399157656,1
0.0300194460318537,0.0224220031267479,1
0.0359832482472278,0.0237228561408101,1
0.0387312337746546,0.0154917524049557,1
0.0605177005854273,0.0222516934501762,1
0.0564472262062615,0.0124681973349428,1
0.0525797577007292,0.0113548298118082,1
0.0502116680195712,0.0106192568264336,1
0.0508857588812667,0.0107842949827727,1
0.0487758766874338,0.0100049124652304,1
0.0452909474796833,0.00880349367112104,1
0.0493544413577408,0.00639792500172909,1
0.0507063413257264,0.00545532932110923,1
0.0493472888685246,0.00772499745714117,1
0.029157207890115,0.00441045107402189,1
0.0237904641196405,0.0055872142914136,1
0.0235608519822764,0.00538467912940459,1
0.0246613865206005,0.00387462766127861,1
0.0493045024556817,0.0111099165500537,1
0.053759669761702,0.0103282394128232,1
0.0531587488522277,0.0103146143202371,1
0.0504281746134856,0.0147725068962093,1
0.0458495088127985,0.0185986964964273,1
0.0502851058645565,0.0193107755540909,1
0.0543301548962363,0.0134166270149841,1
0.0579009241804827,0.0118420849799533,1
0.0586308132756412,0.0117423269168356,1
0.0558780409571005,0.0132942707040066,1
0.0573631474025159,0.00877306914749599,1
0.103210666348935,0.0131666604039049,1
0.106347652172478,0.0131041297467954,1
0.102266006512639,0.0124527375540264,1
0.0932264836222768,0.0115152000891873,1
0.0712186434554675,0.00819025831683477,1
0.0714944330037243,0.0110434404365124,1
0.0757295696570616,0.0133331306724302,1
0.070596670806798,0.0123596612536419,1
0.0711589237122538,0.0121410328485336,1
0.0633069915190782,0.0186792434618644,1
0.0145880812858366,0.0121802238546304,1
0.0150236643243378,0.0259127255018278,1
0.0136862048944554,0.0248017567536629,1
0.014406748600199,0.022984258026125,1
0.0124839703145238,0.01927958332551,1
0.0132277404138119,0.0267910726411454,1
0.01326788856213,0.0263058986633262,1
0.0155597845505693,0.0314461157505169,1
0.0215200999442404,0.0552206081262693,1
0.0690731632339734,0.0479717449843261,1
0.129680346394591,0.0663032376584625,1
0.277383337271803,0.0806662674377704,1
0.333888084680055,0.0731929338517327,1
0.326214957950624,0.0619796978417213,1
0.285229085635527,0.0563474423316625,1
0.241515234619507,0.0478997110393705,1
0.220382380522483,0.0395665820289383,1
0.162067694749249,0.0225270863585274,1
0.110682525308551,0.0146673265401253,1
0.123996831744811,0.0184612069895642,1
0.15234741098938,0.0117527627974041,1
0.174608569606756,0.0121916906996378,1
0.168952395933883,0.011834280920018,1
0.259680708828015,0.0135987511754861,1
0.39785709751368,0.0129280678749293,1
0.35973327405073,0.010646287466391,1
0.399773422845288,0.0105634339911444,1
0.46380670191586,0.0151360207557733,1
0.476515112304337,0.0167356951915973,1
0.363014723881344,0.0140407729938013,1
0.34017609225846,0.0128061783592785,1
0.330909362737219,0.0132114933400472,1
0.258937348773796,0.0070586703974511,1
0.344415052135359,0.0141027513459933,1
0.405672813540659,0.0230478253054796,1
0.513166455278195,0.0311369793431515,1
0.618860684637299,0.0435416356701564,1
0.733054140539346,0.0462637201849071,1
0.769321339592863,0.0419326617621438,1
0.631781775558341,0.0346073925392958,1
0.557356394434292,0.0337992746731415,1
0.423500676858294,0.0324253358247645,1
0.142835346535821,0.0168132481693902,1
0.109311856262842,0.0143842140894448,1
0.106264906006951,0.0143868455522257,1
0.115308047935274,0.00976870499225678,1
0.112155024413491,0.00910577658301694,1
0.109368712981304,0.0108457069964925,1
0.139923670058446,0.016616779033959,1
0.15212008849818,0.0211852355321614,1
0.167584485100516,0.024302817421773,1
0.193064498872761,0.028992732684179,1
0.224024460026213,0.0335899322912747,1
0.20506365575604,0.0338093306027316,1
0.0879383828468578,0.0148944541543661,1
0.0569893152322235,0.0278765575260031,1
0.0441059937360347,0.0285412292103652,1
0.013929602382122,0.0168056983079647,1
0.0150848840296707,0.0290399817242844,1
0.0129783313401821,0.0126083084051622,1
0.0208114966688584,0.0218893093401779,1
0.0235869884857956,0.0121087344829468,1
0.0229839518556815,0.0098150342244502,1
0.0224091088945363,0.00914815163207877,1
0.0206307483817059,0.00734972206438683,1
0.0249397204550828,0.0103258707130154,1
0.0243438888632537,0.00584152221722484,1
0.0257727724888292,0.00633658554857437,1
0.0235708249436825,0.00582426036998641,1
0.0218615732630389,0.00834431843458476,1
0.0175963446090536,0.00589700657777544,1
0.0163311481917683,0.00684157510185826,1
0.0172000790045115,0.0107007543576176,1
0.0149873408679056,0.00866166610692131,1
0.0148673752023827,0.00998887676294584,1
0.0126878540762127,0.0087662477834224,1
0.0115767075345244,0.0116601915744451,1
0.0187310928814714,0.0220390254452262,1
0.0216652772367639,0.023831824264962,1
0.024640041706304,0.0273889535440328,1
0.022537928737612,0.0274664959265731,1
0.0190161698124151,0.0374154435186194,1
0.0228820159595989,0.0346902796902084,1
0.0247511603575467,0.0380389036774775,1
0.0200578419922711,0.0332737353579773,1
0.0119973244258822,0.0238060189292644,1
0.00493646938358301,0.0116268687518319,1
0.00856329214779653,0.0248925908460448,1
0.0125553052962737,0.0279899990514228,1
0.0124885416343685,0.0290902374623322,1
0.0133592873558209,0.027365002017402,1
0.0184739327802285,0.0160571463501941,1
0.0262715324150648,0.0189103429564378,1
0.025658345088548,0.0163974951395541,1
0.0253300135509177,0.0146814195970817,1
0.0301287964219147,0.0111284374858945,1
0.0338384846290382,0.0106556091983632,1
0.043527082856329,0.0119502301250889,1
0.0445234982687666,0.00882071572951697,1
0.0500670654162709,0.0076828417091678,1
0.059519903103501,0.00916675563534215,1
0.0514327461585941,0.0101587347289386,1
0.0393014693330058,0.00632886596005465,1
0.044344319689115,0.0033715867871052,1
0.0542498283646183,0.00573880559043382,1
0.0546525870404493,0.00708321249201188,1
0.0610427442556141,0.00824422535954691,1
0.0593457133739463,0.00901984807298491,1
0.0573923263108192,0.00963621270466217,1
0.0593832033228508,0.0133241983648486,1
0.0544615838559748,0.0128692983778138,1
0.0571597271615958,0.0138220808715821,1
0.046940568960589,0.0117564805351047,1
0.0413140151042513,0.0206606817135754,1
0.0417677983621789,0.0211720127682299,1
0.0623737267264354,0.0300929132592806,1
0.0896366753290476,0.0229340492311418,1
0.218517719708763,0.0327133518210016,1
0.219562934032048,0.0309629013721211,1
0.234564674285772,0.0304586727064582,1
0.265679871741131,0.0341780917418516,1
0.25720881762525,0.0327560733390053,1
0.206037469056735,0.0289446045634937,1
0.126625815082876,0.0190042843581523,1
0.0976928962736515,0.0144102367687098,1
0.0941032284411198,0.0139377294373783,1
0.100909605820371,0.0292006647226122,1
0.0815635949918808,0.0379608046035413,1
0.0828524429656789,0.0315652341278084,1
0.0790383836415717,0.0276539556657868,1
0.13895425335313,0.0236373855950737,1
0.150110060544086,0.0155356243294854,1
0.150531723919172,0.0152967164253349,1
0.152124995894939,0.0133602667023215,1
0.157707973407644,0.0102905733332481,1
0.187503135690326,0.0123181906094627,1
0.171869991953626,0.010111721937239,1
0.1240651168143,0.00632179936882941,1
0.111829858837643,0.00557697688554972,1
0.106365779468734,0.00646894984884121,1
0.0773871798646811,0.00716814171978183,1
0.0805249354804502,0.0131891674990252,1
0.151632429502982,0.0250966524353088,1
0.221162155515078,0.0373723028536758,1
0.229588435533447,0.0505682534576183,1
0.159841824100473,0.045664060807785,1
0.153884641822718,0.0439965209817617,1
0.119703369491619,0.036377708600762,1
0.107608988455598,0.0322252894533109,1
0.106364980783209,0.0289391772019406,1
0.0919342660006512,0.0216876469215417,1
0.0695477786622933,0.015409757843839,1
0.0705407025996787,0.0191242846480318,1
0.0756728354656703,0.0151227085170763,1
0.0715008937242677,0.0132476294869603,1
0.0515932884571066,0.00847553185662594,1
0.0629477598731421,0.00936419877071369,1
0.0669854293972186,0.00559459854059833,1
0.0802986284902959,0.00867337016863391,1
0.0742376740952269,0.00689233044041726,1
0.0762651853026809,0.00626149378261586,1
0.100448812587477,0.00975255812101363,1
0.113816212985567,0.0101665077564107,1
0.0954142003310573,0.0108070883307024,1
0.0844180825732246,0.0129600483627614,1
0.0950537098748813,0.0148262421256149,1
0.0527634278131662,0.00947966989630602,1
0.0282402074548392,0.010081451003915,1
0.0316524795007549,0.0121705134910816,1
0.0228192135044779,0.011929571154913,1
0.00956326896578418,0.00762385860198454,1
0.00936597127945878,0.00909286030806793,1
0.00910790569582713,0.0136548007865553,1
0.00643005962618464,0.00873747562058936,1
0.00714550901311133,0.00690825479304611,1
0.00825921567706796,0.00923272196968398,1
0.0081583861768777,0.0141578434480418,1
0.00923506090730129,0.0261687491313594,1
0.0076417724064718,0.0188742881620254,1
0.014635141639997,0.0163261406148462,1
0.0220189053533822,0.0261000023950168,1
0.023281875351017,0.0253191461007017,1
0.0233998936414444,0.0210965165740666,1
0.0190949764673344,0.0163719128435929,1
0.0221120853990691,0.0183763887234195,1
0.0241927702385763,0.0110946721969535,1
0.0336780126880981,0.0148951016346613,1
0.0336471832568243,0.0135025949080969,1
0.0366747501806275,0.0142205349054247,1
0.0362582399607243,0.0157064003327677,1
0.0363799254670581,0.0144509978301379,1
0.0418865461088799,0.0171816280887993,1
0.0394811179323348,0.0179764048862274,1
0.0442137144142227,0.0212024641395232,1
0.0284332696978272,0.0113824741461839,1
0.0194543428392181,0.00786250825093902,1
0.0274100721695719,0.0132332364787665,1
0.0255578201094984,0.00709917682513351,1
0.0296041718869818,0.00658481014123304,1
0.02977333832094,0.00674445642754623,1
0.0340307997264189,0.0087802062161806,1
0.0395134464075002,0.0110364740042151,1
0.0420304803448308,0.00793054910420048,1
0.0451916606463751,0.0064661312687856,1
0.0468765139831089,0.00672658595693549,1
0.0483406599840553,0.00708870966003555,1
0.0394358731933832,0.00386294427984132,1
0.0392714342734423,0.00657553560455023,1
0.0376159584506325,0.00664641604617284,1
0.0703912242228564,0.0134483961685831,1
0.0730293473927039,0.00650697491128888,1
0.0726866751800316,0.00630152430439533,1
0.0716634942719648,0.00715705127998642,1
0.0676580017226152,0.00684156359456777,1
0.0671469079940116,0.00668522549001917,1
0.0683690350888691,0.00630508640673832,1
0.0837145351625656,0.00803363195382129,1
0.0755899069198516,0.00516696736799615,1
0.0783902594836503,0.00629199728128366,1
0.0654555804491645,0.00541343782110212,1
0.0596111434671521,0.00828114582366116,1
0.0601235981379555,0.00849389444277903,1
0.0607877681695766,0.00967541188581706,1
0.060063749213409,0.0109310001160317,1
0.0474322131201771,0.00946813201339803,1
0.0537736575190432,0.0142612715987769,1
0.0209689839181943,0.00432484027667629,1
0.0218209250687549,0.00641157952939383,1
0.0226989959543055,0.00739584278031359,1
0.0227282528043423,0.0080529478900537,1
0.0236604759978264,0.00866689568943052,1
0.0227347165782522,0.00945504620490997,1
0.0937706337472324,0.00686477648423404,1
0.239950838713522,0.0212018970156619,1
0.283166704998451,0.0253402743688864,1
0.288350319742456,0.0256959460354218,1
0.285308439306901,0.0240863073149775,1
0.305227363497147,0.0225502128967613,1
0.27164232858169,0.0148164078009052,1
0.218116135051789,0.0118919763809615,1
0.183817287013295,0.00919972595225602,1
0.117679665817321,0.00364971748622438,1
0.0964648709079792,0.0107205072967162,1
0.115816986457233,0.0057227287249248,1
0.33650140874673,0.021349253514295,1
0.42826043157415,0.0217655044493595,1
0.404668926067895,0.0229941938660585,1
0.408528308625585,0.0207774475187205,1
0.419531314009659,0.0244205574748432,1
0.347843140931912,0.0147788509924313,1
0.311400320229292,0.0124728271748565,1
0.279519564641665,0.01069277926081,1
0.246464803231697,0.00875471754986476,1
0.321245124055306,0.0151485553666045,1
0.447126005031717,0.0214103640869149,1
0.466357746661664,0.0215060217069745,1
0.468176144617149,0.0202650227746557,1
0.494421739133381,0.025627339257779,1
0.355360931260836,0.0190447862944667,1
0.312669194993265,0.0213258389952595,1
0.357802284996265,0.0262092508348392,1
0.375345203056704,0.0129571655847248,1
0.437757409092839,0.0138519049379699,1
0.404313065412638,0.0149642382316853,1
0.294600560724923,0.0119369862089066,1
0.299505980726875,0.0142013605967511,1
0.302771889449284,0.0137181038723332,1
0.339528964238851,0.0116984683759612,1
0.431279376619034,0.0173375489944901,1
0.490161448480201,0.0206219749286634,1
0.571359039733413,0.0229375797102952,1
0.536087453309043,0.0549879304634155,1
0.320471933569489,0.038553638725818,1
0.21604855303945,0.0306705669769687,1
0.173771222327107,0.02149258589574,1
0.162277923967827,0.0179443426902783,1
0.0862631400551279,0.0129738539461133,1
0.0545986735449981,0.0242487599775034,1
0.055141724650696,0.0240410738951007,1
0.0610606484314273,0.0230891835160818,1
0.0595109002236121,0.0193815569465465,1
0.0643384833248823,0.0191848590870028,1
0.0697795974224979,0.015354742160408,1
0.0693643145424999,0.0161318347494687,1
0.0413920897115038,0.0104846656414607,1
0.0366635207864289,0.0130157669773452,1
0.037289255432008,0.0133423711813304,1
0.049247977402275,0.0192088753991499,1
0.0475468783771295,0.0202893579825859,1
0.0394379147751082,0.0117511282904643,1
0.0702213206077006,0.026244701818789,1
0.100349361668281,0.0400890440964316,1
0.121976888740095,0.0530382569684453,1
0.12546097742513,0.0482183424684231,1
0.126216319241043,0.040827128213337,1
0.148637393461149,0.047115867959776,1
0.12629246071419,0.0379386625599967,1
0.0712790458692323,0.0228196716291198,1
0.0441862764228963,0.0130978229744741,1
0.0267028359927282,0.00983833041952313,1
0.0264975678906675,0.00905269057092038,1
0.0269161943816568,0.00815604730726295,1
0.0327845100861018,0.0105719537675233,1
0.0296510354229547,0.0100024663615161,1
0.0255617597688055,0.00841925267193953,1
0.029165049123934,0.00984227782393643,1
0.0279580332903835,0.011689979409528,1
0.0293504510156583,0.0130200474161484,1
0.0274179594463144,0.00814791646872741,1
0.0238393304908639,0.00622563707905625,1
0.0227424963951669,0.00512448712906074,1
0.0228956733488647,0.00460144457167975,1
0.0249412223248558,0.00465520751659427,1
0.0219209023659354,0.00393532147536675,1
0.0240464548151073,0.00575189796481136,1
0.0362721492965007,0.0100853006024857,1
0.106473157984051,0.0288679431179976,1
0.121225129213663,0.025135053102415,1
0.124693181416669,0.0301879308475921,1
0.120672064510989,0.0276032496604035,1
0.112750180517417,0.0232486996282839,1
0.109397551823008,0.0250281904931828,1
0.124883191721272,0.0302233841034771,1
0.135390592635375,0.0333861831190726,1
0.151886196512822,0.0368798147391126,1
0.150636522730056,0.0365263173799836,1
0.0980645838367757,0.0262645512257305,1
0.0915646799072553,0.0258146614842543,1
0.0873091425877153,0.0173430368931521,1
0.0605734659167648,0.0123665453225938,1
0.0589432291682231,0.0144654234700867,1
0.0587528301742586,0.014927481924378,1
0.0683087198112528,0.014064163005698,1
0.0673771478358429,0.0115526826611686,1
0.0593438482151807,0.00834445734962708,1
0.0674473313261843,0.00474863663125279,1
0.0855204794017138,0.00785069437698438,1
0.0791887049810015,0.00794543102355633,1
0.083164093087001,0.0114411876844155,1
0.0843458532025176,0.00779549933016256,1
0.0884956636674868,0.00827422011383126,1
0.0761876696029716,0.00591680628886609,1
0.0746134003240025,0.00719071154830421,1
0.0893777072016591,0.00982452780175209,1
0.097925796372067,0.0124667586744517,1
0.102073069084646,0.0292656658166606,1
0.0737919628310466,0.0153339797831844,1
0.0751703001853304,0.0128303586161755,1
0.0595796923106873,0.0111354983115296,1
0.0365970718920669,0.00939513922887408,1
0.0365531588868759,0.00931393386513313,1
0.0471411136633239,0.0097327847084507,1
0.054952534073234,0.0146405827693528,1
0.0751191018847681,0.0193534829380152,1
0.0726020169031089,0.0117598785609251,1
0.0605555109971741,0.00709731581650965,1
0.122698310178191,0.0134989356071139,1
0.22159081049054,0.0256865111717923,1
0.204718650297089,0.0230817316067741,1
0.185887223399202,0.0207944808775834,1
0.151375971211039,0.0177287509498515,1
0.163695646308887,0.0102945630521879,1
0.232619539829444,0.0140495292344284,1
0.224816591814217,0.013086403839257,1
0.198359754258179,0.0134946505339878,1
0.161163762762054,0.011801969936226,1
0.171036078105885,0.0170486510692788,1
0.145866642339062,0.0134297836040572,1
0.172577716285814,0.0120814390346729,1
0.383008223566988,0.0236699411570001,1
0.355264562424199,0.0147395458850915,1
0.530116681715872,0.0157763055305506,1
0.720163477110288,0.017918077434772,1
0.706039666657554,0.0174272593500522,1
0.640995369420973,0.0150833761743361,1
0.577885213340972,0.0129308755739964,1
0.440916761028335,0.00788349923487641,1
0.378123303714497,0.00491150853297998,1
0.342754633207159,0.00467303992557525,1
0.311371709930207,0.00424421508327596,1
0.280931615905142,0.00450514749778669,1
0.214463166222911,0.00963638121436527,1
0.140951042330256,0.00782318404107942,1
0.208766420102472,0.0117319620134221,1
0.4067777520957,0.0239147088982533,1
0.51030746628953,0.0247506933150792,1
0.428008494821439,0.0320608266603539,1
0.380511055538276,0.0368294052522122,1
0.343684219173866,0.03664252184601,1
0.27475983376903,0.0329905376467274,1
0.208899380521626,0.021774854739517,1
0.197679051224874,0.0220929073812841,1
0.223203766061746,0.0233208220977076,1
0.230071296440892,0.023975423271497,1
0.193722416253029,0.0195766654487655,1
0.217094618497066,0.027647964707741,1
0.245130559687775,0.0299606326149022,1
0.205542523860894,0.0182549941416011,1
0.173332475830443,0.0137266018601701,1
0.128730050452264,0.00906766729059469,1
0.108621801394203,0.0104430916428989,1
0.106749430756395,0.00963605569136579,1
0.0969211476191536,0.0082391168463797,1
0.0974132045542158,0.0130546888978045,1
0.0788771113335381,0.0138909932470566,1
0.0664751251383647,0.0161943433167351,1
0.0696832857348215,0.0141141270315942,1
0.102765727005583,0.0474558580684884,1
0.0741912191184911,0.0376002843391609,1
0.0628918312546243,0.0321944162037885,1
0.0558652916804839,0.0256711699571392,1
0.0640094334336309,0.018874927832882,1
0.0572785852280878,0.00967311737545614,1
0.0714525558982653,0.0123435043683431,1
0.0721575628293435,0.0100214976366793,1
0.0652291440920944,0.00645493141656425,1
0.0688325771238764,0.00843039406462511,1
0.0651942242396722,0.00633518736579842,1
0.0688256856624851,0.00805169918505479,1
0.0747048909427905,0.00769031615775217,1
0.0750527863749034,0.00643550398627017,1
0.0972300282436335,0.00901641736229808,1
0.0969085550312476,0.0088459154221457,1
0.0802740862308091,0.00586860399106716,1
0.0805976061306718,0.00673526899325861,1
0.0742750788748133,0.00694928396877618,1
0.0668487763551366,0.0056943214682335,1
0.067368766053314,0.0075236068217902,1
0.0786940098905466,0.0094626611263337,1
0.093677468058321,0.013214945417336,1
0.0986235436327092,0.0151586879490403,1
0.0474978409921677,0.00856083467247198,1
0.0453427169884441,0.0192008937983126,1
0.0490652261413268,0.0212388361370245,1
0.0584002447028339,0.0130460252497444,1
0.0618634249762209,0.00758061331519257,1
0.0633553404123671,0.00773501860153232,1
0.0623996498411842,0.00703497851662273,1
0.0621231081446313,0.0078385447591372,1
0.0569384573682595,0.0069831389429763,1
0.0544680033645902,0.00780934143619147,1
0.0568565292695483,0.00857602783253705,1
0.050074655737242,0.00694178742007976,1
0.0379621277926877,0.00485547008691178,1
0.0211404167849113,0.00306687462157274,1
0.0219268211339906,0.0147891684960987,1
0.0213713597794771,0.0140641054537979,1
0.0218836770748137,0.012141644763835,1
0.0259898927391567,0.0128327459248748,1
0.0250493294975056,0.0101512981901741,1
0.0646562053363905,0.0134597584157684,1
0.117200582088647,0.0216427270886704,1
0.123757309952391,0.0150292642600446,1
0.127251479394693,0.016296732635737,1
0.131538364009898,0.0176727449240076,1
0.118835411398357,0.0165896564327883,1
0.114017981033152,0.0142256686636741,1
0.129172580822345,0.0179119725973879,1
0.14852336357943,0.0204616704212431,1
0.164516049296743,0.0208703699709369,1
0.122974337536899,0.0274654335138683,1
0.0448785111627523,0.0104117762489793,1
0.0241485315927758,0.0190574813404462,1
0.0266297282546014,0.0143543495846242,1
0.0344448288791687,0.0188636735094738,1
0.0337762567908912,0.0212179849161065,1
0.0344085734091644,0.0329985671021085,1
0.0393242713876177,0.0240549921689565,1
0.0633890917323039,0.0377860157043782,1
0.0757802382880497,0.0420009274345995,1
0.110161862292742,0.060728965978573,1
0.128843297783563,0.051392215860065,1
0.102516574141622,0.0320018239558821,1
0.185536423734728,0.015121003687739,1
0.456574704950425,0.0346140408631299,1
0.470348996288871,0.0211569251622178,1
0.406281256445375,0.0198377120471768,1
0.343847199288291,0.0124555739297308,1
0.35041340153078,0.0139850574030206,1
0.346003416159136,0.0147233640205791,1
0.439345561209825,0.010266873467449,1
0.563130331814985,0.0128061977092318,1
0.449763875861361,0.00908267107126064,1
0.438086293895004,0.0138862732994888,1
0.437672804328266,0.0098740093198011,1
0.745646460751187,0.0229180868192916,1
0.893740959202066,0.0140942276182471,1
0.884468074537262,0.0136065310669665,1
0.75498344773641,0.0108717307825996,1
0.72587371483993,0.00969674309648459,1
0.937302139131593,0.0219802451470906,1
0.968723513935061,0.0181542439421617,1
0.972592202339902,0.0169932720582477,1
0.9768556183326,0.0172049503749026,1
0.937600299151837,0.0195042360425201,1
0.567759626572037,0.0100584826628825,1
0.314784294532076,0.0103425645135882,1
0.326368484440209,0.0132705440338161,1
0.343268179757058,0.012606837411785,1
0.347537176776136,0.0124601591334803,1
0.275258745493804,0.00920803500347678,1
0.289555708532794,0.0159365722741824,1
0.346422527817115,0.024007198052579,1
0.335320085340483,0.0179205062775628,1
0.323973266749793,0.0231693120908218,1
0.322625688128858,0.0251736265843969,1
0.205443528945302,0.0184736485580623,1
0.121690934997362,0.0116707626595748,1
0.133978459127673,0.0152440581301569,1
0.138042293685571,0.0145940195285382,1
0.159926770532211,0.0147851680249475,1
0.195205083633289,0.0169503798525758,1
0.176100411312153,0.0105091834700204,1
0.184700258295504,0.0133995463598855,1
0.192007246573741,0.0125026947810846,1
0.229124312772398,0.0228078810224177,1
0.176910527002102,0.0147157448014111,1
0.172853261332709,0.0172529797783775,1
0.178837645414317,0.0182319676625067,1
0.184421417461555,0.0189555403519448,1
0.137944514401577,0.0218670373098007,1
0.0544093230774593,0.00739575160934939,1
0.0564231707939334,0.00417018599379583,1
0.0967560056446388,0.0043081493154056,1
0.121579443369457,0.00689105259734703,1
0.153937972222383,0.0102723091375974,1
0.184175964104019,0.0133089953194092,1
0.216855543998919,0.0158204237757713,1
0.243098401185923,0.0172340872439677,1
0.245381041922756,0.0196366976619191,1
0.217687245834441,0.0167158198565289,1
0.214555836037974,0.0155822405450232,1
0.143108976333799,0.0251050883858077,1
0.0165697122632036,0.0162244110718145,1
0.0152676288668773,0.0240637042810641,1
0.0179142540071614,0.0234120956418135,1
0.0197952147977067,0.0242044658445434,1
0.0163845804201582,0.0215828724915757,1
0.0172394712624085,0.0125205819614158,1
0.0281016527694126,0.0172254309682665,1
0.0248435055744164,0.014217892540207,1
0.0243467811950716,0.0104178247141617,1
0.027073254075287,0.0105310593027419,1
0.0282938138950656,0.011157412761626,1
0.0288296176190774,0.0117852505305903,1
0.0282381637879309,0.00945565733413811,1
0.0358490920831587,0.00902075776467465,1
0.0413621500199229,0.00908987665293493,1
0.0457218050866659,0.0124461884278814,1
0.0457457984158582,0.0110553457026331,1
0.0449703555077531,0.0100666252054532,1
0.0445736375057538,0.0110408440416122,1
0.0446874747405854,0.0115010230863839,1
0.0439305532570811,0.0118341999411369,1
0.044457517567548,0.00930612697739169,1
0.0488466592324198,0.00882547378300539,1
0.0362183345934481,0.00636619679659083,1
0.035634857090433,0.00708962944650245,1
0.0506191898128874,0,1
0.200091834883953,0.0156773354035195,1
0.212090099902671,0.0092010176626574,1
0.206831711254668,0.00901569057094073,1
0.204177064872935,0.00894657245624497,1
0.20498100072837,0.00895723762332175,1
0.202293031538917,0.00864103857803953,1
0.19401465932078,0.00900132365289107,1
0.202228354175266,0.00928823704046122,1
0.188951433285301,0.00837488556632192,1
0.180807941147444,0.0132562349034786,1
0.0630089871292544,0.00242448127989263,1
0.0573203729679506,0.00784805586857687,1
0.0644777350536258,0.0087095445088402,1
0.0653878980478208,0.00932825994604359,1
0.0601759218704466,0.00786280430078377,1
0.0607182472727339,0.010611662318692,1
0.0586243664171018,0.00827018591474082,1
0.0593629195464297,0.00724254376828285,1
0.0820202783088847,0.00978426332622854,1
0.0811510981421912,0.0103938376379981,1
0.0595588042423274,0.00704219387400883,1
0.0641204773545442,0.0106140232796549,1
0.0596244844193275,0.00871914311192824,1
0.0600600729587907,0.0081481663277435,1
0.0637777712915219,0.00662809419295419,1
0.068804414616871,0.00594399187125141,1
0.0716572437324061,0.00787756115130554,1
0.072380595630577,0.0104138261894043,1
0.045732442252525,0.00802488702165528,1
0.0455924975020145,0.01020813090796,1
0.0472440030140823,0.0105173108745628,1
0.0449398086501472,0.010682432071974,1
0.0504590266741041,0.0154511674385446,1
0.0495587274597668,0.0135725952922629,1
0.0512092549584508,0.0168153142780154,1
0.0705159933391326,0.0360690747009544,1
0.139548992946927,0.0540309274873594,1
0.151922933158263,0.0391615033791783,1
0.183067059217417,0.0337449007430446,1
0.182948113703137,0.0233152158325447,1
0.164709532433471,0.0143760853147193,1
0.307277333569449,0.0209837815245039,1
0.268681900363429,0.0111248295375769,1
0.214834284400402,0.00810499566328223,1
0.244565714776181,0.0023537780075813,1
0.415934549569538,0.00825715578363191,1
0.428082446913113,0.00614339112151497,1
0.406746626832424,0.00586835515832066,1
0.392592192958218,0.00568118702504747,1
0.371870019304321,0.00539592852319352,1
0.332503847452289,0.00477835839829792,1
0.309625993247765,0.00483943742084053,1
0.310390869492548,0.00651255078447334,1
0.283785000494234,0.00263361915313385,1
0.307115971560369,0.0124496626760764,1
0.155389747615172,0.00389213585189591,1
0.162090065939641,0.00756485912030345,1
0.218347331175112,0.0122101598508293,1
0.23705058245315,0.0129669832104641,1
0.240202062478998,0.0156995526423218,1
0.171832365830176,0.0124950033714579,1
0.188845645253683,0.0156959771774306,1
0.0806640096348023,0.00703256641857431,1
0.0528056935798568,0.0189742537865157,1
0.0518363083851435,0.0162055593788914,1
0.0293190353669519,0.0067675766970112,1
0.0234583412695136,0.00530947428565796,1
0.0230637264189287,0.00623377116635704,1
0.0248152699225911,0.00764376895219997,1
0.0337719038619223,0.0118119342872224,1
0.035362931160634,0.00837685239216144,1
0.0378545510639252,0.0100400587582691,1
0.0413032245087069,0.00834244956536315,1
0.0381255628973636,0.0110068258819535,1
0.0636079867590625,0.0172998937437388,1
0.0760812574049869,0.0100756913531527,1
0.0758054347042425,0.00949158152891724,1
0.0754596079570349,0.00843453983939798,1
0.0890022772989564,0.010304635514917,1
0.0944326762396075,0.0106691196164589,1
0.10404573642302,0.0143552480188062,1
0.105092556622077,0.0139448671886414,1
0.101517141390953,0.0163129864395577,1
0.0997757236594212,0.0134626862214881,1
0.0578695367001332,0.00932960757150938,1
0.0231257999170996,0.0111098310542633,1
0.0232092849425916,0.0149899447845272,1
0.010533738721434,0.00862017120218686,1
0.0106168350505621,0.0118916138121192,1
0.0106308829020322,0.0115397999077688,1
0.0109179533432028,0.0110607092286059,1
0.014865191873601,0.0208047665286673,1
0.00879866107457115,0.0167740104912478,1
0.00946899193244904,0.0374353137596803,1
0.0108316475704144,0.0540908691953862,1
0.0108091592399954,0.0651305288134921,1
0.0111228082668758,0.0867379489314108,1
0.010675425440909,0.0917278307458721,1
0.00982415358607991,0.101447171182384,1
0.00441144602902204,0.0814998211662805,1
0.000924414763746806,0.0558627840852518,1
0.000629067196753807,0.187765363141054,1
0.000569271808484528,0.21313910203725,1
0.000458137506753957,0.182121656330843,1
0.000376628062414586,0.180407558846817,1
0.000108745686338045,0.139189897334305,1
6.75914049510031e-05,0.21183347585577,1
5.33701821373118e-05,0.186525356617967,1
0.000148643708843779,0.119436110219921,1
0.000179622945447435,0.0683257168126019,1
0.000218751674466833,0.078753503620064,1
0.000244432243712634,0.0844117028443388,1
0.000254319157490853,0.0732329841063942,1
0.000313885518990837,0.0715441962161574,1
0.000326999821727575,0.0652223216095657,1
0.00036315718809159,0.05751662530469,1
0.000379487729746565,0.0560570374644248,1
0.000366104849339233,0.0517516657032944,1
0.000442005643435611,0.0637906053879468,1
0.000429660124357031,0.0696538887746446,1
0.000389890149960178,0.058627751040826,1
0.000348618430096008,0.051581113841215,1
0.000321473636308993,0.0464704728002152,1
0.000378985176074944,0.056725107121253,1
0.000402883640343118,0.0632709058596071,1
0.00042572654552133,0.0811990503268566,1
0.000419171938625092,0.0851397184124708,1
0.00045132002787408,0.103864328248319,1
0.000264722006296284,0.10275381395685,1
0.000233422099907823,0.151400292056594,1
0.000247724861498131,0.215819466369213,1
0.000114760704654081,0.216609422462781,1
3.93583515219845e-05,0.252083586250195,1
3.90681305481029e-05,0.27706816245317,1
3.98871908746237e-05,0.278976705843447,1
4.08653009016836e-05,0.310991213031583,1
1.87862906102908e-05,0.301764782761545,1
1.68200990266723e-05,0.413043188134576,1
1.58234129524314e-05,0.453627780358503,1
1.32547856108903e-05,0.473527391247679,1
1.33968736034247e-05,0.464872720520333,1
1.34542018444372e-05,0.433303082128479,1
1.33662027931428e-05,0.404205298972619,1
1.19919141367338e-05,0.471740709674428,1
7.65044626393768e-06,0.382629818428173,1
7.78739022088743e-06,0.391273990436178,1
7.41727352241538e-06,0.330687944977335,1
7.41987273571255e-06,0.310055173343553,1
8.74708340535294e-06,0.341855535282408,1
1.07019467189202e-05,0.381678479374589,1
1.1477997062671e-05,0.39664569579393,1
1.21103931629003e-05,0.460852638972482,1
1.09598469440778e-05,0.460746347726445,1
1.16530783382604e-05,0.510228536471507,1
7.72993732408423e-06,0.52670307235364,1
5.60982770330722e-06,0.539425660610254,1
6.11377943397337e-07,0.254359448783213,1
4.2316497395432e-07,0.256810459422661,1
4.52672913784865e-07,0.254927770304695,1
4.79204054660304e-07,0.258460715920989,1
4.22274992303102e-07,0.242595415470391,1
4.44369414158721e-07,0.248915314445031,1
4.93743962103664e-07,0.260873668915445,1
6.81853168440067e-07,0.297858372651113,1
2.14971011869928e-06,0.367051762219498,1
8.90432711427384e-06,0.570541490918782,1
8.32182507783605e-06,0.473984998692685,1
8.14329137375333e-06,0.469385012506056,1
8.14766961660172e-06,0.469202599569587,1
8.05535535066768e-06,0.459927670172771,1
1.2447391455651e-05,0.402205463246418,1
1.48461965253088e-05,0.304990505495469,1
1.5780615047912e-05,0.315745171120293,1
1.6149948562531e-05,0.324722659419035,0
1.60463116290531e-05,0.362800844704946,0
1.21207391266464e-05,0.343025475580778,0
1.23704117194661e-05,0.359398658247203,0
1.24340786140567e-05,0.363225300292295,0
1.21738798435015e-05,0.363072378455462,0
1.23194208481236e-05,0.36855713951638,0
6.62406456586687e-06,0.412057947574819,0
7.09827421857889e-07,0.29241929199082,0
7.3268845348206e-07,0.318123248705689,0
6.37086916305408e-07,0.323869487643099,0
3.77082015851477e-07,0.270482463908346,0
3.78197264989497e-07,0.275108226938086,0
3.67124842778191e-07,0.269736965683049,0
4.00940760676253e-07,0.294101580741966,0
1.39384782692744e-07,0.191999695964151,0
1.26486526649305e-07,0.192888474304241,0
1.14132063984623e-07,0.195778819740213,0
1.29534757574318e-07,0.203830118159806,0
1.06778772964718e-07,0.19012257756339,0
1.02453053623627e-07,0.204404569084062,0
8.34586858868756e-08,0.18028236191132,0
7.45601532826445e-08,0.161885575015245,0
7.87479108779331e-08,0.161720360817151,0
1.00765765131821e-07,0.191915026740353,0
1.25752598174175e-07,0.223642270448775,0
1.4972899565527e-07,0.241728564485832,0
1.55023365189602e-07,0.226636131881646,0
1.69116005788703e-07,0.246586187272944,0
1.8666445972935e-07,0.2414559516587,0
2.17435298112837e-07,0.247836613158129,0
2.13893462938249e-07,0.257500765677417,0
1.2208762455473e-07,0.207196954777997,0
1.1606901421439e-07,0.215573308483618,0
1.14159492927316e-07,0.214005483949474,0
1.17767624439988e-07,0.216959133459445,0
1.40828362110747e-07,0.230791365169585,0
1.16947674131817e-07,0.225396607993095,0
6.35157436085567e-08,0.178783575201349,0
3.23516792338621e-08,0.157452377491923,0
6.99370341714154e-08,0.215245496236419,0
7.73081831837976e-08,0.214715752582574,0
9.9700938560796e-08,0.227335255861398,0
1.53219824668339e-07,0.293186951141149,0
1.52566198799903e-07,0.280711833883787,0
1.30660394694889e-07,0.246877497842839,0
8.38467762462595e-08,0.19549570926201,0
6.46974058035649e-08,0.165621835129892,0
8.14044331575053e-08,0.181724459301585,0
9.01770260631575e-08,0.17684016300275,0
1.13109956532856e-07,0.180717345387985,0
1.50337684745251e-07,0.199823885068773,0
1.52682917704981e-07,0.201391958242477,0
1.2740767224818e-07,0.178026954488525,0
1.24391655740967e-07,0.171827833458103,0
1.23138561576051e-07,0.166009002442601,0
1.17633981293674e-07,0.166442351506068,0
1.31049185367704e-07,0.174308971510412,0
1.56010223532035e-07,0.188696419924665,0
1.48666270024536e-07,0.191331366194232,0
1.93493799584361e-07,0.21184532309749,0
1.78985756402087e-07,0.208685927164504,0
1.53531113988182e-07,0.189233728271906,0
1.51254278306827e-07,0.187922113825694,0
1.20497796348665e-07,0.173798703365323,0
1.0727599550035e-07,0.17146888603088,0
8.98007243131865e-08,0.156603510590454,0
7.74449777405491e-08,0.158187472388367,0
8.1236474653098e-08,0.160122365283154,0
8.54120934822588e-08,0.175662663660072,0
4.07121376856841e-08,0.145915265689758,0
1.32966176664704e-08,0.115343486102515,0
1.36766544214038e-08,0.115981241134897,0
1.49867074119977e-08,0.119381011914322,0
2.86363997663285e-08,0.135684015138564,0
4.11494834230111e-08,0.147349175174257,0
6.07401680458051e-08,0.161694005019892,0
6.29470891030173e-08,0.157919950440069,0
5.99161325759554e-08,0.147145036563583,0
6.31654701744181e-08,0.143374565710234,0
7.70490672145249e-08,0.153072801331458,0
6.76849428979379e-08,0.140032507234864,0
6.6037805709479e-08,0.143733413352332,0
7.12542070152191e-08,0.150487786905389,0
9.61016776849098e-08,0.172206990545096,0
8.96687152315434e-08,0.176415790617571,0
7.98708634636872e-08,0.180410298242122,0
8.44060932393927e-08,0.191811194404182,0
9.07083305190719e-08,0.201759449835307,0
1.07752091914162e-07,0.228055617670659,0
9.34737515370818e-08,0.213681081483777,0
1.27037439881272e-07,0.234190729268421,0
1.41250417671509e-07,0.226847874872009,0
1.99341883604382e-07,0.25320304612536,0
2.0316991353422e-07,0.243491395071282,0
2.15822593001377e-07,0.247072489172528,0
2.14220275872467e-07,0.246196310889074,0
1.86091603343227e-07,0.223879224706187,0
1.48181653130653e-07,0.204048453540667,0
1.46054684523419e-07,0.202694990909582,0
1.51589845158927e-07,0.20072309222223,0
1.34197794551084e-07,0.195709683521195,0
1.09526219271345e-07,0.195538597561061,0
6.86167099171746e-08,0.166818507096236,0
6.21244542600287e-08,0.16967387038482,0
6.21215362874017e-08,0.173628592463629,0
5.36926805572037e-08,0.154189779948088,0
1.0740473645265e-07,0.194292569000756,0
1.13042376286816e-07,0.190302121451422,0
9.44915403893609e-08,0.172066501366004,0
8.08862012189596e-08,0.168840337635172,0
1.01005739200661e-07,0.182604982760627,0
1.06213269869615e-07,0.173117339687361,0
9.7133122649083e-08,0.168902978046857,0
8.61759019970881e-08,0.158124090895614,0
8.61265299002404e-08,0.160365230785099,0
7.21258637983403e-08,0.155981140538127,0
4.67745176154285e-08,0.14668500836049,0
4.75205848566864e-08,0.147521436458952,0
3.20556800905846e-08,0.131746300360649,0
3.66954900052396e-08,0.140375014213387,0
3.83585009647891e-08,0.13710568812911,0
4.69589334854515e-08,0.146801547025359,0
4.32065374061035e-08,0.14843829090042,0
2.93991578110124e-08,0.130940668672166,0
5.9530376594673e-08,0.160640594736657,0
9.2238865521358e-08,0.195422443065454,0
1.21942309517908e-07,0.21660649143059,0
2.01183357769795e-07,0.269025309123939,0
2.0334207391921e-07,0.251207281810174,0
1.61005792669368e-07,0.225194880133271,0
1.55703136092776e-07,0.237163034507704,0
1.68124828846782e-07,0.250143223637537,0
2.38398947216062e-07,0.284690974571508,0
2.50887403183773e-07,0.296737223925568,0
2.4598100728992e-07,0.288985475366498,0
2.54867984722549e-07,0.284656456640168,0
2.36526775978613e-07,0.274642300419678,0
9.58346248300918e-08,0.188770997271782,0
6.8115402219865e-08,0.163020963752651,0
7.92325277718165e-08,0.159575981583632,0
8.81367796023965e-08,0.167014982103473,0
9.45861994213791e-08,0.176058377890619,0
1.02492271175733e-07,0.183722012532382,0
1.08679306896101e-07,0.176257440155697,0
1.38220511614593e-07,0.193512217952739,0
1.34436951587589e-07,0.198009304086121,0
1.36487002436376e-07,0.196545716500225,0
1.7513683378824e-07,0.217577139794698,0
1.57243708920898e-07,0.219363195226753,0
1.44381402300223e-07,0.217731088353703,0
1.31329427458796e-07,0.205309831187487,0
1.12221959103024e-07,0.191229665041001,0
5.765925582737e-08,0.150128268083183,0
4.73487746284115e-08,0.153314555040951,0
4.21019096884463e-08,0.15033432454143,0
8.14320955380088e-08,0.189717194927944,0
1.11630077535374e-07,0.220553333665362,0
1.34023299787993e-07,0.225954991859196,0
1.96995366736696e-07,0.280261936868687,0
2.65386692448166e-07,0.32239116437987,0
2.66107548405926e-07,0.313467755917902,0
2.69116445059929e-07,0.301567156484333,0
3.49898182858844e-07,0.312943131627317,0
3.98755666054292e-07,0.315442701315287,0
3.94085042348696e-07,0.319804476120009,0
3.49670814431753e-07,0.303570151053774,0
3.14189201039321e-07,0.273510312418604,0
3.50843022395449e-07,0.281774909256573,0
3.09392871072958e-07,0.264967133596668,0
2.3466300850233e-07,0.237301537300548,0
2.2931903343334e-07,0.240651620442018,0
2.21201000147365e-07,0.238098734751714,0
1.56971987309877e-07,0.223021900205917,0
1.03279540190483e-07,0.18747530404019,0
9.86397302758279e-08,0.183676120133063,0
9.61764945030649e-08,0.177326813436823,0
6.7293701128117e-08,0.160687544972649,0
2.83832364612146e-08,0.127091966825086,0
2.10532892223248e-08,0.114637586787938,0
2.01341278448367e-08,0.115609262588417,0
2.11700081274027e-08,0.111418828234117,0
1.48565658328358e-08,0.107765273252642,0
2.46641052698136e-08,0.113080216985409,0
5.24858070786987e-08,0.142259168948719,0
6.98428420150175e-08,0.156527939902589,0
7.98125040111484e-08,0.160061714734376,0
6.58762667448514e-08,0.15278051263693,0
8.8799859702144e-08,0.175875754196159,0
1.00350245829744e-07,0.176434521352287,0
9.93694568703748e-08,0.170583008201424,0
9.74126644267447e-08,0.174173398587537,0
9.87601841858686e-08,0.172608924245646,0
9.52930491105303e-08,0.17820380577299,0
5.90594158126839e-08,0.151351506096327,0
5.72628784257254e-08,0.144935422418455,0
5.88468706865371e-08,0.15665538489741,0
9.80065302157807e-08,0.181737195046872,0
6.87190723969279e-08,0.158459259345136,0
5.3456324774421e-08,0.148329170916771,0
6.71040329073654e-08,0.164953945903439,0
7.56008190403187e-08,0.156619494926586,0
9.16290092423261e-08,0.167191887586794,0
1.10158368861247e-07,0.177151449768321,0
9.65498782804089e-08,0.17350419390224,0
1.1319119289079e-07,0.192106179729268,0
1.22297134989345e-07,0.192603585856884,0
9.60312961851483e-08,0.178612110639903,0
1.23445649015311e-07,0.206183319964909,0
1.33153043631732e-07,0.217078770443381,0
1.20222456451586e-07,0.200457858714077,0
1.01285864572848e-07,0.199330388999464,0
8.42290306603896e-08,0.199969339200628,0
6.36067843545173e-08,0.189007002425818,0
5.73780799850372e-08,0.184316990199852,0
4.97661398714794e-08,0.161085381769654,0
2.97279549666166e-08,0.137299518821458,0
2.1521215312782e-08,0.122626809153264,0
1.70532156264013e-08,0.106861868542498,0
2.17420474811893e-08,0.113321799023873,0
3.80602841623152e-08,0.13924427919276,0
5.45433279374112e-08,0.168478877333376,0
5.97601961187713e-08,0.163766518402132,0
1.13788910403694e-07,0.199016589063153,0
1.41799463400995e-07,0.2277710612217,0
1.10517863088887e-07,0.211246990432261,0
9.69701830575946e-08,0.199940253400681,0
8.62319270715257e-08,0.197789486312042,0
2.75736741355947e-08,0.144159191816665,0
7.48635057169419e-08,0.194748711267353,0
9.09473708366715e-08,0.202050822676054,0
1.04904150630262e-07,0.21049899232888,0
1.11735124549944e-07,0.202614180024548,0
1.06904245787676e-07,0.208013323433462,0
9.58906499045291e-08,0.194814588691884,0
1.08285380591463e-07,0.205566156421794,0
1.02945140527435e-07,0.193593679227064,0
1.56361897593035e-07,0.222621498608789,0
2.50093247753623e-07,0.26916919323274,0
2.27339480803219e-07,0.246150173735768,0
2.52222200582244e-07,0.253629461980352,0
2.39589480047856e-07,0.246090492202091,0
3.00362679543798e-07,0.263057976604665,0
2.07209322568344e-05,0.231289783817071,0
6.44532205166296e-05,0.274652606594871,0
6.36019406366756e-05,0.256103524643832,0
6.15820966405221e-05,0.248216152092822,0
7.89596595142716e-05,0.237649669502656,0
8.94043459777908e-05,0.191614835121373,0
8.80391596451943e-05,0.18394070773298,0
8.66566691513254e-05,0.183594253866325,0
8.78825462183609e-05,0.188095132303289,0
8.89981875319009e-05,0.186203955659254,0
8.61889251423604e-05,0.260855700518623,0
5.76112326509078e-05,0.252522616329343,0
5.88166778401716e-05,0.274915934510371,0
6.11823356745384e-05,0.284651059884227,0
3.31338075978758e-05,0.353872732723282,0
9.55110800252159e-07,0.203697966689972,0
8.12339301809676e-07,0.361869282532288,0
8.21299578714693e-07,0.363297252348672,0
7.76609894181765e-07,0.35002898566148,0
8.09463931583082e-07,0.342327759506015,0
8.45049191363221e-07,0.344611238525728,0
8.64814254030202e-07,0.338880911297604,0
8.42477056852021e-07,0.349528363330189,0
5.6570583584037e-07,0.278077597304917,0
5.20659808490239e-07,0.281322412650848,0
3.22604634095437e-07,0.231986657664346,0
2.59273773232523e-07,0.213976287203677,0
2.62069074290233e-07,0.221492203213279,0
2.63424881091617e-07,0.225730875304462,0
2.04823003386839e-07,0.213050988667737,0
1.94711061045417e-07,0.218305414652756,0
1.77141014107332e-07,0.221713974917855,0
1.76667718947241e-07,0.221435780605156,0
1.72084751139359e-07,0.232440898431655,0
1.31717401099274e-07,0.219988200711852,0
1.32172137953458e-07,0.221093754014693,0
2.06986621730267e-07,0.256585569516041,0
2.12422804734269e-07,0.261339864464268,0
1.21969505022791e-07,0.212549688258885,0
9.71574001813392e-08,0.194064885873353,0
8.85793776904518e-08,0.18484257884644,0
9.64742444299185e-08,0.176246473414171,0
1.11020221256342e-07,0.188741082249584,0
1.27775103361364e-07,0.193499200311198,0
1.30257364315655e-07,0.184652396349645,0
1.19165916922821e-07,0.184846100841784,0
8.31441284376908e-08,0.168392143494298,0
7.21912263851841e-08,0.151292369499442,0
9.10291907891311e-08,0.159611906501521,0
9.27635169996829e-08,0.160915302508968,0
8.52486870151497e-08,0.157470812550502,0
7.4578711588552e-08,0.155628909692891,0
6.29774360183376e-08,0.138034190232928,0
6.5129149033448e-08,0.15240869891512,0
5.8480840200213e-08,0.162362405871346,0
6.19316346288399e-08,0.162817056539339,0
4.92162771096574e-08,0.138969028081862,0
4.50338885840022e-08,0.14766539561406,0
3.67520986742025e-08,0.153590552523224,0
3.06673087146834e-08,0.141740478531012,0
2.50338707611003e-08,0.130568299692618,0
4.74108690859132e-08,0.167630590298348,0
5.25068164816127e-08,0.182827864549598,0
4.76651995800776e-08,0.163913887137177,0
5.30017046391428e-08,0.153540676454556,0
5.17270174767874e-08,0.150599687040598,0
4.58594413996181e-08,0.154727003774714,0
4.55894705721729e-08,0.157758868123987,0
5.7509738909965e-08,0.158239559504402,0
7.23610523920721e-08,0.164076563156675,0
1.30762523736832e-07,0.208375940267389,0
1.18350285214137e-07,0.189796306146147,0
1.12688834723335e-07,0.185656474460443,0
9.51162199693375e-08,0.170063467899917,0
9.51819327128963e-08,0.17260720248792,0
1.0575573176171e-07,0.177850614492611,0
1.063393262871e-07,0.175684490350965,0
1.10054372316823e-07,0.173422646186326,0
9.03914386917859e-08,0.160233657144714,0
8.52894219130219e-08,0.162161415342551,0
3.5565651004086e-08,0.118078118145832,0
3.23331209279548e-08,0.11448652623522,0
3.14166440852832e-08,0.117233935941126,0
2.72941323579331e-08,0.112328698669126,0
1.74424731748359e-08,0.102664474936638,0
3.09581722261374e-08,0.120814031478668,0
4.75092631228937e-08,0.137205025914362,0
5.45777600144092e-08,0.139687770909133,0
5.91802198794394e-08,0.14647940908519,0
5.56609114535318e-08,0.143030524375817,0
4.92947122138697e-08,0.146593364034598,0
5.70807969338039e-08,0.154839445888246,0
5.74443763231216e-08,0.15521485624551,0
5.60910206187437e-08,0.156745366392036,0
6.7972421561145e-08,0.16279119111253,0
6.37089133964605e-08,0.161559325523522,0
6.81471497620463e-08,0.162958189597866,0
6.68463175649536e-08,0.167771665581671,0
6.66232677373499e-08,0.170803307198044,0
7.29723092979651e-08,0.173767344819116,0
7.7374362802977e-08,0.161755089248367,0
8.38219151194779e-08,0.163383845702504,0
1.10623376979077e-07,0.178818780056273,0
1.10193968127296e-07,0.175957290771243,0
1.33920470432619e-07,0.189486532281202,0
1.12912117988749e-07,0.180451681137733,0
9.75845913739241e-08,0.17195941596304,0
8.65046991526929e-08,0.168132174594644,0
7.92054489858385e-08,0.159513957858055,0
8.58630953314797e-08,0.170332228352806,0
9.11781241120104e-08,0.172457596188808,0
1.69306841198505e-07,0.215714880790817,0
1.67155128183395e-07,0.215823081783285,0
1.63847197694583e-07,0.225165830560378,0
1.50314340964235e-07,0.229245502145249,0
1.70862120608668e-07,0.245332150581746,0
1.78849778877671e-07,0.240376295086191,0
2.16847034831245e-07,0.258989749019259,0
2.42464500117734e-07,0.277491614879396,0
2.30169680813547e-07,0.266391037269984,0
2.42214138066342e-07,0.28470634647875,0
1.14011143198963e-07,0.222672708399859,0
1.13310829768495e-07,0.222072728398914,0
1.18088834866763e-07,0.213162490569374,0
1.07392714405427e-07,0.208620149768805,0
7.98984091252857e-08,0.177829705360768,0
7.16870007152477e-08,0.166403537945151,0
7.56077054557184e-08,0.173078354977454,0
6.879704062552e-08,0.160767107239296,0
6.43438642400843e-08,0.159287403852646,0
7.21509583629325e-08,0.164019224136501,0
9.09445695829496e-08,0.180386610658913,0
8.83007696640309e-08,0.175175671307303,0
8.61736843378919e-08,0.176319805485904,0
9.35951391983627e-08,0.1859222231518,0
7.08153439321263e-08,0.159872294845329,0
8.30282265649485e-08,0.179894205221259,0
8.27667762175742e-08,0.171866453570453,0
7.38603067277975e-08,0.17462088543029,0
7.28112372089578e-08,0.176972616839098,0
7.39466787175553e-08,0.174703703144094,0
7.44826519296727e-08,0.169008317775224,0
7.40834732743065e-08,0.174940912736985,0
9.5238541381859e-08,0.178390502305837,0
1.13928973089788e-07,0.179862124946836,0
1.20941328187961e-07,0.192015908395658,0
9.79020667957359e-08,0.171955933954993,0
1.06973460098388e-07,0.176308554500661,0
1.5448820900982e-07,0.197071610560913,0
1.5114537956839e-07,0.192569601131946,0
1.4461005463527e-07,0.196402635144079,0
1.38321240029675e-07,0.197747341386109,0
1.40106572401746e-07,0.198910505679465,0
1.15434646965292e-07,0.20055684756586,0
6.9558864918963e-08,0.173809555072988,0
6.05575029593582e-08,0.175152422210782,0
5.66646940372011e-08,0.174640730910712,0
5.5744015313947e-08,0.182335461020021,0
2.43598190842756e-08,0.143313761394507,0
2.47630829013197e-08,0.136443222413671,0
2.95392204971058e-08,0.143494005606368,0
3.18381160515193e-08,0.14858861335189,0
3.70000096285879e-08,0.162019389736798,0
4.10140894931206e-08,0.150382564411961,0
2.88394906611639e-08,0.130279493321601,0
2.19498071322278e-08,0.113604814248776,0
1.94622938272085e-08,0.108146273899938,0
4.12624673231265e-08,0.128280557128191,0
4.22839911803678e-08,0.131554226512581,0
4.67314483394549e-08,0.13871957135922,0
4.76097581001657e-08,0.142133533603501,0
5.00201202089287e-08,0.139815082783709,0
5.38126675916238e-08,0.146447664274988,0
5.57291920130023e-08,0.153436608771229,0
4.32636129506863e-08,0.145415567614581,0
5.10062782379315e-08,0.154247973641669,0
4.71657593852494e-08,0.159784657981793,0
4.70289648284982e-08,0.167407258807625,0
2.00056203303459e-08,0.132352192519684,0
4.12335210346671e-08,0.159696255674954,0
4.52813326627674e-08,0.154035226466681,0
6.56339582979097e-08,0.180704302382703,0
6.42473377055848e-08,0.165471006707197,0
8.37845650698531e-08,0.183913486718582,0
8.80658145081091e-08,0.184389885512168,0
1.00246599442035e-07,0.198445712534992,0
1.02395161046708e-07,0.193144226466637,0
1.02771112639964e-07,0.187570147020797,0
1.02782667811567e-07,0.190133075844362,0
9.98036511972648e-08,0.181658426091071,0
1.01723443747985e-07,0.189745870211933,0
3.98204052508894e-08,0.131252347240455,0
2.07965076311535e-08,0.112025920193937,0
3.50209238740877e-08,0.123436570901949,0
4.23642937870615e-08,0.128347552725366,0
5.16868661734406e-08,0.139126784608649,0
5.17055411982531e-08,0.128826158770134,0
5.59587780992904e-08,0.128165089975237,0
6.94053795587857e-08,0.142500994697778,0
9.82110217374771e-08,0.16498501652163,0
1.14410788729949e-07,0.176485138664108,0
1.27398334735773e-07,0.180470587332047,0
1.6145959577231e-07,0.194931031618106,0
1.50534356100307e-07,0.192207940454049,0
1.56080254875082e-07,0.195467957932172,0
1.44157768878093e-07,0.187271789981439,0
1.46386049494934e-07,0.198769815191806,0
1.72211741308083e-07,0.222289793606667,0
1.76641457193599e-07,0.212633015259074,0
1.8105156430306e-07,0.215572739600584,0
1.76875828754995e-07,0.209914109010085,0
1.66321755201139e-07,0.209571781358067,0
1.23080202123513e-07,0.193156100700876,0
1.20360184759578e-07,0.194149442888684,0
1.03543675072674e-07,0.18768401681673,0
1.0840851903632e-07,0.181289144825473,0
1.79852744429005e-07,0.220505993017142,0
1.22651143428446e-07,0.183369650778495,0
1.35627367700478e-07,0.200436245279517,0
1.2995681313508e-07,0.19833075685633,0
1.45933763737758e-07,0.212164489899122,0
1.78061692830586e-07,0.232425663207733,0
2.01111342205362e-07,0.242550175904152,0
2.16102718373564e-07,0.263069872248766,0
2.15366922395952e-07,0.262236434259945,0
2.0702163740179e-07,0.266227286360351,0
8.32644656288261e-08,0.190729205488847,0
1.01530507397892e-07,0.221090794419076,0
1.39455864505937e-07,0.249661684682359,0
1.84120804630988e-07,0.265829448409381,0
1.69937706880451e-07,0.24749425749659,0
1.71147264893773e-07,0.243788803982467,0
1.65554211681347e-07,0.240999184789521,0
1.4580899122823e-07,0.2155865768216,0
7.34600776022857e-08,0.159645784736329,0
7.34858724803078e-08,0.165108558518767,0
9.05010377436536e-08,0.18652754244751,0
9.31842886524885e-08,0.18546871778314,0
9.1061288488027e-08,0.18376180356619,0
1.03242190140859e-07,0.197364569660232,0
1.01363015769105e-07,0.19229813414443,0
9.65495281236935e-08,0.188412513363433,0
8.18797125389824e-08,0.176230566733489,0
4.26677629402639e-08,0.140622673142815,0
4.48827376019265e-08,0.139240457880184,0
5.61856796507617e-08,0.143581499670308,0
7.22256584621821e-08,0.153598442304393,0
9.07836142128471e-08,0.166688293720656,0
2.1157834345603e-07,0.241370392684232,0
2.06523014239298e-07,0.233587449717163,0
2.22152492661559e-07,0.258302562643725,0
2.46652374431928e-07,0.275433552011261,0
2.4742085170296e-07,0.280197202861453,0
2.35099887364036e-07,0.277909903148668,0
2.52808129485734e-07,0.297739236605522,0
2.4267634493045e-07,0.302904239611124,0
2.40559647586864e-07,0.307612849700729,0
2.24090960237092e-07,0.289132477066559,0
6.03185793606638e-08,0.165608807441761,0
1.4411516647774e-08,0.107120086259471,0
5.70522008020598e-08,0.16104397370456,0
9.44442692328043e-08,0.201483210214767,0
1.12796216116007e-07,0.201600667659667,0
1.77328698106697e-07,0.236018962697774,0
1.82978476706991e-07,0.239509429360228,0
1.65597981270751e-07,0.235888540895345,0
1.46082697060638e-07,0.215497068414608,0
1.91171210092216e-07,0.222826406398955,0
3.10752412879304e-07,0.28261664345686,0
2.81838805713416e-07,0.289342623924032,0
3.05190990490154e-07,0.292300603411245,0
3.3945125725985e-07,0.308892797366343,0
3.97250459054409e-07,0.321070911942742,0
3.11148323405329e-07,0.29547638888473,0
2.31045189320536e-07,0.25328918488522,0
2.17505796331504e-07,0.2394361655796,0
1.56865539668446e-07,0.194918524881437,0
1.48110688036366e-07,0.201702325220196,0
1.15524287084392e-07,0.190727980920743,0
1.21859205657493e-07,0.189411512772927,0
1.62701134765624e-07,0.216783933394275,0
1.45052652723325e-07,0.196679195359447,0
7.74636527653613e-08,0.151188624429549,0
8.96391853485588e-08,0.155351806170619,0
1.25323072603489e-07,0.184183506712368,0
1.25784695873072e-07,0.179317003788863,0
1.37982288329329e-07,0.195247357192241,0
1.53135320181062e-07,0.207216262177615,0
1.94873533761286e-07,0.228814662971392,0
2.1530342731159e-07,0.236631255691767,0
2.08875483771142e-07,0.230413240405114,0
2.13552643735422e-07,0.242222615915094,0
2.17250882242814e-07,0.249558824586959,0
2.04561553039464e-07,0.246219506092674,0
1.44189516420274e-07,0.210999379954079,0
1.16191919221437e-07,0.200701068772023,0
1.16282959967398e-07,0.19441512752984,0
1.90116071190312e-07,0.238427138524228,0
1.72930729763363e-07,0.224221033556528,0
1.43655877586258e-07,0.207136495096241,0
1.53273515364674e-07,0.223777009337595,0
1.68486073857998e-07,0.226727779913516,0
1.79210206856552e-07,0.219842650549714,0
1.75905311059272e-07,0.21221562003185,0
1.79573436089154e-07,0.208756338623106,0
2.4297514532745e-07,0.236325866230764,0
2.39320442971652e-07,0.233660850836812,0
1.88775554565493e-07,0.219591998808708,0
1.63791289339051e-07,0.205234395660826,0
1.68406705002545e-07,0.202622338253932,0
1.64100360999697e-07,0.197643745136089,0
1.53558309493064e-07,0.1894700290799,0
1.45245589073419e-07,0.19147985967916,0
1.34418743438396e-07,0.195317010930366,0
1.20252803366906e-07,0.191107889669996,0
8.79566823318618e-08,0.172076492426274,0
8.65157874486752e-08,0.17666277706018,0
1.07552385867574e-07,0.197654837686076,0
1.15773598665638e-07,0.206107984435959,0
1.0299649684567e-07,0.20468166196449,0
7.72212275995145e-08,0.188990002859357,0
6.82834774431772e-08,0.181648725849367,0
1.27009427344054e-07,0.255687817050239,0
2.00929260713441e-07,0.308008128392312,0
2.59716488039483e-07,0.339340335359329,0
2.52112951687091e-07,0.342290784940422,0
2.32641320347476e-07,0.322947540322193,0
2.01002210029114e-07,0.288160428848616,0
1.77342821094211e-07,0.271823229221801,0
1.23465374510269e-07,0.222165126534654,0
9.73432166782233e-08,0.192416907141204,0
1.12368207891086e-07,0.204979507255978,0
1.07586817944572e-07,0.190751667372274,0
8.86056394440944e-08,0.178452393360086,0
6.38359035651853e-08,0.158791337321117,0
6.39387329205589e-08,0.154750093684277,0
6.68752638534126e-08,0.156237374085724,0
5.90813589668383e-08,0.152778145050347,0
5.36674692737069e-08,0.145971664345521,0
6.5685314616144e-08,0.163707817995214,0
5.41314269213914e-08,0.154660136027288,0
4.08656230458617e-08,0.145617899957181,0
4.05201350868312e-08,0.145197494481895,0
3.7282002503256e-08,0.135558782078947,0
3.90046568233002e-08,0.137620002865448,0
4.20894207656031e-08,0.141243967265017,0
3.47678772878788e-08,0.138030468150083,0
2.98143269563745e-08,0.128848748552965,0
2.84823308116257e-08,0.1299741164056,0
3.35870321252061e-08,0.133823524082069,0
4.18788598608426e-08,0.131113143308257,0
4.44092090040256e-08,0.128487664925152,0
7.40890757817502e-08,0.156367956357212,0
7.84114102745937e-08,0.159003593738383,0
1.01754607695641e-07,0.180548055084321,0
9.5279042841921e-08,0.175213458493912,0
9.44742659914092e-08,0.169324698191963,0
9.03497700426728e-08,0.170173005483666,0
6.44419081203494e-08,0.144447892448277,0
6.54699682362755e-08,0.144259500750118,0
5.95471841170044e-08,0.141066119335081,0
7.31967597524299e-08,0.159411892555251,0
6.59928689310242e-08,0.153008441227576,0
8.59958047265531e-08,0.179575055038482,0
6.03334026616089e-08,0.152649474823462,0
9.2845803827763e-08,0.179243949990407,0
1.27979945039776e-07,0.199574621310891,0
1.24067527341566e-07,0.187211938276695,0
1.39885273357718e-07,0.198766667295234,0
1.34950047894311e-07,0.190482686083243,0
1.82309910818705e-07,0.22478232196666,0
1.85547693245565e-07,0.216094934157561,0
2.35813273311872e-07,0.2445209073732,0
2.46101928075581e-07,0.234143833727492,0
2.56233595911959e-07,0.236266293446235,0
2.42126015293009e-07,0.224597149724344,0
1.92719836524789e-07,0.208169091156866,0
2.20342065724896e-07,0.219617536088565,0
2.01515773211457e-07,0.212651281648415,0
2.04160040005996e-07,0.221961956238238,0
1.295159658306e-07,0.183097211445919,0
1.12217873941346e-07,0.179957803501981,0
1.01937622938803e-07,0.177688780522363,0
9.15077382999505e-08,0.172202327793124,0
7.77232356102546e-08,0.166160049219672,0
7.61386597549175e-08,0.173982493659725,0
1.59123466887177e-07,0.229626316699283,0
1.47702755463118e-07,0.235843904531833,0
1.50441914727485e-07,0.252294315366206,0
1.44751984823845e-07,0.258763334635823,0
1.73998941182636e-07,0.281941905615596,0
1.5526789129574e-07,0.241147119977255,0
1.85486882696019e-07,0.234982754548978,0
1.94391251245505e-07,0.248182801040249,0
2.44103116826122e-07,0.278532433846973,0
2.38982074865831e-07,0.275717869339171,0
1.92707581039756e-07,0.255165647308243,0
1.89596438624906e-07,0.255292796675214,0
1.88258256378189e-07,0.238463068195396,0
1.84817966651018e-07,0.226644471728092,0
1.75754393515007e-07,0.213391753156382,0
1.6848980886296e-07,0.216576636055264,0
1.50116502420129e-07,0.206738018709966,0
1.54857624344392e-07,0.20133632011496,0
1.72622591853957e-07,0.210344988740607,0
1.92647470803641e-07,0.215909961039686,0
2.06311402864392e-07,0.217592361054011,0
2.01748744145992e-07,0.21527761829671,0
1.97402598996513e-07,0.221160282266377,0
2.23965487414134e-07,0.238937345942918,0
2.62944466078317e-07,0.266478847652686,0
1.69303106193543e-07,0.211183509921834,0
1.62946244466287e-07,0.219585786235985,0
1.55123159853444e-07,0.221524673952056,0
1.97964250367748e-07,0.250063462688156,0
1.95525759002861e-07,0.263630296602911,0
2.2513676162659e-07,0.27251954452747,0
2.46957594368706e-07,0.275597163669396,0
2.47801822209134e-07,0.276049232131003,0
2.25517848851669e-07,0.278014722562692,0
9.78105591741548e-08,0.189680203621231,0
9.1321454927446e-08,0.18740656823154,0
1.10508525576481e-07,0.189935388322249,0
1.02204325636906e-07,0.189874886967122,0
8.70461581533489e-08,0.174118437854501,0
8.66138313289406e-08,0.169569600390861,0
6.93515721435447e-08,0.161644159440538,0
5.56413026774786e-08,0.143049052928923,0
1.16441697678304e-07,0.18294371927156,0
1.28425461100458e-07,0.185868248388958,0
1.26965891192459e-07,0.184947980088384,0
1.15190004140249e-07,0.18027451893146,0
1.12654285927432e-07,0.178922336376578,0
1.1153390115759e-07,0.175654394530975,0
1.14197776728182e-07,0.178852691250035,0
1.29674820260412e-07,0.186850425861611,0
1.34442087219412e-07,0.192685092439134,0
7.31538071953612e-08,0.164758964094087,0
8.23942094725656e-08,0.176389627348006,0
1.15396713321142e-07,0.200037263238798,0
1.15925216523334e-07,0.193999874907464,0
1.11264864081385e-07,0.193591404640579,0
1.16732911346473e-07,0.194749054905872,0
1.36101830049619e-07,0.208442731465458,0
1.47458579513695e-07,0.212967216133626,0
1.38573352864643e-07,0.198275347926384,0
1.1857146753926e-07,0.179330087160629,0
1.14716008666728e-07,0.174364394797555,0
1.14155407765638e-07,0.176309152915053,0
9.88054711210388e-08,0.170121258977915,0
1.32258509943215e-07,0.191082391696556,0
1.50348539603423e-07,0.18547263654381,0
1.80175705639356e-07,0.206533117339317,0
1.63997648363229e-07,0.190595424380307,0
1.62598772285871e-07,0.19482941636489,0
1.54223607252008e-07,0.194382172720935,0
1.4856040597763e-07,0.198685473303362,0
1.96802080229888e-07,0.219778820989229,0
2.75794750651769e-07,0.263777254020321,0
3.03191012051645e-07,0.268669710171463,0
2.69942464751165e-07,0.261041938940666,0
2.47490883046007e-07,0.273922752699265,0
1.89639274463069e-07,0.251080915311982,0
1.88993235323463e-07,0.254911686715908,0
1.45259011747503e-07,0.229950105229476,0
1.05456931364711e-07,0.195744311373805,0
9.65714712778484e-08,0.185077940512748,0
1.03776762726115e-07,0.183419743512962,0
5.15234597063316e-08,0.134836964795104,0
3.16859145992978e-08,0.119613954166317,0
8.11995914790937e-08,0.169202943188552,0
9.55918495075298e-08,0.170186637231046,0
9.58734922254827e-08,0.173020229830926,0
1.00101867999739e-07,0.17506605663681,0
1.05172137236321e-07,0.176097979437594,0
9.73455510563246e-08,0.1769324257596,0
1.05153462211509e-07,0.180471516893779,0
1.13272429248725e-07,0.183329997469679,0
1.06955602105911e-07,0.181424728286505,0
1.06961204613354e-07,0.178739685037085,0
7.87992671961674e-08,0.158098799777718,0
6.83543258185598e-08,0.157610754089102,0
7.99944687841648e-08,0.165353891567259,0
7.08054228251951e-08,0.165574442328723,0
7.27374708609485e-08,0.168804344476488,0
7.15488055316356e-08,0.169194932231245,0
3.73623051099496e-08,0.137127231037977,0
2.60096408075513e-08,0.135081756443514,0
3.84275985565953e-08,0.155851518371038,0
4.18077780476502e-08,0.168578636142375,0
3.78754014166719e-08,0.172365151041584,0
6.03380714178118e-08,0.203698655831963,0
5.56188926477036e-08,0.191683928082475,0
5.11135429116982e-08,0.181047655199484,0
3.07951159157436e-08,0.157659110858628,0
1.99346552360585e-08,0.1436041667655,0
1.35384592377916e-08,0.128074707990236,0
0,0.10067470913775,0
1.42835927278087e-08,0.122742014338461,0
7.22816835366195e-08,0.188148425166618,0
1.14008225226335e-07,0.202317854088527,0
1.06321585013528e-07,0.196696019752917,0
1.11857796119181e-07,0.200627543118446,0
1.21728480483805e-07,0.201360570409859,0
1.30140645410577e-07,0.190189930572284,0
1.75030736303524e-07,0.206343247823388,0
1.6958323156573e-07,0.198484496563678,0
1.42084257529385e-07,0.187369293162706,0
1.51711349539112e-07,0.186253298192493,0
2.48188278503848e-07,0.225117563906494,0
2.34719967328008e-07,0.22625753173672,0
2.3931764171793e-07,0.225729891457216,0
2.38556751175727e-07,0.22415366018112,0
2.7977521547164e-07,0.243621009470862,0
2.92557336204526e-07,0.263003008556792,0
2.26700444797918e-07,0.24133447865703,0
2.10444302574293e-07,0.234468255329472,0
1.61547368388929e-07,0.192684741435187,0
2.21683866257671e-07,0.226529895589523,0
2.91701086316875e-07,0.278411236434845,0
3.94686378147658e-07,0.32657950691816,0
3.97628278150145e-07,0.327778638902677,0
4.55068335873778e-07,0.356252019725834,0
3.77456916974589e-07,0.334023120116289,0
3.20088174501958e-07,0.303392138466302,0
2.52244143736399e-07,0.262606249599616,0
2.21579169399817e-07,0.25760650880318,0
1.54174585311876e-07,0.229906271106697,0
1.88874532196999e-07,0.281278236855987,0
1.61296189305201e-07,0.246276915582411,0
1.09578626059725e-07,0.206387569910187,0
1.02002051774406e-07,0.204015671562491,0
4.99329311868354e-08,0.139649033214749,0
8.93739999962218e-08,0.165339385705534,0
9.03170887492509e-08,0.171241671306045,0
1.05315584770661e-07,0.18309788029866,0
1.46145141674854e-07,0.205714602838168,0
1.48877297804917e-07,0.196326020798898,0
1.4073557058121e-07,0.187486244849868,0
1.573586770424e-07,0.20135123223843,0
1.59908634961636e-07,0.19762403971809,0
1.81655701355743e-07,0.202547227666403,0
1.9233874929971e-07,0.20671560747753,0
1.2782027357763e-07,0.176215487304478,0
1.04273868542842e-07,0.156785486418295,0
1.00545399839034e-07,0.15813018975163,0
7.78100744756323e-08,0.141568926238251,0
7.20815106144109e-08,0.144712225689161,0
6.8121471602929e-08,0.141353456489262,0
7.08130095540248e-08,0.139734150532529,0
4.98389724682479e-08,0.127064986003234,0
3.88156889159791e-08,0.123538086001551,0
3.19110653671931e-08,0.124597897800221,0
4.41109922015517e-08,0.140864726382337,0
4.88762749391655e-08,0.146182006240791,0
7.76933555705546e-08,0.175018498368846,0
1.11423601792291e-07,0.216093544720193,0
1.39148193472151e-07,0.238824508101812,0
1.59367992993315e-07,0.248956552439385,0
1.55256686280853e-07,0.266737714825696,0
1.53573132794009e-07,0.271516525679529,0
1.43214096530539e-07,0.251807174896061,0
1.10914707366152e-07,0.225112753862695,0
4.20730801188922e-08,0.161043800929471,0
4.39335794658334e-08,0.157425105899792,0
4.20085345643842e-08,0.160587254004893,0
4.01466345905822e-08,0.154495673749817,0
3.44672093883982e-08,0.140681798623165,0
3.77325374768566e-08,0.136045784933875,0
6.74952746771864e-08,0.147118239660443,0
1.1613542727138e-07,0.17522443759417,0
1.06522925124787e-07,0.173270509452339,0
1.21095980737189e-07,0.178511740303747,0
1.21684710894401e-07,0.176567830412079,0
1.15491022196445e-07,0.172466517875377,0
1.15332284485539e-07,0.168010539096312,0
1.13945663893214e-07,0.169218974307517,0
1.20771385462167e-07,0.171603139726863,0
1.28185953907239e-07,0.183311694924493,0
1.02455854877349e-07,0.165840465458893,0
1.23767793193326e-07,0.182786261345403,0
1.45053586474566e-07,0.196551288540583,0
1.49376504561935e-07,0.204851954376418,0
1.31814978103919e-07,0.190705256339974,0
1.60946616184493e-07,0.209059859182685,0
1.84705332907618e-07,0.232834520112955,0
2.11378053814916e-07,0.237726930072804,0
2.61516293555783e-07,0.253176507780051,0
2.64618682052753e-07,0.265192476115861,0
2.53426739682648e-07,0.275535768629346,0
2.48377479848979e-07,0.270402780081169,0
2.28693420102123e-07,0.253890329347052,0
2.19212693599363e-07,0.238830984843415,0
2.22956452479735e-07,0.238019876172419,0
1.9618311987626e-07,0.219088664565454,0
1.71788868714986e-07,0.202060132882396,0
1.4175522693597e-07,0.189344793113367,0
8.96531916171681e-08,0.162280912861554,0
1.10173308881097e-07,0.174118637191222,0
2.12405180179602e-07,0.24209303004598,0
2.54100791359472e-07,0.256203370054793,0
2.41944867552328e-07,0.261571215598696,0
2.45200274533854e-07,0.262650634286804,0
2.52593366700391e-07,0.278601918939003,0
2.24840879202217e-07,0.259535859592927,0
2.18593149651209e-07,0.260503542058313,0
2.08063703786325e-07,0.242689712063483,0
2.40094522750128e-07,0.263940378027535,0
2.56351131849373e-07,0.264483650694979,0
2.2088644269818e-07,0.239548107658883,0
2.03511082893763e-07,0.233471139319495,0
1.98279274692553e-07,0.224579750520521,0
1.87077177777705e-07,0.225915444716015,0
1.52119865706885e-07,0.209643879406622,0
1.38531334058815e-07,0.217174173963405,0
1.34737502768164e-07,0.204274660449569,0
1.31516060988015e-07,0.194688046892874,0
2.8984163744008e-07,0.253972991743642,0
3.99736104856946e-07,0.279829236038817,0
4.08668019068029e-07,0.275950478986635,0
4.49474815785732e-07,0.281690348600559,0
5.49790979695193e-07,0.298955630215572,0
3.03784492668295e-06,0.559312008412939,0
4.97741292805318e-06,0.374970275806157,1
6.91343806712246e-05,0.339891338186796,1
0.000206022217303917,0.598441234618868,1
0.000267605957346622,0.431599147374657,1
0.000316844882009026,0.398727044966234,1
0.000327276987225048,0.361559417225331,1
0.000303288143773667,0.345633216201843,1
0.000271342872180558,0.275765016626185,1
0.000341718697652939,0.225310697363111,1
0.000282033434604352,0.167409173146552,1
0.00017380443052795,0.129251366845218,1
0.00014131873336337,0.125719313485003,1
0.000143301098802384,0.129775947052948,1
0.000130792819295834,0.135702488464894,1
0.000149595337568936,0.114668455991851,1
0.000244339866651929,0.128306583850223,1
0.000239809161951454,0.113592439210222,1
0.00030483334415622,0.131454152941822,1
0.000309177393617758,0.174306550051749,1
0.000287008429817006,0.155767516748664,1
0.000241091185597307,0.143916335533217,1
0.000172220673222294,0.114109158405612,1
0.000226319560313577,0.111487906239279,1
0.000312444837586528,0.130076897574361,1
0.000348587896080283,0.177020152764029,1
0.000317865966186152,0.176355962314668,1
0.000322316870287944,0.185387929849348,1
0.000363062370321861,0.173273205744573,1
0.000408055277497664,0.177043510733584,1
0.000422819354336365,0.171407119145203,1
0.000351561845693478,0.143204654018338,1
0.000292267429788094,0.0842203935660033,1
0.000518353559761525,0.0746756255703041,1
0.000590187568404594,0.0539424859820604,1
0.000757017804263354,0.0629791819753603,1
0.00079058142164245,0.0655255542418569,1
0.00072502774820996,0.0640199518994124,1
0.000851736101122587,0.0777557302340971,1
0.000917174867477562,0.0841999424437246,1
0.000845293985572685,0.0778328072738227,1
0.000828938798370745,0.0810325426580681,1
0.000775718978429149,0.0917085694541289,1
0.00029435457763992,0.0811393209008032,1
0.000346174207949601,0.181016339636263,1
0.000320447144895151,0.130529658500517,1
0.000491528998763735,0.0967743770183412,1
0.00063604340692505,0.0757680503226112,1
0.000574342829040702,0.0636167270746851,1
0.000542634130911133,0.05210436826857,1
0.000461653394382195,0.0391142762279935,1
0.000609645513285399,0.0336789785089627,1
0.000655962964337299,0.0243631967933611,1
0.000841960220521422,0.0293449679250459,1
0.000884485120455622,0.0263017920499463,1
0.00149882479579805,0.0320935709559752,1
0.00199997081816532,0.0254071306154617,1
0.00201947834757138,0.0252781780618194,1
0.00194009214768914,0.0234697489131715,1
0.00216574445671946,0.0264503610098313,1
0.00236384463150452,0.0287412368323977,1
0.00232674483923414,0.02601827089474,1
0.00245259956143134,0.0327573516818889,1
0.00212778400550478,0.0297545415376143,1
0.00203317917786287,0.0298075978850488,1
0.00170299473858611,0.0331871663599708,1
0.00128036241100495,0.0455136360583929,1
0.00124968327434659,0.0542456158298077,1
0.0011638043921996,0.0609290586202693,1
0.00116307184649334,0.0568747722524743,1
0.00102135396587199,0.0518492085316654,1
0.00107970586436338,0.0768023754416605,1
0.000812663900002669,0.0526729689337405,1
0.000756770686063772,0.0493473608206384,1
0.000849781097162739,0.0486784679934806,1
0.00120353302079183,0.0679095119892849,1
0.000993688546124965,0.0541032145693823,1
0.000972167031544911,0.0551962718527354,1
0.000851545764686104,0.0552381132750216,1
0.000632712587858952,0.0513827423774874,1
0.000630757850601802,0.051786943627889,1
0.000598174243316822,0.05029861817479,1
0.000627726570880092,0.0580683645273358,1
0.000501427392663301,0.0421284437715255,1
0.000596492226434365,0.0538727673985304,1
0.000470884988467228,0.0489854776104294,1
0.000739835677391769,0.0621633570148455,1
0.00119359742577596,0.085262163751768,1
0.00141048060436695,0.0874212762743339,1
0.00140315049885722,0.0865844294110167,1
0.00146954561510035,0.0872540348527883,1
0.00154061227175935,0.102290016250352,1
0.00123714816536564,0.115497368221686,1
0.00103003112940085,0.143624147060569,1
0.000494753564875535,0.104948573538864,1
0.000316630767363763,0.0717000595160853,1
0.000394533056193947,0.0979761383618235,1
0.000312064360451166,0.0682138363811393,1
0.00114192556498496,0.0530299804869764,1
0.00310145654518435,0.0844749192172522,1
0.00331417251967892,0.0754769948306753,1
0.00329070889169161,0.0655490235850801,1
0.00497172086744593,0.0647737144286776,1
0.00534631047433463,0.0512391569407731,1
0.00443310328955621,0.0434839310228773,1
0.00382298631920003,0.0305578858144601,1
0.00319201523728164,0.0248653136207202,1
0.00207367834603247,0.0160798927330493,1
0.003345573698626,0.0247968204642109,1
0.00382597829067905,0.0248171133023499,1
0.00342409260642858,0.0248225577674131,1
0.00287837142178366,0.0214962606337034,1
0.00484952112632927,0.0297370840193972,1
0.00669475841475632,0.0335443768092861,1
0.00582675018056996,0.029277048513861,1
0.0190625756738358,0.0286025659978999,1
0.0263386397702591,0.0144245098818525,1
0.0264965437972436,0.00848162739567366,1
0.041279645352931,0.0119175492507766,1
0.0386687825920815,0.0105255744432024,1
0.0369625415854874,0.00981156118393916,1
0.03438093945485,0.00693901406230278,1
0.0351480097991188,0.00721236476574987,1
0.0351616525121495,0.00709073249395392,1
0.031675859390748,0.00524966757999011,1
0.0282417011795001,0.00649294150965054,1
0.0242817794610637,0.0090116484819711,1
0.0217068680013356,0.0152110055561589,1
0.0117934998462806,0.0114305414147973,1
0.0118083883688159,0.0123881516849571,1
0.00991479703197606,0.00914505696520159,1
0.00896199254593192,0.014517947325617,1
0.00833458096482784,0.015200854137368,1
0.0074465753319908,0.0141337937331311,1
0.00711393824871503,0.0190194402693931,1
0.0069240799316178,0.0181686272512708,1
0.00711747024448592,0.0190112133560434,1
0.00707740632531524,0.0184644238281855,1
0.0066636990584445,0.0177731568627069,1
0.00708679119326579,0.0191152355438721,1
0.00441506524918085,0.0106492291780413,1
0.00461673307817934,0.0139615749778758,1
0.00556616335700536,0.0166128414454659,1
0.00718434400499983,0.0261919481327467,1
0.00768204333969316,0.0176144955647832,1
0.00837848928538886,0.0132516440923601,1
0.00876751221014931,0.0112831738087758,1
0.0122372831438519,0.0151993841901974,1
0.0121558158860434,0.0147902697191933,1
0.0126274456598281,0.0149399290695515,1
0.0133662063152525,0.0180287351938776,1
0.014745714548772,0.0214414224115199,1
0.0144872149448413,0.0179327792487414,1
0.018227125514207,0.0145453817832827,1
0.0238445815432113,0.0130584556100283,1
0.024446239529303,0.0156281966550124,1
0.0253015518876394,0.0118675633320087,1
0.0260043079758695,0.0106973027933585,1
0.0260392866975723,0.0115033944580783,1
0.0252467597291193,0.0112126926122647,1
0.0306781632600489,0.0128823282427452,1
0.0354128834424147,0.0155903090957849,1
0.032005783729765,0.0108760310769619,1
0.0318610912992451,0.0144352836941159,1
0.0291632137864984,0.0182103948096763,1
0.0253592170294844,0.0164829009959471,1
0.0258909656422679,0.0253031421440285,1
0.0245815807553554,0.0301689402160816,1
0.0256039699550039,0.0290546839964585,1
0.0296000532116881,0.0333227270542894,1
0.0720862728391132,0.0408049695449573,1
0.102676735246579,0.0375415292121128,1
0.117832143791219,0.0419074971004584,1
0.163676894497858,0.0534831834957155,1
0.184186636748223,0.0650095321040627,1
0.172026840392224,0.0496292745711509,1
0.119610723323223,0.038108038587475,1
0.0793625912423368,0.0282559618094802,1
0.0581752134513625,0.0210261384780014,1
0.0414846665864538,0.015490358202599,1
0.0404474252135717,0.0190922999452568,1
0.0434301258616907,0.0172958302869268,1
0.0621316634668125,0.0354121080584905,1
0.0564546354038861,0.0135924327590065,1
0.0678984872178647,0.0116820023011983,1
0.0599530582813952,0.010219177541433,1
0.0691508871868214,0.0107665967526901,1
0.0816770720760577,0.0113115612482142,1
0.0803716548835162,0.010708003115307,1
0.0881493585837961,0.0107977638529939,1
0.0939385937226478,0.0123391700438279,1
0.0901431310005043,0.0137287387746186,1
0.0884723517273886,0.0116677552333043,1
0.0842191696540064,0.0209744802607736,1
0.0429348203336966,0.0107012268374024,1
0.0437850885399353,0.00400976132086483,1
0.056708240883165,0.00683975011603724,1
0.0562817046208989,0.0072845181814098,1
0.0599316568090576,0.00903398930693194,1
0.060441495176465,0.0111412532458593,1
0.0641355392465556,0.0115581319588197,1
0.066001217703229,0.00894152282717028,1
0.0789041395671577,0.0121169982061261,1
0.0795922336693073,0.0121866938398287,1
0.06396179112683,0.0123883125803082,1
0.057970742960662,0.0260343035579621,1
0.0529573647164649,0.0296421498574918,1
0.0577539781350407,0.037933496015392,1
0.0501111126165719,0.0317653808446216,1
0.0443749544088609,0.0266997940313703,1
0.0306645477373875,0.021309643935887,1
0.0325133168260812,0.037454268605703,1
0.0322635300073555,0.0357183339022883,1
0.0371685842211297,0.0323216174180646,1
0.0420914114111979,0.0319583138150512,1
0.0413833214572733,0.0296558044934107,1
0.0344586293776008,0.0260738066062545,1
0.0284818386739492,0.0233490571140212,1
0.0267522604524782,0.0193220769143931,1
0.0189851740659224,0.00981955488796799,1
0.0202811520899607,0.0129377154485551,1
0.023301928554727,0.0151009122829821,1
0.0167082250971992,0.00763829926462538,1
0.0180544122420351,0.0202364173230174,1
0.0165602631395116,0.0156236859279716,1
0.0162793185036738,0.0158586384822117,1
0.0168322716652103,0.0152718070149271,1
0.0171229799352682,0.0146392292659763,1
0.0131136923519564,0.0101201006344443,1
0.0158619408710037,0.0219306605958314,1
0.0166331638375594,0.0163146914731633,1
0.01473151940458,0.0136046049725601,1
0.0142933449211251,0.0189195520008938,1
0.010637600884465,0.0142971058065319,1
0.0103059185753722,0.0152101389780358,1
0.0106022751978421,0.0157622701969515,1
0.011840354819638,0.0140080333893633,1
0.0107305843885882,0.0116312328792253,1
0.0102719208489877,0.0156072102679677,1
0.00774589844480213,0.0126517854596807,1
0.00603910335267296,0.0189839449141944,1
0.00516866528579696,0.0163275455936837,1
0.00497428551502296,0.0145600865424634,1
0.0110194447843163,0.0222531708830983,1
0.0116282164879384,0.014215959086981,1
0.0106816520321994,0.0133695636062138,1
0.00990408089107109,0.0162138311338855,1
0.0167829938973133,0.0187612948083195,1
0.0258128988171316,0.0167958002655998,1
0.0235863526455539,0.0158604805474114,1
0.0230156111303579,0.0152523286506834,1
0.0201234075168743,0.0139022569383769,1
0.0180827921590106,0.0113875865258696,1
0.0173845301619277,0.0106906757035197,1
0.025349504267199,0.0185046629862094,1
0.0231277108328274,0.0105723328751313,1
0.0205579986013191,0.00942835263225995,1
0.0202377163296975,0.014832046151525,1
0.0181813540682404,0.0199361782530589,1
0.0187193499284091,0.0149628593756704,1
0.0196182566535274,0.0149816608678337,1
0.0481470484035405,0.00332245126850831,1
0.126009837462776,0.013588732462403,1
0.12845450281561,0.0149256276988511,1
0.145569359706149,0.0182290534667671,1
0.160108358415331,0.0224971208906167,1
0.152918779299919,0.0210711280894952,1
0.132739747707144,0.0178230368818262,1
0.103088146299979,0.0116497233607151,1
0.093074406402273,0.00940291215355317,1
0.0853447705958019,0.00803999615745174,1
0.117912889899288,0.00788438206463425,1
0.229197846989849,0.020046319084113,1
0.268220058177735,0.0230925243885674,1
0.275084913499873,0.0179506175515759,1
0.286427683946286,0.0129321241769412,1
0.354020012642568,0.0160180790070779,1
0.3385722786718,0.0146111656449375,1
0.433398192970999,0.0179515982090029,1
0.415805667120659,0.0184572127156002,1
0.306150547552014,0.0103401766023613,1
0.293916786757232,0.0134274957134776,1
0.372366945226984,0.0166959660441925,1
0.415311655173934,0.0177550640501861,1
0.407231568868761,0.0155383167238,1
0.394337130545704,0.0183885349272721,1
0.396017903456746,0.0143421773032986,1
0.460735641703497,0.0175659116640541,1
0.422746555039617,0.0146874941643623,1
0.318596119591972,0.0129772165934345,1
0.237577021577683,0.0102670119388709,1
0.250411986013294,0.0113701458653701,1
0.229986076723626,0.0104982915346835,1
0.212763114403633,0.00916079276497318,1
0.229130622368688,0.011862933634181,1
0.205553854378484,0.00923561369199438,1
0.190457768903657,0.011224204706697,1
0.219247901025691,0.0136016596698725,1
0.2850541412041,0.0248217840599815,1
0.306844365380259,0.022117193822616,1
0.225916663551344,0.0186080123078525,1
0.144089244316001,0.017641815665345,1
0.139660002311108,0.0176919826695834,1
0.0771519575111731,0.0104510195593283,1
0.0562740128766851,0.0152019292236803,1
0.0527542847185064,0.0294830575401078,1
0.0156095944936452,0.015907583756897,1
0.0142042890571797,0.014507622881342,1
0.0154779658963741,0.0195307735204863,1
0.0153286694301672,0.0271560585926779,1
0.0178103876630258,0.0304198855976442,1
0.0168630201443367,0.023539661857683,1
0.0159922564341666,0.0209514326489271,1
0.0143726254174489,0.0170121920121104,1
0.00823750151244928,0.00930087584480274,1
0.00627675766140388,0.0104597139557079,1
0.0076103220161498,0.0176916430172509,1
0.00404654636680658,0.010249942626856,1
0.00495734759164646,0.0164514067519159,1
0.00762038192975538,0.0233102668649496,1
0.00916276663119543,0.0309776361575897,1
0.00986817493057564,0.0431309256242074,1
0.0127168731581679,0.0577970349241224,1
0.0137787870929547,0.0274718519787463,1
0.0154899926627758,0.0112020051518881,1
0.0277343068106057,0.0172421294689847,1
0.0232282928909231,0.00852722290786857,1
0.0222951997670452,0.00791543256566674,1
0.0232823409562688,0.00670335982013485,1
0.0281838304027549,0.00919696334403048,1
0.0299942390146663,0.010094484963602,1
0.0494375838661201,0.00916725417820868,1
0.166268663088954,0.0279411198363981,1
0.181168127315567,0.0222288737131897,1
0.169886905969244,0.0247594258784395,1
0.173406630667407,0.0222190384213129,1
0.152930880876603,0.021560191804633,1
0.117395139958464,0.0170133375560764,1
0.100854136840435,0.0135210859161179,1
0.0994752545555798,0.0132415694302214,1
0.0948617850668441,0.0117544253822201,1
0.109257373015611,0.0194001856785507,1
0.0499287830946427,0.0112736924330927,1
0.0404539434648634,0.0133712132407999,1
0.0325390429244539,0.00820389138099503,1
0.0436843404370584,0.0120797252991024,1
0.0528290201442502,0.0130380141117506,1
0.0391328741082966,0.00789596921150146,1
0.0403512547548367,0.00892200461169015,1
0.040125012455085,0.00574064433155174,1
0.0401828072237788,0.00793951873971492,1
0.0775325453324738,0.0133986195799227,1
0.110113262186754,0.0170651388258469,1
0.117850096471207,0.020307851919219,1
0.147315755677562,0.0270147717045771,1
0.140441480399553,0.0328838824860126,1
0.133297014461861,0.0273600610177455,1
0.197540260409632,0.0352220439779172,1
0.132113704899961,0.0182833516569731,1
0.109331729769861,0.016718366535344,1
0.10143240626,0.0057918400256349,1
0.171332580333322,0.0143877664214199,1
0.188483099740235,0.0144114380699229,1
0.170558116182684,0.0123202435085543,1
0.169458924134934,0.0123163070279744,1
0.172806523725813,0.0128584955384363,1
0.198668658282465,0.0160803585480817,1
0.283035956516115,0.0245855381820285,1
0.308305244057341,0.0348824569131275,1
0.196641591733655,0.0217948574380654,1
0.16323497901931,0.028119650190695,1
0.200693095607914,0.0173778449317226,1
0.257930714819757,0.0194250457533892,1
0.24920782993765,0.0105453304260314,1
0.308847577840512,0.0125183492563782,1
0.402837903327828,0.0163383990128406,1
0.408334315082337,0.0154225085493364,1
0.355022380594859,0.0125421353653448,1
0.329136086375238,0.0108981909176216,1
0.325788009698519,0.00972554308967172,1
0.356351270779629,0.0122105507949524,1
0.347012739663752,0.0153850127789926,1
0.22573562508582,0.0115714663878786,1
0.195630192750159,0.0197967534431646,1
0.178925170275567,0.019525357600199,1
0.183775510492687,0.0185838424706693,1
0.195240877858193,0.0175740645266008,1
0.184814318995683,0.016283432372059,1
0.147461360453309,0.0128375598235857,1
0.146414761813929,0.0163115957376031,1
0.133114050393753,0.0145335689375205,1
0.146950850375489,0.0197125567675906,1
0.156973927826103,0.0225863496344453,1
0.171214865644057,0.0179704488875645,1
0.181538255374991,0.0161049626961936,1
0.120188830430678,0.01226267962632,1
0.0685392856786326,0.00741933993724115,1
0.0991003449163082,0.0120227292545373,1
0.16933151634445,0.0207165862599315,1
0.208121196158046,0.0238269348430267,1
0.204719107295372,0.0226286658269589,1
0.217499229828617,0.0229538444615252,1
0.217963823332534,0.0206886080473349,1
0.169911625722702,0.0229615058525683,1
0.10799424329259,0.0207737540230224,1
0.0928725611401131,0.0189614306866615,1
0.0510686451547074,0.0114667356836177,1
0.0503567577586762,0.0137893009746538,1
0.046589669553975,0.0127706481680888,1
0.0452465387922961,0.0140132675532816,1
0.0410252483993719,0.0130281083400442,1
0.0398714929173365,0.0151014743203311,1
0.0157403005160944,0.00667796683682451,1
0.0185467086587291,0.00810857880746909,1
0.0670051164250105,0.0246983226636377,1
0.0686656537200697,0.0221812680920596,1
0.0814093327679456,0.0199847288157612,1
0.0728909881759608,0.0166286015254649,1
0.0896926863038412,0.0168440515037843,1
0.089091474836659,0.0134351235216193,1
0.073986498994532,0.0109397365900171,1
0.0677400462227561,0.00931572473104083,1
0.0565619282769401,0.00676136501030909,1
0.0541858199038238,0.00584356694317905,1
0.0525292727186512,0.00556729320924875,1
0.063205368958748,0.00662507696118435,1
0.0650019816038388,0.00243333041365026,1
0.074530621518151,0.00351776784760411,1
0.0707362639783734,0.0051108779748234,1
0.0709695440187681,0.00632393298383758,1
0.0721974638902757,0.0057166473890606,1
0.0708995878066301,0.00517915785839932,1
0.0821707573895961,0.00593912889934339,1
0.094006332839575,0.010276908099908,1
0.074991427324939,0.00781971797630417,1
0.0711706583567976,0.00922143714557913,1
0.0611126871358853,0.0207194129544695,1
0.029999258347656,0.017019074438778,1
0.0387694308048186,0.0195512189489477,1
0.0400218862261101,0.0141463440588651,1
0.0355375502012301,0.0137087473624894,1
0.0353640514520287,0.0102599263351255,1
0.0425779756153977,0.0141493962691001,1
0.0369587316936755,0.0120360703312284,1
0.0442504043834238,0.0142518844889526,1
0.051742329967206,0.0161656700340193,1
0.0502948164712772,0.0125853472690721,1
0.0481591780575405,0.0119724599741066,1
0.0323706311990211,0.00630318658141156,1
0.0309208195971413,0.00597419815411006,1
0.038997680030118,0.0104831354018026,1
0.0395088003587267,0.0148496956509189,1
0.0384053605368713,0.0158442128013191,1
0.0371625136522016,0.0155515188142694,1
0.0409698962767691,0.0190132604587945,1
0.0425194782739456,0.0124907609579188,1
0.0592626984273082,0.0200492113279216,1
0.0678047151462288,0.0229372665465428,1
0.06729398188097,0.0238162575696974,1
0.0702000452559759,0.0359275712455851,1
0.0642530911511152,0.0331197048536075,1
0.0743067153081836,0.0360404608812736,1
0.0765181965604116,0.0365432213084304,1
0.0711431551481994,0.0326863557249968,1
0.0631105722737056,0.00952514656688536,1
0.144820257334029,0.0243685506247204,1
0.163522478017751,0.0239272923951776,1
0.198528267578898,0.0239774035174139,1
0.244010303669156,0.0254991929694485,1
0.237743864317171,0.0257402213080897,1
0.226441880553307,0.0246053503565944,1
0.2047491192607,0.0175816129974982,1
0.172490394873552,0.0119919952124968,1
0.128213625018433,0.00778250727286785,1
0.0856773447527646,0.00599797804637742,1
0.113897559190581,0.0108790506111933,1
0.128540807746621,0.0142644768746513,1
0.121099090156833,0.0106874068482779,1
0.129162017078863,0.012740752659226,1
0.146979030735001,0.0155327320553567,1
0.149663861958518,0.0152196851414134,1
0.162485881086827,0.0193238122464284,1
0.155078112429201,0.0181133262967524,1
0.156688757287764,0.0161078066849617,1
0.16959479887143,0.0196502135953767,1
0.183589123324861,0.0206147654041729,1
0.130097759043049,0.00771099688229378,1
0.113112803316289,0.01181200836108,1
0.174674527861528,0.00778455893657012,1
0.429850240332045,0.0219875819568364,1
0.469965709599556,0.0100827179348031,1
0.469227669066627,0.0101452847962979,1
0.478572552309412,0.0107588030122836,1
0.561896313293381,0.0137259150743562,1
0.639099236691515,0.0160118905060815,1
0.626534248549178,0.0155242274874471,1
0.674791349044698,0.0185941452749684,1
0.672277770131222,0.0155419248082602,1
0.621926576048661,0.019644239609092,1
0.244939555215657,0.00599139358360495,1
0.139791130643448,0.00927000148185873,1
0.121413947685303,0.00783718135275481,1
0.0948198643484325,0.00643710031422302,1
0.10039406366339,0.00714041228615598,1
0.0990299135103437,0.00696269956044133,1
0.0878654203288754,0.00716079041370408,1
0.0851698211977519,0.00916960408025998,1
0.0543302265309469,0.00977823249326605,1
0.0445277232783676,0.0225375716915213,1
0.037898382695847,0.0188782624342691,1
0.0469199016024263,0.0224698998223126,1
0.0474227305606039,0.034259861230633,1
0.0683938991252196,0.0567768905095298,1
0.0844342441768701,0.0568164990715155,1
0.0856805439750002,0.0629371158239204,1
0.0970099847149878,0.0560215372624374,1
0.0825782641238391,0.0437541049247219,1
0.0438073525547102,0.0283577944560951,1
0.0315310829917141,0.0191839894654514,1
0.0207555083089362,0.0123788720431771,1
0.0320954158028471,0.0218955676608405,1
0.0377801085455577,0.0170061214889715,1
0.0461597395355916,0.0159137109527688,1
0.0495119409008456,0.0086063913645577,1
0.0551478507223815,0.0104775700486904,1
0.0506532585377478,0.0105186850304835,1
0.0553781949580683,0.013307858358666,1
0.0603970571233016,0.0144943744649798,1
0.0633587237521392,0.0159688768449078,1
0.062076248174771,0.0154307993154908,1
0.0483608888456322,0.0108100349287079,1
0.0634075740828002,0.0127219520380287,1
0.0495332141865289,0.00926624447200872,1
0.0505687881656566,0.0171939669500619,1
0.0518003750471784,0.0161725114728714,1
0.0496447180554454,0.0157803799795485,1
0.0436132486831503,0.0123556726915805,1
0.0400670371901754,0.010494679250206,1
0.0352997626977868,0.00753731201266136,1
0.0380254901209674,0.00863862756343173,1
0.041924519722252,0.0112715708236736,1
0.0324201250878446,0.0117945218273463,1
0.0307674915809344,0.0156723376852471,1
0.0298047857087849,0.0181571280007185,1
0.0351790836854169,0.0230440364345155,1
0.044375257629753,0.00964755396536533,1
0.0576352860110841,0.0113284327583581,1
0.0489888102886455,0.00814251791534735,1
0.131875924108089,0.0178502251013485,1
0.154098327286614,0.0130095438038857,1
0.149476712746851,0.0124506272964265,1
0.142359542192277,0.0114559616393467,1
0.14159589629968,0.0118563594591177,1
0.127348623159655,0.0101344257748918,1
0.113286155684343,0.00808562769508021,1
0.112526130527733,0.0127205181425702,1
0.112897943718683,0.0144050857954691,1
0.125286968718661,0.0173800189586658,1
0.0678032719026112,0.014092440619484,1
0.0460743327578384,0.0164237891432159,1
0.0449279360847092,0.00622043774267945,1
0.076800561003061,0.0121041017148762,1
0.0778723299675227,0.0100905943133567,1
0.0849964573213306,0.0109618718203309,1
0.0824420172503576,0.00850380968604261,1
0.085702079668126,0.00700665654875462,1
0.0869389364808112,0.00600941746893262,1
0.0967332265810833,0.00678969069568321,1
0.103662586331356,0.00748271429240603,1
0.09850480339722,0.00772017523457292,1
0.0916677552939421,0.0120338706402285,1
0.0614665659544405,0.00783295745243094,1
0.0609519922526157,0.00885485711110576,1
0.0438360669497839,0.00571999804353994,1
0.0510401424998663,0.0106472470544228,1
0.0558143565341316,0.0199272055400608,1
0.0466566219976208,0.0221695389105991,1
0.0478325052616424,0.022609936184932,1
0.0474520457023963,0.0295039784637013,1
0.0335819956708369,0.0172603981815303,1
0.0555878044459485,0.0199907455553544,1
0.0771533294335871,0.0241770241816578,1
0.0984805280406042,0.0294893534804151,1
0.11720122462622,0.0390820459785622,1
0.178484622704303,0.0422310653380611,1
0.177205142971263,0.0286297959587614,1
0.144756948345706,0.0239672365110381,1
0.104180844723075,0.0166913311715304,1
0.0875669974410831,0.012329252678939,1
0.087790906133078,0.0121112049812433,1
0.129774663850017,0.0204290929825947,1
0.127537101932594,0.0212370822247515,1
0.114558873391654,0.0189990161408564,1
0.11704569716982,0.00654075510620128,1
0.528330198822209,0.022791657068331,1
0.67136984033793,0.0206167401350112,1
0.648379499953515,0.0203966316474604,1
0.559303249822519,0.0159713096722295,1
0.464627480033608,0.0119930866849704,1
0.453507498577926,0.0125006384521033,1
0.463097458350795,0.0121231338724203,1
0.525552261961308,0.0140737037598414,1
0.495186533671663,0.00910019327958522,1
0.3811464734368,0.00967402363353602,1
0.315938575862192,0.00930882025065538,1
0.389536041796444,0.0143242093439315,1
0.404912337052703,0.013406292773776,1
0.537633956003787,0.017733027529226,1
0.585954043645522,0.0185060991108278,1
0.59090701825169,0.016995874144899,1
0.624005916542579,0.0182800535124623,1
0.437711525644695,0.012612383319037,1
0.253630443634778,0.0076158222391451,1
0.232876041962875,0.00561557041094502,1
0.242848824101032,0.00886490426570206,1
0.282418178997474,0.0121040555591398,1
0.294331210000627,0.0136659012468782,1
0.291015717662787,0.0156944195279277,1
0.320642222357382,0.0262059708105767,1
0.299499319886517,0.0270871720838989,1
0.300855357556145,0.033424738815668,1
0.155089636324806,0.0301146870824287,1
0.0422366680176022,0.0131911823989616,1
0.0199432147489153,0.00875757138246644,1
0.0264740010123197,0.0116840621628451,1
0.0283514883261014,0.0105411182189917,1
0.0266136466757716,0.0103007145189304,1
0.0248312803145607,0.0110873657697819,1
0.041731682667382,0.0168554303390237,1
0.0606715034812535,0.0219052440207173,1
0.0652660016929869,0.0229232464569269,1
0.0931549939767727,0.0257720680807279,1
0.103546276298206,0.0138252832266323,1
0.112185972912054,0.0140595511855764,1
0.0923080991700573,0.0115997604190857,1
0.08149734220162,0.00929920887121284,1
0.0823475663572102,0.00885632304647882,1
0.0714822977573715,0.00665275011859694,1
0.0687498829150703,0.00799773303385734,1
0.06712576589104,0.00831546888952624,1
0.0667878183737402,0.00836627322133187,1
0.0667655999358302,0.00680043238135692,1
0.0728396836603779,0.0101699027241011,1
0.0524565939988347,0.0074324660770772,1
0.0606530123632999,0.0071017432535404,1
0.0722486517247705,0.00867763488527665,1
