Activity,Complexity,Tag
1.25402002941372e-07,0.0568991386307515,0
5.77372256771849e-08,0.0437675845469362,0
5.76621936974062e-08,0.0428746055163566,0
5.6452771973348e-08,0.0442010454951491,0
7.6079613796369e-08,0.0460455855841886,0
1.2956334688238e-07,0.0604235260918713,0
1.48837186688036e-07,0.0647800873863927,0
1.49427242866514e-07,0.0649806349445358,0
1.47910190025363e-07,0.0668697487181533,0
1.47736678572125e-07,0.0647168732481674,0
1.07139101825766e-07,0.0539877433034001,0
1.52442590553871e-07,0.0644962181635259,0
2.00429175983876e-07,0.0752738386611187,0
2.39986973622958e-07,0.0824626316672987,0
2.67503662594648e-07,0.0980957808374701,0
2.23260469530789e-07,0.093316668997775,0
1.6792813604298e-07,0.0846842968711051,0
1.60754140876389e-07,0.0848315199507701,0
1.59247873882332e-07,0.0867085555466937,0
1.17810642387261e-07,0.0727265786229492,0
1.97424262431207e-07,0.0996745800212543,0
2.92791667291972e-07,0.125294062730048,0
2.85372880291353e-07,0.107583544080277,0
2.9417518665661e-07,0.109243836664163,0
2.75156338344734e-07,0.0969555573812243,0
2.50655583247744e-07,0.0867614107570214,0
2.15882129456769e-07,0.0781568798874904,0
2.15297700676774e-07,0.0793816294158901,0
2.21272708253996e-07,0.0760369544994411,0
3.5039946280404e-07,0.0953892042612841,0
3.56862529962227e-07,0.0872272198115276,0
3.4108881477578e-07,0.0832240584728374,0
1.10844145815998e-06,0.0557213070613395,0
1.88205509820182e-05,0.117716324357701,0
2.08196933205323e-05,0.082979818911182,0
2.072382120837e-05,0.0836949520221431,0
2.03738770958933e-05,0.0888337449139814,0
2.00775543532904e-05,0.0930932376104862,0
2.09802575367098e-05,0.0825829716420575,0
3.93116908696089e-05,0.102846913214549,0
5.10108958045837e-05,0.118173096234893,0
4.82271632804686e-05,0.102919290790392,0
7.84863423934502e-05,0.0923724546291856,0
0.000189052001975288,0.0960612632838977,0
0.000466583934279857,0.110490671688813,0
0.000470140713319484,0.0915764299995836,0
0.000452180203744032,0.0874005814291345,0
0.000422318520612425,0.0709242497681972,0
0.000336096147097803,0.0545263717582788,0
0.000346130872957871,0.0493326699412409,0
0.000489449989322339,0.0310113958925537,0
0.000642210396584559,0.016610180206419,0
0.00062559135880399,0.0152954272000279,0
0.000646397185745709,0.0169197572804069,0
0.000659967658946998,0.0180443435244725,0
0.000661490562406772,0.018251687502058,0
0.00066715772127416,0.0185005337862266,0
0.000670493054680266,0.0188444876170563,0
0.000694708909950151,0.0200703996578176,0
0.000684287375124616,0.0200656036557164,0
0.000489777860315977,0.0259795985676342,0
8.18197456018779e-05,0.0317388725228119,0
8.12076239249961e-05,0.033291678051211,0
0.000127458450016542,0.0370098448804238,0
0.000126871510830636,0.0319175842440253,0
0.000152182208598532,0.027746205155391,0
0.000189458445403013,0.0265389485738106,0
0.000196741385128444,0.0241836268494378,0
0.000192807967825447,0.0212962235853933,0
0.000266697785015721,0.0264475696200525,0
0.000264603857590852,0.0269492164366629,0
0.000285609237592953,0.0277467964513802,0
0.000314859283472899,0.0355292329646976,0
0.000243739324807491,0.0324465646059605,0
0.000273572073731897,0.0382732438031909,0
0.000180112507020965,0.0352117102923454,0
0.00017838852500687,0.0413619603351094,0
0.00013069918286807,0.0502127105730331,0
7.02132882832948e-05,0.0504517041677698,0
7.15543384922412e-05,0.0599153652488091,0
4.88756177867086e-05,0.0637921972197492,0
4.24184087503413e-05,0.0748519846588167,0
3.78496736339134e-05,0.0806093754823484,0
1.64919387652721e-05,0.0715947762385227,0
1.47593597276186e-05,0.0870939978718343,0
1.25961417935108e-05,0.123835558692255,0
4.48445227972979e-06,0.111011227688291,0
4.46693512615071e-06,0.118883261646118,0
4.07267677470424e-06,0.11042195138684,0
5.23645560756317e-06,0.115728743825638,0
5.20500407743943e-06,0.112094968081392,0
5.408831381445e-06,0.0820008055840308,0
3.05692277839103e-05,0.116283731185837,0
3.35389788888681e-05,0.0841392468564097,0
0.000300987121570078,0.0264018419641788,0
0.00145649700351301,0.0399833736251213,0
0.00152639784163307,0.0272805896899283,0
0.00174051471714908,0.0222167132758221,0
0.00350344437691337,0.0270479985677831,0
0.0061659800385465,0.034192141542429,0
0.00947579573717099,0.039928765637501,0
0.0102614690496127,0.0389616237196739,0
0.0122507862589437,0.0399019137230732,0
0.0101966194390516,0.0219710792020162,0
0.00811491915151302,0.0210913892665278,0
0.00748846912239465,0.021339990231162,0
0.00487348012478404,0.0175132551660803,0
0.00457065590099411,0.0093870649616124,0
0.0125441795763791,0.0170763172192499,0
0.0194340064110766,0.0208415317304337,0
0.0200342758445148,0.014081286902017,0
0.0191435959065242,0.0133629931760177,0
0.0199213635084154,0.0135960860800743,0
0.0179743864616724,0.0109638955050815,0
0.0154704070368697,0.00912745324855875,0
0.0121505646054013,0.00753691840383971,0
0.0098848467700473,0.00651903812232525,0
0.00990256488552943,0.00892614053875679,0
0.0108387224604181,0.00934852197015652,0
0.007142939726186,0.00605451672372154,0
0.00649047172136268,0.00764361429410259,0
0.00653124120282278,0.00698189861826892,0
0.00625195791332076,0.00636899479448577,0
0.00487255679437148,0.00532874283550928,0
0.00505399719673677,0.00474237267416483,0
0.0061930840146996,0.0057860068053749,0
0.00750045130622081,0.00646787371781235,0
0.00704938741654818,0.00552992078676189,0
0.00862938226247487,0.0064113667371643,0
0.00915896860309503,0.00469329533098449,0
0.00967118096041529,0.00437446472813053,0
0.00828990666515989,0.00388422217949409,0
0.00863134584094458,0.00360445665991599,0
0.00865271750456237,0.00425354587955708,0
0.00756027327388445,0.00430801031331971,0
0.00822984832202284,0.00250490101298943,0
0.016911232968124,0.00452355650354016,0
0.0173042166189688,0.00395341278996414,0
0.0239598972147273,0.00215414979624165,0
0.0520314904685558,0.00560168646758245,0
0.0554496530839906,0.00590165713428627,0
0.050924403979506,0.00509845420222893,0
0.0485222312276334,0.00412747482778999,0
0.052475412941713,0.00404536515697862,0
0.0519927035991857,0.00347674343675625,0
0.0470850463538005,0.00305054464203998,0
0.0471951157601919,0.00320335547268672,0
0.0434789815945635,0.00273593881547569,0
0.0455990059292493,0.00510547899423437,0
0.0288315292204866,0.00300260893757875,0
0.0286931040154117,0.00305628087120001,0
0.0301350485598813,0.00357208483842361,0
0.0293957916946683,0.0042794269766572,0
0.0209281362348989,0.00310837305242,0
0.0241672528605349,0.00432892483141556,0
0.0225933280304919,0.00493269511936636,0
0.0177126090023686,0.00372516183069721,0
0.00992919248669109,0.00218787738203342,0
0.0106771504152743,0.00275744434098695,0
0.0105577522954986,0.00267717183840828,0
0.0103059991874768,0.0027424448022276,0
0.00948174290495278,0.0024268600080571,0
0.00921332907548576,0.00259823073224408,0
0.00936964122702453,0.00363745314048608,0
0.00727669505397358,0.00263598286102153,0
0.00907994251053461,0.00435571641552989,0
0.00858242604245238,0.00460220935513551,0
0.00975421897905285,0.00588353768324543,0
0.010957807173959,0.0064935816692626,0
0.0125486634953456,0.0076969609947334,0
0.0136853994858811,0.00822532480390559,0
0.0137594836153824,0.00882428860934404,0
0.0137684916397403,0.00936887629445799,0
0.0134719112734281,0.00731938781195548,0
0.012302836338172,0.0106735807261348,0
0.00731738566474747,0.00778593666433595,0
0.00633347268428934,0.00351453725868097,0
0.00820645549230467,0.00509583388721562,0
0.00842324874552602,0.00517573911837678,0
0.00827306888395221,0.00483146302848968,0
0.00822477740607237,0.00469241898901264,0
0.00812635049075609,0.00437415527215938,0
0.00689635108011822,0.00435279177788782,0
0.00643380840121297,0.00636442680410171,0
0.00983615021596309,0.00746769046103536,0
0.00977373486358418,0.00663973771401865,0
0.0088480129427811,0.0110943823390059,0
0.00878581239101599,0.0108784158873387,0
0.00912432024824815,0.0116054546539679,0
0.020960810549356,0.00197827819532218,0
0.059562769095806,0.00636479219055385,0
0.0844699575133619,0.00597512669032375,0
0.156176844195579,0.007587542109937,0
0.149418956689194,0.00709725261431337,0
0.147683130529716,0.0071091492958913,0
0.161027867081752,0.00743992543584764,0
0.17371966139473,0.00774245165968116,0
0.145388180837992,0.00683827047330695,0
0.110947419348071,0.00546751237809606,0
0.0815334411856063,0.00537452497125434,0
0.0832315914174959,0.00499847328625664,0
0.0934422818310388,0.00444737079379049,0
0.11564780350815,0.00602940732194862,0
0.101210679164373,0.00518275192600774,0
0.105588451237514,0.00477014601330688,0
0.104892221397797,0.0039776400976236,0
0.121007569932476,0.00414797247819517,0
0.11293144105444,0.00389595725421398,0
0.117270081141468,0.00384634941865453,0
0.142166137750141,0.00428705634170989,0
0.126850376100308,0.00388178468970345,0
0.158963401219438,0.00767553915533847,0
0.138856840476774,0.00687240857842925,0
0.139113695438424,0.00814687407172059,0
0.0671552053815352,0.00479165575214748,0
0.0751920253772421,0.00621288410193439,0
0.0940803253707077,0.00889928749851512,0
0.0685431957611636,0.00716539325756157,0
0.0539476143149188,0.00665998398718327,0
0.059933001340708,0.00848987545569432,0
0.0457216805225394,0.008071488076476,0
0.0482050644895552,0.0110357443521457,0
0.0371927309070513,0.011128891184078,0
0.0326176302228334,0.00695691645537569,0
0.0196644491108854,0.00373302332579482,0
0.0153416686812597,0.00525841219043716,0
0.0190416434706083,0.00600492374028883,0
0.0211900650536362,0.00650118002836603,0
0.0187436830926764,0.00568751756613115,0
0.0179235506511169,0.00604689764661058,0
0.0182121458032273,0.00637859882426304,0
0.0201057106674974,0.00668978446653903,0
0.023276378979883,0.00774298280139402,0
0.0227576133601651,0.01355470079768,0
0.00791757961273138,0.0119175019113549,0
0.00445181234340163,0.00765269427980549,0
0.00413741023552616,0.00976941733988306,0
0.00442366994223401,0.00755044491687058,0
0.00470672236007124,0.00727371444779341,0
0.00393461952352729,0.00622300766149425,0
0.00331007027169775,0.00602806790209626,0
0.00306268243246254,0.0064061453227997,0
0.00265920807457551,0.00549412829744686,0
0.00291113696939533,0.00632348355777885,0
0.00343350023349999,0.0078650964910754,0
0.00324348901073699,0.009497198669568,0
0.00419908506153922,0.0132491910535735,0
0.00490172120672185,0.0317987944162286,0
0.00346492364914091,0.0327001587071765,0
0.00315038663939319,0.0311636566829165,0
0.00306399644689061,0.0278041044791606,0
0.0024777224560634,0.0282159922538439,0
0.00157374744400864,0.0189195642327547,0
0.00160501501822756,0.0143160985477743,0
0.00273842067928652,0.01396102947008,0
0.00279871753595669,0.0101002192141705,0
0.00293771479434161,0.010927601985333,0
0.00266632916715514,0.0105964816180581,0
0.00251278495472941,0.00989910731963868,0
0.0028196412352077,0.00912909356258935,0
0.00308036969573248,0.00891052929277016,0
0.00317261441555551,0.00947964005549531,0
0.00304394959949228,0.00834092085005602,0
0.00312015029145652,0.00969776129770569,0
0.00382572732868612,0.00521444407675232,0
0.0138597689669724,0.0132199023536312,0
0.0173102226078367,0.0140434623281667,0
0.0208560513002584,0.0101891296823235,0
0.0189805879644182,0.00636603732975567,0
0.0306991579697623,0.00825875770113167,0
0.0338623624542704,0.00913528013565246,0
0.0270995705500556,0.00752783535897948,0
0.0207422768245534,0.0063218312274281,0
0.0159383640156981,0.0046226600814545,0
0.0132568930903235,0.00381315622246412,0
0.0138085081125613,0.00358993099262505,0
0.0145446124429047,0.00333434615419759,0
0.0147793792680658,0.00387193907719103,0
0.0112820419965161,0.00425691597008406,0
0.00836370756394396,0.00357294191685583,0
0.0288623535443401,0.00362107885745984,0
0.0586249262445018,0.00457968982335106,0
0.0608499267252223,0.004582023204209,0
0.0619542123702361,0.00434596860041333,0
0.059761059481103,0.00430984022669164,0
0.0610257843890765,0.00436930455787569,0
0.0610480979498874,0.00469460488289715,0
0.0611534012704079,0.00418022865158182,0
0.0616634448340974,0.00361177536157167,0
0.059919001248459,0.00313697399418141,0
0.0540614519173732,0.00417186323249651,0
0.0342647529752096,0.00281581471391788,0
0.0351290160523671,0.00231439252708739,0
0.0402127794854608,0.00299243724181456,0
0.0440461971600542,0.00356584344251107,0
0.0480296054076531,0.00394740602998375,0
0.0458255526336034,0.00310635963078093,0
0.0523133374301091,0.0041806312446363,0
0.0523106497939725,0.00415656317546243,0
0.0536087425947903,0.00494998796136428,0
0.056463012408408,0.00594282684909272,0
0.0477031538170723,0.00711817983275409,0
0.0380286666253422,0.00796023005343658,0
0.0400804651674787,0.00739991682290498,1
0.0879181521528114,0.0096482255885308,1
0.171715284316378,0.0146319752053825,1
0.332575925954046,0.0271495832468632,1
0.443585683358778,0.0352820027721052,1
0.50949423876463,0.0344116826061872,1
0.505888291928934,0.0316284991285728,1
0.478948958942395,0.0312861869547257,1
0.379048250315922,0.026464227120952,1
0.249977786266542,0.0202642184595814,1
0.113166596520988,0.0124347798791925,1
0.0664205410466586,0.00641075286089392,1
0.107565653601789,0.0111424324865331,1
0.125828876642105,0.0102483747344517,1
0.110955437399667,0.00941761305664244,1
0.0918568881717896,0.00700056868017946,1
0.104330227583053,0.00533076723237911,1
0.105824716927295,0.00461072532191779,1
0.0983815164348262,0.00433247435145899,1
0.108730023319109,0.00381068241196591,1
0.137900915989307,0.00497863315343626,1
0.161343950936961,0.00669844178778999,1
0.19922025659013,0.00775505128013752,1
0.216547994051698,0.00991397844853437,1
0.244762863930226,0.010585006818209,1
0.228253992960689,0.0103096552653002,1
0.243871455959749,0.0138234727762207,1
0.130775232606945,0.0108911143106336,1
0.0764078243356251,0.00616953049194908,1
0.0610477859386613,0.00651677956604116,1
0.0737230588243678,0.00765632681732023,1
0.0947593710772607,0.00935123321998118,1
0.107081904565503,0.0106450654093245,1
0.101489148811776,0.0102630401979956,1
0.104188073824006,0.0109629149222473,1
0.0682620707611886,0.00916393464767134,1
0.0492729832857111,0.00730682050999199,1
0.0175878423580393,0.00304897606663712,1
0.0122647885095345,0.00491488705036512,1
0.0107940396499435,0.0058712578199495,1
0.00657760756268783,0.0054401353158683,1
0.00752212070365137,0.00598072843872664,1
0.00796531126575529,0.00612993334320288,1
0.00803026226105155,0.00635463948439383,1
0.00822724577918548,0.00726287678565192,1
0.00805347885049717,0.00710213049509901,1
0.00683244959569426,0.0143801835071907,1
0.00103210720458224,0.0113711075126506,1
0.000819174964913663,0.0183184603845862,1
0.000546552757240163,0.0153357214250172,1
0.000462625015482732,0.0139517274399798,1
0.000537189505580493,0.0161978660970063,1
0.000462194177165344,0.0187630816835986,1
0.000414589632066778,0.0272892019099168,1
0.00044975989857916,0.0350093641957206,1
0.00031313895082672,0.0303049495247755,1
0.000256276628515497,0.0367399653335567,1
0.000297797440946542,0.0431206790697807,1
0.000219530282910321,0.0489834393833557,1
0.0001410184632909,0.0331300374419561,1
0.000122846076652387,0.0361170503941922,1
0.000136865357861271,0.0394568982323198,1
0.000140329627511043,0.0330770627079466,1
0.000184034297298034,0.0351412047139762,1
0.000181907703059443,0.0321467579460839,1
0.000189777951386043,0.0305439693530719,1
0.000198449403385417,0.0322360854244479,1
0.000163142197765302,0.0305788371132435,1
0.00015344863622094,0.0347278701800368,1
0.00013357662283173,0.033950551947281,1
0.000135187493667359,0.0400232380219841,1
0.000209057031706537,0.0280809992259865,1
0.00049267753073116,0.0351025571308711,1
0.000505262221120469,0.0293728805574657,1
0.000591650394207658,0.014574300456809,1
0.0014505671980141,0.0226605875340383,1
0.00196000336188289,0.0256145756895804,1
0.0019007778262402,0.0203992235709672,1
0.00317892604320692,0.0189898190361197,1
0.00360319039441214,0.0179037023879511,1
0.00535622649043494,0.0149029782619409,1
0.00852204807046743,0.0197948991800085,1
0.0116403339293055,0.0197801451069138,1
0.00950022567321663,0.0124633004091277,1
0.00798755211108164,0.00978816266523318,1
0.0130760700622253,0.0110490324773999,1
0.0189027123476378,0.00744854975662266,1
0.0160177825426295,0.00524746108471935,1
0.0158923134845457,0.00489686569168341,1
0.0137137606128902,0.00424110905241953,1
0.0319599701523769,0.00517400564852798,1
0.0683068036106077,0.0098609212834014,1
0.0879570492018372,0.0111396407596216,1
0.10687971620379,0.0121440257602512,1
0.105918787074245,0.00759406525686175,1
0.108361192769952,0.00626123445361066,1
0.124791750796587,0.00647985105523249,1
0.0957789453662161,0.00482080525652333,1
0.0862615052742319,0.00429306027777259,1
0.0628520701071629,0.00305886543614828,1
0.0634595596889937,0.00351686800334226,1
0.0703759367918532,0.00356199178801267,1
0.0910876788263084,0.00309933252852053,1
0.109762047452856,0.00320166624526136,1
0.105044998202478,0.0038462528461913,1
0.100634133450512,0.00497968907259163,1
0.0903391644911621,0.00526183162266305,1
0.0822741600693446,0.00471698778839856,1
0.0779664241692715,0.00465556824657395,1
0.081872203753783,0.00515344094104035,1
0.0815940492337782,0.00462375235267442,1
0.0706565288299451,0.00338196350483518,1
0.0674596750055261,0.0061111740499952,1
0.0423312322262077,0.00384737241422969,1
0.0532182251077184,0.00353916748416488,1
0.0924254091567951,0.00580848978631454,1
0.0950715782671285,0.00584901076666538,1
0.143989474581405,0.00654952793786081,1
0.300570082642014,0.0110476692285896,1
0.381202697293432,0.0128142444637496,1
0.464208012619726,0.015772847324946,1
0.512216335404329,0.0208089557545112,1
0.397385590833468,0.0120243561964732,1
0.274029190469198,0.00887182433681926,1
0.24035554906104,0.00670410710836373,1
0.243114417822058,0.00550464244440027,1
0.175398472372644,0.00392204631880065,1
0.166854826096495,0.0034460133466654,1
0.244884192320369,0.00492931435625501,1
0.265593701291144,0.00420939194871817,1
0.261532882509677,0.00406650043582978,1
0.294258059851209,0.00444177218636557,1
0.29068411711068,0.00469745915485871,1
0.285462001788487,0.00501390714987426,1
0.276013619829355,0.0059108735961485,1
0.269128436413089,0.00741358818034581,1
0.275514464462593,0.00760443592178965,1
0.260347274894815,0.0113377214950483,1
0.141731500331017,0.00565734318899727,1
0.129018431068416,0.00698064885524622,1
0.143449214001886,0.00727612058396464,1
0.16656828850545,0.00752048773076494,1
0.202835409826648,0.00959318105284462,1
0.178581517208101,0.00774874389671908,1
0.165130328469552,0.00703792132713128,1
0.16959635286187,0.00696996051715913,1
0.143859970769585,0.00582318385984306,1
0.0871255416314766,0.00364198915479337,1
0.092855006000087,0.00725008962868598,1
0.117881624867644,0.00861175396835132,1
0.123896278617984,0.0098029942550964,1
0.120996928475049,0.0118846501235568,1
0.135668356071092,0.0165414347684504,1
0.0991738164138031,0.0161890241298302,1
0.0565514516660114,0.012246019601635,1
0.0489740383806978,0.0136653098525168,1
0.013674134805444,0.00620058079129505,1
0.00446703281087137,0.0140574575114554,1
0.00511051506258694,0.0204466760262634,1
0.00477446207353219,0.0244791327369611,1
0.00304472786401304,0.022991627643516,1
0.000927656931901624,0.0351166241069362,1
0.000862484712316186,0.0386834112634206,1
0.00035687709378674,0.0241778887776029,1
0.000234601841795752,0.0265167216079183,1
0.000272451667721136,0.028600835248791,1
0.000249220669790656,0.0356984182177933,1
0.000142578833031877,0.0312157729122775,1
0.000162724699196019,0.0306504482588532,1
0.000172789903515224,0.0334638723971429,1
0.000159139139530273,0.0354657063601963,1
0.000178238268191677,0.039551907933941,1
0.000187794088841261,0.0450574403394551,1
0.000133944420686558,0.0524013768202501,1
0.000115469905471532,0.0416869789521035,1
0.000187262167440715,0.0418771512769373,1
0.000185574990488501,0.0387468929103361,1
0.000179863730988811,0.0451511318353288,1
0.000126096300111457,0.0446487890144141,1
0.000123261303159533,0.0508012253814414,1
0.000124098441405985,0.0408564363368219,1
0.000205244465951382,0.0423806492418419,1
0.000200798377405675,0.0348255636848925,1
0.00107237593738121,0.00853745250039643,1
0.00381205027478507,0.0110217528944782,1
0.00385410647509413,0.0104047472195921,1
0.00374430298250797,0.00999017677908254,1
0.00359824172677672,0.00951707272776011,1
0.00356497567659706,0.00947734246622327,1
0.00325317171691244,0.00833640255206386,1
0.00301041442191109,0.00667289074878855,1
0.00445510956747902,0.0088228191422203,1
0.00693591329995462,0.00792057476793382,1
0.016115237794511,0.012842931512229,1
0.0165674662346735,0.0128440600903079,1
0.0189976231394066,0.0121843895910261,1
0.0203057540204829,0.0127453381602705,1
0.0174368759308286,0.00906982800462627,1
0.015149273204674,0.00772966359245492,1
0.0114128011828101,0.00581607651984191,1
0.00908182272765412,0.00316089858925079,1
0.0128991521811388,0.00455143989304481,1
0.0134098363083149,0.00566158133368159,1
0.0526872161526723,0.00720569118149976,1
0.0902447294061312,0.0103379546615051,1
0.109221853760243,0.0114064272057468,1
0.11265195802887,0.0115807682623498,1
0.101062625001696,0.0113522406293808,1
0.0842920940433915,0.00850171200754514,1
0.0680133483534523,0.00684704879923802,1
0.0528362713162888,0.00588269401130977,1
0.0502336493055367,0.00559693952063799,1
0.0379340762807389,0.00399443158723869,1
0.0824138721367671,0.00601526254031159,1
0.0958254645525072,0.00319634090922195,1
0.0984083270089737,0.00308442900341937,1
0.113423568807449,0.00341567192386697,1
0.119224135243935,0.00328967232121179,1
0.11551693917708,0.00320669033721115,1
0.108489598678204,0.00308674458601963,1
0.122138541616488,0.00359371304686812,1
0.143257780897666,0.0041907854183671,1
0.148482999911138,0.00416937730075795,1
0.107270149700181,0.00437863558816941,1
0.0897777326219822,0.00641897882857641,1
0.0898174053536079,0.00726047398707389,1
0.0577975497041073,0.006408762481758,1
0.0562326121582934,0.0051701464451367,1
0.087265888712833,0.00790345288853384,1
0.109723875428354,0.00929237529545495,1
0.111815071208603,0.009675661461025,1
0.0989624821466211,0.00910354022459609,1
0.146725220098036,0.00562534532925471,1
0.461501135330106,0.0128250974163303,1
0.564289671926321,0.0121103163247942,1
0.539656826607487,0.0115400164475274,1
0.506875530662036,0.0104144077102703,1
0.472588336260736,0.00968307352858751,1
0.435853769124748,0.00920128614438258,1
0.388966939576954,0.0083454071408797,1
0.300702300846492,0.00668999930830593,1
0.210125635041016,0.00456439220151826,1
0.168266575810216,0.00549614006828191,1
0.0876448629673461,0.00437061967964886,1
0.0491101721731219,0.00287792038949816,1
0.0506245417403077,0.00327571146978077,1
0.0294926507053915,0.00245503391030851,1
0.0274290259678666,0.00272009533549522,1
0.0370395575501508,0.00197001175989315,1
0.067539897044067,0.00389734047079315,1
0.0755615776176282,0.00510079360991557,1
0.0647210681649808,0.00475173415467697,1
0.0866474030260127,0.00590902806224366,1
0.0965048369642445,0.00600581805098306,1
0.10493606126677,0.00534706996822545,1
0.125224043545477,0.0065581393861772,1
0.228714755926757,0.0105788261571741,1
0.306210113479168,0.0113375621204811,1
0.300819678322226,0.0140324679232496,1
0.274804112164605,0.0116559823833989,1
0.279938249400011,0.00852321119987764,1
0.323314818577334,0.00894326181599908,1
0.269394356127495,0.00687417941910092,1
0.21759174160402,0.00418016863256409,1
0.339376953149259,0.00622630955589311,1
0.409788470785197,0.00544892909646643,1
0.421743430934109,0.00531406170836496,1
0.547738515034229,0.00705288017947409,1
0.643590579151026,0.00872812299451642,1
0.559033866596767,0.00869927736040825,1
0.366013511865018,0.00663422662086603,1
0.361697688358235,0.00659232937784046,1
0.227435336769814,0.00485364270842973,1
0.122763308289306,0.00461084714701219,1
0.12214357459709,0.00529617496847361,1
0.0931646152083584,0.0103305382813969,1
0.00604324335066572,0.00332008417300578,1
0.00247944530099129,0.0143344002351476,1
0.00273946732100624,0.0151339356748268,1
0.00213827937221553,0.0187246628963205,1
0.000739434594870363,0.0124598084951825,1
0.000856153424761983,0.0136775610273977,1
0.000896308692677046,0.0138610083846265,1
0.00098573975018817,0.0143489365627021,1
0.00122670433235786,0.0164119672643741,1
0.00139256235495398,0.0193308446967196,1
0.00138248559102039,0.0190720522752775,1
0.00132970476209321,0.0201311828571874,1
0.0013865803880434,0.0221124893139835,1
0.00100343473811767,0.0307752929878505,1
0.000180563255191425,0.0194580255803628,1
0.000157706813738588,0.041608765272044,1
9.57134341796969e-05,0.0411903638769093,1
5.99575860912927e-05,0.0492621153274264,1
6.00797944283572e-05,0.0491728334376702,1
0.000139769759511728,0.0550626497933531,1
0.000147592980138152,0.0441082552230743,1
0.000145722184338836,0.050705371973738,1
0.000153473061006157,0.0469398730733456,1
0.000169196812983457,0.0433682305082045,1
0.000169424881478805,0.0274766679003549,1
0.00050752932270638,0.0337863634448985,1
0.000530986191281388,0.0233582033033809,1
0.000530305260472313,0.0229497213611109,1
0.000506805899059644,0.0225660794513629,1
0.00050255648269801,0.0238056497878955,1
0.000590699423068885,0.0186790751844044,1
0.00115820034877828,0.023315207732396,1
0.00116547697315576,0.0191332322773375,1
0.00216301659047955,0.00776344465855127,1
0.0061943571520568,0.0110927923224175,1
0.00648882704240658,0.00909039130862094,1
0.0107886879869515,0.0103301767921055,1
0.015877940307501,0.0137071224490272,1
0.0246293813705322,0.0169318016404445,1
0.0242321383087143,0.010642626917631,1
0.0203768039819316,0.00940178104485071,1
0.0279110862242123,0.00811365903246654,1
0.0270236289928745,0.00527719562802734,1
0.021646775482802,0.00504303087284237,1
0.0224685840795849,0.00378866111833866,1
0.0271561630082451,0.00356787109514933,1
0.0273271844163207,0.00311087510360642,1
0.0274539121908497,0.00297138966742866,1
0.0273642009526713,0.00290889134006101,1
0.0281303978826915,0.00329591477894134,1
0.027385251520097,0.00274663107500103,1
0.0287397491864932,0.00344993083523606,1
0.0297778038900531,0.00397539914064504,1
0.055388672070488,0.00625272976679208,1
0.0574312174911462,0.00639106046655514,1
0.0668424038722656,0.00637844542692915,1
0.0876478415621423,0.00708607661720958,1
0.0805736471606023,0.00581850856781633,1
0.0744940726462883,0.00476498342237338,1
0.056524825565841,0.00239360072031662,1
0.074766322426751,0.00356583660112608,1
0.0843817263132249,0.00370551958160359,1
0.0828644771555885,0.00369059742668999,1
0.075770768919766,0.00334120011219677,1
0.0776974090754896,0.0036264041018035,1
0.0761440957335816,0.00304686658926189,1
0.078038169501551,0.00331181934075636,1
0.0761922777407408,0.0034127249542109,1
0.102438411936631,0.00407537206545027,1
0.167614082040231,0.00912881232417035,1
0.212327451334148,0.00998677856855698,1
0.360920406608578,0.0148872185319563,1
0.488497753930933,0.0172290389057094,1
0.458386174339354,0.016083770470134,1
0.419208974852462,0.0143167659622119,1
0.354122627305323,0.0132609021120428,1
0.329646361811802,0.014445107579533,1
0.225991838616806,0.0124097584468229,1
0.216801130061712,0.0128072898122294,1
0.168592095085304,0.00606554805413717,1
0.147617465907487,0.00631701544996205,1
0.180101402726895,0.00472794459440834,1
0.194839437601589,0.00345294278633696,1
0.208525994919081,0.00365219942430244,1
0.248443264886556,0.00452404589970348,1
0.247242023070501,0.00516121262297359,1
0.247390099086946,0.00542460869431924,1
0.272342411852854,0.00572582246162416,1
0.275721054059555,0.00441773762105964,1
0.277248046440996,0.005211114034726,1
0.257921431940395,0.00454494318823841,1
0.244999096357627,0.00585530039082456,1
0.22860455042396,0.0071146184285741,1
0.260317258195614,0.00678356618360729,1
0.368788065231719,0.0083034434003296,1
0.371458722347575,0.00725558315856362,1
0.363075054143288,0.00673715659773948,1
0.277597315807292,0.00546928464187663,1
0.149016713221673,0.00407147734972835,1
0.138962639700531,0.00399765028568649,1
0.113537084439237,0.00378517286194019,1
0.126690193222443,0.00359536107801369,1
0.15841947329094,0.00441875037182502,1
0.176699530975188,0.0061089467845959,1
0.232357546250437,0.00962750936363056,1
0.308056172112625,0.0144480521877688,1
0.397823152533027,0.0216673481219748,1
0.421481462001165,0.0285209897129293,1
0.480818409108806,0.0332471184006368,1
0.420955562817966,0.0356399065622641,1
0.282682415446225,0.027093378178136,1
0.196861792474774,0.0360644917412897,1
0.148382711043244,0.037807707292566,1
0.0599236332248658,0.0233907737519761,1
0.0264207180611674,0.0197360962963447,1
0.0103049315017487,0.0124973796347929,1
0.00322774447454958,0.00621992737527833,1
0.00275659416338497,0.00792499142981906,1
0.00292540405837212,0.00685363497260282,1
0.00348974521753594,0.00834799755780282,1
0.0038146820674329,0.00906563873382384,1
0.00398919422453022,0.00960446865221425,1
0.00394332944266413,0.0113221155565448,1
0.00252663708860379,0.0115216876889242,1
0.00179978913155433,0.019707423757457,1
0.00182898800656196,0.0211180549495109,1
0.00160145770669535,0.0274189852608708,1
0.000528814209025855,0.0153840181317764,1
0.000240323609289735,0.032744374911143,1
0.000261527977971046,0.0341031968822035,1
0.000277551558911916,0.0363510018376531,1
0.000286502912201694,0.038261944932658,1
0.000169367391975898,0.0382765593834943,1
0.000111784221959595,0.0813461300181188,1
0.000105596651714597,0.0775381539630709,1
9.75930409609509e-05,0.103590335455729,1
4.21602555965142e-05,0.0746817976780337,1
2.52802792171066e-05,0.0716497984477409,1
4.65873074738135e-05,0.0818111189560188,1
4.44284676557258e-05,0.0692663169567973,1
5.78220147452715e-05,0.0610950364393421,1
0.000165655651850421,0.0876558590666553,1
0.00017472177347028,0.0597080517089481,1
0.000202916887534632,0.0548477054956062,1
0.000563803873211197,0.0431504465211401,1
0.00215488633805397,0.0637711023948649,1
0.00588589825027458,0.0711471672965091,1
0.00805695586233566,0.0494805517936161,1
0.0145633752585369,0.0306978008257049,1
0.0166178592636963,0.0174835268874449,1
0.0147503838178859,0.0161371601700367,1
0.0170733560964291,0.0088874939225785,1
0.0363946417420018,0.0129381398381069,1
0.0330112024097558,0.00751580907282697,1
0.0271485707772027,0.00664567532298627,1
0.0238606194849449,0.00600033703690664,1
0.0223930937247522,0.00538160810718394,1
0.0213629197689549,0.00495918951122121,1
0.0207422813757119,0.00503413408304429,1
0.0241677356743254,0.00492030524059668,1
0.0233883944399701,0.00386246819106271,1
0.0205648445206964,0.00454717312768187,1
0.0179324175346934,0.00438840502859833,1
0.0279448962135709,0.00819956232706366,1
0.027699696541341,0.00711815903069782,1
0.0329104086954001,0.00732191452428344,1
0.0251237413282223,0.00553232520893033,1
0.0249574896762538,0.00560001603723694,1
0.0204252938884473,0.00535016251434535,1
0.018696307113629,0.00574061851763158,1
0.0192594585162473,0.00635704429021623,1
0.0139421411072711,0.00491910054593192,1
0.0113063598108675,0.00434183233804323,1
0.0115428823000617,0.00488204716684386,1
0.0130821442339428,0.00587478118333677,1
0.0126285359889676,0.00561476679367239,1
0.0328668294128441,0.00801948796797774,1
0.0445450962500482,0.00800248447707782,1
0.142313199883829,0.0101284459307304,1
0.33534446517942,0.015947110181488,1
0.410434632223276,0.0173420108163569,1
0.574105728312088,0.0225968471179052,1
0.671096028850803,0.0177209962574251,1
0.576146421814055,0.0143770850484146,1
0.434671957167301,0.0117589796676972,1
0.289767952012907,0.00860017933263954,1
0.243646436836864,0.00763547211127281,1
0.130553911388641,0.00455239758222538,1
0.111275128731852,0.00497792960266922,1
0.116412113874048,0.00498732526689684,1
0.109659180484379,0.00445365997936452,1
0.153572603008537,0.00500852099899322,1
0.162078196049291,0.00579079715461799,1
0.135333755102903,0.00532542325597721,1
0.157808707797397,0.00624459628424073,1
0.155409713454586,0.00478538809159783,1
0.17171110466569,0.004854197546824,1
0.160631804950257,0.00469021049178787,1
0.165185283381865,0.00548120700302364,1
0.198384720432489,0.00707484216851419,1
0.203343161101454,0.00747818503103871,1
0.256353419322727,0.0105332817222864,1
0.256478267714047,0.010850301492789,1
0.260987246599735,0.0135003495486198,1
0.165443386381503,0.00852446372767499,1
0.0690698111862763,0.00434971355391914,1
0.101346279772515,0.00775633711178749,1
0.0998939669989864,0.00746075783407161,1
0.0807343264359761,0.00499437074404211,1
0.0837728187152562,0.00401475370732886,1
0.161219409988709,0.00697278379953584,1
0.184762775296003,0.00440652293789329,1
0.178068600052768,0.00420944933197676,1
0.178669070250447,0.00365553354086079,1
0.218947837610208,0.00448951529338865,1
0.211870764270058,0.00451671630071721,1
0.311901492433278,0.00571922560484303,1
0.399365867319621,0.00703091996970022,1
0.43523775188408,0.00806699194969738,1
0.467535191980885,0.00929945839862601,1
0.536916031609316,0.0104059896764409,1
0.470417199719839,0.0200703077643158,1
0.296999932498417,0.0150133761732677,1
0.154336767607816,0.0132647854023133,1
0.121681045246913,0.014501494480719,1
0.0319450233631155,0.00869281585950606,1
0.0157081157750989,0.0149595139658186,1
0.00209737692881158,0.00639606352430432,1
0.000652575512168036,0.0219444199701662,1
0.000685889787042425,0.0232267848174531,1
0.000764332718863312,0.0159545339975223,1
0.00171286658715522,0.0280623848176392,1
0.00190045406512326,0.0190054457157026,1
0.00188113007593536,0.0183748469271837,1
0.00192037665768727,0.0191085136910946,1
0.00191937232368724,0.0201432863493453,1
0.00180474877437535,0.018979522908552,1
0.00157726624045326,0.0165143048839873,1
0.00149594974805654,0.0135716699941577,1
0.00161590310448258,0.0145904017493488,1
0.00186592029501258,0.024600310197617,1
0.00114328606208091,0.0224545864246835,1
0.000892998847399994,0.0328784590648411,1
0.000900546982499505,0.0371305092164834,1
0.000707168060816968,0.0331167916535029,1
0.000673586913486515,0.0377227117280376,1
0.000675189693178262,0.0436308256028926,1
0.000341567690090709,0.0407882829718866,1
6.55860984478831e-05,0.041650202429071,1
5.75586326831161e-05,0.0405314177177298,1
6.58617448388458e-05,0.0458602620021293,1
9.12046747039304e-05,0.050588366189003,1
0.000146477278632524,0.0825012141807914,1
0.000409233136546366,0.0929041918553389,1
0.00171316156506682,0.0665454858170929,1
0.00226682600751768,0.0534435322803066,1
0.00267574932998529,0.0359314447440081,1
0.00496564947205243,0.0418611511528378,1
0.00914218441992697,0.0523051635723136,1
0.014971581554303,0.0500149959421902,1
0.0139811410495265,0.0172254712650394,1
0.0133675879772496,0.00724682011616565,1
0.0234491685903045,0.00976707607776545,1
0.0223047250414084,0.00622575447363976,1
0.020511964146021,0.00548634229308567,1
0.0198304839435282,0.00532659101702856,1
0.0161603534425536,0.00400937720406137,1
0.0146751987856474,0.00324703020825246,1
0.0275063803660894,0.00400027586075534,1
0.0425217734515457,0.00403988011620846,1
0.0369079477444738,0.00401732456292947,1
0.0395726699445666,0.00384803727126943,1
0.0495435169816274,0.00354157678170283,1
0.0489178874052845,0.00309491217389226,1
0.0589228043259513,0.00333802121874421,1
0.0610842809074383,0.00281369419680498,1
0.0588923141185659,0.00248338386848646,1
0.0508858519086481,0.00205255638961084,1
0.049533357168547,0.00236833221051209,1
0.0733542147367447,0.00342926014191161,1
0.080664355816239,0.00351043047799809,1
0.0830411515678659,0.00415906523123133,1
0.0865533759379233,0.00429294574833932,1
0.0918478783381059,0.0055555104915839,1
0.0942352405252624,0.00427217634569307,1
0.0947891670378882,0.0051055044532266,1
0.0853285473470274,0.00500036119567923,1
0.0949847323990819,0.00529404689746306,1
0.237413592128673,0.00630798491711315,1
0.484289365089957,0.010209476010549,1
0.546147778847131,0.0103725182379488,1
0.560277761781754,0.0105329275058061,1
0.514647617299527,0.0100632644689761,1
0.485661656876535,0.00881123663938036,1
0.400904070921331,0.00726009406109839,1
0.372700593236808,0.00663933020670166,1
0.238595583647613,0.00421926778548735,1
0.146442696417547,0.00255716180251527,1
0.150026574470313,0.004787626703236,1
0.124568426219732,0.00300341438249008,1
0.169736645454065,0.00457709478116536,1
0.161161512407616,0.00364561551534129,1
0.156394935459728,0.0035902818614176,1
0.184031714864353,0.00447318251773138,1
0.261453245904525,0.00763066861318288,1
0.284450279916508,0.00803736698107014,1
0.273406774741749,0.00821490110107132,1
0.2348008619796,0.00699091483099772,1
0.164510312287911,0.00516870310893435,1
0.145121388507641,0.00650010597175625,1
0.144782227308507,0.00653501192430335,1
0.195580757240129,0.00867486445874116,1
0.20811339279881,0.0125210838598006,1
0.20687046144556,0.0145461423525021,1
0.185950853819356,0.0145606929842183,1
0.250252910845373,0.0198960183609247,1
0.236269145769009,0.011492631157585,1
0.21582861454602,0.0106241525798535,1
0.214267358344408,0.0110400334321076,1
0.187669336589941,0.00876830875928082,1
0.120538834835556,0.00616348880331789,1
0.11080577029445,0.00646676454252071,1
0.0905959551623642,0.00543107561246777,1
0.0683425061727426,0.00444928325184534,1
0.0650029017633385,0.00441556536038584,1
0.0733060052547503,0.00340631326923297,1
0.141145734769664,0.0117261541244365,1
0.151784155605064,0.0110309323388301,1
0.193132928448289,0.0132403534005725,1
0.244692108444678,0.0185106657039152,1
0.251667469360154,0.0214763944749363,1
0.226008749051597,0.0194963806946538,1
0.195678031650284,0.0170419611248787,1
0.168451547722491,0.0137804654666487,1
0.0797946820850092,0.00838475258451591,1
0.0228695509734008,0.0113207197209831,1
0.0206432412702165,0.0169178525596331,1
0.00955785994845226,0.0201524758804406,1
0.0022858511351856,0.0284787541641071,1
0.000257004547398483,0.04022997046621,1
0.000235166395073253,0.077559989393878,1
0.000243269930955582,0.0797516982231334,1
0.000264129669547147,0.100414055876335,1
0.000303703463652606,0.112370132450923,1
0.000273909283393318,0.138245607744844,1
0.000206974825332046,0.17559199050332,1
0.000209808710521058,0.196620800648343,1
0.000159797841411914,0.182342992106969,1
9.38606154565482e-05,0.17107064551838,1
8.53232835899788e-05,0.191351788942145,1
6.40891310815318e-05,0.161380562177326,1
5.07929959010584e-05,0.156481337960005,1
2.85488252511634e-05,0.116104821646384,1
1.61118609890539e-05,0.0947365008999023,1
1.46200769256556e-05,0.0820813298881112,1
1.76593138574743e-05,0.0892777589561178,1
1.77034279720854e-05,0.0868161333991954,1
1.68437815385496e-05,0.0806930568927918,1
2.07611143298319e-05,0.0883967032076043,1
1.95945055017232e-05,0.0864543390790137,1
1.84858183138294e-05,0.102344501461163,1
1.89494438478188e-05,0.101606989749792,1
3.41263968725951e-05,0.0861748484461671,1
7.8105480181331e-05,0.0869136089131394,1
7.92741641126304e-05,0.0611783595251622,1
0.000244040691692172,0.0461701820046284,1
0.000975419137009799,0.0560304651308703,1
0.00132206260488879,0.0336270370095162,1
0.00646252065619852,0.0181939629223261,1
0.0147617654873653,0.0233903929771736,1
0.0166915351037488,0.0237684717623755,1
0.0182465678518925,0.0223830760343806,1
0.0166173308189729,0.0174040863696173,1
0.0265838389129207,0.0100291802996267,1
0.033706706327144,0.00643845074919385,1
0.0277946171761331,0.00534477093851035,1
0.0234338345075352,0.00450034515956353,1
0.0183869510803741,0.00347685705529848,1
0.0262199527419141,0.00525037820847499,1
0.0275954413493458,0.00525771533020471,1
0.0253783028742199,0.00486797325710678,1
0.0243136466368978,0.00469329727905332,1
0.0188178017746389,0.00346708634753872,1
0.0249626516349534,0.00596591067118061,1
0.0250264478641644,0.00783731516183041,1
0.017932050191251,0.00651376263624176,1
0.0201826501401616,0.00572598288766709,1
0.0220394201552238,0.00426582366997624,1
0.0276732071869538,0.00508646262703302,1
0.0309785214703265,0.00349511831586271,1
0.0381188381341872,0.00428898328815122,1
0.0376295204779469,0.00374600918572353,1
0.0415912419872868,0.0021696245232207,1
0.0676720163154799,0.00343129668864612,1
0.068999718780726,0.00402535101169682,1
0.0681040562741274,0.00366164736886471,1
0.0698228549758907,0.00352563527992445,1
0.0738415744087356,0.0037378294515529,1
0.0653405067185525,0.00325417388144952,1
0.0710445159586958,0.00261402241942619,1
0.0826241179483139,0.00264676277202055,1
0.0772161797289154,0.00234552774682309,1
0.0938936920702059,0.00412286040878484,1
0.0897140466601204,0.00440144289231685,1
0.0985737100739794,0.00423418910204227,1
0.106534060294988,0.00388382911161677,1
0.109843677578928,0.00422190809668933,1
0.130939997296241,0.00375007915452784,1
0.238960414703727,0.00668521812091456,1
0.339036175233712,0.0100956481976947,1
0.506987896294965,0.0167537733579828,1
0.581085166153494,0.0204252373216142,1
0.55023713496868,0.0209447950454853,1
0.482566284422842,0.0185453317975016,1
0.325162828625171,0.0150795230745538,1
0.259195739554383,0.014560363692686,1
0.14732649352654,0.0109514859557837,1
0.0516496147385222,0.00549523321910108,1
0.0458093687748575,0.00397366843054822,1
0.078795713317505,0.00631436111887411,1
0.0993801262065474,0.00694304681911844,1
0.104767117558813,0.00724828677468469,1
0.11316541236218,0.00414418492597134,1
0.176649806038534,0.00625261771414075,1
0.209887830876177,0.00717940305820703,1
0.213720170518132,0.0068220113015541,1
0.223628818723419,0.0050850203800638,1
0.236794975765219,0.00499191037848288,1
0.253480889503407,0.00554520218503381,1
0.215856378046241,0.0049220122845426,1
0.177879159332732,0.0039883174048328,1
0.153680791325563,0.00291266283052764,1
0.199875907556111,0.00512696738707644,1
0.173397432013797,0.00251264577131959,1
0.194103595794544,0.00254269278328827,1
0.231430213109665,0.00261317291084312,1
0.245989220988437,0.00246299913890151,1
0.245800401751608,0.00271884260059891,1
0.235829562880488,0.00232669224764825,1
0.235890163749858,0.00261533869933365,1
0.253760911590257,0.00300617743880491,1
0.295643080609866,0.00325990816144718,1
0.489161155369699,0.00541023773063088,1
0.674744118462808,0.0112230591847695,1
0.654419785868188,0.0113646914169478,1
0.774034768578705,0.0148243429988257,1
0.85370871287596,0.0313449940871832,1
0.632020208885172,0.029991161282952,1
0.45074500289758,0.0286048476832232,1
0.295167627261204,0.0187198487331428,1
0.141099633090149,0.0104233647167257,1
0.0157200360485144,0.0101598765493195,1
0.0053764464653338,0.0191830223416879,1
0.00374667050208888,0.0221987129553545,1
0.00185453167522719,0.0188264768536483,1
0.00166504790981365,0.0304993819185576,1
0.00186426199353159,0.0335132687391401,1
0.00212841828067357,0.037864121020226,1
0.00209052768647368,0.0386509489250879,1
0.00143339935734096,0.0413492091931116,1
0.000978950041271199,0.0992901363937986,1
0.000823105805923292,0.11777962854301,1
0.000486739724947412,0.0946891832684185,1
0.000266197898049992,0.0757026699016026,1
0.000263790424760511,0.100191813597087,1
0.000284142368015678,0.140852966547999,1
0.000208638917288832,0.132330930911761,1
0.000160520087994467,0.124746719607171,1
0.000111187985021782,0.111347503299992,1
9.73316689351914e-05,0.0912057310013104,1
9.4435320091964e-05,0.0832964754511263,1
9.78794971154504e-05,0.087098159054573,1
9.4154433772351e-05,0.0877083696795864,1
7.24053240077987e-05,0.0942114253012215,1
4.69195515422604e-05,0.082936356007739,1
5.46033255859782e-05,0.0942680517371374,1
7.48987511196143e-05,0.100237880775255,1
7.83186824967349e-05,0.0744157032522388,1
8.51477116882333e-05,0.0820922884347781,1
0.000100166237970356,0.0157568920746786,1
0.00188560443313116,0.0221088584919308,1
0.00301561902421573,0.0199639845392893,1
0.00391714746979545,0.0136046552536056,1
0.00875613930815152,0.0177011660740926,1
0.00938661772020494,0.0129095838923936,1
0.00891741915086351,0.0111673615575677,1
0.00857351875415471,0.0082505622049271,1
0.00972974894404142,0.00862069773200081,1
0.00816635376732761,0.00696779654997053,1
0.00861894880401261,0.00605950470891217,1
0.00972028938930465,0.00516409090234396,1
0.0108582201423083,0.00283096259596202,1
0.0324811526189889,0.0073885898813672,1
0.0368747083640597,0.00701093308483007,1
0.0394232478123158,0.00715542443822449,1
0.0465492095299099,0.00847766452112654,1
0.0528266802506564,0.00985566826728075,1
0.0521134802223209,0.00870577557686954,1
0.0453799629661515,0.00705680652891306,1
0.0421996851069362,0.00573840713255992,1
0.0514794690928114,0.00477041639673961,1
0.0436944269369564,0.00200497232579959,1
0.0507338019891676,0.00169632392491218,1
0.057358706060078,0.00219983500300697,1
0.0522105756108623,0.00195684300977962,1
0.0571338586239624,0.00219273060253186,1
0.056225438545321,0.00199425023258123,1
0.0639376055047529,0.00252850209172515,1
0.06416605272777,0.00246898329496111,1
0.068470978917489,0.00230368051625554,1
0.082690711438315,0.00291270254974511,1
0.0844725300499726,0.0039441371715756,1
0.0711709312259668,0.00429494815495638,1
0.066615973864329,0.00432865244313623,1
0.0658010942461345,0.0040163637375993,1
0.0578920547789689,0.00351158409439205,1
0.0573131343537111,0.00358760563944238,1
0.0580353840219541,0.00333405688803882,1
0.0587060751106489,0.00333002556305811,1
0.046488020251665,0.00446663738448729,1
0.0408572742693581,0.00409786956452444,1
0.0722634977089459,0.0108382836389597,1
0.203965950879267,0.0150697381639186,1
0.320888514156425,0.0184282052373466,1
0.307612649591223,0.0152822487299222,1
0.299968330364104,0.0111278679685657,1
0.38845236228807,0.012351056248938,1
0.382964347196729,0.0115879191356593,1
0.333993475279064,0.00935980250432971,1
0.212656460344505,0.00671475802125726,1
0.13407694139829,0.00469412261315376,1
0.131459719734903,0.00348679222636457,1
0.170564032111935,0.00519248302895131,1
0.184054482957408,0.00416956770291191,1
0.18616589474184,0.00431017748065105,1
0.172794706609563,0.00474418175177335,1
0.154702135507897,0.00469121479391503,1
0.17033857519902,0.00533184090740716,1
0.166860893029854,0.00582014799331753,1
0.153040787186311,0.00537720734264244,1
0.189339576437365,0.0065053392158929,1
0.27003775968907,0.0109616395131763,1
0.345802214839373,0.00339323044281605,1
0.582453122739061,0.00527553516840765,1
0.550511136752436,0.00384417396337504,1
0.55111384204212,0.00341852752555653,1
0.61029085966521,0.00353597973542131,1
0.661221179434124,0.00392359255613552,1
0.711310582198131,0.00412134190910979,1
0.73918085138069,0.00410699898242266,1
0.617452713074182,0.00359319036216598,1
0.366482226970019,0.00156799806972002,1
0.306448906587072,0.00449866770254859,1
0.240197259136857,0.00469206601822332,1
0.193705081018631,0.00888139930970852,1
0.199484818551739,0.0105799954111236,1
0.31186225921648,0.0161894164011833,1
0.396127317922621,0.0200593796844078,1
0.451688423339967,0.0220922531281448,1
0.464165585054378,0.027448676497678,1
0.394391576968405,0.0255451271374326,1
0.338134879856923,0.027900754295581,1
0.171625708911407,0.0183992118760519,1
0.0768837736739273,0.0103571370291699,1
0.00661261656824176,0.00361649458062006,1
0.00160663387598296,0.0330855256019566,1
0.00168211272313745,0.0159030853692518,1
0.00177428176617462,0.00918628898516799,1
0.00226591287488907,0.0109719738099117,1
0.0024021289759881,0.0114237436870304,1
0.00224512256479524,0.0114319256327436,1
0.00248609238220408,0.0124895572125702,1
0.00277614462218363,0.0135173561977525,1
0.00297377917815141,0.0143180679868285,1
0.00311919091755667,0.0150072197371683,1
0.00311826401468397,0.0184103747403645,1
0.000731654728190805,0.0140593944651658,1
0.00016337927537391,0.0859298787205644,1
0.000178997606833433,0.0889355227608557,1
0.000177824462133699,0.103553009038704,1
8.47235849814365e-05,0.0981307539425821,1
4.36016908567315e-05,0.0929976743171424,1
3.19762681501222e-05,0.0835987274065397,1
4.26023871647586e-05,0.0693679145786391,1
8.70030654371613e-05,0.0924194884275415,1
9.52211723389125e-05,0.0839636349740317,1
9.08862592638316e-05,0.0835295078903002,1
8.75057253034933e-05,0.097594152502568,1
8.86373335888347e-05,0.0900022096143243,1
9.22362881042957e-05,0.0713859941442961,1
0.000124305333649127,0.0723841095790214,1
0.000301387154570269,0.0443122481477578,1
0.000713051039326242,0.0434359855407151,1
0.000937781654049175,0.0286363514771852,1
0.00299921690916438,0.0366694866491498,1
0.00704297353848013,0.0518464682849006,1
0.00895166226490463,0.035178501933267,1
0.0124582361365941,0.0261227935071414,1
0.0132055611392427,0.018295601923278,1
0.0222468065345993,0.0182260174788817,1
0.0270082315203922,0.0145996944370431,1
0.0229350415343323,0.010232953270048,1
0.0196960988052745,0.00816190083177509,1
0.0144763041641829,0.00586377826624905,1
0.0123796723583838,0.00430156182156317,1
0.0218690948877601,0.00597356511842803,1
0.0378276644307149,0.00906068254340248,1
0.0371106416941764,0.00585405148719928,1
0.0343209738619046,0.00554160414988934,1
0.0362284481571652,0.00519258608812258,1
0.0452101147663183,0.0059581900868287,1
0.0372744254411611,0.00549026930602013,1
0.0341279742217213,0.00521017495788656,1
0.0306954256388685,0.00463773081364643,1
0.0246554996064305,0.00340170432279252,1
0.048890106685224,0.00579515574422686,1
0.0482309917601549,0.0044821862182077,1
0.0429778316037948,0.00500574460368919,1
0.0402053026448106,0.00451154898937646,1
0.0374823576345771,0.00462622874320229,1
0.0373933500669389,0.00487086182076863,1
0.0341566286143888,0.00280622959310683,1
0.0680000178069646,0.00494115501116307,1
0.0616038311464167,0.00262238566951622,1
0.0617645648207965,0.00295956429646686,1
0.0580061384901857,0.00301000471441495,1
0.0576931394680222,0.00347626706754729,1
0.0696785523656586,0.00427907912189173,1
0.0778089551526279,0.0046217135049299,1
0.079463516334908,0.00426277475431246,1
0.0933599623637761,0.00511076624891656,1
0.0988787765421983,0.00673147053980018,1
0.0630089085535244,0.00516614135705586,1
0.061145311997636,0.0111420423875122,1
0.146274964172652,0.00841219032400014,1
0.256938861175134,0.0144797710350059,1
0.497821803447713,0.0188448913346182,1
0.623954029388457,0.0230216265539493,1
0.695145780827107,0.0250489512457612,1
0.727802474084242,0.0211303783144552,1
0.705851511645544,0.0212175816221203,1
0.626729522949477,0.0215132681160296,1
0.443705483086757,0.017023038523029,1
0.204924876239228,0.00794943151594671,1
0.124255170406597,0.00520535548338745,1
0.0768046987520785,0.00238600861340459,1
0.0842208769511387,0.00275701079488563,1
0.154453078781575,0.00234306766700828,1
0.228140854267996,0.00286357454046607,1
0.216727208925705,0.00291403758648561,1
0.216621448138838,0.00301447110073819,1
0.221227809733497,0.00283281572840696,1
0.218671667418063,0.00266585172018547,1
0.235760217924645,0.00263891978794557,1
0.26834293252321,0.00397175525898836,1
0.285548330287351,0.00385763630375666,1
0.220246578052959,0.00332802067863244,1
0.190149887811316,0.00566617846153076,1
0.171998563455652,0.00667299456112307,1
0.152765632603714,0.00478892394794353,1
0.179234599984168,0.00487357494245183,1
0.202741098524219,0.00448418262687827,1
0.187242069700649,0.0042043060702483,1
0.186062166312797,0.00582132268926383,1
0.155698687739538,0.00381948825899836,1
0.15084535670659,0.00359776638051458,1
0.160487828310833,0.00405697875615008,1
0.162630168327391,0.00354531663244277,1
0.153176216672182,0.00386992822461858,1
0.155941760203557,0.00489071671994822,1
0.131549539644829,0.00472286175995908,1
0.156638901181342,0.00650164610480339,1
0.202909892997789,0.00918298394224831,1
0.267099936093786,0.0102832332129854,1
0.329274157617792,0.0118723536822343,1
0.340507471104573,0.017160207812456,1
0.28967192821797,0.0156269656078182,1
0.255090657380189,0.0163762637143603,1
0.274132301594551,0.0166057100250523,1
0.293187133173985,0.0172261449534038,1
0.254658583143533,0.0157541024443344,1
0.242170598262529,0.0173514028379195,1
0.214358763659315,0.0151483011394336,1
0.202595211319116,0.0173740842466613,1
0.17252007706137,0.0386884111686729,1
0.0795755358012339,0.0324623656215122,1
0.0345079044422756,0.025254597952709,1
0.012767158081709,0.0150395116392771,1
0.00254959307416354,0.0086037448381239,1
0.00228003614444281,0.0157217064979408,1
0.00290490832078273,0.0184147064984241,1
0.00293542591437185,0.0183633528954824,1
0.00317934699899191,0.0199882570399403,1
0.00281161619637577,0.019376438609779,1
0.00184863103172789,0.0147833047455478,1
0.00159932201365684,0.0208355167331151,1
0.00158751783827873,0.0301021515882475,1
0.00038874132031582,0.0215229253467094,1
0.000103756451963598,0.0525991580840438,1
0.000102146396983511,0.0546596855703147,1
0.00010033958845655,0.0632145728991851,1
4.52736513234468e-05,0.0527728335934923,1
3.20483419940981e-05,0.0830269795740901,1
3.30521696455017e-05,0.08343516325172,1
3.24581170762003e-05,0.088490571258958,1
3.36634776943528e-05,0.0981062830552778,1
2.86468469123089e-05,0.106602847540153,1
3.08685045590045e-05,0.12360079488771,1
2.89762721230656e-05,0.112834393088156,1
2.71600357106079e-05,0.108695084854337,1
2.74933136962887e-05,0.0765857224202485,1
7.88218713385244e-05,0.0895400218665673,1
9.10440321731239e-05,0.0631856565545841,1
0.000163178424143039,0.0138304568068355,1
0.00129962457000943,0.0226879768041752,1
0.00163428885592763,0.0148589110411124,1
0.0117810818221188,0.00663284867247924,1
0.0445480097924696,0.0175141112247302,1
0.0752672254984118,0.0202338021212863,1
0.0761060763535537,0.013193059695248,1
0.0699701771534211,0.0131988877805265,1
0.0636310987742347,0.012272174842253,1
0.0630834294160431,0.0107972118014279,1
0.0817207929082872,0.0117436723198576,1
0.0702992183093549,0.00668625735386432,1
0.0529024873670602,0.00506738829238328,1
0.0568005269105774,0.00549449478230598,1
0.0598416596876218,0.00429208748058276,1
0.0593676272462913,0.003756546973916,1
0.0596987528879305,0.00337967896329546,1
0.0601330608003631,0.00328984207745737,1
0.0561794641797174,0.0030519176612324,1
0.0644616876320493,0.00392328304027385,1
0.0421970976797601,0.00223048255757757,1
0.040140569405333,0.00274123165269425,1
0.039974329751447,0.00288964816260814,1
0.0441256951042328,0.00261142254015102,1
0.0505502302738728,0.00256488635258906,1
0.0501696129088064,0.0027633180747274,1
0.0665531385185675,0.00354284919265411,1
0.0794537042428832,0.00333810404323579,0
0.0803675024989425,0.00321391561404602,0
0.078818499854007,0.00285284660837188,0
0.0803305344939798,0.00280760325790385,0
0.076844870013529,0.00215673332043354,0
0.0892998217745689,0.00259038858432805,0
0.0973175620104165,0.00271148771829549,0
0.0939391070324223,0.0038195607247928,0
0.0690416821677657,0.00257599290775905,0
0.0699553704866165,0.00365592574826251,0
0.07024117301632,0.00404506078795149,0
0.067219883496893,0.00433842308941004,0
0.0729483851484599,0.00393506581222473,0
0.0740087399257152,0.0041449538764252,0
0.065920366219801,0.00487950688639855,0
0.0682179786252029,0.00537335365188377,0
0.0799781457288125,0.00798390349006639,0
0.0924998652309578,0.00635721953566197,0
0.113249072051135,0.0064370440395403,0
0.111898611214047,0.00595418396199255,0
0.0957655948557116,0.00533653288670649,0
0.0940835467354604,0.00519287192926752,0
0.112777454376085,0.00650332375817356,0
0.118541954124459,0.00795486301675072,0
0.122800903546379,0.0060737804923235,0
0.127872451451817,0.0066176263863659,0
0.13636524469757,0.00680867070005139,0
0.125988382474995,0.00801728084166026,0
0.112631447743283,0.00939798466948771,0
0.125424417104123,0.00975809843457607,0
0.166433777057424,0.0121424700973105,0
0.176479719718265,0.0123787077843864,0
0.126669878284843,0.013663873465295,0
0.0678418871551579,0.00845660403997205,0
0.0346025305302382,0.00807118709767474,0
0.0265734463056198,0.00581420511490815,0
0.0264361087052706,0.00581395770349236,0
0.0215752392814151,0.00525965004309095,0
0.0196788673007872,0.00379734820834616,0
0.019716645383361,0.00397648308404206,0
0.0176337193030583,0.0036492448440667,0
0.0181279278163176,0.00329409566038671,0
0.0210655100885904,0.00410381163789723,0
0.022227325124449,0.00326789518603787,0
0.0272419973890475,0.00315678664838562,0
0.0297575316884413,0.00368419953783199,0
0.0284735570004871,0.00350540652099273,0
0.0296329936640923,0.00343595887219123,0
0.0237343709618287,0.00327838931577409,0
0.0255959563731928,0.00376171873990606,0
0.0293569823954257,0.00365224932617289,0
0.0294337314634209,0.00431633702095001,0
0.0264274546012511,0.00396782972614499,0
0.0254707303404088,0.0043950821422262,0
0.0242343428467597,0.00500667866022147,0
0.0361069590250743,0.00717787023131544,0
0.0402907670701198,0.0058912289390097,0
0.0390757682518313,0.00513204892129522,0
0.0399853233105077,0.00455588009488234,0
0.0406914326788828,0.00372043929187718,0
0.0488191039833712,0.00461897875485513,0
0.0466739944786423,0.0047625741616345,0
0.0477750781856208,0.00455920615125093,0
0.0598710751255569,0.00587874332892408,0
0.059428082412115,0.00605969534442866,0
0.047740114814517,0.00457521758119303,0
0.0465960192926663,0.00504270648827372,0
0.0466482455882507,0.00515244967245037,0
0.0318915587453643,0.00407530406820429,0
0.0247255425376519,0.00528464525050905,0
0.0294892631539481,0.00678918933182044,0
0.025760040775079,0.00607851741891227,0
0.0216893542936291,0.00596728766196673,0
0.022911754435225,0.00677763524933906,0
0.0138913970600062,0.00617541448042106,0
0.00881981117666279,0.0091001280573159,0
0.00811450614173192,0.0144472389266025,0
0.000674365907224325,0.00654998517427789,0
4.88814590263344e-05,0.182799399351658,0
4.1619232816821e-05,0.193389817700044,0
4.2591137643478e-05,0.215455771211022,0
4.32237768152303e-05,0.0739452429791273,0
0.000122657076253773,0.0820642917640233,0
0.000124252347002907,0.0622315501141701,0
0.000160451973025324,0.0527574914209729,0
0.000225066327027407,0.0525879798799594,0
0.000214675491067449,0.0428767868086931,0
0.00025480045075218,0.0376318898892622,0
0.00023887186815262,0.0279453906536432,0
0.000216549972226584,0.0272559853390702,0
0.000184177855164282,0.0258605591335347,0
0.000178394332951054,0.0292308066891155,0
0.000159851986364322,0.0306972538883314,0
0.000151542947854564,0.0333770933834554,0
0.00013945676138057,0.0383335968917515,0
0.000105842980766311,0.0353174412211891,0
0.000112686916701917,0.0425597014956487,0
6.61477325124215e-05,0.0535205276239836,0
5.3878254635574e-05,0.115171618304489,0
5.11010865890271e-05,0.108640533130127,0
6.3462309819149e-05,0.115094600785066,0
8.65747429186077e-05,0.135853445807178,0
0.000102312859768436,0.147571806060595,0
0.000113784203132196,0.175701026225232,0
0.000114864677709505,0.173347085818062,0
9.32059379854854e-05,0.244477956079302,0
2.98909324731249e-05,0.199551905815096,0
1.49139115374665e-05,0.216199586991048,0
1.21649143649651e-05,0.234939485997387,0
4.28333902311778e-06,0.147460162639041,0
3.38728226625714e-06,0.175495430192107,0
3.64839824538578e-06,0.191330028042556,0
1.16924838281487e-05,0.0911875324885257,0
6.15587685397703e-05,0.115616079739134,0
6.20319343899885e-05,0.0756436185072509,0
6.21876407544253e-05,0.0768167363817613,0
6.28779836219388e-05,0.0776131594211544,0
6.28729471002962e-05,0.0814940779805028,0
6.3148854344626e-05,0.0811944622399375,0
6.55571730334911e-05,0.0797010250352258,0
6.86794234719375e-05,0.0793883958038599,0
7.10619534348775e-05,0.0788536564942537,0
6.75421615269196e-05,0.113457679555479,0
1.0342704117305e-05,0.0743584796339089,0
7.18934858545402e-07,0.104743902702063,0
7.14385224109039e-07,0.107765837296436,0
7.56211683999212e-07,0.114264690961013,0
5.75127628201782e-07,0.115889392582872,0
2.71688571266805e-07,0.088057359659723,0
1.06593361410344e-07,0.0580130199372787,0
8.53475873861288e-08,0.0590386403962977,0
5.77399221389581e-08,0.0490053021380897,0
3.60922580730533e-08,0.0427279049372581,0
2.66725791991784e-08,0.0413120495504214,0
5.49245815726988e-09,0.0249504410433643,0
0,0.0216858732525539,0
2.57265900666243e-09,0.0231295926800933,0
2.77552672198916e-08,0.041208986554783,0
2.86078180901272e-08,0.0397868413195835,0
2.90703199029819e-08,0.040059281297524,0
3.40833940519469e-08,0.0405156403151982,0
4.57025650705536e-08,0.0428194021767499,0
5.08839922241471e-08,0.0420847705731735,0
5.33956877472394e-08,0.0430655806559722,0
5.53388987860394e-08,0.041640978549032,0
6.51278756853876e-08,0.0437853155975755,0
1.07297606883048e-07,0.0540858569788877,0
1.177233004733e-07,0.0585953260309374,0
1.3795848751987e-07,0.0634337798119258,0
1.51187563454604e-07,0.0641768675831116,0
1.54591787824658e-07,0.0638671373030338,0
1.54448758113205e-07,0.0659613747589092,0
1.46204619335019e-07,0.0641660839054566,0
1.54226944822984e-07,0.0628905804266319,0
1.51209252386259e-07,0.0603166683153282,0
1.48258502543993e-07,0.0606000344962507,0
1.28304685421592e-07,0.0572076711190539,0
1.23214703493354e-07,0.0535798627739351,0
1.35767553710332e-07,0.0550930202033948,0
1.31953701625674e-07,0.056254958639852,0
1.51884071254393e-07,0.0590884636461079,0
1.41824627515437e-07,0.0566867571304922,0
1.42081143096305e-07,0.0575458277816859,0
1.46882251902395e-07,0.0599994957341509,0
1.67024000686648e-07,0.0669731071533007,0
1.09444107692061e-07,0.0541609837811092,0
8.86644698422215e-08,0.0484128180864976,0
6.16388886256776e-08,0.0411518278539287,0
7.58480697962706e-08,0.0480472336287353,0
8.40077975972052e-08,0.0505109324378483,0
7.77215245413705e-08,0.0515652876979463,0
7.65163233661749e-08,0.0511749495189137,0
7.93206436104041e-08,0.0500336247180681,0
7.29892341292334e-08,0.0462763660243849,0
4.61840593532898e-08,0.0371696243146917,0
5.67898296950104e-08,0.0410293431474408,0
5.57834632662282e-08,0.0410306228373527,0
5.60038697068283e-08,0.0423355380748099,0
7.02955860551779e-08,0.047177189914398,0
7.37254854308121e-08,0.0502603029145031,0
9.63411792733307e-08,0.0551823780177233,0
1.08751351491261e-07,0.0595834958471383,0
1.22064838403245e-07,0.0658736471287879,0
1.3687486159941e-07,0.0744807898128408,0
1.43008725946319e-07,0.0727029998562961,0
1.25558514961691e-07,0.0698357533108052,0
6.70598319272211e-08,0.0539175611833626,0
6.36788205759113e-08,0.0539791800614399,0
6.59541653627007e-08,0.0521392575859624,0
6.79302028926538e-08,0.0493361327184128,0
6.48998488093416e-08,0.0493601200100295,0
5.92566232677037e-08,0.0472645073214697,0
6.77088585523069e-08,0.050519251046893,0
4.80838925287803e-08,0.0409970689303776,0
6.15239959066416e-08,0.0451457331112086,0
2.04783844510283e-07,0.0775717260040523,0
2.01284540553353e-07,0.0707130645193883,0
1.95328877158418e-07,0.0696434402163797,0
1.94012652100644e-07,0.0674831052386165,0
1.98045034826408e-07,0.0662509608470517,0
2.46894605261336e-07,0.0721656363582236,0
2.76692618130703e-07,0.0775552124950362,0
3.384204899949e-07,0.0848922907023145,0
3.41644168663611e-07,0.0831303779375607,0
3.37079293356356e-07,0.0846158705871105,0
2.72667269653044e-07,0.0774195193805238,0
2.78769714358421e-07,0.0788340052642299,0
2.986479133137e-07,0.0795699151584529,0
2.79681704625137e-07,0.0769135962564448,0
2.76179235256561e-07,0.076419751841413,0
2.51427474739717e-07,0.0711968084449102,0
2.37543744781414e-07,0.0682739440619494,0
1.5266674859346e-07,0.0550796110509381,0
1.44328819840551e-07,0.0560003011884619,0
1.46118215320805e-07,0.0568184563394726,0
1.10693741867782e-07,0.0493867267932877,0
9.93996703490602e-08,0.0477285896954425,0
8.25098544634045e-08,0.0466485743583287,0
8.37827016578691e-08,0.050031006694277,0
1.0026441391601e-07,0.0590008446050195,0
9.91853602568174e-08,0.0575057398057506,0
7.34409500949951e-08,0.0501661859099183,0
6.72972378007396e-08,0.0491144577564193,0
6.52896633917855e-08,0.04688250742535,0
6.03802271648899e-08,0.0447419964729712,0
7.66189061510285e-08,0.0469540012382099,0
1.02159440355296e-07,0.053636637736853,0
1.15955945637106e-07,0.0535234074347586,0
1.1809283297371e-07,0.0531995929791153,0
1.12597678354667e-07,0.0497456919970438,0
9.90775017858853e-08,0.0502660671257086,0
8.98110522832148e-08,0.0478720886887229,0
1.34908085829461e-07,0.0569407981921927,0
1.38488987064399e-07,0.0560085585408938,0
1.36762665342147e-07,0.0582396722477893,0
1.11157064342916e-07,0.0569266160240544,0
9.92297932573425e-08,0.0558557058587043,0
7.24686997695188e-08,0.0509347413999814,0
5.53244785774258e-08,0.0447322927358243,0
4.54516768881685e-08,0.0437590178349142,0
5.55012726797792e-08,0.049256542352836,0
5.64766884169025e-08,0.0497025476468187,0
3.54029017588365e-08,0.0424827321507162,0
3.097695285164e-08,0.0424834028794953,0
3.63501805035427e-08,0.0455504182060802,0
3.85645618067619e-08,0.0428595706544885,0
5.25664671332162e-08,0.0507415396200457,0
4.58409052832706e-08,0.0462966880735427,0
4.98277998712933e-08,0.0435580258468966,0
5.65610993941536e-08,0.0442412943243631,0
5.63330725181073e-08,0.043257647670917,0
9.12313842129321e-08,0.0516743426130696,0
1.22480914178612e-07,0.0578605170764369,0
1.61110542780338e-07,0.0604684775484349,0
1.69411072780826e-07,0.0595532777323541,0
1.65858777488178e-07,0.0605107489683428,0
1.40785317358033e-07,0.0536056483726938,0
1.60756133913352e-07,0.0542005452328636,0
1.455264005803e-07,0.0537322003154789,0
1.43336404670509e-07,0.0533839010076518,0
1.32544109516558e-07,0.0499970010875014,0
1.31884648756784e-07,0.0501761821467051,0
1.22146083968849e-07,0.0505105557902583,0
9.54604914106781e-08,0.0482112347977661,0
7.82303351542449e-08,0.0454652994269532,0
8.67839808490173e-08,0.0486418103647983,0
1.03570979474883e-07,0.0543058390164127,0
1.4606862387167e-07,0.0677771899123724,0
1.54909266889096e-07,0.0660966180314073,0
1.53807234686096e-07,0.0659320148315033,0
9.1836329549898e-08,0.0537620169594721,0
8.66442337866795e-08,0.0555189382995803,0
8.143314555358e-08,0.0527505716242894,0
8.14256423556019e-08,0.0498031370281886,0
7.08378093465475e-08,0.0473385444226022,0
7.50150975832587e-08,0.0468849678781323,0
7.99537259397869e-08,0.0534957546816998,0
7.52933020957819e-08,0.0543557054460426,0
8.88806557339588e-08,0.0602159331720108,0
8.04672260513976e-08,0.0573529354956433,0
8.35199724911753e-08,0.0557566756382697,0
9.6100021800823e-08,0.0572106419830729,0
9.63860812237295e-08,0.0572754759957478,0
8.32507952637191e-08,0.0534641738115521,0
8.59586290714518e-08,0.0510531511014032,0
8.73419139611532e-08,0.053477260359952,0
8.88740904357282e-08,0.0514117466632637,0
7.05066134983055e-08,0.0463693989416744,0
5.40723824148686e-08,0.040033222051415,0
5.03764712234251e-08,0.0394455701042349,0
4.9127305997578e-08,0.0405492775579696,0
3.75301756230312e-08,0.0361700517431248,0
3.39988658372274e-08,0.0357511871522845,0
2.91500413814967e-08,0.034194010951925,0
1.9960382420631e-08,0.0315171145385293,0
1.82421500836986e-08,0.0299857748322979,0
1.81933792968424e-08,0.0288348015701399,0
1.68428036608257e-08,0.0276401075879751,0
1.70106877155805e-08,0.0295972099808346,0
1.87082862580738e-08,0.0306990590148086,0
1.821413032875e-08,0.0295978191341676,0
4.33718841986775e-08,0.04189624068943,0
5.46776794642396e-08,0.0454991129342677,0
6.57167594891822e-08,0.0508380321913723,0
9.72958439785462e-08,0.0600801995986156,0
9.0436983127025e-08,0.0566954395231497,0
8.89012895283981e-08,0.0574817170552107,0
1.07161611419699e-07,0.0609706074145906,0
1.27470071884022e-07,0.0664519169633789,0
1.27674534028919e-07,0.0646524108657211,0
1.28788289978759e-07,0.0661177796569204,0
1.20224796336641e-07,0.0639767052324006,0
1.20480725730167e-07,0.0615026715953145,0
1.22098602794146e-07,0.0587200905931868,0
9.22865214285701e-08,0.050101202286913,0
1.29280687346057e-07,0.0594484143593964,0
1.50237588248125e-07,0.0640247015214492,0
1.20004272658572e-07,0.0571949953758384,0
1.18800947282871e-07,0.0542049962440703,0
1.44931889378022e-07,0.059909849921849,0
1.38628147939395e-07,0.0594637323547922,0
2.13536324951469e-07,0.0669916254655138,0
5.17102232827259e-07,0.10574110899487,0
5.71183408052258e-07,0.105693503193624,0
5.34571905231642e-07,0.0998785606965072,0
5.36668697354051e-07,0.0999724835342446,0
5.98012968221629e-07,0.104681481675762,0
6.16659822046259e-07,0.106470655108534,0
4.7394418977095e-07,0.0930321010917193,0
3.67248831763095e-07,0.0788673683733341,0
4.68227808049029e-07,0.0842696954850094,0
4.89553655264164e-07,0.0895534009451211,0
4.27552854573522e-07,0.0856734241471417,0
3.90134054545475e-07,0.0858662631813936,0
4.31600829882583e-07,0.0916672903527763,0
4.21733186641937e-07,0.0909723078182465,0
3.05138179564559e-07,0.0791544580787728,0
1.95801226918619e-07,0.0636139796983388,0
7.56116018224994e-08,0.0407947554847776,0
5.92078524808476e-08,0.0396947510327128,0
3.87887198463507e-08,0.0363480110056602,0
3.28189879552072e-08,0.0347985330734672,0
2.96053917087788e-08,0.0361397701607711,0
3.04734179248438e-08,0.0375420663962337,0
2.40364947221093e-08,0.0334939806535231,0
2.45889176732301e-08,0.0352796616231662,0
2.37735310804787e-08,0.0347450578424363,0
4.34482057906086e-08,0.0439725555438887,0
3.3061306078652e-07,0.0803023791138859,0
1.47852262992225e-06,0.145939746995182,0
1.52378977503515e-06,0.139818924357473,0
1.51954953027791e-06,0.139567257845538,0
1.4945349233569e-06,0.137356196343738,0
1.4585044494297e-06,0.135650267790361,0
1.48199227279967e-06,0.136764685514981,0
1.46172425926195e-06,0.136822416923742,0
1.43268746927493e-06,0.137482366162591,0
1.34075394986372e-06,0.137154066612717,0
1.19131146612632e-06,0.172454432161169,0
1.49812602425158e-07,0.0812394977521082,0
1.23634061917836e-07,0.076445241467049,0
1.10421750941084e-07,0.0639219669204414,0
1.37963763205949e-07,0.0730728270903937,0
1.48687122728478e-07,0.074102797688532,0
1.47623544415115e-07,0.0773041522378376,0
1.56092779132637e-07,0.0777093999129065,0
1.64640797428927e-07,0.0763231528733906,0
1.70576882166638e-07,0.0731993790951064,0
2.04880565421716e-07,0.0736051402414952,0
2.18313634551473e-07,0.0756356686117124,0
1.61409732799706e-07,0.0649122591937402,0
1.4972877763525e-07,0.0667792884735031,0
1.43903013355307e-07,0.0648459448419991,0
1.38806935078712e-07,0.0636110029562188,0
1.37824367856016e-07,0.0634028517656804,0
1.20736889598631e-07,0.0577883668621156,0
1.11424365770877e-07,0.0550541632180739,0
1.15635535635957e-07,0.0551681842482687,0
1.23030875142896e-07,0.0610173215169815,0
1.32544109516558e-07,0.0592604274564631,0
1.68501778975883e-07,0.0691473427897251,0
2.12468995039117e-07,0.0774866277535893,0
2.12142254214675e-07,0.0749547439371499,0
2.23240773636098e-07,0.0768792991986436,0
2.6220206703594e-07,0.0797652940677958,0
2.76990049588045e-07,0.0775322804177638,0
2.73628616893958e-07,0.0780884994128356,0
2.66154376570783e-07,0.0791920924968184,0
2.28390781148159e-07,0.0712421613906597,0
2.48209188994553e-07,0.0770889812876665,0
1.81325213269938e-07,0.0642512842568655,0
1.23197938535372e-07,0.0524198255852092,0
1.38601066084194e-07,0.0539158710829962,0
1.83828350457837e-07,0.0629551332246136,0
1.50540060916607e-07,0.0570236607106118,0
1.2825779043423e-07,0.0563041007100451,0
1.28198702750155e-07,0.0571694669061982,0
1.2715575823123e-07,0.0560878178954905,0
1.36619283918289e-07,0.0581517710963335,0
6.30583998931161e-08,0.0409225505713584,0
5.35129252156436e-08,0.0391236029444197,0
5.23006897923438e-08,0.0417617357198219,0
4.3626992929925e-08,0.0409998727788468,0
3.26132361981578e-08,0.0359554944535747,0
5.82548291001895e-08,0.0493087145696338,0
8.94690705878797e-08,0.0563973693134742,0
8.5303857810414e-08,0.0539608990063843,0
8.20874478647439e-08,0.0540739871302679,0
5.72475247716604e-08,0.0464974890161788,0
5.60366961979815e-08,0.0470954738078427,0
6.12683009880519e-08,0.048021206135247,0
6.07370980187124e-08,0.0452851567030613,0
6.26160629248269e-08,0.0465025066908989,0
8.43190630758185e-08,0.0496638919552395,0
8.41325382635875e-08,0.0475329023565275,0
6.29106806829269e-08,0.0438559633895482,0
6.33757617200865e-08,0.0440118351728634,0
6.83606988766344e-08,0.0440194377697796,0
8.91689426687648e-08,0.0492977165845708,0
9.26176000393438e-08,0.0493921866483667,0
9.89953183205341e-08,0.0528347416741473,0
1.00605692186535e-07,0.0532299069350431,0
8.39889223647922e-08,0.0496112869736974,0
3.93448943964605e-08,0.0358944712358491,0
5.25008141509098e-08,0.0418371251788121,0
5.39410764502558e-08,0.0432582434914112,0
4.71023804433001e-08,0.0424317100242406,0
3.41021520468915e-08,0.0394362580805855,0
2.96967196966657e-08,0.0352574741555031,0
4.20400665576055e-08,0.0416911533930179,0
5.09279562747987e-08,0.044005212363375,0
5.56067864013431e-08,0.0458456761669477,0
6.17922352343504e-08,0.0482164897929162,0
8.97135107095025e-08,0.0606792802745617,0
7.66556014786391e-08,0.0547055930602037,0
8.76232838853235e-08,0.0520735135265819,0
1.45869671887788e-07,0.064127441094445,0
1.48494032618017e-07,0.0636495377157071,0
1.3989067823664e-07,0.0617670692261605,0
8.39392136781888e-08,0.0470703568672002,0
1.05849489673319e-07,0.0511596660576861,0
1.03992565411265e-07,0.0492052995433407,0
1.08352744098686e-07,0.049527749875912,0
1.15425446092576e-07,0.0483959849925185,0
1.19479634987464e-07,0.0486159727200259,0
1.18014166632411e-07,0.0524788017910212,0
1.03816709208658e-07,0.049980651987092,0
1.05918073592335e-07,0.0503868959524022,0
1.0430957552583e-07,0.0507863449930182,0
8.77405213537275e-08,0.0473098147650504,0
8.36156382653931e-08,0.0495028039579688,0
1.00657276672632e-07,0.057346326492733,0
1.04473239031722e-07,0.0609061347496033,0
8.90593256358071e-08,0.0635016249331813,0
7.217619228585e-08,0.0625451985819593,0
8.77236391582775e-08,0.0647368274311511,0
6.94392835859535e-08,0.0578539351333731,0
4.87005616125865e-08,0.0489331545001379,0
4.34108070381878e-08,0.0478252015345076,0
4.84594041400792e-08,0.0519023097841224,0
5.63190040218989e-08,0.0523530975146533,0
4.56486358350876e-08,0.0444275243290762,0
4.29029343250605e-08,0.0426324318191652,0
5.07638238190326e-08,0.0429558704911776,0
5.89957699005043e-08,0.0451524059424435,0
3.9571866135291e-08,0.0374555125491275,0
4.34881837673345e-08,0.039114322479496,0
4.29773801174971e-08,0.0416252149435985,0
4.2202674926282e-08,0.0394259439394107,0
4.6933558488798e-08,0.0406469315454885,0
5.50856658542863e-08,0.0419643274519381,0
8.16686756276041e-08,0.0471938936218326,0
8.37291241348085e-08,0.0448522983129378,0
8.99751847389808e-08,0.0471575781733852,0
8.78089880352757e-08,0.0458897632233323,0
9.88574470576907e-08,0.0465991084900713,0
9.5441733415733e-08,0.0457861110710204,0
9.75162504191461e-08,0.0441551202136591,0
9.91975529535313e-08,0.0442588041464015,0
1.18069971667371e-07,0.0465924064848992,0
2.05787045527418e-07,0.0642668985186252,0
2.00373488186384e-07,0.064870334237847,0
2.03611469826241e-07,0.0700701745363024,0
1.9418557736654e-07,0.0666034188591784,0
2.07363655002518e-07,0.0703499801803521,0
1.77175827550707e-07,0.0662830049326382,0
1.66758692295649e-07,0.0647777727335854,0
1.67344762400202e-07,0.0654069802964768,0
1.44521558238608e-07,0.0627198788073641,0
1.66919893814705e-07,0.0727361711439713,0
1.20030533851495e-07,0.0592164812222336,0
1.00717419493923e-07,0.0579232451799444,0
9.609732533905e-08,0.0560493533759669,0
8.21131228703245e-08,0.0566875052684782,0
4.26819416971186e-08,0.039715416392019,0
2.95222703436802e-08,0.0360812362357296,0
2.76526844350379e-08,0.0350816357759599,0
2.77324059135529e-08,0.0351820575032631,0
2.83011248727818e-08,0.036365747536642,0
2.54949288290581e-08,0.0339091555962342,0
2.25359723640035e-08,0.0330638481401284,0
1.83932691804716e-08,0.029323089461058,0
2.05568866598717e-08,0.0309998304179869,0
2.17969073631834e-08,0.0295343929221708,0
2.78865731845044e-08,0.0335067502528452,0
3.25901404168822e-08,0.0350654681261575,0
6.09934963621124e-08,0.0416762827771112,0
8.54192194793239e-08,0.045239361313566,0
9.32431791707487e-08,0.046552433418175,0
9.33519755414279e-08,0.0480174209016009,0
9.53127722004886e-08,0.049275049254319,0
9.74291429801219e-08,0.0498352579127685,0
9.78591700142285e-08,0.0499956470885412,0
9.76982029701097e-08,0.0515802425373706,0
9.65314556845508e-08,0.0512596857316923,0
9.00121145415281e-08,0.0486985981289308,0
6.98487940630893e-08,0.0452963112239277,0
5.62252140471756e-08,0.0451071228080731,0
3.29813618489471e-08,0.0360939653971213,0
3.9956991218999e-08,0.0384788909180968,0
5.53145133926114e-08,0.0437760829602953,0
5.92800707613845e-08,0.0434589370175026,0
8.81120468911007e-08,0.052726982917344,0
8.58892244901564e-08,0.05303930686832,0
8.77500175886686e-08,0.054125411747807,0
8.42117907922287e-08,0.0572586593513599,0
8.46717133807785e-08,0.0603236679364481,0
7.28655486000667e-08,0.0608740134126276,0
8.49146294153122e-08,0.0604075792277137,0
1.04294451892405e-07,0.0667285949211652,0
9.0004259631145e-08,0.060562276626145,0
1.07416368438541e-07,0.0653417652488842,0
7.59961407188652e-08,0.055876627300982,0
7.12364167391218e-08,0.0540995458173792,0
5.68133944261595e-08,0.0485750306750754,0
7.47975048419004e-08,0.0496096756335212,0
1.04947347353948e-07,0.0597506108435041,0
1.35718900160944e-07,0.0640856085855115,0
1.5297015916169e-07,0.0693642821793791,0
1.33643796970189e-07,0.0637811058547957,0
1.41171380341488e-07,0.0653625441997353,0
1.11522845244337e-07,0.0593291140844462,0
9.07915092314789e-08,0.0535095122448998,0
5.9976813036111e-08,0.0445987979427582,0
2.75676872704449e-08,0.0312274585086241,0
2.79054484169174e-08,0.0314134701482767,0
5.28681191394202e-08,0.0411931313584257,0
6.66800997670596e-08,0.0460303053952842,0
1.03471913814081e-07,0.054950279700463,0
1.00386223645682e-07,0.055147832162638,0
8.6097320996574e-08,0.0520670046402334,0
7.22212114737175e-08,0.0487727307109978,0
6.09944342618598e-08,0.0440426837702738,0
5.40686308158796e-08,0.0408145923645553,0
8.43651374009015e-08,0.048873961547938,0
9.44208295408693e-08,0.0502698654270704,0
1.02184177461129e-07,0.0527867583523684,0
1.45377860707832e-07,0.0640892623748996,0
1.34797413659287e-07,0.0627010276324878,0
1.3906345065958e-07,0.0625719304934338,0
1.37543115169314e-07,0.0592289200055546,0
1.33258671886482e-07,0.0592354985525424,0
1.36668875367424e-07,0.0620287784585735,0
1.40669017789376e-07,0.0618733923736096,0
1.02410328537681e-07,0.0542235500720961,0
7.87254289833158e-08,0.0508285535453644,0
9.23240374184597e-08,0.0540356805955535,0
9.90174762020623e-08,0.0538879374400654,0
7.23524002008617e-08,0.0478419899928529,0
9.33539685783908e-08,0.0552906987117281,0
7.74254999336497e-08,0.0525575775112301,0
7.17053666127388e-08,0.0495885281008971,0
4.87146301087952e-08,0.0431486162266996,0
3.782561404341e-08,0.0392780002695385,0
5.18336157182214e-08,0.0443702457457846,0
9.26766877234194e-08,0.0561991476532572,0
9.64148044034885e-08,0.0592051160270783,0
8.47626896562602e-08,0.0589105372164012,0
8.99914807470888e-08,0.0578046492374829,0
7.79982049668044e-08,0.0527460422554796,0
7.19168630057399e-08,0.0507117326327326,0
7.44398133257989e-08,0.0504958695770824,0
7.19134631191563e-08,0.0477008333325138,0
7.03171577493642e-08,0.0472283186544143,0
8.12606892375573e-08,0.0506281912890021,0
8.63408232184495e-08,0.0522037333985622,0
9.51181580029376e-08,0.0527050616050633,0
8.84514493621311e-08,0.0528266992380198,0
8.20596625847322e-08,0.0552799153144081,0
6.85117007359392e-08,0.0518236401271084,0
7.29217053474327e-08,0.0560794312014593,0
7.72197481766005e-08,0.0576469943372177,0
7.04607736481592e-08,0.0551632326337249,0
5.24812354936865e-08,0.0480227267278531,0
2.20712430392493e-08,0.0337076779167707,0
1.7433680501583e-08,0.0326115708664096,0
1.45205638866746e-08,0.0319949216464639,0
2.26671610911479e-08,0.035054622212807,0
2.5659061284824e-08,0.035846674967467,0
2.38020197853009e-08,0.0347062164806268,0
3.27501695612539e-08,0.0397823910704468,0
3.5760358800001e-08,0.0402895472259581,0
4.08339274826626e-08,0.0401702370183316,0
3.95705765231386e-08,0.042109108537636,0
4.38824533735779e-08,0.0430176838558032,0
4.72257142600613e-08,0.045650847025115,0
5.42340528837981e-08,0.0486854455256589,0
5.37960537018397e-08,0.0467775755223461,0
8.16311596377148e-08,0.0577435373424146,0
1.18089081374721e-07,0.0728112004172119,0
1.19593472569284e-07,0.0696628445381253,0
1.14612404249193e-07,0.0737614089063492,0
1.07945343895982e-07,0.0736257182358751,0
1.34947477618844e-07,0.0741865122741396,0
1.54970230372667e-07,0.079318940356213,0
1.32517731086167e-07,0.0716245631530217,0
1.03644487367572e-07,0.0576006261660091,0
1.15056851491914e-07,0.0600902161488422,0
1.23105907122675e-07,0.0611080531986232,0
1.24532569875686e-07,0.055475754569013,0
1.28194951151166e-07,0.0562902218512544,0
1.21097981001316e-07,0.0538886052438294,0
1.23465708913207e-07,0.0524772538322466,0
1.16436619257563e-07,0.0520761938094894,0
8.82216639240586e-08,0.0431537295403993,0
1.07436416045639e-07,0.0466757212897657,0
9.91481959793331e-08,0.0473724031126614,0
8.70117732501271e-08,0.0456824546526674,0
8.09089768323447e-08,0.0447413436900955,0
6.80072279093956e-08,0.0424530402276835,0
5.95828951422727e-08,0.0411890622155281,0
5.73506937438562e-08,0.0411863595172989,0
5.42140052767007e-08,0.0433762407930542,0
5.27311857763241e-08,0.0447130122957619,0
4.98287377710405e-08,0.0445717940907304,0
3.18810882079734e-08,0.0351413541064964,0
3.32250985457595e-08,0.0354123063252069,0
5.14738139276887e-08,0.0452531205493535,0
5.96738714177545e-08,0.0503483257062202,0
6.38550284909229e-08,0.0540266953121038,0
7.32030752716029e-08,0.0561832977241635,0
7.23731512327692e-08,0.0532081902380153,0
6.7692914256604e-08,0.0482286569045598,0
8.6487135579018e-08,0.0523280315442547,0
1.14721083382404e-07,0.0624234362890503,0
1.36460778861006e-07,0.0711005201751117,0
1.60554485467697e-07,0.0772456197478005,0
1.4788615634434e-07,0.0741385467714977,0
1.1924703585015e-07,0.062372466239303,0
9.36417865633232e-08,0.0542634970608062,0
1.1826693061429e-07,0.0621563538178528,0
1.16902286482065e-07,0.0584412679533175,0
1.06682461886331e-07,0.0568365696522607,0
9.86929628895194e-08,0.0579466713518603,0
1.04528926829214e-07,0.0584264196551845,0
1.13736288647809e-07,0.0577295104461071,0
1.29858785302759e-07,0.062759989324347,0
1.12443511083715e-07,0.0562596937983031,0
1.32759709220953e-07,0.0613354760967711,0
2.34252654568371e-07,0.0818583800714816,0
2.60029070559068e-07,0.0846170167854702,0
2.47598030071761e-07,0.0867121336696843,0
2.48306144380923e-07,0.0884411544433501,0
2.83250530400831e-07,0.0904934820507382,0
2.86730607412942e-07,0.0917838422770617,0
2.70484307991357e-07,0.0980525946789523,0
2.26716278386942e-07,0.08969784011871,0
2.11738019423617e-07,0.0884982994004664,0
2.61439554541439e-07,0.0989321142701382,0
2.04176202711544e-07,0.0917835390871126,0
1.01036305407983e-07,0.0694679099232502,0
7.3581048869738e-08,0.0549488149125857,0
1.36115631754024e-07,0.0701481367113432,0
1.36471564708099e-07,0.0710028219596344,0
1.40453887034854e-07,0.0754421389554054,0
1.64569165335731e-07,0.0747627299402628,0
1.74486986212856e-07,0.0713871325961326,0
2.13140531258137e-07,0.0776528004756328,0
1.93320013137312e-07,0.0766501300415804,0
1.65115374701027e-07,0.0694287204828069,0
1.53581083609545e-07,0.0669253257185657,0
1.49550576683276e-07,0.0728868926708923,0
1.00634415366293e-07,0.0585059693074026,0
1.07692462676634e-07,0.0632269333048784,0
1.08409955983267e-07,0.0594907249201497,0
1.00585175629564e-07,0.057326032029195,0
1.05095066564138e-07,0.062470245861751,0
7.7860333703961e-08,0.0516616770717579,0
1.15294140127964e-07,0.0591432935743385,0
1.10431716125898e-07,0.0567413805726273,0
1.10116581810828e-07,0.0556762603665916,0
1.1022959873037e-07,0.0547587785198828,0
1.02648555073478e-07,0.0538540320942314,0
8.04864529962156e-08,0.0468693410587688,0
5.70736616060169e-08,0.040346867342095,0
6.67550145093702e-08,0.0440082415715609,0
6.87247212160296e-08,0.0441332303395391,0
7.07773148128508e-08,0.0451712981749909,0
3.32632007229909e-08,0.034306565336509,0
3.07172718591246e-08,0.0349693023305545,0
3.29315359248753e-08,0.0360698331754005,0
5.55077207405417e-08,0.0469208794113414,0
5.67383624463808e-08,0.045755561253336,0
6.47316130421814e-08,0.0493524297450703,0
6.52319825573305e-08,0.0506201765672702,0
4.17102775589843e-08,0.0427018234418532,0
2.94881542403746e-08,0.0391237432871484,0
3.3475517778271e-08,0.04259538891957,0
3.93214469027796e-08,0.0409758118681841,0
1.17753313265211e-07,0.0646203708771963,0
1.30923301515869e-07,0.068115444956861,0
1.18996147667764e-07,0.0611240596392459,0
1.46386102936109e-07,0.066640502254137,0
1.59056190621491e-07,0.0682890843832036,0
1.57114738144717e-07,0.0654150121553557,0
1.46967014592051e-07,0.0612556127771607,0
1.4129178322154e-07,0.0591170167736613,0
1.409809866928e-07,0.0585976571205868,0
1.42755844726972e-07,0.0645859776263044,0
1.02903546567257e-07,0.0579752675232892,0
1.0017988570129e-07,0.0540758326045891,0
1.0096678358922e-07,0.0553055549265641,0
8.15983331465613e-08,0.0498548611145917,0
4.79666550603762e-08,0.0401237949599788,0
3.22080635073529e-08,0.0349030381943954,0
5.29444407313515e-08,0.0448633501094608,0
5.75635969864782e-08,0.0446723624921602,0
5.56146413117263e-08,0.0448431333721838,0
5.56536813887049e-08,0.0439031027969599,0
5.47176574409653e-08,0.0440409441260693,0
5.68016706793194e-08,0.0473978985819161,0
4.34482057906087e-08,0.0451752013685218,0
3.93055026070766e-08,0.0457085840400907,0
3.89115847132383e-08,0.0442254957703026,0
4.14773267092649e-08,0.0430522613078391,0
2.78443676958788e-08,0.0361447734336867,0
2.2170660412456e-08,0.0370033976140446,0
4.33197135252375e-08,0.045272682064172,0
7.651667507858e-08,0.0574403053673772,0
8.55271951877241e-08,0.0621869687827735,0
8.80922337589404e-08,0.0630848563063814,0
7.58068022073925e-08,0.0586427739440269,0
7.62701246825258e-08,0.0622190873454316,0
7.46344275233502e-08,0.0598308865031031,0
7.7916021501453e-08,0.0658014386155175,0
6.55995220207781e-08,0.063834805573642,0
6.42725111159105e-08,0.0655782216069307,0
4.85040716155414e-08,0.0655919657648308,0
2.38607557569715e-08,0.0483440162021364,0
1.75435320094777e-08,0.0391801816280079,0
1.65136008495466e-08,0.0367903941844014,0
1.82777902740934e-08,0.0354696568345472,0
1.78594869868272e-08,0.0319115006609988,0
1.95229694260148e-08,0.0340600267797012,0
2.52923424836555e-08,0.0377820033261079,0
2.46931417826415e-08,0.0363060234466881,0
4.52189605133861e-08,0.0407877462741005,0
7.87705654086514e-08,0.0508754172908388,0
7.19965844842548e-08,0.0496858877604702,0
5.62178280866659e-08,0.0432155511759584,0
6.34401250902404e-08,0.0467476605100905,0
5.70549036110722e-08,0.0444393140187886,0
5.37896056410775e-08,0.0411215642997674,0
7.71423714474535e-08,0.0475301106544384,0
1.05697667151735e-07,0.0503343939390396,0
1.18456738075637e-07,0.0494039296373232,0
1.14696815226445e-07,0.0495672385805466,0
9.30509097225657e-08,0.0458513370629381,0
9.27751671968791e-08,0.0457834794095662,0
9.24864113121995e-08,0.0470777781451185,0
1.00338390758573e-07,0.0490418284453196,0
1.10244136176452e-07,0.0499257716738507,0
1.12634842632151e-07,0.0527754674205918,0
8.17360871719365e-08,0.0460472182769476,0
5.97349521387929e-08,0.0428037151153352,0
3.60641210806363e-08,0.0376016893824877,0
3.26389112037383e-08,0.0408792799285437,0
3.1093252420297e-08,0.041251877557288,0
3.35880657479389e-08,0.0413948590269252,0
3.43430750444622e-08,0.0395591113931938,0
2.28115976522219e-08,0.0342084091009776,0
4.62127825330488e-08,0.0478114036541583,0
5.99248768376079e-08,0.0510690535090745,0
5.99552413419246e-08,0.0498070316784334,0
7.42816599809218e-08,0.053920754606119,0
8.53335188899203e-08,0.05634352694445,0
7.87366837802826e-08,0.0508320965436081,0
6.68517354208036e-08,0.0447336713062882,0
6.75269060013435e-08,0.0462540282220932,0
7.57757342782653e-08,0.0489300046124036,0
9.41885821159605e-08,0.0544362509992544,0
8.31804527826767e-08,0.0546499671834719,0
7.44083936842668e-08,0.055245594487173,0
8.15288113277977e-08,0.0607625642803192,0
6.68178537924347e-08,0.0524438077443929,0
7.02046097796962e-08,0.0524348175532129,0
8.14303318543382e-08,0.0563314089430963,0
8.06698123967999e-08,0.0560753891392193,0
8.23036337564814e-08,0.054180737924571,0
9.33285280477469e-08,0.0575773188723638,0
8.92928626728681e-08,0.0535179477361537,0
8.80922337589403e-08,0.05167247829892,0
8.27349504027404e-08,0.0483526467969186,0
7.21404348579869e-08,0.0444206861626364,0
6.44713458623239e-08,0.0462310085586219,0
4.28451362531372e-08,0.0397007134095361,0
4.66717672218513e-08,0.0395880102912232,0
4.88107648328866e-08,0.0388628621446414,0
5.38898436765631e-08,0.0415685004441738,0
3.74903148837738e-08,0.0350671229445681,0
3.92042094343755e-08,0.0358013308952363,0
3.30774965730386e-08,0.0331416910438432,0
3.28968336342277e-08,0.0337457779701065,0
3.18887086434197e-08,0.0339920068905299,0
4.8599737389759e-08,0.0377508035044574,0
4.9093072656804e-08,0.0359842761546771,0
4.4974168679358e-08,0.0366997860090183,0
4.06627607787924e-08,0.0350211374090446,0
3.97698802194258e-08,0.0340362347008559,0
6.85023217384667e-08,0.0419294620054664,0
1.33760448251251e-07,0.0562714206573166,0
1.28788758928633e-07,0.0539791003212296,0
1.29680584350784e-07,0.0530475366229332,0
1.3545617099425e-07,0.0531576525194864,0
1.10034515582945e-07,0.0479177098842049,0
1.4182509646531e-07,0.0551466219580606,0
1.43454580038661e-07,0.0540192319314966,0
1.41927679250164e-07,0.054430515929077,0
1.30834201039882e-07,0.0529281931391084,0
1.42501673895471e-07,0.0587040278837114,0
9.71917371066034e-08,0.0482563870291,0
9.7707581967582e-08,0.0515687479817026,0
9.76119161933642e-08,0.052467232624085,0
9.45234123257229e-08,0.0516091761285635,0
1.15101518967376e-07,0.0579259390888767,0
6.11943241454889e-08,0.0459479073184297,0
5.76528146999338e-08,0.0456147433910403,0
6.58205146487199e-08,0.0486274874166431,0
6.73243196559409e-08,0.0502174863086068,0
5.96007152374703e-08,0.0469053684587643,0
5.81695974606596e-08,0.0516970004392622,0
6.16594051826484e-08,0.053138240385384,0
5.91074972078935e-08,0.0535541837041434,0
6.12787351227399e-08,0.0544723524677957,0
5.02748263383186e-08,0.0483115413888648,0
5.1226208394419e-08,0.0487338584690444,0
4.95558089445954e-08,0.0486186316469182,0
3.32871171665454e-08,0.043826084338197,0
2.82073348980584e-08,0.038389374861049,0
2.93315249825865e-08,0.0390710554868601,0
4.31622636051707e-08,0.045098667034102,0
3.11688705874176e-08,0.0389627797778529,0
2.4432288415442e-08,0.035612672250965,0
4.31311956760435e-08,0.0450246949046364,0
3.60266050907471e-08,0.0415033447166252,0
3.81490722187373e-08,0.0414559753190978,0
3.95165300502043e-08,0.040062154883138,0
5.88278858457494e-08,0.0482269831466756,0
7.29246362841428e-08,0.0522060138633231,0
1.20574515704891e-07,0.0640691105086354,0
1.39714822034034e-07,0.0662038103144193,0
1.43116936129656e-07,0.0657738744802007,0
1.45670485428969e-07,0.0640481369139527,0
1.37197030162585e-07,0.0643962270893631,0
1.37029028870362e-07,0.0668900425394825,0
1.31404561323669e-07,0.0668055070827382,0
1.37995065610012e-07,0.068433893517755,0
1.28964146181366e-07,0.0675603061120791,0
1.28326257115778e-07,0.072219022007367,0
8.69152868136305e-08,0.0596334284805719,0
5.92786639117637e-08,0.0521590300439047,0
5.91323515511953e-08,0.0521208352187361,0
5.87284684725426e-08,0.0520202991428728,0
5.28399821470033e-08,0.046948178803193,0
4.29211061326632e-08,0.0398176221447561,0
6.10497703469465e-08,0.0420501999217665,0
8.52785345172388e-08,0.0482235548346862,0
8.12911709793424e-08,0.0463076958332856,0
8.12249318096941e-08,0.0455392780532026,0
8.61479675829244e-08,0.0480522588709628,0
7.25230979548584e-08,0.0453049669388219,0
6.70862103576122e-08,0.0428758288767417,0
6.01878404792386e-08,0.0429330441454157,0
6.3369313659324e-08,0.0424551802940791,0
6.9346431510977e-08,0.0451377269397472,0
5.80101545036298e-08,0.0438660732330741,0
4.41236108460855e-08,0.039390915813345,0
5.58406751508096e-08,0.0414459891549576,0
5.76602006604432e-08,0.0398389173448382,0
5.71449419868067e-08,0.037200211615417,0
9.41416871285988e-08,0.0468180439918762,0
9.0561372081002e-08,0.0465989833241578,0
8.77551760372781e-08,0.0445315626348828,0
8.52428943268439e-08,0.0452083772084195,0
8.20203880328168e-08,0.0450439329050719,0
8.6774601851545e-08,0.0478491074640664,0
8.67112936186069e-08,0.0470824947970048,0
9.07446142441178e-08,0.0474282551073705,0
9.56100864203617e-08,0.0502042575284134,0
8.63033072285602e-08,0.0493684258400665,0
6.04505696459324e-08,0.0414766674057506,0
6.3554900571808e-08,0.0397667562984788,0
8.53382083886565e-08,0.0432997752267804,0
8.12155528122217e-08,0.0422660295462052,0
7.74264378333968e-08,0.0418582911405971,0
8.17360871719363e-08,0.0429965787086364,0
7.76793190527448e-08,0.0425973339310331,0
7.46821431729907e-08,0.0423897251319226,0
7.18693818310362e-08,0.0415563544890743,0
7.33203127400071e-08,0.0419768350487854,0
7.68187960346577e-08,0.0429514626613653,0
6.78833079052925e-08,0.043122822609909,0
4.75713303169171e-08,0.0407785815122919,0
4.94995349597615e-08,0.0424514221083745,0
5.48033580303689e-08,0.0435987255482169,0
4.7955869213283e-08,0.0400933035406982,0
4.65809081838381e-08,0.0403806114082423,0
4.57713834645068e-08,0.0396250285614641,0
3.19186041978627e-08,0.0355760585567138,0
3.54451072474621e-08,0.0356818172683656,0
4.46318352716177e-08,0.03729033215655,0
8.08469582115588e-08,0.0478071677524593,0
8.26993102123457e-08,0.0452278611463623,0
8.68026216064939e-08,0.0478567449771324,0
8.69162247133775e-08,0.0467225132586904,0
8.37760191221701e-08,0.0470251739438906,0
7.53396108958015e-08,0.0469839101761503,0
8.30904144069423e-08,0.0502997195777441,0
8.55392706469698e-08,0.0495478142208774,0
9.15048992267192e-08,0.0521565495576059,0
8.17407766706727e-08,0.0528477050320118,0
7.23824129927732e-08,0.0503163565387596,0
7.4870778259653e-08,0.0528747827916229,0
5.78984271962408e-08,0.0467472521953879,0
5.51888348264822e-08,0.0479160271216511,0
5.49140302005425e-08,0.0478037253665823,0
6.14765147319378e-08,0.0470309233424034,0
8.29596946296714e-08,0.0533727989220213,0
8.48214256279308e-08,0.0537935674210481,0
7.01386050849846e-08,0.0501372508597097,0
6.33646241605881e-08,0.0499229934971466,0
5.56747841330176e-08,0.0469873972359451,0
5.33769297522947e-08,0.0449860392285243,0
5.91130073689085e-08,0.0442907512305063,0
7.51426519488824e-08,0.0487304846205127,0
7.44130831830029e-08,0.047573235394339,0
5.38823404785853e-08,0.0423542279622127,0
4.99878290156652e-08,0.0409615943552211,0
4.71032011055789e-08,0.0397584283511365,0
7.12634985943232e-08,0.0461704239300203,0
7.28308463094193e-08,0.0453986879830103,0
7.33090579430403e-08,0.0463616162443744,0
6.36422424857693e-08,0.0468190207322546,0
6.75756767881997e-08,0.0503802298479547,0
5.51415881267153e-08,0.0446623001440416,0
5.28657743900523e-08,0.0447666105226217,0
5.33534822586139e-08,0.0449603436943623,0
6.32360146577485e-08,0.0499877973384001,0
6.12045238052401e-08,0.0491051232685122,0
6.14727631329489e-08,0.0530850063266424,0
8.79018401102519e-08,0.0649171392732062,0
8.66648675811188e-08,0.0594569611291155,0
9.1984517709961e-08,0.0577714888648058,0
6.6663100334141e-08,0.0524062993123705,0
6.58424380553114e-08,0.053404461330058,0
6.04682725036615e-08,0.0500283217364759,0
6.11591529049676e-08,0.0474165673488389,0
6.14470881273685e-08,0.0470201743901544,0
6.27389277917146e-08,0.0474899494880388,0
7.37442434257567e-08,0.0504010120863898,0
6.3847525292945e-08,0.0469386342593548,0
7.67136340254992e-08,0.0492700837958491,0
7.83315110894776e-08,0.0478872563065362,0
8.45545931498426e-08,0.048021228804579,0
8.50380804695417e-08,0.0473485457738149,0
8.17038468681252e-08,0.0489011810723761,0
7.61265087837307e-08,0.0472230391846771,0
7.61649626733674e-08,0.0481450820305974,0
8.01032037120022e-08,0.0497854246673594,0
8.29221786397822e-08,0.0521342155888401,0
7.62007201012307e-08,0.0473004896270743,0
6.45509501033704e-08,0.044484079135268,0
7.22820577198193e-08,0.0478045256494827,0
6.00735339475444e-08,0.0455439648200067,0
5.50715973580778e-08,0.0427947996800351,0
5.49374776942235e-08,0.0427453209693435,0
5.63696506082495e-08,0.0432710011003917,0
5.84931728734554e-08,0.0423493748046415,0
6.03000367365014e-08,0.041450468666155,0
9.79248229965351e-08,0.0504391027259983,0
9.41351218303682e-08,0.0491030404030539,0
9.29014319503503e-08,0.0516079807956273,0
9.24662464676338e-08,0.0502323421802215,0
1.46710967961057e-07,0.0602798820122704,0
1.57159757332584e-07,0.0597120298959426,0
2.31371074832463e-07,0.0707861503877065,0
2.48095116937795e-07,0.0705451488622037,0
2.85286710752075e-07,0.0742557390753884,0
3.92550436006755e-07,0.0828721459761475,0
3.84903387655152e-07,0.0813015591289669,0
3.8354659843331e-07,0.0841838153841076,0
3.64890951798549e-07,0.0811793963695473,0
3.68524258181865e-07,0.0803924096571684,0
3.76027456159736e-07,0.0825142964996491,0
3.8484476892095e-07,0.0813912963128047,0
4.24409131858263e-07,0.0873550561467107,0
4.22647638895489e-07,0.0830530637330393,0
4.3061662133533e-07,0.0848167812263758,0
1.38618018622125e-06,0.0983118833026188,0
9.09907941697717e-06,0.207138733500768,0
1.11254136966754e-05,0.195383544586881,0
1.80441862944378e-05,0.17633091722727,0
4.61248639279806e-05,0.191091953234017,0
0.000122759450355933,0.206616667842982,0
0.00012846264051791,0.125181644829837,0
0.000119326060469152,0.117677992449231,0
0.000121694649373012,0.0855322405333273,0
0.000131583703575277,0.0879126403968095,0
0.000128511023365984,0.0875043500783014,0
0.000121606423019589,0.0766466630880671,0
9.90933359956055e-05,0.0645452122859057,0
0.000105190449678819,0.068212273034141,0
0.000115771101541222,0.0798255318425921,0
0.000117544276045347,0.0400721334724311,0
0.000469867139569725,0.0510572989227867,0
0.000497965535536343,0.0394549396218944,0
0.000488656439849403,0.037835279514102,0
0.000497992118077166,0.0366245317070781,0
0.000500409256775254,0.0351023021588887,0
0.000547158279385473,0.0329796923922706,0
0.000508539080228936,0.028106641787285,0
0.000452408490418309,0.023126155415584,0
0.000349936202347526,0.0173093933517713,0
0.0003427790321645,0.0215030825405038,0
0.000191628489371481,0.0189106483272369,0
0.000193394345092167,0.0204264416190721,0
0.000201709464123223,0.0218552291372085,0
0.000229178799943524,0.0237030785070698,0
0.000241844214895128,0.0212595217626983,0
0.00022077236500004,0.0226683004407347,0
0.000294221690188065,0.0206637602292136,0
0.000540457098239456,0.0326564319371748,0
0.000974745613498453,0.0332669750795742,0
0.000936570202710064,0.0235526250524233,0
0.000949802367500377,0.0190592908038563,0
0.0013977758394037,0.0209379848341353,0
0.00145291697276627,0.0169845936278353,0
0.00119930650998644,0.0145995258204732,0
0.00105425598848309,0.0136994383028008,0
0.000999372674499266,0.0131363280542929,0
0.00098076884682554,0.0147189211031836,0
0.000985155794226885,0.014362617968542,0
0.000773955343767142,0.0148315392035262,0
0.000700566141704514,0.0176598048857281,0
0.000621511280710668,0.0222398503990377,0
0.000634355027099549,0.025959302318364,0
0.000691850131494998,0.0378198283198283,0
0.000622275449887835,0.0366499937806149,0
0.00106511506209904,0.0158270791434733,0
0.00172918372907565,0.0154121376886898,0
0.00401763195438395,0.0054829253292171,0
0.0337445966951928,0.00973575884786552,0
0.0662907070688042,0.0149343098429653,0
0.101477481988064,0.0147938765588405,0
0.168840452811475,0.0203551553505196,0
0.196601288518374,0.0206154188715476,0
0.190946597621276,0.0181105858374367,0
0.164426918582987,0.0165371972781371,0
0.156522844041011,0.0163383247699342,0
0.112706770146884,0.010342748962837,0
0.055222165875459,0.00622169042874817,0
0.043569754962938,0.00693305835848786,0
0.0472776962854013,0.00704221740156371,0
0.0450314271559851,0.00769001314696739,0
0.0609407544673968,0.00807274851135842,0
0.070522000173217,0.00864753168652966,0
0.0702709483198228,0.00791039067132724,0
0.0721968555117006,0.00909697184879858,0
0.0471365733343339,0.00697286289342874,0
0.0383990326306924,0.00604991443312654,0
0.0498378856476228,0.00493956054768105,0
0.0736962698092528,0.00502185277697717,0
0.0900573859653397,0.00555847303724891,0
0.0893578172459002,0.00526661515364826,0
0.0876796043783784,0.00487282399225105,0
0.0933654555777633,0.00523674887675956,0
0.102043536093679,0.00589375712323672,0
0.0951265098707566,0.00478720858572082,0
0.0919453607670395,0.0038176032371763,0
0.0799430837767076,0.00377913073843169,0
0.0486821598254007,0.00240767069050257,0
0.0447880088442483,0.00325626475985994,0
0.0391495964405671,0.00303234238704437,0
0.0329378117328458,0.00286679282811707,0
0.0327721550783805,0.00418306976573948,0
0.030541026076528,0.00337515154619256,0
0.0266471068577891,0.00320634195999942,0
0.0168521631182119,0.00277526217007708,0
0.0139764576039953,0.00436672115002961,0
0.016820085211273,0.00462753956521138,0
0.0169446973397844,0.00640078795872597,0
0.0128017908811369,0.0059838744451101,0
0.0190587549154869,0.00652816647578821,0
0.0243764709534272,0.0043505492856517,0
0.0264058230156006,0.00376442613571606,0
0.0278957347177276,0.0030504003912835,0
0.0285894069473913,0.0031094874252844,0
0.026426855916395,0.00273853006010723,0
0.025660170538855,0.00296377360038785,0
0.0266017352748429,0.0031905902393313,0
0.0280844957765188,0.00282758158594626,0
0.0276653039211562,0.00277787995101617,0
0.0260997323818433,0.00313636869668645,0
0.0235237139355237,0.00454902721934465,0
0.00757080193515017,0.00219171451925918,0
0.0059444588788909,0.00474183420788646,0
0.00793919987429761,0.00538128209392989,0
0.0110054168602722,0.0069529154253577,0
0.0162840684363095,0.0100937558452316,0
0.0117717800935172,0.00749698067639053,0
0.0102417341214091,0.011098590569167,0
0.00947248530922372,0.0125489877208642,0
0.00980223135027785,0.0143023174131739,0
0.00899308029290237,0.0131663886589128,0
0.00702873421696326,0.0103457675613444,0
0.0050463631865985,0.00465001913167949,0
0.01686292043205,0.0134525347799888,0
0.0216708247110373,0.0160634739616503,0
0.0197740005711688,0.00931367595596881,0
0.0194365168783027,0.00970339647414076,0
0.0195008259071315,0.00988059549406025,0
0.0228475285944694,0.0090474842549449,0
0.0229598678316178,0.00832022758647573,0
0.0216715107597308,0.00775510507575268,0
0.0223469782405251,0.00817867128182393,0
0.0642626422421453,0.0115905515166581,0
0.140368215261131,0.0139391032228626,0
0.302424715660005,0.0185858314732687,0
0.462588852483688,0.017535355274557,1
0.657741091230993,0.0173026606335182,1
0.60573673052333,0.0148789705142306,1
0.57752435263681,0.0140398156462459,1
0.526852583249466,0.0135819363153869,1
0.432595402172335,0.0119675257831564,1
0.257690591988693,0.00746713141670402,1
0.158628583151139,0.00491505644162028,1
0.117398157083107,0.00384411422561965,1
0.115526430331535,0.00310377104832688,1
0.170366193152441,0.00572909802762491,1
0.15603380612275,0.00482880369918179,1
0.140986071542658,0.00450754173924885,1
0.151658690357667,0.00482378513003582,1
0.199063185476516,0.00590082814851247,1
0.250555976253366,0.00698040322954472,1
0.312924338580812,0.00872256670717731,1
0.316899218277161,0.0073261266823364,1
0.324642288176493,0.00690667300508762,1
0.32051883329575,0.00739984407231103,1
0.187828395064935,0.00441315343648351,1
0.184522453577519,0.00478995811903433,1
0.131051036701061,0.00350277830595497,1
0.152853659366561,0.00388531487072341,1
0.190165843343058,0.00451465886420593,1
0.224428509953129,0.00459712830584514,1
0.338069800965045,0.00639226692551041,1
0.374878080260432,0.00883298503443996,1
0.407883492585256,0.0102029479287961,1
0.38824472470104,0.0129790270474761,1
0.242043141666037,0.0119606340282337,1
0.225126739108461,0.0119366704207659,1
0.145907830582975,0.00873105696071962,1
0.101661906943586,0.00920685393653676,1
0.0624116865255386,0.00951920234215921,1
0.00766387663669285,0.0125968435523578,1
0.00656113366313459,0.0160035646981091,1
0.0056523788219294,0.0138696187475949,1
0.00357958716705052,0.0119333978031003,1
0.00404840025549252,0.0135591397857189,1
0.00517538354990453,0.0174808702862479,1
0.00424927168872321,0.0160450254181273,1
0.00190793581052021,0.012419673870291,1
0.00201086363520861,0.0137230597030688,1
0.00190436542701027,0.0131642288576685,1
0.00201796763819972,0.0142805678999739,1
0.00224778465617716,0.015802337791142,1
0.0022193160848971,0.0180136932573247,1
0.000968475645360773,0.01441041862161,1
0.00081006610191271,0.0201850108966007,1
0.000862127495963544,0.020757834571941,1
0.000622062830477124,0.0421292551110476,1
0.000105179720105711,0.0556584088582587,1
0.000100078993011781,0.0713244407217476,1
7.04402173476869e-05,0.0681065406563616,1
5.57052968254944e-05,0.070974629481882,1
5.61293719478052e-05,0.070153297228983,1
5.92749335327566e-05,0.0745609560086557,1
5.47786659437235e-05,0.07322449488203,1
5.89224242644711e-05,0.0776728162432225,1
5.55199200025539e-05,0.081180275258352,1
2.35657653009595e-05,0.0618790157355018,1
2.79973073732988e-05,0.0919679367585418,1
2.37919214187225e-05,0.0926703120839064,1
5.73437767332203e-05,0.0504515569166827,1
0.000142904781331033,0.0447995649342546,1
0.000142768584219238,0.0418234264206516,1
0.000135305828478468,0.0406821170189345,1
0.000129318644266065,0.0399311043803102,1
0.000123735542670487,0.0385068477778964,1
0.000289348482683656,0.0274959856157833,1
0.000505901109987187,0.0240784806019039,1
0.000454633769999353,0.0198491829806818,1
0.000788833964364632,0.0196485408686995,1
0.000963964844194495,0.0182173570580847,1
0.000969222576878487,0.0168277905844968,1
0.00312267126655971,0.0132599668875581,1
0.00469641124828625,0.00935009012835279,1
0.00447248949847018,0.00601417028071107,1
0.0181932951509391,0.00699052955662794,1
0.0335670952593316,0.00956112261900383,1
0.0367566832183728,0.00921680852490074,1
0.0328016720514664,0.00820278076064703,1
0.0328429588584967,0.00748963983416396,1
0.0297064067976049,0.00642391981020776,1
0.0239270484160976,0.00487307532467305,1
0.0239107118549629,0.00549529574169005,1
0.0209742550252225,0.0046215405063896,1
0.0167614881044529,0.00381483222671577,1
0.0172880543156211,0.00386985811746496,1
0.0167035255512924,0.00257251850315874,1
0.0178494831961834,0.00260747565095817,1
0.0160628785416723,0.00239227135010915,1
0.0155244948036541,0.0026096079468093,1
0.0176756204056998,0.00302264030376475,1
0.0226363718801507,0.00417688500829547,1
0.0230747063991363,0.00334487717626036,1
0.0239065783883333,0.00359328309562482,1
0.0217886948528466,0.00304176787889365,1
0.0258741708681347,0.00514082192059027,1
0.0293138234174006,0.00930984253194936,1
0.0240384223664744,0.00896293777726719,1
0.025888479586847,0.0075712123563125,1
0.0252210135412305,0.00444865638117467,1
0.0280326058371071,0.00466457866822737,1
0.0282639969507538,0.00484748186409106,1
0.0254840963145354,0.00544455437592053,1
0.0179019381704842,0.00397047796422268,1
0.0170601924305606,0.00460061727129404,1
0.0193893339369606,0.00460758180843394,1
0.0187921417173046,0.00320724723731444,1
0.0188543598013469,0.00298356888026066,1
0.0299271754207367,0.00427323782833762,1
0.106108285115548,0.0103699233618565,1
0.169215182737615,0.0132930165327988,1
0.217970129109507,0.0159616479906235,1
0.284419634256108,0.0203415905802177,1
0.422490274061805,0.0217459342734012,1
0.576132650017156,0.0299318195446999,1
0.576439202378842,0.0201005766985096,1
0.427345838196535,0.016261671641738,1
0.344701450499217,0.0132310681055537,1
0.251837621174432,0.00727790881438675,1
0.238887000230072,0.00606745068724824,1
0.266981343826266,0.0068220003311363,1
0.238475779636246,0.0040055713528933,1
0.247430029647095,0.00389073995254632,1
0.24486426880116,0.0042593776426897,1
0.230075698362356,0.00400716751240282,1
0.215625428139042,0.00477061222076592,1
0.221553314002776,0.0052340810107206,1
0.226050027255156,0.0060742742560487,1
0.219791220848996,0.00537991993342108,1
0.225029167365445,0.00692368776623182,1
0.157252128046459,0.00504453659782666,1
0.184288790539137,0.0107350066283766,1
0.160064262720498,0.00946871682978921,1
0.159674824842673,0.0101552567087882,1
0.151175106666541,0.00985772531161332,1
0.157269105273312,0.00990231512423116,1
0.122264400402868,0.00749509933493476,1
0.0537142641187421,0.00372043811346239,1
0.0417139645883823,0.00547038141640243,1
0.0366697698003244,0.00335151927287184,1
0.132359647699818,0.00634587406584048,1
0.153417448178392,0.00566479042933463,1
0.24680465059034,0.00633534301881338,1
0.390864018568569,0.00896641400973342,1
0.47142831568654,0.0101213971646999,1
0.539606003071226,0.011174092452041,1
0.531434454858813,0.0117293257069778,1
0.421704859429499,0.00978640125254793,1
0.348390197147179,0.00849532121409905,1
0.176388477092034,0.00517355808795583,1
0.14885944939264,0.00600538397234074,1
0.0353123728971745,0.00109689678251032,1
0.00306357672561616,0.0179693920905339,1
0.00354626842109081,0.0196643700659984,1
0.00254767167199032,0.0254565933258175,1
0.00123208029457371,0.0275361861174701,1
0.00127091308445339,0.0306883760133405,1
0.00111665408925129,0.0333197268583784,1
0.00119297726998462,0.0482224461700971,1
0.000926321536173015,0.0999424619916755,1
0.000391221317289442,0.136189009367084,1
0.000282735484630437,0.124393406073025,1
0.000257996292908106,0.127657586526496,1
0.000290788119286633,0.197233170356405,1
0.000165470649249479,0.152052795053447,1
0.000115691270328437,0.127438809350929,1
0.000130465444182563,0.127262259921969,1
0.000118561672175157,0.106434432125363,1
0.000120478894949861,0.0963493341295993,1
0.000121438373073817,0.080956446216917,1
0.000126869321420914,0.059525937666025,1
9.98490350001554e-05,0.0425322313456321,1
9.56327132517638e-05,0.0437858758177139,1
9.78702860020328e-05,0.0444914327286627,1
9.57787940683322e-05,0.0449967418977385,1
9.22071347802651e-05,0.0467769482089406,1
9.64386093542104e-05,0.0482074440073046,1
9.81050620046602e-05,0.0516092036739651,1
9.72329635451302e-05,0.0562542696912482,1
9.83393630783029e-05,0.0642549866114302,1
5.41563104909873e-05,0.0836745588651692,1
2.01462900948285e-05,0.0623466311628119,1
3.81709516612782e-05,0.0754078860869655,1
5.37831575803153e-05,0.0658940613585986,1
8.44889998414077e-05,0.0532719461762632,1
8.52277397427281e-05,0.0499215941042215,1
8.27460335640536e-05,0.0467715286456021,1
9.32207868142835e-05,0.0483315090229596,1
9.38863684250453e-05,0.0480021198093702,1
0.000104939422101084,0.0340918076283072,1
0.000180540941618539,0.0326567901102137,1
0.000179831535704188,0.030875746645639,1
0.000180819575571909,0.0312069702353501,1
0.000247517668007719,0.0271713178155227,1
0.000602661295034695,0.0374438194944393,1
0.000719728554916887,0.0285582308538878,1
0.00219501383944702,0.0301359716420672,1
0.0031017391769748,0.0293380005970156,1
0.00409145156286113,0.0297692501405347,1
0.00665422856938258,0.0341800683455513,1
0.0104217379920885,0.0443888997933232,1
0.0354811160278854,0.016937572197726,1
0.0464363989497194,0.00669886451149604,1
0.0449027008125261,0.00512514855802567,1
0.0599971713712701,0.00630167859757052,1
0.0517580113219309,0.00477167578243374,1
0.04884295867842,0.00398938862180069,1
0.0573510750066687,0.00447250133446925,1
0.0608855264949518,0.00414360206587049,1
0.0522619093992887,0.00339543256533635,1
0.0509622501833798,0.00257529851399781,1
0.0546713926115618,0.00279275304983974,1
0.0500577179739953,0.00375826550393202,1
0.0395875496460935,0.00368388216643215,1
0.0382716556745504,0.00374942098317041,1
0.0278909070233325,0.00314191213416336,1
0.0252011766351875,0.00337941604946037,1
0.0811090862113621,0.00461473605307122,1
0.114127005771179,0.00316932208763524,1
0.109093669553672,0.00313466508695889,1
0.105131465621411,0.00343964122638448,1
0.102735581728384,0.00369820484776822,1
0.0979489070180371,0.00332491482806769,1
0.100997029044046,0.00331321381347016,1
0.107611897205584,0.00300633262576467,1
0.110954463506962,0.00288048189251346,1
0.107534905156135,0.00253741515260855,1
0.0755149494921712,0.00298136356700184,1
0.0375002387096714,0.00353851810502586,1
0.037330152428794,0.00349844769060953,1
0.0572958144404489,0.00280379398080476,1
0.0972195711973799,0.00471499802637006,1
0.13809561122972,0.00468099939098955,1
0.318218605236024,0.00865021034367165,1
0.35545397723748,0.00969999965564688,1
0.521222864694595,0.0119202573310101,1
0.644815309083779,0.0154075262436078,1
0.560606215417473,0.00854609701194266,1
0.475664939076279,0.00653349998400423,1
0.378470380809441,0.00489867139128103,1
0.299614067806665,0.00390581445791312,1
0.275027410189166,0.00351873290388155,1
0.27759081697743,0.00433909209059746,1
0.337441935667835,0.00553302113394086,1
0.359759586083157,0.00425450700755084,1
0.35527966655942,0.00361082618319072,1
0.307844651273267,0.00268553032974413,1
0.419608715297335,0.00396433128253104,1
0.464517708058852,0.00387518123272689,1
0.418985770048102,0.00385771774639356,1
0.406955931268482,0.00399335887276917,1
0.393782144190893,0.00369248811168331,1
0.379562957719755,0.00315856824250777,1
0.303593048811758,0.00230226563809451,1
0.326265516336621,0.00373891032422682,1
0.321538194052132,0.00458971548630452,1
0.314266406373351,0.00519666270052373,1
0.196781036669163,0.00595423392607673,1
0.137094145581406,0.00747967940008306,1
0.170094593289257,0.00820701650482147,1
0.226537357548727,0.0110188273852382,1
0.183189831881442,0.010018701978108,1
0.223500283696384,0.014058457623568,1
0.250994788657713,0.0217451293719332,1
0.283824862646083,0.0309730745730144,1
0.280865843902609,0.0327043697995452,1
0.24174302689909,0.0318949082316474,1
0.153905075965673,0.0227145683965986,1
0.0859564325131747,0.0177104268962769,1
0.0425447700371441,0.0170775665400031,1
0.0374150128198187,0.0174099116962529,1
0.0199546995200543,0.016817693762169,1
0.00459943293261188,0.00995287073506236,1
0.00231101437283811,0.0260594657453706,1
0.00125791486034874,0.0288116221676292,1
0.000819347815147579,0.0851734224126211,1
0.000882632594144123,0.11890199703844,1
0.000727654559390423,0.110764243247897,1
0.000682882262963047,0.129696320897466,1
0.000701640694031106,0.135659037142849,1
0.000671641852792176,0.14627595967773,1
0.000625083974736631,0.175387483810538,1
0.00039050307929041,0.2000579598862,1
0.000331740869288273,0.220949195806653,1
0.0003014760918517,0.203605407418045,1
0.000214684824107834,0.186543033682471,1
0.00017277971135867,0.174990487772363,1
0.000156870910119916,0.165831940809129,1
0.000114389627735932,0.143161851867169,1
4.40332329506424e-05,0.106222604111277,1
4.10651460315487e-05,0.10905533295831,1
5.23484547989585e-05,0.110108654448544,1
4.77372044525136e-05,0.0968238700563548,1
0.000169893859606652,0.0366689880178284,1
0.000316772099173928,0.0283085481388561,1
0.00032534998945993,0.0274318429367691,1
0.000330452762113208,0.0276112430426686,1
0.000319612036043821,0.0273915532100899,1
0.000321466732793976,0.026501751508223,1
0.000323293878739056,0.026369344686296,1
0.000318721535874013,0.0269340855264268,1
0.000304410348375199,0.0260632140527442,1
0.000298688768343928,0.0266767294217435,1
0.000209080581783002,0.0481351707001352,1
4.05764769329836e-05,0.0673925978728161,1
9.99885888551453e-05,0.0318962319633071,1
0.000892348726245903,0.0516942963930198,1
0.00126192591335845,0.0379901720957348,1
0.00471637316604877,0.0162105672497248,1
0.0155338916774957,0.0248957826296792,1
0.016711690109277,0.0126787755103666,1
0.0186439397374061,0.00828858131367104,1
0.02292912166084,0.0076173144611037,1
0.0200022249486197,0.00678074979151888,1
0.017637027413338,0.00549040236630276,1
0.0152905549242313,0.0047665872727627,1
0.0159888851598334,0.00391059981247746,1
0.0283606117317967,0.00624720504721418,1
0.0414801257331894,0.00896200574576754,1
0.0523510925228843,0.0100256616954162,1
0.0471817622145266,0.00928881562978034,1
0.0426136459057112,0.00857715325741635,1
0.0521107603112954,0.0110441339688069,1
0.0390473867657152,0.00565148688562764,1
0.031889779418824,0.00439202479187962,1
0.0272345707068068,0.00361073050924209,1
0.0294681656393643,0.00405418958695175,1
0.0345493782561986,0.00380518698010179,1
0.043529857350621,0.00248427456260918,1
0.0531460724318619,0.00270770562469642,1
0.0476501217469607,0.00258817230469257,1
0.048398866532047,0.0022492592069543,1
0.0670934485038317,0.00292929477276776,1
0.0575457191496001,0.00277847803855187,1
0.057435234706509,0.0030597144215945,1
0.0586229127083331,0.00316025335852811,1
0.0612612601663256,0.00307666625445211,1
0.0668377751891766,0.00355173323117558,1
0.0614422179628797,0.00460329363170621,1
0.0548634829537195,0.00461502066084134,1
0.0566890437817529,0.00411328765336432,1
0.0555848703966564,0.00558922880585444,1
0.0445914954043986,0.0047710662867391,1
0.0785109005836519,0.00865435560161697,1
0.0901661897600814,0.00832221744947577,1
0.0950781328452823,0.00710501850712466,1
0.137538848342602,0.010797545486008,1
0.11302059625125,0.00895671710884786,1
0.117623838448562,0.0103065943167985,1
0.132883933130953,0.00942084557715566,1
0.209868168762406,0.0129085211097874,1
0.241578193741237,0.01455129617576,1
0.273211598466155,0.0120023214455467,1
0.261183245442131,0.0101053947922678,1
0.245913602056811,0.00766844304066278,1
0.172456417142874,0.00472382641622487,1
0.209742680353575,0.00494123948680193,1
0.174672477954894,0.00339279072525863,1
0.148178969008394,0.00263091548039791,1
0.133645236765415,0.00242744702807557,1
0.151973331879576,0.00243619312270333,1
0.157226549596837,0.00205325955908777,1
0.205132685230602,0.00313054207226266,1
0.213847738410146,0.00259223550656595,1
0.241181842784804,0.0033884821364169,1
0.229895394787805,0.00379466037348461,1
0.208212001540295,0.00368749125078336,1
0.208365204637996,0.00469503958143841,1
0.199548963475077,0.00443019117098004,1
0.192323156488619,0.00396452247396504,1
0.224920130569676,0.00518106207497782,1
0.225763440328708,0.00660819774184655,1
0.120615325762825,0.00420219183141791,1
0.0757698039587974,0.00437923066940966,1
0.095861599548796,0.00559559874128034,1
0.0968634903922024,0.00626446165887973,1
0.105427699113474,0.00701266848981338,1
0.211222968694547,0.00836659950682578,1
0.323933270218746,0.0144236881796333,1
0.359787096060518,0.0174512961169789,1
0.439633038730175,0.0201120652022489,1
0.441697336105951,0.0258332010554332,1
0.40532198389599,0.0248402249094577,1
0.343523533239759,0.0209310121417188,1
0.288663925921918,0.0174510104108678,1
0.168098933352222,0.0104997150561196,1
0.0309120635420101,0.00113072597401242,1
0.00140998393361789,0.00960144655741859,1
0.00173050435053848,0.0120400409249501,1
0.0018881100401608,0.0126474824343097,1
0.00221831268879682,0.0144074524961817,1
0.00255719383048008,0.0160037019385235,1
0.00279544624023505,0.0170266295324228,1
0.00277123634660767,0.0166203458149932,1
0.00283078535250114,0.0168583060989167,1
0.0024830210790661,0.0269255926301079,1
0.000308086817256594,0.0223733947882979,1
0.000141232135611315,0.0486094133475468,1
0.000155556733786902,0.0547288899150079,1
0.00015486735320453,0.058819923893168,1
0.00016748316416259,0.064632900689189,1
0.000164623258703653,0.0613427265698401,1
0.000172178861829901,0.083850507893202,1
8.46927018185596e-05,0.121546040708908,1
8.83590446653342e-05,0.0457751715233061,1
0.000115780785942299,0.0300369775062044,1
0.000122829510880864,0.0323198128197906,1
0.000129170904891032,0.0327518329420955,1
0.000129660298634389,0.0333457885255499,1
0.000133977849778299,0.0310688719554418,1
0.000135395283597797,0.0284160699521301,1
0.000136854455714609,0.0292555534527335,1
0.000136928324346989,0.0301590176097485,1
0.000127555676807652,0.0291520339513853,1
9.41874688289605e-05,0.0374332458201336,1
7.92730593839657e-05,0.0738148189432108,1
7.62205538671854e-05,0.064513351098762,1
0.000915121756405382,0.0145404971916995,1
0.00280373561720069,0.0162183580767549,1
0.00277494287939651,0.0138890550672946,1
0.00283030002220843,0.0111320989126996,1
0.00678079059240634,0.0122225847416748,1
0.00846497742643662,0.00826093082790513,1
0.0126534823551237,0.00418867620650112,1
0.0244437362393284,0.00569932252496283,1
0.0225279562944242,0.00483743814007635,1
0.0321733283584427,0.00481799355843038,1
0.0351236630407925,0.00355444284107582,1
0.0349010285577933,0.00299195425238747,1
0.0429885676812379,0.003447331719841,1
0.0362535070930971,0.00215869954622781,1
0.0356386556982755,0.00187311849423897,1
0.0344028442263075,0.00192345188571708,1
0.0307390493708382,0.00210643198564868,1
0.0340136900461573,0.00261822613767915,1
0.0265923528614224,0.00163621813229264,1
0.0243233445976609,0.00204239078413623,1
0.0299221286759868,0.00121316271759555,1
0.197097481260193,0.00702814868341451,1
0.225945469534218,0.00368648867636019,1
0.218566476239402,0.00368735987234671,1
0.219187497716273,0.00364885204624296,1
0.217186209811215,0.00345026543861116,1
0.206433366881976,0.00326863167916764,1
0.206597804825758,0.00314993009622443,1
0.193188550882961,0.0026222917378807,1
0.175007055780055,0.0022171882475756,1
0.160506483780205,0.00262142940160879,1
0.0725312436152182,0.000988721043908109,1
0.0848623844720532,0.00404719186842947,1
0.13105600385388,0.00598067254332233,1
0.139830683460011,0.00668970042019158,1
0.132550189528577,0.00706693864967051,1
0.133104599758894,0.00695610946760125,1
0.134333487064285,0.00673238991380427,1
0.129466369081261,0.00481554902654993,1
0.132028260270898,0.00537915503185384,1
0.129754864558076,0.00257418767282523,1
0.245720053044196,0.00483067898544525,1
0.246227894585287,0.0044467288874208,1
0.243458020480616,0.00442308715156181,1
0.238142917995401,0.00440728827417144,1
0.222202790757018,0.00414279884551535,1
0.221171704719392,0.00400284994970978,1
0.272091210018505,0.00484069556797497,1
0.377890196971205,0.00730128495630155,1
0.281778496559967,0.00367177315750871,1
0.236710241818439,0.00421941331131358,1
0.216845764701304,0.00399367637896452,1
