Activity,Complexity,Tag
3.15898139015958e-07,0.0470447118029605,0
1.34955655998859e-06,0.038340970092042,0
2.58617149537946e-05,0.0808686080970418,0
2.79882893508201e-05,0.0570793840877133,0
2.80595305509171e-05,0.0567465897618091,0
2.80129758623001e-05,0.0558557168498183,0
2.76764774033456e-05,0.0559253361494178,0
2.72094447087876e-05,0.0567423087474861,0
2.70070781656919e-05,0.0572760319524166,0
2.77117522877147e-05,0.0598156339103026,0
2.86572752327701e-05,0.0601543636631193,0
2.89216832335457e-05,0.0741253316730603,0
4.79780095073274e-06,0.0545987730673564,0
4.00444324138185e-07,0.0607973641793134,0
3.95931668361238e-07,0.0604916220556908,0
4.04134288457597e-07,0.0624534769214438,0
4.18299367951095e-07,0.0621443198022916,0
3.91984951598419e-07,0.061494634988766,0
3.37498202981958e-07,0.0588250414629378,0
3.05319204269793e-07,0.0601288984383043,0
1.9940436446344e-07,0.0477169904115155,0
9.03838512963614e-08,0.0345385576585162,0
1.07662119708833e-07,0.0375120627356388,0
1.05050026266544e-07,0.0333878677354179,0
1.2191983282725e-07,0.038198261994217,0
8.4537795661856e-08,0.0321661251665422,0
2.31242366567649e-07,0.0496835009606243,0
2.62683267547677e-07,0.0481094397841873,0
7.70409913532527e-07,0.0758248931209462,0
1.01167331573173e-06,0.0765480513284685,0
1.10477447828586e-06,0.0767131706392877,0
1.16839053280872e-06,0.0731648644649495,0
4.26740615760852e-06,0.0913103935465346,0
2.53521382570177e-05,0.190395143179759,0
4.17804929860775e-05,0.196657729854384,0
0.000105946647047103,0.179523567057575,0
0.000234150567411941,0.204135154849308,0
0.000468799391342133,0.247045704291812,0
0.000556977669412237,0.163736258895413,0
0.000555916208494378,0.128909819592407,0
0.000512527436554742,0.0630897922910906,0
0.000412466772681411,0.0376896061910675,0
0.00035272840277106,0.0242250144254628,0
0.000325461596700016,0.0193747408284128,0
0.000257792722510797,0.0162018586185342,0
0.000247096490000127,0.0153863919786303,0
0.000245639783252293,0.0157365355560886,0
0.000277886509204123,0.0122981307583602,0
0.000505801530496176,0.0148847507807925,1
0.000502472475168909,0.0144477896689071,1
0.000484331885760261,0.0161090026716752,1
0.000426212884621396,0.0175542148236564,1
0.000414775236871354,0.0204225303289666,1
0.000344903709861987,0.0208079886531268,1
0.000357899125197724,0.0217527411522138,1
0.000419870897048283,0.0247866387898593,1
0.000451433578211579,0.0262538603508501,1
0.000404983244693843,0.0393735439762778,1
0.000229383154484912,0.0313533728711639,1
0.000239125502904585,0.0263194404649421,1
0.000241985602777846,0.0260873619794664,1
0.00022829972366771,0.0265819416369671,1
0.000229271040533014,0.0290081109992286,1
0.000238144149972533,0.0289651541209014,1
0.000228592948416174,0.0307543448314745,1
0.000181456239587725,0.0240397155127781,1
0.000379858453821636,0.0211345959221393,1
0.000587118015446835,0.0232482288690578,1
0.000565459781584335,0.0262929126194136,1
0.000574245220463866,0.0304827987497774,1
0.000581520701719326,0.0302164856838732,1
0.000572731947080365,0.0290898825086356,1
0.000574116597452203,0.0286280279177768,1
0.000599304695891484,0.0282220892888635,1
0.000609739266900967,0.0232223451623492,1
0.000590753709570576,0.0236424280278174,1
0.000500260324955281,0.0352619845256445,1
0.000332835564627247,0.0290736332756218,1
0.000436367990646104,0.0353304573310703,1
0.000475036310537035,0.0193881165619042,1
0.000665939687940787,0.0222434032431383,1
0.00069824148807824,0.0199910161488172,1
0.00108660629786464,0.0198211240731016,1
0.00103502360727207,0.0157534023934754,1
0.00103655770102407,0.0164654622346592,1
0.00105651351482693,0.0153794478248453,1
0.00123949923675993,0.0171470888932588,1
0.00114105154102416,0.0180228113275004,1
0.000661247095542165,0.0127372413476252,1
0.000465383775485353,0.0110572690719151,1
0.000503964047290578,0.0116497689555607,1
0.000455001210041582,0.0121253540590085,1
0.000382012268097361,0.0159059972089309,1
0.000373772238698091,0.0214391641173633,1
0.000353260969385737,0.0225294417600537,1
0.000286764546577707,0.022142827989713,1
0.000508930572873543,0.0187364002278059,1
0.000578030659463995,0.0127280336344103,1
0.00101222741302255,0.0097672725222835,1
0.0013125714505652,0.00937152192805115,1
0.00122719264593299,0.00884941768261262,1
0.00295310627825829,0.00781118446645311,1
0.0050692028894648,0.00629847697796613,1
0.00487084966845599,0.00560178319414611,1
0.00564958595920952,0.00270738047389767,1
0.00973200030782049,0.00363610040005931,1
0.00966114188996132,0.00303877480271899,1
0.0101443438851215,0.00272347923873739,1
0.010332028776091,0.00205408535123193,1
0.0106291718893111,0.00215489257516088,1
0.00968849803259936,0.00185424321041162,1
0.00954668208134929,0.0023425179252512,1
0.00875984287364292,0.00246397251603509,1
0.00750940311779312,0.0019175412495305,1
0.0079804595319507,0.00404135622061894,1
0.00428743431163079,0.00235202007733302,1
0.00432242442975009,0.00326104406834154,1
0.00280836601298183,0.00350158500030694,1
0.00245588337735495,0.00558135358552753,1
0.0031973458144328,0.00426837293500587,1
0.00364560920276039,0.00490710541791712,1
0.00413129517503967,0.00508185009082022,1
0.00417350521888352,0.00511040983958892,1
0.00421894944549248,0.00502504331717987,1
0.00377986874520763,0.00384640931417266,1
0.00409109125898422,0.00418129974770532,1
0.00449033299732391,0.00338912062167294,1
0.00590378632964622,0.0044598829392617,1
0.00798994339323125,0.00611858259575553,1
0.0110467035013894,0.0109362510376393,1
0.011070455236124,0.0101438473290695,1
0.00911770392589646,0.00950883197167657,1
0.0107610044902108,0.00530109218579346,1
0.0166642727049617,0.0042538820882429,1
0.0162775525863095,0.00399045695558277,1
0.0114447676976933,0.00292718697302437,1
0.010347075167872,0.00287311940977308,1
0.0115638451743559,0.0032058772048808,1
0.0117312251075251,0.00300027728187158,1
0.0122536601003748,0.00284236708456651,1
0.0122939707093925,0.00306682037114601,1
0.0134049984796043,0.00301809542418908,1
0.0122485905723183,0.00442457419766317,1
0.0052460208825295,0.00393194850493111,1
0.00516940776763755,0.00424377570180213,1
0.00535382469043628,0.00377166863669558,1
0.00554426997446506,0.00331946256051167,1
0.00690665250873219,0.00390985707087277,1
0.00672862302865155,0.00425349040218403,1
0.00753332497697637,0.00420009855031463,1
0.010249831873379,0.00461793303721197,1
0.00939774026088703,0.00443734417847724,1
0.0106240042613719,0.00564098817183097,1
0.0106502010307487,0.003973873941557,1
0.0107729986921401,0.00409192278662366,1
0.0109889867867604,0.00474738211960811,1
0.0108347847003644,0.00554794240829197,1
0.0102941930196055,0.00566527725951519,1
0.0101608719968265,0.0053054715199382,1
0.0087744067274336,0.00491424234625378,1
0.00582239641943928,0.00341172189451638,1
0.00546478573822107,0.00326489301202038,1
0.00579935351737734,0.00328304348613044,1
0.00547156172201727,0.00477553909938169,1
0.00400822774670495,0.00427396458955475,1
0.00392285635538444,0.00389999058882695,1
0.00675690875146345,0.00430282121843706,1
0.0176721822198595,0.00864418600487153,1
0.0224505406599795,0.00679043368563823,1
0.0257583503325386,0.00612705420584441,1
0.0350341512171756,0.0063355193250389,1
0.0337750698067859,0.00522442007117541,1
0.0306841926396643,0.00475558890065789,1
0.0255391726217145,0.00389802258781807,1
0.0202042363524652,0.0030721026492185,1
0.0144776439114233,0.00204044117262586,1
0.0134857030769907,0.0021468028211498,1
0.0125779584082078,0.0020768806703193,1
0.0113258369163381,0.00247031653632566,1
0.00976185128074283,0.00416244047133242,1
0.00321821530181789,0.00150934899341245,1
0.00347784463852601,0.00290090505825751,1
0.00297055097259086,0.00379538925570262,1
0.00439273667800893,0.00479826028503631,1
0.00585994762535396,0.00403074382003843,1
0.00744828513695491,0.00453520427750495,1
0.00837313604756629,0.00382088363785613,1
0.00896901395301456,0.00397585054332108,1
0.010440935674991,0.00379256342059815,1
0.0108917874565353,0.0036156604746098,1
0.0112498060909942,0.00394790375208739,1
0.012019402358131,0.00406679497962528,1
0.0133283072565642,0.00350809203725329,1
0.0116763904284117,0.00349850023641417,1
0.0109814263966342,0.00333718243554298,1
0.01062464207132,0.00311642098421593,1
0.0107985289610127,0.00340808206079244,1
0.0188617028762925,0.00479056967907158,1
0.0173336596651646,0.00414779035209303,1
0.0165074680716303,0.00422789543327087,1
0.0188783190722627,0.00314418065621769,1
0.0199177757841763,0.00249601407747052,1
0.0232513253284102,0.0026115287968605,1
0.0323881954024618,0.00376457266271003,1
0.0359167068157401,0.00349309067276079,1
0.0347164530802865,0.00351487746119652,1
0.0344704568591001,0.00372886631006601,1
0.0276296979121467,0.00310514443616792,1
0.0276419504393684,0.00344799847902923,1
0.0292186102007087,0.00306147740918487,1
0.0269331727540282,0.00415238302283683,1
0.0202822791048119,0.00350241664908594,1
0.0218972684968864,0.00561808554514144,1
0.0136998921628202,0.00341836140943966,1
0.010985686700065,0.00349575946987069,1
0.0116212687264584,0.0030265630744855,1
0.0109179001902607,0.00262942707767282,1
0.0142406039675431,0.00388023768358717,1
0.0121543550507277,0.00356486355086808,1
0.0127143725229535,0.00452919246488495,1
0.0120235945478825,0.00467663254961381,1
0.0137176038043636,0.00393468183883078,1
0.0165315333332579,0.00384555866261137,1
0.0178877262157733,0.00444839814237619,1
0.0178464593828791,0.00468246417647528,1
0.0169117079176765,0.00535358379142118,1
0.0168213922623809,0.00467920298169886,1
0.017809991377421,0.00430027526437086,1
0.0161710067655758,0.00352265855597808,1
0.0153787305898006,0.00304759457613603,1
0.0166392294267856,0.00349534789462225,1
0.0144445508053239,0.00396967227917849,1
0.0217106116729374,0.00298077879830219,1
0.0240426594259877,0.00228043890600235,1
0.0248322664339478,0.00230079374762191,1
0.0247433864725983,0.00217250344770432,1
0.0242398028868112,0.00223263827877991,1
0.0219601543028912,0.00203504005628453,1
0.0353549727489371,0.0020338211713353,1
0.0589218007155286,0.00376762511466328,1
0.0570182813582616,0.00393745034775639,1
0.0482431012015826,0.00329204248516521,1
0.0460477295661253,0.0040346520579032,1
0.0474397299581759,0.00409396094335303,1
0.0750916827037057,0.00596847037959548,1
0.0932372439940831,0.00695575701379651,1
0.116826873214817,0.00859865892267812,1
0.13438464079492,0.00943632921508771,1
0.135803667621194,0.0183006209913371,1
0.114496186292538,0.0163986191132878,1
0.104127169650911,0.0135056892601525,1
0.0596651376719588,0.0104749676715504,1
0.0216968499286362,0.00562816411841301,1
0.00422935754006416,0.00245998343503497,1
0.00372869814053892,0.00390293871537813,1
0.00318135473603105,0.00433523418962234,1
0.00326142302273586,0.00576939019697887,1
0.00287386583553793,0.00674294655110364,1
0.00251317197013098,0.00739676716927877,1
0.00552487501583812,0.0092131351055349,1
0.0067880077471521,0.00762707394938895,1
0.00694898352405029,0.00707429239751836,1
0.0137369659040959,0.00744945809991557,1
0.0206399815621823,0.00677224223013375,1
0.019859510731621,0.00619741347227823,1
0.0181779879073332,0.00566132449926776,1
0.0142874377820709,0.00468222280113959,1
0.011505718761828,0.00405791900241505,1
0.00893943804428068,0.00321263496752209,1
0.0101919339030604,0.00472699065657293,1
0.01090930566299,0.00261141628136885,1
0.0263545638635924,0.00440591390041019,1
0.0274986815132821,0.00266157601674038,1
0.0273452471829338,0.00125041890267439,1
0.0440257636722243,0.00263803645044025,1
0.0444456699558416,0.00212192535063315,1
0.0446661119702285,0.00201353333303101,1
0.0511281697266722,0.00177917600037498,1
0.0785144486738406,0.00300149654801115,1
0.0706635051252676,0.00214867740931625,1
0.0724864440014467,0.00215334756997579,1
0.0716521169160832,0.00180373978162953,1
0.0621015196861122,0.00195840961410138,1
0.052662289462223,0.00214013545159335,1
0.0554958764449481,0.00239206567147487,1
0.0456860189129778,0.00197983730246281,1
0.0423946150355393,0.00151341021992004,1
0.0538785271135766,0.00272921299191658,1
0.0403458390899495,0.00196971588996231,1
0.0395926376158551,0.00252782259584819,1
0.0324159597902239,0.00314115970903257,1
0.0317573069800962,0.0053687852235557,1
0.0314123719707305,0.00575343681502878,1
0.0309413660976535,0.00649717339449589,1
0.0254102545672372,0.00540426749970432,1
0.0232436231894373,0.00597851573794196,1
0.0302143693533105,0.0119027587421489,1
0.034740954734202,0.0171731308649721,1
0.0437446500953914,0.021203545189671,1
0.038303638015837,0.0165582590798526,1
0.032368120321993,0.0149657125006283,1
0.0198218379980808,0.00976043207963044,1
0.0149490027675498,0.00690717625416566,1
0.0142453651801346,0.00629359733120757,1
0.0142855388610992,0.00571799095113785,1
0.0204950147281678,0.00840836603139439,1
0.0237191784143153,0.00932345229927571,1
0.0347782614027276,0.0104197322953562,1
0.0334821490294449,0.00906247525542847,1
0.0330582692191459,0.00980126659654747,1
0.0331337259182362,0.00728736363460916,1
0.0375128834667261,0.00597381942708573,1
0.0341563243702831,0.00629749877135411,1
0.0256859357361973,0.00446536782344011,1
0.0264298777840297,0.00444836877500954,1
0.0281291226056009,0.00470836974098548,1
0.0336831897296643,0.00581678482577078,1
0.0387865683129049,0.00726293928651387,1
0.0457935752826648,0.00889973349778556,1
0.0538148282033449,0.00815918414299498,1
0.0458647686055098,0.00658265202787135,1
0.031577688563662,0.00547261406217591,1
0.0296136247493421,0.00420578662663534,1
0.0378773998231849,0.00493036228782116,1
0.0409785029248747,0.00492314088172718,1
0.0412521505569803,0.00485289252178425,1
0.0405030716338244,0.00460394234007683,1
0.0370033618083049,0.00416081593506083,1
0.0337501522985058,0.00326695430282144,1
0.0338717216756085,0.00385052622181994,1
0.0358096091677638,0.00593355359146584,1
0.0475179070217633,0.00800916146241545,1
0.057919007083602,0.0118241461597355,1
0.0383326618084162,0.0113126202302857,1
0.0249564788533869,0.00796197506022999,1
0.0216994727815614,0.0070568483751641,1
0.0192865403791479,0.00612249732732752,1
0.0137372157142609,0.00534915249826141,1
0.00824882196621945,0.00518941586646596,1
0.008407583185828,0.00454051003348471,1
0.00811102372054936,0.00423142638261698,1
0.00692818185706283,0.00490493329137903,1
0.00557481047259092,0.0030294508543569,1
0.00623552280575194,0.00356356547605475,1
0.00689705323364533,0.00554455505663319,1
0.00711043644206888,0.00673642480864083,1
0.00595235184240165,0.00487748879923067,1
0.00891799685659434,0.0058742616658588,1
0.00841043318286839,0.00513658297559908,1
0.00998129226332015,0.00633974592283363,1
0.0111546024665757,0.00654709314428003,1
0.0105066618404688,0.00637226725466641,1
0.0111621192818446,0.00462929323502116,1
0.0218052761301585,0.00527009659979761,1
0.0187686125240824,0.00349222469440978,1
0.0254167725880607,0.0038547334608283,1
0.0339736680615602,0.00493252298782222,1
0.0365751900442872,0.00563418799522498,1
0.0341571032932268,0.00553126886007057,1
0.0321934074238598,0.00526169227982148,1
0.0293742663060791,0.00489043952022115,1
0.0226038829628415,0.0037102675078364,1
0.0173051533619415,0.00211264440803588,1
0.0224374604500957,0.0038898601892395,1
0.0206289097863146,0.00309634499249833,1
0.0206323323199805,0.00411093340273527,1
0.0162030730950587,0.00350681904257839,1
0.0157514177332475,0.00331410149463817,1
0.0154888437384212,0.00350917224918611,1
0.0766938830877361,0.0046527671277463,1
0.123781397759491,0.00522847549993747,1
0.133475285143505,0.00534706121388014,1
0.129837182811182,0.00584567026006803,1
0.114025211570751,0.00481642359502307,1
0.128570638507381,0.00578849661640375,1
0.136263112192691,0.00566077276249066,1
0.141207112938851,0.00563704128289878,1
0.145742977118842,0.00494709940082837,1
0.148490450944223,0.00457670986584967,1
0.107431864911962,0.00679403364248764,1
0.0674789537791941,0.00548093030574497,1
0.0615907506780041,0.00547479860392244,1
0.0609881504405822,0.00456507886224727,1
0.0612308789762178,0.00508793004462884,1
0.0462777197358205,0.00408466671079213,1
0.0447063273793204,0.00441059429744365,1
0.0422119419741128,0.00444656845333757,1
0.0388887169897198,0.00577307835351984,1
0.0308066190994191,0.00561098826933192,1
0.032344044213667,0.00571511510295327,1
0.0351715862453537,0.0056781180746585,1
0.0279953419856362,0.00440952430477499,1
0.0288587037656826,0.00553530460032539,1
0.0268678910728224,0.00484552557769576,1
0.026906004458399,0.00485499157486913,1
0.0264553419327686,0.00476648232159803,1
0.0314163324119514,0.00526736458395221,1
0.0356894545508061,0.00565738667653288,1
0.0342618478569691,0.00513136996246009,1
0.0358408432021291,0.00546811582521585,1
0.0250915193979657,0.00347493287247496,1
0.025053485737431,0.0033760201318504,1
0.0197815828554559,0.0029530374628908,1
0.0174952509239864,0.00292928818750447,1
0.0170176209747225,0.00302262998191762,1
0.0185178554555956,0.00306539246257871,1
0.0186157569408324,0.00312656246175336,1
0.0278636903592043,0.00581916718152954,1
0.0381630593841496,0.00827020261530839,1
0.0407519999511356,0.0104597301771044,1
0.0320231439709397,0.0149198496608897,1
0.0290900125657652,0.0163763738444557,1
0.0224189963812723,0.0140189729955541,1
0.0201959930085299,0.0128963525872914,1
0.0111882105499122,0.00390971514012293,1
0.0117798867680406,0.00377336721387259,1
0.00965063494517459,0.00341602533063693,1
0.00924918912937951,0.00400306803188539,1
0.00835431654037807,0.00351926230513238,1
0.00849327679325031,0.00412830586855561,1
0.00893063120004258,0.00453842880486933,1
0.00950257351485834,0.00337394799223718,1
0.0100938840028514,0.00363394189222182,1
0.00835818936959039,0.00310352103285737,1
0.00766142482381318,0.00496090779484431,1
0.00396851888921032,0.00366822274059468,1
0.00406811462579408,0.0034998332407471,1
0.00411146992675811,0.00370273574473419,1
0.00405748495578633,0.00393733946958159,1
0.00396692942816593,0.00429415771187175,1
0.00371285622621821,0.00412988658177907,1
0.00692686846554391,0.0015326078382607,1
0.0339103117321462,0.00531606844140126,1
0.0336982599389485,0.00321197042572128,1
0.0337556219316377,0.00341675950241812,1
0.0352023212487488,0.00277388165919172,1
0.046949285117635,0.00388321748601954,1
0.048645146841597,0.00353568329717098,1
0.045530875683809,0.0031386595867558,1
0.0483621337696387,0.0032855346358045,1
0.0412073297950414,0.0027281620432954,1
0.0386104072595058,0.00398303494091566,1
0.0361814595717765,0.00496329226350468,1
0.0295332474050545,0.00725561396773632,1
0.0160246262585504,0.00457009317883952,1
0.0077551118798877,0.00374579390748848,1
0.00851474213314437,0.00429977363186712,1
0.0105310694770228,0.00374498511442378,1
0.0110874442001129,0.00196177677889785,1
0.0121009600119276,0.00163305347867569,1
0.012980299895551,0.00154978781668215,1
0.0134664363561594,0.00197513641413944,1
0.0604874417286828,0.00374758870957126,1
0.115866737367865,0.0061603063561414,1
0.126401665895985,0.00488644201016384,1
0.127816021833569,0.00442845634353886,1
0.127603657650775,0.00411688661902879,1
0.112560212778164,0.00394006605781288,1
0.103270003578409,0.00398891388221636,1
0.0973186270861057,0.00404718348162307,1
0.0860215222302231,0.00363619602617306,1
0.0858107312075766,0.00254441086312126,1
0.0839608400082685,0.00486279848276199,1
0.0739454532940076,0.00428122722839947,1
0.0712123645989467,0.00437651656191184,1
0.0641461380054786,0.00486637804735502,1
0.0690513543134015,0.00605264703067991,1
0.0696317154398135,0.00584054020758484,1
0.0676294738668884,0.00573054677022439,1
0.0696894701901585,0.005777377673225,1
0.0729428352480685,0.0058330845273773,1
0.0769907732809232,0.010108170954969,1
0.0655214023121505,0.00889715014096498,1
0.049655571481408,0.00881394046999097,1
0.0531286977951378,0.00795528125768814,1
0.0597584667272126,0.00757728828064472,1
0.0569914633498686,0.00682624974505975,1
0.0654854391353041,0.00779380827526967,1
0.0732000084625885,0.00787079269118112,1
0.110157097235162,0.0107619004643605,1
0.121971728701642,0.0117394738717485,1
0.0939792941778782,0.00885199706241877,1
0.0677620668122718,0.00499228874423483,1
0.0474859690955931,0.00270041014837174,1
0.0439422722504341,0.00308602039662627,1
0.0548663925063377,0.00396906182766588,1
0.0520654263993972,0.00365614086327635,1
0.0547192268064705,0.00317800022702179,1
0.0575176615466772,0.002829232233419,1
0.0554205492420724,0.00281055405215163,1
0.0554776888331384,0.00294736350046691,1
0.0790552530109905,0.0041798451377513,1
0.0924139330886822,0.00578474703652841,1
0.0936982395938079,0.00658735510186673,1
0.0904925849516818,0.00909625366251504,1
0.0590810243740778,0.00672161639329949,1
0.0524790778538947,0.0064512801882047,1
0.0333204501446829,0.00748413336105479,1
0.00465618653109967,0.004202807557873,1
0.00340794061354366,0.0054476048772517,1
0.00285967845196492,0.00698895766107791,1
0.00508962592559898,0.00857622968225442,1
0.00465375692380111,0.00580602088657226,1
0.00473515496409426,0.00564196005205289,1
0.00551602020835596,0.00447926739745888,1
0.00793777079825711,0.00501282446902914,1
0.00809022741862182,0.00463894705417662,1
0.00967756743404637,0.00493622679794983,1
0.00967962484800425,0.00445025102280285,1
0.00989637929396181,0.0046265562023437,1
0.0144630952600339,0.00355501598899808,1
0.0273325826297379,0.00485025780694565,1
0.0250628539122477,0.00392001736322105,1
0.0352722229542201,0.000742348587449546,1
0.102965236797558,0.00391402721974086,1
0.108786821728266,0.00331272039185584,1
0.1151595730191,0.00330107456490965,1
0.121923084106687,0.00298017015050162,1
0.109686378726271,0.00273880935471736,1
0.0988565363410804,0.00244124471654407,1
0.0910622039548853,0.00234508020249259,1
0.0892426926116168,0.00237718063050922,1
0.0628592158758216,0.00145969467906587,1
0.0576605245810579,0.00347669816153378,1
0.0320996351114673,0.00211321935237231,1
0.0316006442335132,0.00322480183271714,1
0.0288580173120702,0.00440264482018294,1
0.0214113475658844,0.00539808400223584,1
0.0229788900963734,0.00467746196706692,1
0.0364768000883133,0.00675562727181374,1
0.0338151163016087,0.00577651331050011,1
0.0344954823467264,0.0060973702968835,1
0.0364890152759695,0.00380811845569483,1
0.0478821022564205,0.0048993915816875,1
0.0545267041905067,0.00325508785678451,1
0.0556422982482182,0.002727052553289,1
0.0503570940432175,0.00240950945728965,1
0.0497468345801359,0.00220443491744219,1
0.0601811667612576,0.00302364870766117,1
0.122466142750564,0.00482032435651387,1
0.150539543378185,0.00295441216041279,1
0.137956404650882,0.00273457608390993,1
0.141221686354355,0.00338964870705715,1
0.145124907983656,0.0025837540941719,1
0.126958614482109,0.0025880226324008,1
0.101943671033726,0.00210733567547882,1
0.0907676200439294,0.0018758101983338,1
0.0957281459224872,0.0020826679801394,1
0.0976497145047934,0.00195737663506793,1
0.0624492173848024,0.00114119533129398,1
0.0414215317807148,0.00188558504193734,1
0.0400568563097507,0.00160930202341988,1
0.0367482179215772,0.00193288187491022,1
0.03301701966854,0.00328171045657868,1
0.0298115861509164,0.00466385860557264,1
0.0272452714518599,0.00441006166344109,1
0.0287958139177057,0.00476888781251128,1
0.0386775005137679,0.00690544446508212,1
0.0333022497059126,0.00779868594795393,1
0.0244530829782799,0.00673877603486043,1
0.0196906414593249,0.00396904056703792,1
0.0174632751346085,0.00389130520654402,1
0.0194805212301396,0.00351837166875519,1
0.0199038425628008,0.0021083448755774,1
0.0225492332167977,0.00236765807301427,1
0.023352055614541,0.00168253038012435,1
0.0446834403572773,0.00329795224067633,1
0.0553490701867914,0.00399841910801442,1
0.0697707734894992,0.00579454428931972,1
0.0787360459898039,0.00636330833186718,1
0.0931290957588034,0.0079860813857722,1
0.101089552463814,0.0103153022468151,1
0.102666691089959,0.0101654070754762,1
0.0826060166473062,0.0137028317648616,1
0.0340055276611067,0.0073663662866234,1
0.0103779837862555,0.00526177872940435,1
0.00900517938209757,0.00904707969020561,1
0.00485623066322674,0.00618332985012612,1
0.00384110437144861,0.00764940569870041,1
0.00515968822963628,0.00880909086470319,1
0.00515158954446708,0.00561878859190905,1
0.00578816298869805,0.00610532280284549,1
0.00538587733601015,0.00395018312765697,1
0.00635784830237114,0.00561952512628647,1
0.0087041548326031,0.00714405538620537,1
0.0112354334345784,0.00730611958593811,1
0.0103467317863851,0.00557498088159223,1
0.0139615440678626,0.0057253232072042,1
0.014115015999248,0.00483710639160666,1
0.0223436406367533,0.00316887790191772,1
0.0635848018794449,0.00838814939859171,1
0.0705430767425653,0.00324054645632018,1
0.0649203430027446,0.00289390899746824,1
0.0746984744088612,0.00346724957927001,1
0.0725531725247932,0.00304767608534704,1
0.083034147226589,0.00320830710748647,1
0.0700855626947871,0.00237797421054889,1
0.0777458214213614,0.00213942594069175,1
0.0730765440016435,0.00148049266970663,1
0.0799025676745355,0.00205320799462352,1
0.0735556080003445,0.00203146187458563,1
0.0675699474427119,0.00255767573517754,1
0.0714742241943438,0.00284822204841348,1
0.0732762618431875,0.00244673294295079,1
0.0765184667450612,0.00231188720534107,1
0.0825404123841832,0.00264101219807682,1
0.0810715831634156,0.00259950403074686,1
0.0947003174326063,0.0031639967160935,1
0.116774071218232,0.00493915298834061,1
0.0978245056655807,0.0031893073419136,1
0.0965490512191653,0.00242681144314887,1
0.102659744724262,0.00244607000497057,1
0.102530063547341,0.00252590334756263,1
0.0834967839895051,0.00247293054042518,1
0.0723899997908193,0.00233689952652562,1
0.0750470788372821,0.00210809779666878,1
0.0619622041827641,0.00151268203348893,1
0.0658329846289087,0.00212802314215709,1
0.0592717408524817,0.00161526732992878,1
0.044145341475155,0.00152066504249467,1
0.0445831784197629,0.00198520343592955,1
0.0464809385853437,0.00229816525950546,1
0.0402311844792911,0.00194026792593199,1
0.0375020437048805,0.00156715920260527,1
0.0438531591620607,0.00167015660510618,1
0.0513585939460733,0.00235043778065687,1
0.0560403324775444,0.00310960732475908,1
0.055479917033788,0.00204990972025014,1
0.0614738166859193,0.00157795965416265,1
0.0777048553320947,0.00216178649057834,1
0.0743829137219062,0.00219607502510325,1
0.0673940017776966,0.00202716576503069,1
0.071951451400921,0.00219457810828792,1
0.0708071613486945,0.00194489243899001,1
0.069433864248308,0.00165590676683725,1
0.0929754364072229,0.00287208290025377,1
0.10487065649012,0.00331487411506046,1
0.10765088283223,0.00396376622726293,1
0.104542957766734,0.00582952880414804,1
0.0688485085648537,0.00403683933875458,1
0.0659021727651578,0.00377956692143494,1
0.0680098272616437,0.00404810216429533,1
0.0756276091583109,0.00436054011710424,1
0.0501048249868572,0.00358352259693331,1
0.0378709246111559,0.00485960584515171,1
0.0501875292755682,0.00616832714407655,1
0.0596473299766871,0.00714466069708233,1
0.0589812560652456,0.0106279575419622,1
0.0420765777730667,0.0110475082186259,1
0.0302632012293353,0.0108694457221694,1
0.0141823296921744,0.0142207667298556,1
0.0127418495542199,0.0151385363951554,1
0.0104809633887833,0.0173098702167601,1
0.00317628885267068,0.0105077659447389,1
0.00111199303792661,0.00857410131702079,1
0.00109908663528974,0.0091012351338515,1
0.00110783846301976,0.00783139977526735,1
0.00108107780165708,0.00707131385857433,1
0.00200435458733241,0.00784110385184914,1
0.0020687741969537,0.00456710085674561,1
0.00198634138750997,0.00339181722811094,1
0.0029422857384142,0.00531149463832789,1
0.00431789258780162,0.00701851080840611,1
0.00486637872525078,0.00761037015733388,1
0.00498878141609133,0.00737532474823943,1
0.00440901945305389,0.00667694840199918,1
0.00419325223474801,0.00602572131973651,1
0.00453713988657776,0.0048568916554635,1
0.00674896525470696,0.00780124723011374,1
0.00537752808492545,0.0063885129826953,1
0.00754048704601095,0.00447398198401717,1
0.0158238683175773,0.00763050808394929,1
0.0217771716799899,0.00818043614147283,1
0.0346287982505363,0.0108005010195276,1
0.0360952774999092,0.00749986917801377,1
0.0323811809047343,0.00572247913631834,1
0.0239021920350492,0.00457245146489989,1
0.0234615378975893,0.00442506581449733,1
0.0230537725625942,0.00416363342180044,1
0.0163629581835573,0.00316249135321368,1
0.0177793472166759,0.00238051848336991,1
0.0428997148060275,0.00501016629922343,1
0.0655850121298086,0.00562956009379216,1
0.0969440271182539,0.00392644346304368,1
0.104616185270849,0.0041728365575005,1
0.0918818160400175,0.00333944548470571,1
0.0872521444412385,0.00313862248235235,1
0.0869349664984325,0.00303875629472985,1
0.101179172224208,0.00354120850562717,1
0.116087755806868,0.00391471226924036,1
0.109487588926309,0.00339168155004955,1
0.114270373165249,0.00343918793795706,1
0.112801713720942,0.00398669056247244,1
0.100321400018612,0.00665091952988233,1
0.0623718997494203,0.00545495406070936,1
0.0419756944869489,0.00460448815895186,1
0.0412723501962916,0.00380186445079088,1
0.0544021745204776,0.00331320740134577,1
0.0567472984463336,0.00234285635307688,1
0.0532617289758687,0.00220723977456912,1
0.0572212864854079,0.0023627821996752,1
0.0464427552673228,0.00169886742403851,1
0.0470329216690498,0.00187288330671487,1
0.0489905845795876,0.00194665460303309,1
0.0663602330507008,0.00275958754365331,1
0.0684744818888537,0.00275552469001802,1
0.0687051693448773,0.00255240642266241,1
0.0566105284814403,0.0031624659324089,1
0.064540004409794,0.00595246176406102,1
0.0606408647304632,0.0051987735167825,1
0.0610472438993906,0.00699228936459108,1
0.0665340829697894,0.00631954561954557,1
0.0712059252848942,0.00526441033599687,1
0.0769071994393265,0.00543390754531498,1
0.0750632276871765,0.00575108074312877,1
0.0823202245788349,0.00659211020998411,1
0.105797733535651,0.00979396123783692,1
0.1030792634627,0.00943664061918208,1
0.0765332911312715,0.00710953938647661,1
0.0641358857208389,0.00683894209239348,1
0.0655470658026824,0.00844852814392027,1
0.0450977144873112,0.01332151404452,1
0.0227888975597108,0.0128840677935566,1
0.0191387674174552,0.00937004811285369,1
0.0182576931752714,0.00661627374517002,1
0.0204882358321802,0.00717175045081149,1
0.0240278672131831,0.00814306996202234,1
0.0343580135133925,0.00921698734716901,1
0.0380170859863503,0.008124480740592,1
0.0340922647522315,0.00717262949298531,1
0.0305688458887377,0.00641708031691246,1
0.0315700282653749,0.00766115526303422,1
0.0321434545976032,0.00800307310672435,1
0.0239173218414869,0.0094433866270708,1
0.0101620057764658,0.005352334107272,1
0.0165315213153559,0.0073424216844809,1
0.0183477141194858,0.0065291346008298,1
0.0211049852370858,0.0101889521081491,1
0.0214172836935619,0.0100933738847266,1
0.0208205903159615,0.0123529442016274,1
0.0161519792064121,0.0105831635164203,1
0.0117210197274843,0.00805490091469173,1
0.00998203289833971,0.00639064920919266,1
0.0118226692350776,0.00641553304191209,1
0.0140328957873897,0.00774302627021948,1
0.0102588424441267,0.00674570602126419,1
0.0102523108358729,0.00673838329603342,1
0.0153081231608256,0.0101811401643522,1
0.0238473240980175,0.0147789062218532,1
0.0241091897663353,0.0109891457888886,1
0.0386996218668165,0.00587449736209274,1
0.0629723285560981,0.00947813376284654,1
0.0860802429821859,0.0123662558076055,1
0.0743442235908166,0.00998574615389161,1
0.0579535861781129,0.00790333399563238,1
0.0543851054591645,0.00772220264442282,1
0.0515112955704909,0.0063096130054348,1
0.0507469627149859,0.00470030885364701,1
0.0541080943364924,0.00503793887038391,1
0.0433103405315557,0.00442696785541967,1
0.0411255709810361,0.00565534864275953,1
0.0405402608658098,0.00440306090121848,1
0.0400041196663622,0.00411014201280852,1
0.042559604232052,0.00343406094727587,1
0.0616747752099761,0.00423453169567431,1
0.0612173390163901,0.00299999664140083,1
0.113795710326397,0.00526992699661788,1
0.132014617014305,0.00554560973124184,1
0.117316027913831,0.00467350703174847,1
0.102199848975976,0.00420480172998869,1
0.0911717326919487,0.00425123606512152,1
0.0889652473396139,0.00461601721886562,1
0.0666660935239026,0.00335970388972607,1
0.0676258714806702,0.00342868291853574,1
0.0673861417209399,0.00324387301357281,1
0.0642407203482347,0.00402079264353289,1
0.0386451717408163,0.00305639702778243,1
0.0311150438463139,0.00296115173083059,1
0.033327989582656,0.00375074963583328,1
0.0431379948348463,0.00472186618357194,1
0.0536020094161423,0.00223159105450322,1
0.0816792389613164,0.00350837453413298,1
0.081891970123402,0.00331585904835731,1
0.0746305504943776,0.00285038780616141,1
0.128245125393277,0.00583813298890522,1
0.142883050674079,0.00394194662741758,1
0.144092327006397,0.00372087696053179,1
0.171817858515756,0.00434596172027944,1
0.158544536045851,0.00308953980966373,1
0.106108405103602,0.00175648799101453,1
0.100154666127724,0.00222478124731998,1
0.111488951796069,0.0024468324014241,1
0.0938298616131351,0.00227521332732872,1
0.0975431336192615,0.00267266802727127,1
0.156764117884846,0.00443350276199236,1
0.197551898248784,0.00606193511706385,1
0.20852210545205,0.00707300339820048,1
0.197050354263683,0.00804763978073535,1
0.203506517509766,0.00844412136757937,1
0.198338694617633,0.00756335959016102,1
0.139373952451648,0.0079899779009397,1
0.0745792603056417,0.00557191257225573,1
0.0497825381924966,0.00182960470449568,1
0.0504531016923695,0.00191966943389218,1
0.0446887647934942,0.00223013434123324,1
0.0414834152353178,0.00242326254693219,1
0.0618027872163664,0.00301767752886245,1
0.0957647384941285,0.00505952419040745,1
0.108680999480137,0.00629301652588693,1
0.124340711117416,0.00832335529038961,1
0.13310503119455,0.00892437746009749,1
0.137444896692113,0.00824805799337503,1
0.12455037888203,0.0172935919232433,1
0.0760011782116197,0.0117520979189865,1
0.0389894937087173,0.00610594633256988,1
0.00995099415645456,0.00215832782478984,1
0.00940857598180922,0.00520625775893095,1
0.0184581725066352,0.00862339403410674,1
0.02526792464566,0.0102061642517157,1
0.0245740933682599,0.0123417098473083,1
0.0211142688978771,0.0110293463098684,1
0.0217792819445768,0.0112517781418596,1
0.0219407756790679,0.0125071127899702,1
0.0178145578909118,0.00795127573811769,1
0.0153694671746998,0.00651558476244353,1
0.0150172682428325,0.00604976449367847,1
0.0163987294661792,0.00646433252558265,1
0.0127315127244436,0.0047087508400037,1
0.00891686451015455,0.00345385864514206,1
0.008756724257617,0.00310210349762567,1
0.00967363473327535,0.00244893140717973,1
0.00983313601374977,0.00255384870857374,1
0.00757017170434833,0.00176952761851579,1
0.0174374709066841,0.00321638392562369,1
0.0464448043362145,0.00903187298507978,1
0.0930941019746647,0.0115215204487365,1
0.0906263201046165,0.00748387170719968,1
0.0876031605948232,0.00771124547697221,1
0.0853482960519575,0.00743363939881712,1
0.0732282086352765,0.00677442263931017,1
0.0626422509837463,0.00565171857420564,1
0.0638468659873392,0.00508324285096954,1
0.0544125401635059,0.00409671230696274,1
0.0524159835455053,0.00492401622369922,1
0.044474394011179,0.0043294514301559,1
0.0164490283798732,0.00127830831423933,1
0.0227186062129186,0.00429446049484329,1
0.0261333938700364,0.00542146334726488,1
0.0581884917922391,0.00672093313703636,1
0.0738405090247542,0.00345661938058911,1
0.0672305748455204,0.00334621288736269,1
0.0500520529635414,0.00268530155046393,1
0.0501801376520216,0.0029366421074419,1
0.0528010898261378,0.0029730623242535,1
0.046664889633543,0.00241397139115307,1
0.0378250485811191,0.00146906708640427,1
0.0611150241211195,0.00259156440041107,1
0.101477570694855,0.0040693530566019,1
0.0907124278647412,0.00341262276833007,1
0.0941051949744689,0.00520939499581532,1
0.136749761661286,0.00518774698980677,1
0.140677066149632,0.00422885047440985,1
0.144440344260856,0.00342697364645587,1
0.189083487672575,0.0043707515090473,1
0.241772707776591,0.00524355780861028,1
0.295517836165604,0.0059597703681768,1
0.324998634241819,0.00529403977059798,1
0.22180744874871,0.00355248527880281,1
0.171900378685874,0.00283318120334914,1
0.163700519456929,0.00301947366199771,1
0.164550377229481,0.00337964234150512,1
0.130444919011748,0.00314964303896579,1
0.112144433015622,0.00331845282160378,1
0.123016694490434,0.00408076033064077,1
0.122801169784162,0.00324808655536369,1
0.104744850278752,0.00315568950753782,1
0.0503652793964062,0.00135523462133472,1
0.0542833101254468,0.00213137063761311,1
0.059320034448145,0.00235333892417802,1
0.0774032631405256,0.0020815142811922,1
0.0805694502032409,0.00180031433822689,1
0.0831133326583943,0.00151859232930907,1
0.0938841069843925,0.0017811249534941,1
0.0962618732408544,0.00185311160825829,1
0.106464799342605,0.0027504571197241,1
0.0927061214339733,0.0029069608959558,1
0.0993692348937879,0.0039327073001493,1
0.0897321512523897,0.0030314010127674,1
0.0429162198484643,0.00103160647075465,1
0.0420926295301631,0.00258844246077707,1
0.0505046128161461,0.00546132811623257,1
0.0772381286981595,0.0104939011391231,1
0.102343185846204,0.0134473951546256,1
0.108913773826487,0.0138827934643451,1
0.113589831553195,0.0135766348656063,1
0.0955306229951853,0.0127823608217234,1
0.0795145701570719,0.0129135330768468,1
0.0650695183317765,0.0138639166566791,1
0.0299102854467434,0.00846220651088663,1
0.0175153014264824,0.00332563934021307,1
0.0199821526159392,0.0134942756479402,1
0.0194474201220681,0.0124570651328145,1
0.0198980975888031,0.0107834154971055,1
0.0202231171056854,0.0118382995242095,1
0.0197289164440855,0.0110915179891408,1
0.0153541285621091,0.00728857392466023,1
0.011890327051958,0.00620803435702002,1
0.0105986550664172,0.00574403276137704,1
0.00806636111898943,0.0051644222772349,1
0.0089742001692015,0.00364657593680267,1
0.0173444776366103,0.00414756874016337,1
0.0167803999321056,0.0036029248257232,1
0.0292192894316948,0.00268841802707194,1
0.0965979091895579,0.00754418274368647,1
0.145355175861967,0.00845601467380614,1
0.140377724407037,0.00654386434187203,1
0.127980959022244,0.00630305766687821,1
0.114149583496029,0.00579459202287019,1
0.0963098507295161,0.00508921037769506,1
0.0895408996893096,0.00573187307581298,1
0.0900894559035716,0.00565943274841437,1
0.0894881567005178,0.00516253138582977,1
0.0897421468782684,0.00659797552396119,1
0.0661424244529679,0.0062629241485799,1
0.0428168205287232,0.00513096746391178,1
0.0424403503285333,0.00677433573404265,1
0.0436585058774684,0.00606727258677408,1
0.0368948324106523,0.00465390972942046,1
0.0375924651074015,0.00444622674604507,1
0.0500601223133894,0.00533851486446786,1
0.048720981198538,0.00447473656338568,1
0.0397119433478869,0.0045753748674495,1
0.0346602783834295,0.00403735952633782,1
0.0462638050663384,0.00414561431131318,1
0.0873583896859591,0.00810301062672874,1
0.119598357690284,0.0110402802870412,1
0.123949686429045,0.00778685970906081,1
0.122554801567137,0.00769528949360149,1
0.111912892642663,0.00748624866007198,1
0.0796657170865436,0.00536567561639122,1
0.0725020507551733,0.00417932413442405,1
0.0850687467085372,0.00487480010871249,1
0.0720740045820765,0.00452321981236551,1
0.0730366328118627,0.00522525034367489,1
0.0636063991511189,0.00425630333795569,1
0.0488559614817978,0.00289545655543954,1
0.0463047146101179,0.00377301494464885,1
0.0607233581997253,0.00482441826266398,1
0.105470040194279,0.00587289945547772,1
0.0888035802038908,0.00492900436956925,1
0.0944828185061102,0.00592135627255138,1
0.0973199329699315,0.00578745255888459,1
0.102473832035661,0.00498135561533629,1
0.0937976414815979,0.00423821906882873,1
0.0783875250019071,0.00306495185881448,1
0.0786072440589161,0.00245470323336901,1
0.0646581561514521,0.00207309966813739,1
0.0627108181943607,0.00219559901053892,1
0.0497942559685231,0.00172528805292443,1
0.0511260042987616,0.00186068128425251,1
0.0534542164777462,0.00177835950263366,1
0.0498981798189728,0.00160203371862035,1
0.0526651059844426,0.00181568173734778,1
0.0707568408122151,0.00249897505552482,1
0.0701891113753854,0.00266529726390472,1
0.0633184291039296,0.00270669945756416,1
0.0675396756228221,0.0025391435815781,1
0.0597535837744626,0.00202741533419353,1
0.0797739709959905,0.00284178469707905,1
0.114246675099291,0.00423478620417619,1
0.126048928664705,0.00506352683409883,1
0.149263814641859,0.00611043167066915,1
0.193533820215211,0.00850204397242235,1
0.226150107304571,0.0108865566096526,1
0.215152179122883,0.0137379953391571,1
0.147734931941651,0.01193129243053,1
0.126448204281084,0.0129323803520418,1
0.0626496096590855,0.00870738640086726,1
0.0483672233874816,0.0102093736887276,1
0.0455816946706382,0.010511663239223,1
0.0197418515713607,0.0074007979824395,1
0.00519163703553833,0.00836230516979732,1
0.00451093081999978,0.00755116351800377,1
0.00331934697101849,0.00762319617299045,1
0.00359676815408412,0.0134419515389034,1
0.00354386348903033,0.0105693609538329,1
0.00345986535239799,0.00933334572517428,1
0.00349063162418573,0.00935274265233006,1
0.00368782236311398,0.00904821022609663,1
0.00329789115840536,0.00692371897831974,1
0.00671115800333568,0.00889478449944582,1
0.00859322493418555,0.00904045056890004,1
0.00766347969628891,0.00973535288795037,1
0.00794702424580508,0.00956795469595015,1
0.00832793858854465,0.0106625930237726,1
0.0100688042633814,0.0106389691945383,1
0.0187923896916409,0.0134489835112346,1
0.0335541375097132,0.0131822297686961,1
0.0347487722964193,0.0133040031774283,1
0.0311887900195529,0.00766854493879522,1
0.0347194302900353,0.00850463090288332,1
0.0353785678104993,0.0068973216684399,1
0.0483412717230058,0.00503663537948138,1
0.0701053098597393,0.00600860209885705,1
0.0642733320643016,0.00542737021080889,1
0.0614620004427964,0.00539695804643857,1
0.0637250736561325,0.005827916297622,1
0.0678161065242977,0.00670390669355292,1
0.0707400946846522,0.0054108005065451,1
0.071081221159882,0.00531436083205532,1
0.0477757188692725,0.00247560741597562,1
0.0423795854627038,0.00240946412014812,1
0.0481943737191088,0.00106872348039351,1
0.0828655562887979,0.0016761393541922,1
0.101519829548404,0.00147978039543449,1
0.12827218777127,0.0021138034353825,1
0.156962034674067,0.00277481344739621,1
0.172476975390807,0.0030506508748655,1
0.173824285250687,0.00294853907356351,1
0.168852319703917,0.0029442952191964,1
0.160732903215977,0.00286607636614046,1
0.161190055567727,0.00303955854587294,1
0.143445124715549,0.0051860485300394,1
0.0402267417959832,0.00241613551734042,1
0.0387143073270587,0.00679936464662306,1
0.046048384249026,0.00816245287847379,1
0.0474842866464691,0.00693774136379795,1
0.0341168627215216,0.00497966722012398,1
0.0306846777853786,0.00365502851124154,1
0.045776713628737,0.00611149421992422,1
0.0356441357751189,0.00283654761143531,1
0.0368321792996141,0.00235531362217076,1
0.037939568082839,0.00208080790915359,1
0.0471114591088985,0.00283107637481574,1
0.0463423734994755,0.00237356439579215,1
0.0488542431972686,0.00233055720153076,1
0.0529467273933142,0.00234027665887719,1
0.0610559900852085,0.00206108927902762,1
0.0632731807675498,0.00170588155628906,1
0.0591902376329995,0.00143027619544015,1
0.064750469797983,0.00230584224914767,1
0.0655080130452082,0.00250504631318364,1
0.0717632126498378,0.00304298374833892,1
0.0722307892392289,0.00310021857082849,1
0.0707345691985131,0.00364267009899857,1
0.0579850255186533,0.00304862198613357,1
0.0579804649962859,0.0036169029038007,1
0.0258232614077595,0.00296002306338338,1
0.0146908859663022,0.00263063787876148,1
0.0347149935476887,0.0075923404161548,1
0.0362595586474646,0.00718682881487449,1
0.0414044397217935,0.00928548146685168,1
0.0368589760374042,0.0053458212069536,1
0.039101127322761,0.00514631097516298,1
0.0358848103167252,0.00408907017077611,1
0.0407773284847719,0.00446098371725407,1
0.0451276338715638,0.00467399931583165,1
0.0573181629337925,0.00557352788677385,1
0.0562625275228089,0.00717263182230883,1
0.0414106254353927,0.00519803724047517,1
0.0398087862027749,0.00511246649957365,1
0.024185475842584,0.00291339800541376,1
0.0136906907468802,0.00214207650905988,1
0.015909432688159,0.00316423077554633,1
0.0112539231094331,0.00262868347166812,1
0.011081432780699,0.0029956328529994,1
0.00970913728662526,0.00317815836835325,1
0.0130544190762578,0.00224837952520796,1
0.0161336327359755,0.00212381391258893,1
0.0162285664041636,0.00237829965075401,1
0.0163757715198129,0.00223725632655253,1
0.015462085338018,0.00233137645761206,1
0.0147282694296759,0.00293230626271776,1
0.0136115120713871,0.0027094090394533,1
0.0131429979589257,0.00261369619036961,1
0.0147564940492514,0.00289190712711951,1
0.014832024925853,0.00256146880510023,1
0.0116677776932155,0.00499101666363338,1
0.00527907729907178,0.00621903209221492,1
0.00535772857533352,0.00692331078930643,1
0.00427921273048009,0.00884872055523068,1
0.00391867581876814,0.00854841841746504,1
0.00511465922241464,0.010005244347263,1
0.00525215998620946,0.00968346565817555,1
0.00500118616045855,0.00936480113549091,1
0.00585295209829368,0.0129257929094208,1
0.00649346525636021,0.025696494012547,1
0.00543287467020913,0.0250822105893373,1
0.00321343789704355,0.0224647287518193,1
0.001711452384781,0.0290953838456286,1
0.000766086153447028,0.0226040505956756,1
0.000581174835029625,0.0366602183325557,1
0.000586265458908626,0.0432119337257727,1
0.000285864833057539,0.055701284347427,1
2.78483957982717e-05,0.0263849954531686,1
0.000209214300298439,0.0592729738590642,1
0.000269015342973362,0.0472095878462971,1
0.000271455026712952,0.0428132318154785,1
0.00028368830781347,0.0453830279680672,1
0.000299359883929075,0.0461139625873811,1
0.000299563856879051,0.0429187982410364,1
0.000297703099737363,0.043970749103696,1
0.000295882338823648,0.0433077893735641,1
0.000347123549715166,0.0380645325862127,1
0.000478861045070415,0.044020697761719,1
0.000389560357002426,0.0432604018261172,1
0.00037039109460963,0.0482264833849669,1
0.000358759714469456,0.0466625130644526,1
0.000321350004144691,0.0415447547996395,1
0.000282092026312582,0.0389233233555013,1
0.000273475955956366,0.0410809813575092,1
0.000275355883888902,0.0382594247489316,1
0.000272642686962329,0.0350260809525831,1
0.000247582730538983,0.0492379603312103,1
7.26233007720863e-05,0.0337710128946806,1
7.73133008274533e-05,0.0404173798876133,1
7.67043411848898e-05,0.0319963538760292,1
0.000100571438689917,0.0434380258541897,1
0.000108743133837108,0.0485051087898565,1
0.000129360151598304,0.0533981765899709,1
0.000158047345044997,0.0599144803172576,1
0.000139551747231331,0.0687252380980239,1
0.000107974165687296,0.0745561749156037,1
0.000116104180771906,0.0805642275160117,1
0.000113495556196699,0.0883352734378988,1
4.05491362323637e-05,0.0687618106165666,1
1.05177149312605e-05,0.115125611192315,1
1.03627601999829e-05,0.120830784771609,1
5.06400499514902e-06,0.0912904379469006,1
3.65696734831358e-06,0.102402290807856,1
3.44950141155625e-06,0.103469673094115,1
3.59604431056949e-06,0.112467566305376,1
3.72170322101539e-06,0.117922003796932,1
3.86926683770701e-06,0.121434498723386,1
4.00325613273949e-06,0.127709677011226,1
3.8471828067459e-06,0.131532046303506,1
1.07465649033793e-06,0.0785656948646198,1
1.33767323893531e-07,0.0365664454844535,0
1.43062671203084e-07,0.0371600371603584,0
1.52765082121007e-07,0.0390074918607821,0
1.49473092827898e-07,0.0396178288533598,0
1.603003905571e-07,0.0419788347693707,0
1.7382839540375e-07,0.0426555175810107,0
2.06645167884461e-07,0.0463858305073243,0
2.25585598132742e-07,0.0497331970265936,0
2.34307840430768e-07,0.0482474582469049,0
2.64234443814008e-07,0.0537549767656913,0
1.53123032430128e-07,0.0419367332545052,0
1.26836930506201e-07,0.0404377395646662,0
1.36292551464906e-07,0.0410462591596313,0
3.76334413278155e-07,0.060727299065039,0
5.44743042502451e-07,0.0659964823451433,0
5.21986106907511e-07,0.0647256438048066,0
4.78058193288412e-07,0.0618091761032982,0
4.02653548702288e-07,0.0573769858145406,0
3.6725789105992e-07,0.0577632228355547,0
3.83399911933527e-07,0.0574297678003415,0
3.83155044558977e-07,0.0590456261300159,0
3.13982545564804e-07,0.0533562790583365,0
3.58821414755747e-07,0.0579370542006704,0
2.7643429221583e-07,0.0548045995604898,0
1.79478522182532e-07,0.050991464073929,0
1.90372411253421e-07,0.0550463877745142,0
1.33140736072146e-07,0.0451799514660491,0
1.33614915363476e-07,0.0442190211332068,0
1.30605196455733e-07,0.0427851842899711,0
1.33135143098566e-07,0.0410091510753153,0
2.16025808041109e-07,0.0526053260743614,0
2.58725364837698e-07,0.052377811941039,0
3.5225823504003e-07,0.057398014543108,0
3.43479363884506e-07,0.0575454015108413,0
3.28854262314052e-07,0.0562664296988259,0
3.48813662436441e-07,0.0588803694113331,0
3.57794579762543e-07,0.0606786446628651,0
2.97068169995883e-07,0.0534536659784422,0
3.08182107621061e-07,0.0544525831139479,0
3.09677528932017e-07,0.055448849440128,0
2.46160749690205e-07,0.0494484279807646,0
1.94469089620354e-07,0.0497931429184293,0
1.09874839881425e-07,0.0403335087492688,0
1.08483587703397e-07,0.040094110921024,0
1.35308887236522e-07,0.0397707051207526,0
1.58307893719221e-07,0.0411294043328607,0
3.56798156563179e-07,0.057480987356599,0
5.03427921447339e-07,0.0626205253039948,0
4.98375893280771e-07,0.0647295446679067,0
5.39922074056907e-07,0.0649284138926437,0
5.80652729372907e-07,0.0657637917716894,0
5.76461669576812e-07,0.0640287814603517,0
6.07836153995576e-07,0.064008961402578,0
5.9902285109645e-07,0.06426354426019,0
5.28555054377233e-07,0.0634319261544705,0
5.26662357161671e-07,0.0622093782566466,0
3.35347704640444e-07,0.0531909787033651,0
1.35906461507461e-07,0.036853860503966,0
2.91775818745799e-07,0.0493972492524707,0
3.83862031375576e-07,0.0576926039386317,0
2.99973544990274e-07,0.0493401193357836,0
3.40963224895199e-07,0.0533533552890736,0
3.32861103542856e-07,0.0534288466319554,0
3.38844187030072e-07,0.0531847262873212,0
3.37074535233272e-07,0.0530549139388381,0
3.56657807882405e-07,0.0531797009164672,0
3.74400642662866e-07,0.0519563459699296,0
4.4955360343789e-07,0.0567213232746434,0
3.05688165745649e-07,0.0492608160065537,0
1.29778834609286e-07,0.0343998970545074,0
1.67083094485834e-07,0.03992008590825,0
1.9941275392381e-07,0.0424789936217764,0
1.8424093918591e-07,0.0420985816432569,0
1.91176401205547e-07,0.0422308889506769,0
1.98617852553752e-07,0.044432959997769,0
3.03196496015755e-07,0.0526667734956275,0
5.87109293029756e-07,0.0733079293375769,0
4.6304927390603e-07,0.0615383355978394,0
5.34407402107016e-07,0.0653819879775206,0
5.36227740226885e-07,0.0624126951272885,0
5.49199418982749e-07,0.0632757254434152,0
5.58886274442902e-07,0.0668829589956356,0
5.90518909548472e-07,0.0679470110499157,0
5.94197513140297e-07,0.0698981082902759,0
6.06804250370064e-07,0.0689268547510038,0
5.4539969255683e-07,0.0697104955992561,0
1.7578855786312e-07,0.0412564398533944,0
1.04026512101402e-07,0.0361168313508626,0
9.12283903069435e-08,0.0343277937592922,0
5.83081478150027e-08,0.0290460578086294,0
5.16091637095453e-08,0.0275562897195846,0
1.20675396205698e-07,0.0380583495747459,0
1.44531700669958e-07,0.0399628190291673,0
1.27955525222203e-07,0.0383539877948096,0
1.30604322553611e-07,0.0387215786192793,0
1.25045780717203e-07,0.0375836733738327,0
1.03283520517382e-07,0.0331585537715282,0
1.22068920529242e-07,0.0346959231451139,0
1.48124312292994e-07,0.0375722413150143,0
1.75444589987949e-07,0.0414088905609078,0
1.7061505730161e-07,0.0425603225896702,0
1.36605583204962e-07,0.0389313553807087,0
1.0817649849777e-07,0.0360712582251402,0
1.10561377388371e-07,0.0357672635201554,0
1.01785127939213e-07,0.0350298358879213,0
9.4273939201684e-08,0.033810189855877,0
8.91284035080739e-08,0.0357696406749055,0
6.98613086466359e-08,0.032050197511277,0
7.36952920357328e-08,0.0328178195141047,0
8.72783527160612e-08,0.0362264080671134,0
1.14678330284532e-07,0.0385496979692986,0
1.71981141098528e-07,0.0468793920395357,0
1.923649080913e-07,0.0485042943597823,0
1.9937639959554e-07,0.0494091701443144,0
2.0644941380916e-07,0.0475705211590493,0
2.16042586961849e-07,0.0478368334211126,0
2.27071930861629e-07,0.0460454550835139,0
2.28626777516872e-07,0.0483835370731415,0
2.28737413525502e-07,0.0500532389579304,0
1.97009697869074e-07,0.0460739988158018,0
1.71531780627458e-07,0.046010405117469,0
1.16545159997284e-07,0.0381993286058848,0
7.40929175011868e-08,0.0336937620126014,0
9.61264369196375e-08,0.03713300224703,0
1.07151760869657e-07,0.0398491212171196,0
2.02607040959693e-07,0.0499249631934831,0
3.59748450126634e-07,0.0639711693837607,0
3.56011120312216e-07,0.05812107488143,0
5.27943322891919e-07,0.0618319796412264,0
8.52110498565498e-07,0.0724305460205127,0
8.24119937943064e-07,0.0688675269056363,0
7.4959129284391e-07,0.0668085147766821,0
6.68306685220951e-07,0.061833901034309,0
6.47451011082366e-07,0.0637755252285485,0
6.37684280968272e-07,0.0620470306911083,0
6.18281032156247e-07,0.0636901571149504,0
5.59826068784766e-07,0.0620354674657796,0
5.86315615122668e-07,0.0668913269507058,0
4.67028674608207e-07,0.0664912252163972,0
6.12654325954331e-08,0.0284497788065077,0
5.78881504552287e-08,0.0289159777321792,0
7.34371413489306e-08,0.0301778282835165,0
7.2531079628969e-08,0.0283917323628701,0
7.00324186820992e-08,0.0265503611245516,0
5.95429715132145e-08,0.0264843679407613,0
5.18888123885461e-08,0.0254469806757116,0
3.58243940233611e-08,0.0228012507012044,0
2.73230741817455e-08,0.0202303523527999,0
2.57136960340975e-08,0.0211243772863824,0
9.02286462795166e-08,0.0332053892523719,0
1.68943632103309e-07,0.0427163765461657,0
1.49108675643075e-07,0.0398914663003878,0
1.63295253128772e-07,0.043158942665976,0
1.42487993167738e-07,0.0419325031664133,0
1.45799208307529e-07,0.0408447624887046,0
1.43846561406407e-07,0.0385043689264266,0
1.70884393935573e-07,0.0418875274147303,0
1.6525139563838e-07,0.0408606322272026,0
1.76953469391581e-07,0.0419224519157108,0
1.66068144561486e-07,0.0400153773958828,0
1.15046243077842e-07,0.0329458074775439,0
1.179958375196e-07,0.0350137938870965,0
9.45053484835565e-08,0.0312356549505531,0
9.53610734412982e-08,0.0308605101583061,0
8.79748527071969e-08,0.0299694011486519,0
8.07368457729659e-08,0.0298333806169381,0
6.69536615067279e-08,0.0269100864505574,0
6.54316735712677e-08,0.027603074528044,0
7.13294642113884e-08,0.0281710504531932,0
2.40171024546862e-08,0.0187814931261247,0
7.22612186537335e-08,0.0312098501397074,0
8.77315583564663e-08,0.0333728345797884,0
9.14423215463786e-08,0.0354440671996946,0
8.67450976412921e-08,0.0345982544053837,0
8.94596124122652e-08,0.0350892906179485,0
9.42905433419991e-08,0.0368045013658801,0
8.22530659544217e-08,0.0330603737827705,0
8.0964060324654e-08,0.0321614733000536,0
1.03688137199812e-07,0.0360503547737341,0
9.24938005794207e-08,0.0356674469803444,0
9.33327466164223e-08,0.0366320614047886,0
8.50271808501069e-08,0.0343195064528639,0
1.10968965338014e-07,0.0372655080199224,0
1.09594317300302e-07,0.0370004831284443,0
1.22495384764718e-07,0.0406188703113906,0
1.08535847050285e-07,0.0375807549690766,0
1.08030556843416e-07,0.0400158740294575,0
1.10515235356336e-07,0.0423957336895562,0
1.09628049922207e-07,0.0471197701490281,0
1.23498624400632e-07,0.0505695160838297,0
1.26125923739842e-07,0.0468676981796844,0
1.55366688737834e-07,0.0486787055216183,0
1.12220393176542e-07,0.0412142516250028,0
1.27773753580853e-07,0.0433050789833891,0
1.26471988980106e-07,0.0421358971113804,0
1.19781394335018e-07,0.0420020134475977,0
1.62752734691511e-07,0.0447360114739235,0
1.70013288300486e-07,0.0432304656860467,0
1.70272662450259e-07,0.040813162609447,0
2.30462671094511e-07,0.0457280706944485,0
2.28565254807492e-07,0.0461632512715323,0
2.0597401105486e-07,0.0438260507358896,0
2.20779835584118e-07,0.044692976506806,0
2.01977831431942e-07,0.0415965678183778,0
2.06822570015202e-07,0.0409032349928888,0
2.04191250726231e-07,0.0406590533814657,0
1.61319535211633e-07,0.03771950899431,0
1.55308661636941e-07,0.0369945899740729,0
1.76578041040023e-07,0.0388513732237128,0
1.13641008465864e-07,0.0317991359464647,0
7.40034299239067e-08,0.0272361805965083,0
7.1046145143476e-08,0.0278697429389908,0
6.73687650146194e-08,0.0284856304893237,0
6.73969046629437e-08,0.0309298211577817,0
1.44006485494711e-07,0.0439412651501765,0
1.53807647352406e-07,0.0435110241388401,0
1.55771305420263e-07,0.0421780322316226,0
1.911617196499e-07,0.0457957965715969,0
1.86173311557804e-07,0.0444398128914835,0
1.77788220698398e-07,0.0434304638490959,0
1.90455606735424e-07,0.0424612864818766,0
1.89505325568095e-07,0.0414156592249987,0
1.89109622687309e-07,0.0420036731740425,0
2.03891851859277e-07,0.0429517861418437,0
1.24402588755502e-07,0.0337344961909526,0
1.13656214362785e-07,0.0317711298590149,0
2.00675892050771e-07,0.0401225862996667,0
2.34312209941377e-07,0.0427801847350432,0
6.83314555920787e-07,0.0681850199078127,0
1.01316873704269e-06,0.0762914754815627,0
1.01540592647469e-06,0.0773882290741602,0
9.45948011047517e-07,0.0775444560329468,0
9.53287390627885e-07,0.0749117116902903,0
1.002254748223e-06,0.0775962579008203,0
1.01885242166295e-06,0.081354237343442,0
9.50651701828305e-07,0.0777178859367248,0
9.70842336452141e-07,0.0812127408993793,0
9.77036554692006e-07,0.0830284109723042,0
5.79977377813121e-07,0.0718003503879993,0
1.36864433013462e-07,0.0404224718160304,0
9.83035018856566e-08,0.03516394931382,0
8.79203212147916e-08,0.0321430649113715,0
7.12684658432815e-08,0.0304070084944245,0
5.78357163279162e-08,0.0277507807523865,0
1.03238077607045e-07,0.0346380830197051,0
1.02103927433274e-07,0.0372866690462998,0
9.69515753031133e-08,0.0372007279503384,0
9.71709247357041e-08,0.0372395862443934,0
9.40290718271337e-08,0.0359021637670113,0
7.72823106851877e-08,0.0328237979640844,0
8.00992467848447e-08,0.0326651133601127,0
1.2886298518556e-07,0.0380042405533936,0
2.06206818580128e-07,0.0428749388234022,0
2.22427840205553e-07,0.0449229092819979,0
2.25835359359174e-07,0.046606421631612,0
2.34185668914129e-07,0.0470682568139131,0
2.32143359655304e-07,0.0465122654146951,0
2.73640601912614e-07,0.0491105585270032,0
2.6713667276076e-07,0.0491792281229891,0
2.63010456502108e-07,0.0477959955724798,0
2.80891892159098e-07,0.0504288020550509,0
2.19448707872076e-07,0.0475746847900966,0
9.77555652552399e-08,0.0350521767568222,0
9.89229237096426e-08,0.0352463983450201,0
1.04100793781762e-07,0.0329609961237219,0
1.13033996052009e-07,0.0316775736235174,0
1.13556414740467e-07,0.032230318913351,0
6.52769928956955e-08,0.0266002453083071,0
8.84132020115302e-08,0.0310753655516501,0
1.13231148370704e-07,0.0355413281131287,0
9.15122337161288e-08,0.0319053730487877,0
1.03099476730516e-07,0.0352654504247425,0
1.2166255604257e-07,0.0359646817818664,0
1.67126440031079e-07,0.0417815212377935,0
1.16909402401683e-07,0.0381594647141432,0
1.25139987365941e-07,0.0428796900456205,0
1.78126595599988e-07,0.0486602123503699,0
1.7883533022083e-07,0.046826759622274,0
2.03452279091973e-07,0.0481928660946565,0
3.3053512565527e-07,0.0583004082923644,0
3.29824643230184e-07,0.0555185575790105,0
3.09834132192256e-07,0.0530234062670764,0
2.56651944663333e-07,0.0499100928820679,0
1.38405122454331e-07,0.0354768599816712,0
2.32280387508014e-07,0.0433775405366712,0
2.67875469614595e-07,0.0459960330952138,0
2.52380136311176e-07,0.0458277700602813,0
2.49744622292021e-07,0.0458854444214271,0
2.47029058838502e-07,0.0473038307784326,0
1.57930368002571e-07,0.0403204623507252,0
1.47962116059173e-07,0.0403973937413387,0
1.58981847035613e-07,0.0388582129105582,0
2.99706480501829e-07,0.0525014382992027,0
2.98511856301223e-07,0.0512806055371567,0
2.25496110555461e-07,0.0458853924837069,0
2.2514654970671e-07,0.0458166338324768,0
2.51084838586131e-07,0.0484239000943818,0
3.02367337682518e-07,0.0531719376294306,0
2.92044106697215e-07,0.052198555364847,0
2.91985380474625e-07,0.0529909729334413,0
3.05618428356323e-07,0.0526331578260332,0
3.21694731790367e-07,0.0566373477520463,0
1.07927785953884e-07,0.0341538788412832,0
8.50901018028822e-08,0.0342957730094501,0
8.58474253817004e-08,0.0351830380801063,0
9.98569502975044e-08,0.03862205878943,0
1.04364887002993e-07,0.0385213895546248,0
1.09607076271282e-07,0.0368218382973183,0
1.62028444612899e-07,0.0422247351503249,0
1.75620943436144e-07,0.0417772317949778,0
1.72551624403689e-07,0.0407570747996707,0
1.74767315843495e-07,0.0403849177747948,0
2.04721884094635e-07,0.0437249102493637,0
2.10820147881514e-07,0.0430521870248277,0
2.12956838569503e-07,0.0432697759019234,0
2.06622621209717e-07,0.0426119696849589,0
2.23371654497179e-07,0.0449546968406064,0
1.83731454248856e-07,0.0421040313649961,0
1.0812056876197e-07,0.0347545425368223,0
1.02408220152111e-07,0.0354963354890607,0
9.96542050052291e-08,0.0369182270192636,0
9.61510809594744e-08,0.0355856682009476,0
8.6068872179384e-08,0.0324318059094539,0
8.13721726155701e-08,0.0322350153600548,0
1.0285478413639e-07,0.0345776286558501,0
1.02824896683822e-07,0.0345729107026317,0
8.91701760294996e-08,0.031469171224123,0
8.85705043934677e-08,0.0328617615991603,0
8.86220646186588e-08,0.0316856975656811,0
8.95197368782498e-08,0.0312519601985047,0
7.70376180910624e-08,0.0282142909856735,0
8.67828502129572e-08,0.0300361010667604,0
7.52753070720859e-08,0.0288968189145215,0
7.50348092081454e-08,0.0280965024429862,0
7.80759885922761e-08,0.0293554383664858,0
7.74817351494e-08,0.029253500793775,0
8.32318363309236e-08,0.029700965024586,0
1.03043546994715e-07,0.0312504915930153,0
1.03854528163817e-07,0.0313670340547263,0
1.00902312015693e-07,0.0314359147809587,0
9.39921931575905e-08,0.0309004973019474,0
8.71245459426109e-08,0.0298266244383481,0
8.43855619122253e-08,0.03096034473093,0
8.69065947534151e-08,0.0332603589242223,0
6.3918774217875e-08,0.028375285328386,0
1.00477770364886e-07,0.0345285991699069,0
9.98415696201594e-08,0.0337811143790929,0
1.03754029419801e-07,0.0337970061527247,0
1.63356775838152e-07,0.0432045787236113,0
1.65210846579925e-07,0.0418938243415545,0
1.63266763919598e-07,0.0431929574484624,0
1.61704052145258e-07,0.0422072130690409,0
1.85793863256485e-07,0.0443830424238446,0
1.79881391060717e-07,0.0422741690327277,0
1.83188236689897e-07,0.0419793800781872,0
2.20805877867349e-07,0.0434936416811788,0
2.18524468987979e-07,0.0426251902453079,0
1.98838600229737e-07,0.0424782163387667,0
1.30317158316363e-07,0.0355487638139435,0
1.32463986268965e-07,0.0369962988970651,0
1.162261857228e-07,0.0341784214693067,0
1.12144888033211e-07,0.0341556265265708,0
1.05320062022204e-07,0.0331525529540496,0
1.00027710772119e-07,0.0335042138077723,0
8.70490407992809e-08,0.032284957537485,0
4.55220858698259e-08,0.0280792980703217,0
4.20180879219495e-08,0.0312137658881192,0
4.75542578640378e-08,0.0338751834783102,0
4.46543010628026e-08,0.0310148376491731,0
5.57269905078279e-08,0.0335270849494935,0
9.11598763805883e-08,0.0447102878085895,0
1.69960854173173e-07,0.0579387579021875,0
1.86190964380666e-07,0.0588546680499502,0
1.89249621807234e-07,0.0548026119688489,0
1.63858919997382e-07,0.0499060739943919,0
1.62735431429498e-07,0.0466140607670712,0
1.52443486140156e-07,0.0417374414481905,0
1.24633298915677e-07,0.0341009147225791,0
1.56631225108189e-07,0.037149330872052,0
2.2479978534475e-07,0.0421711890997453,0
2.91324011348788e-07,0.0480726272207104,0
3.16039536379278e-07,0.0507914139236983,0
3.36435712782181e-07,0.0545173921765666,0
3.75246579916842e-07,0.0580013041469102,0
4.0326877579609e-07,0.0581190019384601,0
4.44331164357555e-07,0.0610620546335506,0
4.1462810513709e-07,0.0581917270924983,0
3.69187466945025e-07,0.0588906934669933,0
1.63051434436768e-07,0.0409554900775758,0
1.53260235063262e-07,0.0411176344520162,0
1.60568154167243e-07,0.0406270867431573,0
1.52417793417774e-07,0.0390504882143209,0
1.5460517042883e-07,0.0374522418408735,0
1.30970837103526e-07,0.0335399365893896,0
1.33084806336346e-07,0.0353715680759636,0
7.28423635647814e-08,0.0272515027575737,0
7.2971701078819e-08,0.0295197364320888,0
7.71103267476022e-08,0.0297114759542809,0
9.30364937971061e-08,0.0312920646165899,0
1.07189338660898e-07,0.0320903470687024,0
1.72950997673386e-07,0.0402162294150501,0
1.6775564955883e-07,0.0390077729363313,0
1.47270859480769e-07,0.0382967732810466,0
1.56274673042464e-07,0.0401635001789727,0
1.62425021395807e-07,0.0438593569293351,0
1.84495419483801e-07,0.0475483523067427,0
1.6420358699425e-07,0.0432662905361245,0
1.55965836032593e-07,0.0414211668163073,0
1.05828323496287e-07,0.0372146963134305,0
8.74400246086083e-08,0.0337373578563946,0
1.41763178747853e-07,0.0436080332629035,0
1.46643048196413e-07,0.0452232439477177,0
1.8711992233622e-07,0.0498453080050891,0
1.84866827885598e-07,0.0517870492766058,0
1.45589297017854e-07,0.0441285093019535,0
1.09423906386537e-07,0.0385260859864543,0
1.07203321094848e-07,0.0381447911520843,0
8.85341500651978e-08,0.037362308542486,0
7.33541206473523e-08,0.0328507136764079,0
7.0899329587001e-08,0.0365635017236831,0
5.30012897896947e-08,0.0306643694631358,0
1.86149017078816e-07,0.0533292774539931,0
1.76264834519543e-07,0.0483954177177051,0
1.74284921872218e-07,0.0462402490031406,0
1.77574114678538e-07,0.0445572683379419,0
2.41085126166345e-07,0.0501350138164354,0
2.42203720882347e-07,0.04979676498823,0
2.52380136311176e-07,0.0485491266229039,0
2.59683161563274e-07,0.0485519474427243,0
2.24174770547184e-07,0.0437663644931878,0
2.26213584197522e-07,0.0439852575290497,0
1.72190877607778e-07,0.0407763086897353,0
1.59359197971839e-07,0.0404985569453318,0
1.45824201908214e-07,0.0394292485506846,0
1.46218506545605e-07,0.039513587590215,0
1.06739978189829e-07,0.0358668573593273,0
1.23478874212678e-07,0.0384304226017181,0
1.39853702611553e-07,0.0424757222316114,0
5.88676199534281e-08,0.0297794401094473,0
6.49456092110799e-08,0.0304002807153662,0
9.30111506355719e-08,0.0349743973148705,0
1.16610702656425e-07,0.0381132316293063,0
1.69481081908263e-07,0.0465541547190384,0
2.35150981197954e-07,0.0536079565472227,0
2.40420960553719e-07,0.0522176121194459,0
2.39450579637587e-07,0.0521126202370399,0
2.25726296374363e-07,0.0506642381976909,0
1.98547765603577e-07,0.0451074057103779,0
2.03371705316335e-07,0.0449116803705138,0
1.77511368506187e-07,0.0458648323247676,0
1.13136242600268e-07,0.0391215988583107,0
1.12503537464029e-07,0.0390316996866009,0
8.43769976714307e-08,0.034932819468039,0
2.99127957297146e-08,0.0230563392880274,0
2.01845173089842e-08,0.021556784113361,0
1.75773177185775e-08,0.0201473859710696,0
1.63008962793644e-08,0.0202495678346704,0
1.01302733967937e-08,0.0196928773640149,0
0,0.0162106500322085,0
2.66802317808923e-09,0.0164298286622135,0
2.39099620545444e-09,0.0168474300981106,0
7.28362462499278e-09,0.0174149244253477,0
4.12469566896056e-08,0.0263380431701795,0
4.67902926290933e-08,0.0264630344491999,0
4.96538951020585e-08,0.0271173576864093,0
1.05949096769531e-07,0.0371823366793305,0
1.21490746885409e-07,0.0413699648030887,0
1.3156858615489e-07,0.043911328954615,0
1.44284735930316e-07,0.0459388101640198,0
1.53988545091634e-07,0.0484341101887172,0
1.82870660658807e-07,0.049419996241382,0
2.24345531021799e-07,0.0533917147734505,0
1.41326227686915e-07,0.045435924373997,0
1.87820617057541e-07,0.0533617677758759,0
2.09142255807511e-07,0.0526249481973435,0
1.95738869403441e-07,0.0544066502370607,0
1.97184478293449e-07,0.0533675889014023,0
2.13338384235914e-07,0.0501493551463342,0
2.15817644555678e-07,0.0504368111425361,0
2.27945832983505e-07,0.04999485513783,0
1.8934452757767e-07,0.0458373925760166,0
1.28617418689313e-07,0.0370960684505333,0
1.45698534783088e-07,0.0394127359077299,0
1.11582095066723e-07,0.0346975983387444,0
9.71149949999042e-08,0.0343148194292457,0
8.43233400811474e-08,0.0309498539335658,0
6.65167104457897e-08,0.0268316688980304,0
1.13661282995092e-07,0.03627925571095,0
1.37955761983262e-07,0.0359951322253182,0
1.48068382557193e-07,0.0366667693634368,0
1.41986897691054e-07,0.038323093250152,0
1.32122290539311e-07,0.0382664888165643,0
1.47808309285723e-07,0.0393364299303777,0
1.41907722158812e-07,0.0410590104895334,0
1.51506663065505e-07,0.0423800513765049,0
1.51710282259902e-07,0.0432225460658149,0
1.5108946219252e-07,0.045878008701066,0
1.5698078595694e-07,0.0439441550930411,0
1.20735695452107e-07,0.0404640914725354,0
1.09636264602152e-07,0.0403368017695602,0
1.16335423488034e-07,0.0369762003930699,0
1.29534142015161e-07,0.040106753956367,0
1.35071884981069e-07,0.0425690795469907,0
1.67241270769893e-07,0.0462238638301246,0
1.53223880734992e-07,0.042612417336799,0
1.48721537003084e-07,0.0412275270918013,0
1.52024013121655e-07,0.040225183297957,0
1.39927984291912e-07,0.0387328531458387,0
1.88097469249752e-07,0.0462967312147417,0
1.1151567850546e-07,0.0352873928742518,0
8.26921143804526e-08,0.0331404274813432,0
1.03952405201467e-07,0.0354236743693839,0
1.1291741750895e-07,0.0351580833927293,0
9.51023984132224e-08,0.0333337829665033,0
1.04623562031068e-07,0.0348454857296588,0
1.08729678540918e-07,0.0354940293774472,0
1.09928672252132e-07,0.0363456044968196,0
1.19765314535976e-07,0.0404055068091915,0
7.11994275756533e-08,0.030984280555846,0
9.59986724294191e-08,0.0362845534164932,0
1.09616689194622e-07,0.0352997963168341,0
1.08384836763625e-07,0.0354408299502322,0
1.09372870502619e-07,0.03559306397444,0
1.26003577442779e-07,0.0367723164278588,0
1.31520171977338e-07,0.0381607180150728,0
1.24662662026972e-07,0.0365535355047819,0
1.26153888607742e-07,0.036762858875025,0
1.12765533320168e-07,0.0336793932189098,0
1.50144249657499e-07,0.0393370576168846,0
1.26135536663183e-07,0.0355482871558933,0
1.44037421629825e-07,0.0399417946911227,0
1.90340251655336e-07,0.0474627479829773,0
2.2487406702511e-07,0.0535560692973477,0
2.32772569183055e-07,0.0538323902883361,0
3.6007983381125e-07,0.0640916543192023,0
3.90631451992056e-07,0.0679347691627066,0
3.89942117998321e-07,0.0643134056657015,0
3.4118537081458e-07,0.0628050186892567,0
2.02910459776409e-07,0.0518651133488825,0
2.2479978534475e-07,0.0557299480474994,0
2.52586551992363e-07,0.0577889202693837,0
2.54674129381102e-07,0.0593572344441521,0
2.656146848253e-07,0.0606086509542702,0
3.10201870205142e-07,0.0669751723612457,0
1.99970653038416e-07,0.0614230666583082,0
9.2634498821043e-08,0.0412468079565823,0
4.65987332839778e-08,0.0347325581816191,0
4.32247719718366e-08,0.0337243489439773,0
5.13518869248647e-08,0.032808095795162,0
4.82366006407991e-08,0.0319851633490506,0
5.65779963941114e-08,0.0332428705326418,0
5.90422255973791e-08,0.0312491610649342,0
6.57258290254916e-08,0.0335558236916756,0
6.64808804587927e-08,0.035603370072422,0
7.49446225091677e-08,0.0331184538141571,0
1.10046124697312e-07,0.038628727317912,0
1.10372614530046e-07,0.037135766700829,0
1.56534921094358e-07,0.0430572001509782,0
1.64734919484351e-07,0.0450003900983772,0
1.66286969652804e-07,0.0451923695141112,0
1.53065704450933e-07,0.0443078587953858,0
1.47837672397018e-07,0.043541959418193,0
1.55351832401762e-07,0.0399759468428388,0
3.28023181396148e-07,0.0514195031397573,0
6.61942405628172e-07,0.0770282247214509,0
1.15994496792248e-06,0.0998632251340394,0
1.31842274821419e-06,0.0947854721824848,0
1.38485049542397e-06,0.0952883894854051,0
1.43667498861635e-06,0.0951685558811495,0
1.31362310298042e-06,0.0917994805763768,0
1.36552607258334e-06,0.0909789085173046,0
1.40508867032324e-06,0.0906513983644781,0
1.28488920121312e-06,0.0899764959948177,0
1.29237417288699e-06,0.0952963660950075,0
1.20755515552232e-06,0.0926861998251733,0
7.51587984411973e-07,0.0744157173750957,0
9.81193707085772e-07,0.0872200542064942,0
1.27018667191467e-06,0.0904848519834996,0
1.12044878674384e-06,0.0864570054347348,0
1.13709347611795e-06,0.0850606639796949,0
8.0727460064177e-07,0.0716758012036163,0
4.81142543437363e-07,0.0568249997716903,0
4.83353166244862e-07,0.0539554472409513,0
5.02433071271795e-07,0.0533392108193143,0
4.89233653622971e-07,0.0530977861083403,0
4.31465227758439e-07,0.0502385325310117,0
3.73508039035582e-07,0.0511317119037806,0
2.96541731357664e-07,0.0459003846438406,0
4.1716032392544e-07,0.05250979497886,0
5.28067591773651e-07,0.0574764785969778,0
5.34024108636361e-07,0.0550702595838022,0
2.88648000705305e-06,0.0524086450821132,0
8.96275430170288e-05,0.0644811563703431,0
0.000496006025931258,0.0946183850034391,0
0.000753220209856695,0.0773854066151428,0
0.00129348969845874,0.0707422100432905,0
0.00133156693245243,0.052193576292598,0
0.00120466483960929,0.0483894197190527,0
0.00107752189741878,0.0421330868568453,0
0.000931794648833669,0.0324007581443372,0
0.000805888819964928,0.0256999611276395,0
0.000808154627069717,0.0264517325449453,0
0.00091378574930879,0.0297313556604598,0
0.000870492013176225,0.0320030509247145,0
0.000871048339267011,0.0370264496700889,0
0.000493353047852099,0.0334372024538197,0
0.000381928478886257,0.0317958753122422,0
0.000395855708788805,0.0273457436755819,0
0.00037681935624714,0.0329779953890765,0
0.000221494609392963,0.0319848155144719,0
0.00023957813596432,0.0450301548108209,0
0.000257181173671027,0.0461998364719493,0
0.000279428481008965,0.0585807181993993,0
0.000265252583131539,0.0615341555501137,0
0.000270114086128764,0.0684947729275796,0
0.000274933068194785,0.0773567614784781,0
0.000144340344070136,0.0925662111413081,0
8.63689491943855e-06,0.090762301027851,0
2.5443835058862e-06,0.0939858068652988,0
1.87520658893228e-06,0.0823504197491488,0
1.7557015224482e-06,0.0792759393779051,0
1.65752403724852e-06,0.0814750300821888,0
1.57201166594035e-06,0.0840958419990491,0
1.20087172687463e-06,0.0765663699089075,0
5.6624400596783e-07,0.0549800523070851,0
4.47556737089401e-07,0.054013543695247,0
3.38110633588969e-07,0.0511066283642059,0
3.00365053140875e-07,0.0476751664172446,0
3.11823657762921e-07,0.048448180208902,0
2.7854546496186e-07,0.0475423572292325,0
2.22628313352312e-07,0.0455927678694974,0
2.35150456856681e-07,0.0500052770798802,0
2.52227902561545e-07,0.0508432840413216,0
2.6551680778765e-07,0.0513208918822573,0
2.26501447556468e-07,0.0495398476604074,0
1.49014993335611e-07,0.0405367788609714,0
8.66002046694848e-08,0.0310465489380485,0
1.03740046985851e-07,0.0384138255278719,0
1.71103044246466e-07,0.0459542437771954,0
2.55390729121041e-07,0.0528796481047144,0
3.00609745735e-07,0.0546250261147104,0
3.02970155366189e-07,0.0509642382947735,0
2.93961972293885e-07,0.0502363717720204,0
2.81519703443454e-07,0.0484167827708926,0
2.65488668139325e-07,0.0476534397137021,0
2.63925432023712e-07,0.0481909599756,0
2.81962771819246e-07,0.0506066878214954,0
2.78824589299587e-07,0.0499076083770738,0
2.25349294998986e-07,0.0486337587997758,0
1.22122578119525e-07,0.0397598200582825,0
9.73605614961518e-08,0.0369377844119632,0
9.88068695078575e-08,0.0392885360439269,0
9.2201043368592e-08,0.038997413330575,0
8.79762509505918e-08,0.0381744502262696,0
8.47463087081359e-08,0.0375342307986304,0
1.04366285246388e-07,0.0394211936768593,0
1.38929463727457e-07,0.0440661303898122,0
1.34237133674252e-07,0.043378614478505,0
1.16076049338261e-07,0.0396108592547433,0
1.12364237465802e-07,0.0390089583297946,0
1.09692194337952e-07,0.0363086875179865,0
9.38235300480683e-08,0.0351382406478245,0
6.89194169396772e-08,0.0318883649857106,0
7.80513445524391e-08,0.035326300080389,0
8.8852774778834e-08,0.0374234056836209,0
7.23459871595554e-08,0.0350349056801949,0
2.38003747284609e-08,0.0230202536047153,0
2.84208700272469e-08,0.0250947020038532,0
3.11467455258044e-08,0.0263097916415885,0
6.68681938792085e-08,0.035645304827537,0
7.9162423710193e-08,0.0419423027018768,0
7.7525605035918e-08,0.0402943685255381,0
8.65862222355348e-08,0.0436451811628116,0
7.92323358799433e-08,0.039518652428342,0
7.95539318607939e-08,0.037435944457759,0
7.90820247149803e-08,0.0383489980194931,0
7.45971590255097e-08,0.038445636299403,0
6.68164588735934e-08,0.0356175716735875,0
7.6679667781942e-08,0.0389504938034095,0
4.31485677068092e-08,0.029737396878715,0
5.48614778463213e-08,0.0302940114172806,0
5.96953800432696e-08,0.0306632253824547,0
5.28675827650476e-08,0.028454972957875,0
5.60599472162629e-08,0.0298548951827545,0
9.13844692259106e-08,0.0355308315862096,0
1.35359223998742e-07,0.0401350028475157,0
1.33832866552672e-07,0.0391903339765883,0
1.43850057014895e-07,0.0394945001006481,0
1.32353000699487e-07,0.036412418417983,0
1.26889364633514e-07,0.0368657009700265,0
1.19333956448617e-07,0.0364436433739476,0
1.29671868989569e-07,0.0385885957047366,0
1.39494528839462e-07,0.0385895361105025,0
1.5990451289589e-07,0.0405447767929916,0
1.76847202893561e-07,0.0442235256580301,0
1.31625040231963e-07,0.0385087943692652,0
1.25771993380482e-07,0.0367093552665875,0
1.38702948297466e-07,0.0385151678662565,0
1.4395492526952e-07,0.0385802583097725,0
1.26188669912193e-07,0.0361988715994754,0
1.19258451305287e-07,0.0340606017650206,0
1.69818058566459e-07,0.0398160751157032,0
1.74640600035823e-07,0.0400619210868916,0
1.67454502887631e-07,0.0389727524551918,0
1.59701767603615e-07,0.0389837740334322,0
1.68108181674794e-07,0.0412060924011658,0
1.67977970258635e-07,0.0415359646219759,0
1.56804782069594e-07,0.0408485283633226,0
1.45156016345828e-07,0.0423226322660817,0
9.8840602129762e-08,0.033652165171478,0
8.26859970655999e-08,0.0331393132748356,0
5.86157613619032e-08,0.030413731189405,0
4.11406901915853e-08,0.0269516458923144,0
3.56286399480609e-08,0.0276335157612559,0
3.09551861806891e-08,0.0262881244814486,0
1.60820711880466e-08,0.0213451455644901,0
4.73803513417844e-08,0.0309070260023833,0
7.2632627055531e-08,0.0333976344885549,0
8.24893690881772e-08,0.035339945777202,0
9.81650757895513e-08,0.0392608034883591,0
1.17913865500568e-07,0.0426918193389749,0
1.12804684135228e-07,0.0408185478229303,0
1.26557281827201e-07,0.0421788847506475,0
1.33988246349942e-07,0.0442938973009302,0
1.27992578672171e-07,0.04434252540534,0
1.36260391866821e-07,0.043659175739769,0
1.06478506674963e-07,0.0407658983390141,0
7.96733068906421e-08,0.0374925186932886,0
1.15622144576158e-07,0.0404144974194225,0
9.82848003802484e-08,0.0392828519281209,0
5.98247175573072e-08,0.0307262546571611,0
4.88869585998996e-08,0.0275655495464493,0
6.71983541008534e-08,0.0315362041707952,0
7.37617085969955e-08,0.0314764041246343,0
8.09554960838595e-08,0.0303772228019289,0
9.36971638012451e-08,0.033093966736175,0
9.93006242067177e-08,0.0328382705636725,0
6.52839841126705e-08,0.0275755046645006,0
5.74581906112654e-08,0.0288240419510184,0
6.01034923341859e-08,0.0287674612281382,0
7.41502454803819e-08,0.0309504281265132,0
1.02682275857531e-07,0.0339189047931025,0
8.95518964763353e-08,0.0312659547905016,0
8.10647338490941e-08,0.0309591770456678,0
7.57507098263865e-08,0.0318537399086646,0
6.97303981087786e-08,0.0300842648389817,0
5.65729277618043e-08,0.0292791630431464,0
8.43883583990154e-08,0.0328684638618412,0
1.41677011998637e-07,0.0364291359836718,0
2.26655254329919e-07,0.0440283280675314,0
2.35601215571145e-07,0.043099099478691,0
3.06496525208385e-07,0.0506438761791854,0
3.18659669721089e-07,0.0522840105035038,0
4.17033083776495e-07,0.0577799386783237,0
4.94682608133295e-07,0.060604161336826,0
4.70006933039562e-07,0.0591493567328465,0
4.00419155757074e-07,0.0522350153365981,0
4.08076111368533e-07,0.0539482174352525,0
3.96170068860086e-07,0.0573081409282596,0
1.66448291984502e-07,0.040161194729477,0
1.15825763770556e-07,0.0347044869817737,0
1.4917596610646e-07,0.0388645837873044,0
1.49409297973001e-07,0.040588866250246,0
1.1667642009599e-07,0.0360956835378166,0
7.86861470537705e-08,0.0297116640265326,0
1.40250803735734e-07,0.0380338421577724,0
1.34846593014049e-07,0.0361422895573711,0
1.69748321177133e-07,0.0398955995796174,0
2.39331728949012e-07,0.0437238857813576,0
3.05024000133023e-07,0.040661675552698,0
2.42469927198909e-05,0.0759065219167774,1
8.90079317310627e-05,0.145337250321985,1
0.000166372849762125,0.137951927015661,1
0.000184614957583785,0.0993156929386309,1
0.000293174059344314,0.0881614011109099,1
0.000301799288194767,0.0813655466737286,1
0.000270493811981397,0.0760430970050224,1
0.000222437622316344,0.0667475479216749,1
0.000180038531421201,0.0593992240714216,1
0.000120677142786479,0.0390886049864859,1
0.000104551259739015,0.0394747278750353,1
0.000139186525182654,0.0416568666860947,1
0.000155339420195144,0.0336106584678635,1
0.000175303389252607,0.0254038757348537,1
0.000343148134880566,0.0312381339387793,1
0.000395402950586286,0.0238198864237683,1
0.000419142857055666,0.0241419987678811,1
0.0004359759128861,0.0249269521734162,1
0.000425128444622023,0.025001126641859,1
0.000418381879692077,0.0255983057402265,1
0.000415352772741419,0.0255748027976988,1
0.000384419730017035,0.026109765122052,1
0.000377386897822978,0.0306685075961063,1
0.000387874633367168,0.0460683742679824,1
0.000172432529896421,0.0496340570420789,1
7.04963152915027e-05,0.0751925415693381,1
7.82692197121505e-05,0.0811171377092669,1
7.40831145915249e-05,0.0654008560898212,1
0.000100820226913727,0.056026757290686,1
0.000113599937338282,0.0607226472211834,1
0.000114120789994137,0.0586012472798618,1
0.00011703465844325,0.0529191192870364,1
0.000117902743872604,0.0541142882336054,1
0.00011788497919027,0.0526772773041741,1
0.000102445212079369,0.0460918474838485,1
9.47407441573485e-05,0.0502426435588395,1
9.31127190357847e-05,0.051991469356734,1
8.94102427101332e-05,0.0547378757618433,1
0.000123605878932392,0.033779753696491,1
0.000550805702293422,0.0473594375530795,1
0.000610453190228267,0.0346579349050458,1
0.000620736600639925,0.0354482257854778,1
0.000585903861281609,0.0346555101643623,1
0.00051448644546331,0.0310340586790668,1
0.000463573612382669,0.0235836796851378,1
0.000477779122957836,0.0225088658931995,1
0.000450914913631856,0.0196193531145519,1
0.00042912553450139,0.0176233844524996,1
0.000420314307993706,0.0194622506515107,1
0.000184891294348524,0.014254779076383,1
0.000167192599315557,0.0167185196744245,1
0.000162402162388444,0.0161830380321668,1
0.000164092275109719,0.014879097416412,1
0.000219163807565663,0.0181947878394911,1
0.000265135879620478,0.0259830310483088,1
0.00024008494606176,0.0206748187584349,1
0.000240948377962314,0.0229354176740568,1
0.000191047645360762,0.0223590232926634,1
0.000354481338043731,0.0205618313982049,1
0.00103087484136741,0.0357104075378517,1
0.00107036057504618,0.0300713145926784,1
0.00111371217468516,0.0313878694429922,1
0.00107341628060616,0.029437466271694,1
0.00174791539239284,0.0281341363875691,1
0.00219723489405642,0.0294927632703273,1
0.0031839221945729,0.0288515565883471,1
0.00644052898331535,0.0343144750486929,1
0.0124795460705519,0.0437538134680806,1
0.0188295935583408,0.0338703309843097,1
0.0213705596998668,0.0184402834488982,1
0.0504338607731488,0.0140040657056806,1
0.0520174852447892,0.00501567105994032,1
0.0449119193672087,0.00445965719813801,1
0.0397453093503732,0.00385607089760345,1
0.0324386554790878,0.0031165372811177,1
0.0295097848459303,0.00258548873494744,1
0.0284816636379893,0.00171894641773613,1
0.0298345357576347,0.00117882777201651,1
0.0382847938002897,0.00156452981899234,1
0.044655746461956,0.00129708148770544,1
0.0468692376806618,0.00180284500528896,1
0.0461915904485153,0.00231791884539303,1
0.0450981121444119,0.00221731355501589,1
0.0462930052181335,0.00238246574357589,1
0.0473670202803938,0.00234278205899484,1
0.0429595795858798,0.00183711816038813,1
0.0411472872565063,0.00201387027197033,1
0.0394835893056094,0.00241303175595752,1
0.0231032745357549,0.0013383773158141,1
0.0216811915587547,0.00276979211765235,1
0.0160875423900076,0.00150812637269252,1
0.0176849691845455,0.00257400241054018,1
0.0168754152924892,0.00245763143184071,1
0.0163179805367868,0.0024549788191638,1
0.0161268012747753,0.00265523970248081,1
0.0161507997959735,0.00382263182261341,1
0.0166692460560699,0.00416295918626559,1
0.0168494412178423,0.00392493836473772,1
0.0155354880656258,0.00370236102744006,1
0.0170849926524529,0.00381746751623285,1
0.0178139759656062,0.00470844674484531,1
0.017415949825118,0.00481797109423283,1
0.0178108205401237,0.00565355915458914,1
0.0178360820049183,0.00570940203544794,1
0.0171233764750811,0.00521079068878442,1
0.0173903551489599,0.00509172541710786,1
0.00823679770363019,0.00389870083380976,1
0.00300216087925004,0.00453213637736319,1
0.00294660815181653,0.00529044122961665,1
0.00246067996934948,0.00422954941799373,1
0.00252923721608147,0.00438619870341762,1
0.0031428221862729,0.00416174053309903,1
0.00459278569559842,0.00608531829187313,1
0.00434410086349818,0.00508929274323508,1
0.00542064698889863,0.00432691485563205,1
0.00746272939898802,0.0056656637265602,1
0.0066363283136371,0.00499799752556892,1
0.00689705526319562,0.00365483573725774,1
0.0158145918337946,0.00404383670674855,1
0.0175169021335984,0.00237992297541975,1
0.016811014958527,0.00221991722318907,1
0.0191426820384148,0.00132581151252631,1
0.034726935780931,0.00273608179002615,1
0.0333516362666653,0.00250860893459615,1
0.0325235354509506,0.00243214280041105,1
0.0367211876871026,0.00278163288477334,1
0.0364279572853659,0.00274519315378926,1
0.0311963480326652,0.00222018783973641,1
0.0285204869189036,0.00250008809044359,1
0.0274097271225628,0.0032674720999013,1
0.0261713090790811,0.00314054943311408,1
0.0250946471370055,0.00553413660649353,1
0.024376844994438,0.00214328659167211,1
0.0771283863343242,0.00533293112256803,1
0.0821904326218862,0.00566035800276136,1
0.0794076420272309,0.00562179555859839,1
0.0649907937548769,0.00469991355409696,1
0.0638499771376194,0.0040040707789124,1
0.0719433689921788,0.0047091356784101,1
0.0723292901968521,0.00481221841953453,1
0.0875375961272802,0.00555310945283177,1
0.0897201793700954,0.0053714759951124,1
0.0867343924871146,0.0085513473914568,1
0.0484098279231526,0.00903458228053837,1
0.042166613992391,0.0101662842293582,1
0.0273650104040896,0.00456888764136424,1
0.0503963226990117,0.00686238538472288,1
0.0614673229815971,0.00679401552180126,1
0.0575552602905952,0.00565241916359846,1
0.0524747665227948,0.00556205988565399,1
0.0397973323880103,0.0046659632306277,1
0.0371968902973213,0.00499025621800828,1
0.0361337712110102,0.00522693014496078,1
0.0357600353589747,0.00562531986256986,1
0.0365559507017607,0.00500813645493763,1
0.0410108426516651,0.00646931731773158,1
0.0332664213697168,0.00604919335333733,1
0.0311741729881189,0.00753645530296838,1
0.0249708694777547,0.00704089530644203,1
0.0283049073139252,0.00665806036873063,1
0.0291821614446927,0.00461963021653622,1
0.0524959326139583,0.00651476123615365,1
0.0671046703344961,0.00532433383599275,1
0.0707878812208064,0.00539597878378847,1
0.0755126391460647,0.00609054398729804,1
0.0961458548166221,0.00612585379938172,1
0.0963323943964642,0.00497270794631031,1
0.0964631258209154,0.00455005100883832,1
0.082125869864126,0.00323802456322786,1
0.0446969658676577,0.00116597126102679,1
0.0339714943721285,0.00078115059716435,1
0.0331177392329404,0.000717575328333448,1
0.0512740584346168,0.00192864355519199,1
0.0896820202575902,0.00403857556571313,1
0.0981479812992594,0.00368058190351109,1
0.089908512170525,0.00367201168537548,1
0.100951464118469,0.00498680803811651,1
0.0980760566727469,0.00544230587103688,1
0.0926955665154557,0.00776472259538308,1
0.0652575622911254,0.00663171819184868,1
0.0439905787480387,0.0051748008098848,1
0.0173400444989352,0.00252315686501744,1
0.0154368001476548,0.00303424429210424,1
0.0187322763002678,0.0034726438922209,1
0.0115873181890199,0.00571815286409486,1
0.00887793609881498,0.00805975165457592,1
0.0125437893929668,0.00976792407764078,1
0.0166315233884615,0.0117428605610669,1
0.0270363347378314,0.0148918977838358,1
0.0371314446692809,0.0172535501748758,1
0.0359013909875255,0.0174263422283364,1
0.0313350848086651,0.0166503061909463,1
0.0211957892044179,0.0152545304498097,1
0.0189099623766645,0.0171997531986789,1
0.0106791170047797,0.0135064525610715,1
0.00625124755147088,0.0144900347466722,1
0.00350274148164265,0.0101021757497875,1
0.00202977725927837,0.00989274314797687,1
0.00204532306497361,0.0132174547425091,1
0.00294815952121523,0.0164707298829334,1
0.00421306478435784,0.0130129254587913,1
0.00404777118781121,0.00878829144862194,1
0.00581031597543041,0.0103870917305856,1
0.00567336344696575,0.00964402946621396,1
0.00515085788075193,0.00910315853703148,1
0.00514158148226209,0.00948334314145029,1
0.00425131945823484,0.00768391774534395,1
0.00244771185611428,0.00488268968471564,1
0.00205541849903886,0.00462479946175784,1
0.00230014426858622,0.00437023911438137,1
0.00202802145009118,0.00544721210365872,1
0.0023832865026839,0.00733505899773329,1
0.00365552376687649,0.00913879653863824,1
0.00432065463812895,0.00615374365868507,1
0.00587841178785962,0.00315573293302037,1
0.0079953715593579,0.00320444059637331,1
0.00824948514746872,0.00275867117093864,1
0.0163645269245572,0.00416484260545236,1
0.0291837607554879,0.00672456535930976,1
0.0333082325413864,0.0067392896468351,1
0.055688496496629,0.00873963541580893,1
0.0661727776618092,0.0100785566112437,1
0.0714992423474844,0.0069481275125326,1
0.0550616898431609,0.00543104251211282,1
0.0473801207784397,0.00542034198291193,1
0.0419158510622932,0.00529715228246775,1
0.0255217989161991,0.00187983221381251,1
0.0268851667420752,0.00221032975943174,1
0.0266351341536533,0.00226895302312421,1
0.0252255007113006,0.00225517273947367,1
0.0241516373172005,0.00176377993277301,1
0.0361701497332605,0.00238300882806684,1
0.0338914583663194,0.00302533926396375,1
0.0279194797658991,0.00256191546203332,1
0.0437728913542381,0.00343895282737666,1
0.0621439355786496,0.00446169606582129,1
0.0602280322732641,0.00556367195431509,1
0.0599416396545356,0.00441994060900004,1
0.0582718239978017,0.00367737369636453,1
0.0602520205306566,0.00207229369666423,1
0.109048256254,0.00356926576975849,1
0.11154476659364,0.00392323573521274,1
0.105133112154229,0.00379051310773185,1
0.101827451074905,0.0041673851512569,1
0.0988025214057527,0.00453961342155245,1
0.0951635491921316,0.00426355876093423,1
0.0986481115868798,0.00450578044336782,1
0.0735499318075123,0.00401774410175049,1
0.0669885576838648,0.00407867280715744,1
0.0645978234136177,0.0062090315869011,1
0.02437425708781,0.00398730289492566,1
0.0193428315189183,0.00345132810315492,1
0.0170200676699536,0.00290636322854201,1
0.017490444582565,0.00238846113044011,1
0.0336126236623019,0.00375620278445178,1
0.0588059574406821,0.00640991146405233,1
0.0718303842295002,0.00773552804828816,1
0.0951707285027308,0.00941756125290776,1
0.113043816462085,0.0103838326368844,1
0.103330469956851,0.0123371079682426,1
0.100653505437142,0.0141064987434083,1
0.0824385792540239,0.0137520136237072,1
0.0641542528158898,0.0121927524433306,1
0.0275464154337122,0.00777377535662279,1
0.0183290588919141,0.0120178780581435,1
0.0156995740743329,0.0161127272353377,1
0.00521995800369671,0.0136304086484596,1
0.0039281199830448,0.0101492624094365,1
0.00263059645114242,0.00782907667220517,1
0.00233226729124577,0.00739376859712062,1
0.00274468713887885,0.00883694417734687,1
0.00295725896274007,0.00821404258598096,1
0.00302096130198894,0.00894578177406624,1
0.00297957893241774,0.00866827136847612,1
0.00273831017634457,0.00807680673693349,1
0.00232601496008783,0.00704650167910221,1
0.00315627569970268,0.00708155393297073,1
0.00392721219029952,0.00797615813940561,1
0.00318976220717424,0.00691112642082611,1
0.0031035046518364,0.00682629607685083,1
0.00320734440476226,0.00446443980214983,1
0.00891451835211917,0.00669796759248758,1
0.010391273726007,0.00510583511928805,1
0.0104370402739355,0.00493534605910576,1
0.028769788174994,0.00168328309564497,1
0.0860829026487623,0.00589408957302176,1
0.119291831294577,0.0079236817344573,1
0.13733070279374,0.00624976811858495,1
0.122464185701294,0.00577594567960158,1
0.118542416806639,0.00499037800918661,1
0.109037688803202,0.00339204328231469,1
0.111312612562417,0.0034955134636384,1
0.108576874994519,0.00354630012905668,1
0.095570528411619,0.00217030438496846,1
0.0965266074266455,0.00297457413786324,1
0.0842372947148379,0.00269902314591082,1
0.0780662729763475,0.00231316887351206,1
0.0738609412506683,0.00203572007364584,1
0.0876878084965595,0.00267171709958727,1
0.10053928739128,0.00358414998818354,1
0.111333837023251,0.00542159163296836,1
0.116867792409448,0.00557304003315465,1
0.0835140424608885,0.00408753145460703,1
0.0776139930186875,0.00542061234336015,1
0.0742240292826228,0.00594882674001151,1
0.0777737079778436,0.0052191333279125,1
0.055204878164885,0.00411499613490007,1
0.0450664114407205,0.0056594174270098,1
0.0504775097555625,0.00628283864625218,1
0.0507838119163748,0.00600397843589509,1
0.0506110402065381,0.0065376444099877,1
0.0394831243748242,0.00379559191192181,1
0.0360597369283214,0.00260540991735163,1
0.0378545248809161,0.0029532299784932,1
0.0495650432055514,0.0042069758074194,1
0.0513798571712829,0.00560235900121643,1
0.0508076016974869,0.00582144080485508,1
0.0578469177824693,0.00484320738701324,1
0.0627827795605923,0.00519322929162026,1
0.0617906750030441,0.00320295844139267,1
0.0805977073601151,0.00450301785009615,1
0.0792127717025798,0.00544832747858681,1
0.0687476786750295,0.00406426790085449,1
0.0836201365588189,0.00452488103934044,1
0.0835134153352678,0.00480349247209387,1
0.0937824691598219,0.00452812452666223,1
0.0958491771927854,0.00409875806290139,1
0.101684699556203,0.00461591709021194,1
0.087269361549611,0.00342772083516345,1
0.0824270726048849,0.00429170028263293,1
0.0785656407200474,0.00383125758988867,1
0.0890864190145225,0.00486578905083101,1
0.0789312676699492,0.0062996929806242,1
0.0477646372354393,0.00424894531151944,1
0.0653161401536244,0.00496726460028436,1
0.0778997186164156,0.0064633188847022,1
0.0956378224649935,0.00892578501276471,1
0.126591426953278,0.012808460594412,1
0.127816597981683,0.0203643696002856,1
0.100564616329883,0.0153568360473491,1
0.0815774946481019,0.0150899924684188,1
0.0694395845751199,0.0138843379412219,1
0.0393076677473588,0.00691301311319883,1
0.0145386309493893,0.00450519257440113,1
0.0123434916245565,0.00497462901242746,1
0.00669336871244276,0.00319044021764093,1
0.00703866311370643,0.00799864780789631,1
0.00599352571710373,0.0063221073671502,1
0.00587551684096447,0.00573663990325936,1
0.00481455770651846,0.0047573060146789,1
0.00473735020465139,0.00393768809235105,1
0.00501744609170205,0.00426708496428528,1
0.00547128643393507,0.0074728892514632,1
0.00705526594666451,0.00536499090246669,1
0.0124303486970245,0.00696682369997874,1
0.0140613369660284,0.00753264568818479,1
0.0171398429918924,0.00951016565951069,1
0.0193577454928551,0.0110131491124343,1
0.0317337284723375,0.00386715424278862,1
0.108373384225457,0.00868176446455473,1
0.124042300333139,0.00752239237970874,1
0.105364034353297,0.00535005728029838,1
0.08883374947259,0.00462111276911842,1
0.0843503904407141,0.00471685390254623,1
0.0831616031533289,0.0046778708264844,1
0.0813661141012214,0.00459973774842315,1
0.0820789125457304,0.00348411319485848,1
0.0882537724163729,0.0037203223088958,1
0.0863706228646383,0.00587789117095666,1
0.0633492681878439,0.00543378882117193,1
0.0703920272570254,0.00803853116320519,1
0.0748653381574101,0.010734542773049,1
0.0591785287069798,0.00914098675905538,1
0.0543285269372057,0.00696531988471526,1
0.0558458176907082,0.00583291574475988,1
0.042245127434538,0.00429496693384284,1
0.0393114205663893,0.00628015022403511,1
0.0386451288484767,0.00655921994926785,1
0.0403520068639111,0.00498008121012039,1
0.0526987287905829,0.00486796575949391,1
0.157533053519207,0.00633490315260323,1
0.165785339139858,0.00365911755740279,1
0.166537295099809,0.00358850009217086,1
0.146967328455021,0.00299521503352207,1
0.15940118262077,0.00286982841394058,1
0.165312351737589,0.00301188799524648,1
0.170015305624533,0.00334470219650312,1
0.2234896149719,0.00352305163013118,1
0.258703284138925,0.00381151036187066,1
0.274776962849018,0.00350614595485721,1
0.266217455452487,0.00342255746285085,1
0.247943178217248,0.00379036330778072,1
0.186909238602363,0.00267323396567584,1
0.142263372814249,0.00189991393670929,1
0.168591000280006,0.00227011263119639,1
0.172840000961306,0.00223375485231454,1
0.165394653529704,0.00190388292476471,1
0.135547613038968,0.00208279795446738,1
0.116433649563066,0.00168414260341737,1
0.140828744202906,0.00272342329009914,1
0.136172387495273,0.00347467435133162,1
0.105041701689037,0.00314374995387584,1
0.131235491594512,0.00425205139862794,1
0.14436001114091,0.00487350178755004,1
0.138333256357063,0.00663731519837934,1
0.0940312330192406,0.00555994948892134,1
0.0930428394634576,0.00554304965062275,1
0.085060957164321,0.00396240209676062,1
0.103627485083086,0.00396000896115158,1
0.141653321938321,0.00545995861422527,1
0.1512584756328,0.00597876865271498,1
0.165343170932016,0.0064905849639291,1
0.195601121841472,0.00716221113865598,1
0.244545100820303,0.00924526136356132,1
0.269315671428356,0.0113566855454645,1
0.253276545244752,0.0107402682349032,1
0.187983015743023,0.0106773279640097,1
0.0741461697966396,0.00680215185595433,1
0.0599801193742888,0.0120719735448842,1
0.0584667834697326,0.0120955237733622,1
0.0346481483842765,0.0133549626257966,1
0.0121573421600398,0.009559391322394,1
0.00553989870906021,0.00670949010950537,1
0.00504001886098905,0.00651737203970457,1
0.00441862266996367,0.00527601949622858,1
0.00641229388670205,0.00689391161988108,1
0.0128257611107473,0.00794021757858646,1
0.0115043491846947,0.00661333003616968,1
0.00994933834072118,0.00630749779331885,1
0.0105018575111196,0.00647515708703922,1
0.009172098201686,0.00558024019221204,1
0.0331910323945453,0.00593225769556667,1
0.0481163684886235,0.00470620625466329,1
0.0483838160782812,0.00303568383910113,1
0.0968298544097347,0.00518454613244945,1
0.095668088261775,0.00332564822503195,1
0.0960387396545985,0.00308792755246248,1
0.0925927021883081,0.00275967999957548,1
0.0767853514893182,0.00199479610764427,1
0.0676034842694676,0.00148293283930288,1
0.049771812311633,0.000592052491781103,1
0.0544096957129475,0.00105678917987615,1
0.0503422066046195,0.00123128615361925,1
0.0548828906059716,0.00173226236228394,1
0.0600686061419053,0.00227602964595019,1
0.0739322321686301,0.00430049165539702,1
0.06697139952456,0.00455596455373634,1
0.074745435254151,0.00383103806438001,1
0.0743109379196855,0.003511176529278,1
0.0735846624911826,0.00387077001414281,1
0.0630223280401637,0.00362798828586195,1
0.0660519219306573,0.00364628993318766,1
0.0617096506511634,0.00322919361612867,1
0.0641936372704299,0.00369980473260841,1
0.0685933025324992,0.0028061489124062,1
0.0764273927166303,0.00314281926870737,1
0.0750381784825457,0.00260421747653948,1
0.0724778176101316,0.00378375364934724,1
0.0706759763552344,0.00216337541348019,1
0.117776148188896,0.00335773320482089,1
0.118598644704735,0.00298915318611608,1
0.113622743489247,0.00301100048318222,1
0.12098544482563,0.00315500466168916,1
0.114673636585598,0.00255101357527877,1
0.119485902367049,0.00362815851454119,1
0.114346278268412,0.00175098848206173,1
0.129614915843248,0.00199979624109251,1
0.118748808063485,0.00189189369048257,1
0.113668523446155,0.00269205964426742,1
0.088270846468541,0.00230652935618117,1
0.0989818349360885,0.00311089121867041,1
0.126310176268543,0.00393487784088878,1
0.135147833334172,0.00355766769587996,1
0.12358719756396,0.00387998848833631,1
0.0905479682551866,0.00262504033247274,1
0.0753755905075925,0.00525255147861718,1
0.0730992177625553,0.00487296409794275,1
0.0728642699428018,0.00516038657501484,1
0.0933990553675262,0.00596526620464557,1
0.177763698187759,0.00848770144523353,1
0.191163010110577,0.00461895011239782,1
0.185481074854125,0.00379035203501414,1
0.186990475697675,0.00501541620993525,1
0.248096664194338,0.00468221727556011,1
0.310661591352155,0.00385590998976302,1
0.264622799831815,0.0034857477508291,1
0.219958192335125,0.00301576405269528,1
0.235776829356449,0.00307805161241055,1
0.271292697053154,0.00328406787481796,1
0.242831310455638,0.00267870519737484,1
0.235270835015704,0.00314077039809523,1
0.244461628135674,0.00377316174386906,1
0.32292304478581,0.00429274635858424,1
0.31126395228791,0.00688943362118929,1
0.241607299121916,0.00773066486218052,1
0.302294949134228,0.00866186045386154,1
0.347078990922516,0.00943057827980797,1
0.384301770041662,0.00998373058090312,1
0.403951993169375,0.0136696386121497,1
0.227174869906185,0.0127959622690768,1
0.141095934158703,0.0167676390115323,1
0.0573575277008909,0.00872837825178611,1
0.0254920663610342,0.0143503344927233,1
0.00712823189117527,0.00877493503134636,1
0.00321989020776834,0.013422044581633,1
0.00407191825978595,0.0262798572760235,1
0.00438847995268305,0.029460285831601,1
0.00478238750433028,0.0171888074161205,1
0.01193234917154,0.0180621950025584,1
0.0139398560916153,0.0159898460309547,1
0.0121756808807123,0.0128280623171333,1
0.0116120546756415,0.0116073922821896,1
0.0108851775309212,0.00896655025204125,1
0.0189761103738226,0.00971809286742429,1
0.0184881039002256,0.00681770696956717,1
0.0191576707774746,0.00679900046408444,1
0.0199968182566056,0.00683703244341838,1
0.0159546905156401,0.00459775862891902,1
0.0238982989931799,0.00558002304873977,1
0.0245901241786216,0.00346550507178675,1
0.0267374774189328,0.000813646260696955,1
0.047691006768589,0.00167956603521437,1
0.0413798556917666,0.00130208431001111,1
0.042202137777193,0.00134651521027983,1
0.0426012123821015,0.00124416665788142,1
0.0455938516427802,0.00137817949623146,1
0.0457416532726572,0.00130085152455577,1
0.0430697426526634,0.00121139783608278,1
0.0590475265745674,0.00163676493128642,1
0.0618133139618526,0.00168979075534018,1
0.0552443110474103,0.00273905895463137,1
0.0491136510141208,0.00296867266152705,1
0.0426830318457879,0.00212777006716171,1
0.0674863321017756,0.00305077001848049,1
0.0903222669057465,0.00416726893558435,1
0.123500780009554,0.00509577156054481,1
0.113641279899863,0.00329554052814709,1
0.0937815497010077,0.002621498965343,1
0.0903876676129457,0.00316633022287667,1
0.0875481503426562,0.00385257256932229,1
0.0782373298505971,0.00368040802268049,1
0.0712273782835425,0.00375861088682336,1
0.0543388065582029,0.00306159621361995,1
0.0568071863933311,0.00337468393355872,1
0.0560184425502071,0.00421445246299195,1
0.0330089282087935,0.00219054250372031,1
0.0357172386489062,0.00458080612351056,1
0.040034173879555,0.00391691190614322,1
0.119356180829133,0.00351581468005353,1
0.182110324963094,0.00466078391964416,1
0.216012112051301,0.00586562331419546,1
0.294942755538407,0.00716371265325126,1
0.281031972304431,0.00537509703499973,1
0.289003085427845,0.00369925900414409,1
0.396473742352854,0.00458989404564111,1
0.345253804793048,0.00338895346921566,1
0.267754671663928,0.0023275850954043,1
0.171154890385864,0.00105895704349533,1
0.184130704670287,0.00211342789796333,1
0.199188373645216,0.00168341035803041,1
0.228894342896826,0.00202436533461881,1
0.228400487706213,0.0020383220769899,1
0.22614644990971,0.00253840631070137,1
0.231989951312882,0.00352073815800559,1
0.192465500301769,0.00310663423242229,1
0.192081923434269,0.00402591377292578,1
0.194063604250028,0.00462199575836632,1
0.226837738077055,0.00471774052882971,1
0.327557221551549,0.00667304967410248,1
0.462682263336262,0.0107766166970604,1
0.558843144049563,0.0116410102032912,1
0.636880913619848,0.0128676852301743,1
0.715390295113282,0.0146132087556757,1
0.58106304392933,0.0229206565627378,1
0.346604947988056,0.0175495729902992,1
0.240659773436491,0.0126324846710698,1
0.114875151843159,0.00712638414328113,1
0.0134534918478944,0.00529463545703594,1
0.00919712773443043,0.00639259404417686,1
0.00918708981500988,0.00650909223191101,1
0.00444736802893735,0.00551850637528516,1
0.00372752222203846,0.013335324447965,1
0.00461462763329986,0.0112251791346858,1
0.00525075885456795,0.00827552302211196,1
0.00766952403122628,0.011612498362125,1
0.00874459276426612,0.0127460934518942,1
0.0117154140802262,0.0158953952467112,1
0.0111691965615745,0.0149505476850049,1
0.0177079668688143,0.0148008775663929,1
0.0167440354980314,0.00876606148624063,1
0.0189915581318945,0.00442952518408635,1
0.0683667498770749,0.00795646572032947,1
0.110742935397182,0.00667244048123069,1
0.100884881840895,0.00392309692667636,1
0.104151102191975,0.00410963183255635,1
0.103114672575464,0.00365052181742853,1
0.102393466581336,0.00355288896992249,1
0.0994382781550677,0.00294492611603773,1
0.101591470741892,0.0019017373036987,1
0.123709842800393,0.00308634498309378,1
0.15980573139279,0.00502076426892803,1
0.181393338137649,0.00580583161004997,1
0.166120563699629,0.00671953607796724,1
0.154260274440418,0.00874916440439027,1
0.124039977926365,0.00707274324947448,1
0.101586672968906,0.00633820928754215,1
0.100580854847029,0.00638355313391081,1
0.0741615888152167,0.00538770109371056,1
0.0542770475149277,0.00626867834344262,1
0.0527766165707204,0.00587238558673254,1
0.0401617596171143,0.00589417571873267,1
0.0203584324907337,0.00409531081371799,1
0.0323585684286557,0.00204939482512481,1
0.136249883663615,0.00574815219451831,1
0.135194015097118,0.00244749586700907,1
0.150222226352109,0.00282984261086433,1
0.152511021388419,0.00286240533279338,1
0.162925300276151,0.00304418351442729,1
0.171136322825357,0.0031916814520147,1
0.192358729775282,0.00380257690810742,1
0.198534366727906,0.00289435336798816,1
0.210647594047886,0.00286631716141968,1
0.203939937628781,0.0029956995334061,1
0.157812107062473,0.00198637086650386,1
0.191531218153292,0.0046599523893259,1
0.19170601872216,0.0046402220459522,1
0.228255580110003,0.00487122378632509,1
0.293236323219347,0.00619728032551808,1
0.277624424941424,0.00575609410165535,1
0.194644735572772,0.00381627931430306,1
0.134746601501876,0.00318359380051299,1
0.12495189074962,0.00333166567338746,1
0.0736540864614549,0.00244995079762554,1
0.0725886844254002,0.00306335491544664,1
0.13100232907255,0.00499522027299209,1
0.129072926406033,0.00285824866028352,1
0.132185357756735,0.00250498846475052,1
0.143126062273254,0.00202521803057836,1
0.153350654631463,0.00225509961808172,1
0.154148047279744,0.00247906805484245,1
0.148214908376664,0.00224817038552749,1
0.150288453465374,0.00221911175224316,1
0.141761811798544,0.00210791870617727,1
0.152560160115599,0.00178324633651629,1
0.135743515789488,0.00107582173478818,1
0.139387876248688,0.00116922941046882,1
0.205280317311651,0.00265957731997719,1
0.196168430155356,0.00262654432474948,1
0.314326637286762,0.00307036390231071,1
0.502507653746468,0.00499152066396826,1
0.579838415592746,0.00528377337008487,1
0.640278933442548,0.00614019414105119,1
0.56042541777334,0.00558388160947254,1
0.563054247963426,0.00610633233456383,1
0.460107490144161,0.0068895797538084,1
0.255746900201971,0.00508550338022017,1
0.228078558295872,0.00496943285252462,1
0.064594793236137,0.000547943830222864,1
0.0212875958858211,0.00898065889965059,1
0.0203150865658656,0.00853324012987134,1
0.0117299928476809,0.00830994409417572,1
0.00780594029524683,0.0117331217729301,1
0.0140060355653296,0.0130313001163487,1
0.0139162475684648,0.0126319848086641,1
0.0146903382430787,0.0129296077755666,1
0.0166526583449393,0.0133914588562919,1
0.0233834347131629,0.00911810651437408,1
0.0503108580086772,0.0114691045977212,1
0.0502305907594529,0.00968767616471188,1
0.045031804276124,0.0093506055063776,1
0.0414718694460254,0.00876874759917038,1
0.0526363602968817,0.0100111398687182,1
0.0669564077107629,0.0115009692692565,1
0.0497633236444959,0.00738366832052306,1
0.0349525491553436,0.00550171129336246,1
0.0356634754772642,0.00500680691375404,1
0.03671565082905,0.0016563582987632,1
0.0487733371318852,0.00228290925372994,1
0.0483327856361521,0.0022026268691085,1
0.0475191723577541,0.00195204002477203,1
0.0556359323685106,0.00145389581902864,1
0.0791714620381695,0.00260594240109886,1
0.0794377976039812,0.00232788783833411,1
0.0762450376274621,0.00235604283545297,1
0.0745030461697148,0.00249504750818792,1
0.0776918089499133,0.00273401769765181,1
0.070354059611756,0.00379627408922434,1
0.0444509202746718,0.00226414120279339,1
0.0538375812485023,0.00302217538528403,1
0.077265718173538,0.000681676097488079,1
0.133576691192279,0.00185639701518407,1
0.129211834452342,0.00177358835946464,1
0.14251226463164,0.00218068980954083,1
0.137049432359865,0.00201903839355986,1
0.137064552678697,0.00196139339343678,1
0.137145280245727,0.00189392828340386,1
0.122004285457305,0.00185181809970029,1
0.11656632266415,0.0017038934606327,1
0.0858075973402109,0.000898401779569271,1
0.0717604861388376,0.00352770357109467,1
0.0310402404846645,0.0020818925407487,1
0.049005035718706,0.00337210081651326,1
0.137552815062121,0.00630678075493483,1
0.158560115803168,0.00619843619209044,1
0.242418223801984,0.00783989576900002,1
0.244331812392507,0.00666594407185911,1
0.23542378762184,0.00553276221646455,1
0.254096325381262,0.005327760384968,1
0.253630118745831,0.00292278392150976,1
0.258455494754305,0.00297498092023161,1
0.238601611335898,0.00260455018405032,1
0.244155188054929,0.002988209922302,1
0.226608623365901,0.00280127832854951,1
0.230252502640785,0.00328774032090099,1
0.190264156625277,0.0028167544061351,1
0.216391152184399,0.00317782733689408,1
0.227104986077954,0.00292675229859514,1
0.199724399132158,0.00248352983884777,1
0.176388456896873,0.00349416268752158,1
0.129413893439743,0.00242557213583752,1
0.123301724326444,0.00252579581220694,1
0.131276828186119,0.00196505939543058,1
0.129853468220517,0.00195379822727057,1
0.133065980783153,0.00167375665526701,1
0.135786011048068,0.00153892530581822,1
0.10912174858489,0.000497303697861394,1
0.249987759551679,0.00318619865367067,1
0.243628769217236,0.00262705503665929,1
0.293159832924757,0.00301441584722926,1
0.373463827752733,0.00398699056372375,1
0.450046465115222,0.0050278990243784,1
0.383347338367266,0.0045690024062002,1
0.351438160415982,0.00437390751918902,1
0.285079427996098,0.00365494044462078,1
0.238841388245444,0.00348041207437232,1
0.117569147171563,0.00230990383031622,1
0.126267459327911,0.00314679061266008,1
0.07036019400388,0.00311360141193791,1
0.032549764808662,0.00840427538278874,1
0.029727732655572,0.00774977587105704,1
0.0289800460946246,0.0063675843393385,1
0.0206047372035639,0.00827216216632985,1
0.0113369375414627,0.00857685087893834,1
0.0118676913222179,0.0118403768186049,1
0.0126305401492991,0.0129469447776389,1
0.0127112984624777,0.0122605808182364,1
0.0108425019190427,0.00807306773981917,1
0.015635501703952,0.00718294764962929,1
0.0181882905857137,0.00765445046824196,1
0.0205850594136812,0.00819935489218762,1
0.0229998847237459,0.00967904687378613,1
0.0221490253662042,0.00756919459994092,1
0.039972000606674,0.0047948443498941,1
0.108828984241622,0.00974934168553376,1
0.110097278251801,0.00407682708412209,1
0.102651147179582,0.00378916107786909,1
0.0908929524073894,0.00320142683131457,1
0.140940909657701,0.00145341882072988,1
0.221770319602215,0.00176116568553296,1
0.226175649223783,0.00176548218178674,1
0.224648089867266,0.00163211838729954,1
0.206018618833743,0.00137529349410631,1
0.20249112591546,0.0016422331085449,1
0.202132294139721,0.00146163783986932,1
0.219140958692769,0.00243813963167304,1
0.189721368273907,0.00200277129646392,1
0.143475637237271,0.00153149178532311,1
0.141318490396104,0.00237858103007555,1
0.113619491818477,0.00222258457529009,1
0.0923752966831724,0.00199385777936677,1
0.0906263785695424,0.00177495210848956,1
0.10691216504137,0.0022736431388961,1
0.108134377594389,0.00210476124635389,1
0.102512712603131,0.00223468113999839,1
0.0857266584229242,0.00140492800258862,1
0.079335939080848,0.00127335642430951,1
0.115303453299145,0.00145247651787884,1
0.15070021150728,0.00455751848201379,1
0.169720171250496,0.0072289371448525,1
0.23399881225306,0.0101602602516359,1
0.282610796018011,0.0157392652325538,1
0.221440242556477,0.0101587600229756,1
0.198506431235701,0.00968248944612478,1
0.151928487168227,0.00924631520247569,1
0.114534874869131,0.00811606344601009,1
0.113896970846698,0.0072857323370057,1
0.118155794971389,0.0119208927690178,1
0.118992826953007,0.00825071424659812,1
0.116355939936615,0.00698141418434313,1
0.0891557800510831,0.0057335655329697,1
0.0492374973521159,0.00273417135096717,1
0.0530220254246379,0.00359551747640124,1
0.0685075270553045,0.00238709059823574,1
0.127073914581693,0.00333262061896415,1
0.11364956287089,0.00289206241446779,1
0.093421155246178,0.00240961408894196,1
0.0901621739493162,0.00166964022874797,1
0.269337560428833,0.00445948758040276,1
0.413083629700546,0.00527868485319046,1
0.372808906740269,0.00472316012932856,1
0.343712468901437,0.00421585888462933,1
0.331671348931814,0.00391322721089979,1
0.299553506996323,0.00423366273615728,1
0.316789853029934,0.00512417827661093,1
0.314470765356511,0.00529189686437357,1
0.381645589176944,0.00564849976634099,1
0.37070235321067,0.00538613887435413,1
0.285957431544601,0.00508599585337893,1
0.277036515099519,0.00528953610340536,1
0.290965290151904,0.00495436744227036,1
0.27410533094525,0.00518368700721526,1
0.259580581612267,0.00477827291275671,1
0.296895013988637,0.00517726458951125,1
0.354423943208927,0.00560952412796193,1
0.437210883379769,0.0063637855427555,1
0.500486366401735,0.00773866475632714,1
0.364166945390757,0.00862926102408832,1
0.217384920594958,0.00848569778912084,1
0.217315224786595,0.00962660749526542,1
0.15692168902507,0.00960582959832669,1
0.0560286792278288,0.00512294877771298,1
0.0416752964322926,0.00784905666875295,1
0.0169562401585578,0.00436173997766613,1
0.00581512420448039,0.010089072750088,1
0.00521340528930846,0.00788664298435212,1
0.00489801855571686,0.00696190512286878,1
0.00516432589186835,0.00705456432460013,1
0.00661537928909907,0.00825637940345667,1
0.00724697240795867,0.0100224960423056,1
0.00913421845698766,0.00880287206524705,1
0.0117974257333411,0.0102047677305659,1
0.0150103708009734,0.00758980890663703,1
0.0228024242208455,0.0093803313308233,1
0.0209242936253256,0.00839165876508829,1
0.0160012359380982,0.00689170827212309,1
0.0208812094231318,0.00148631697229406,1
0.181775780613079,0.00608904374064027,1
0.213825041453573,0.00341355028857386,1
0.200079802995364,0.00316643916268938,1
0.194519582468484,0.00300659929246342,1
0.183691909563488,0.00281821363965207,1
0.24963594915285,0.00372690946351,1
0.254263256767738,0.00237276557288332,1
0.237010472354168,0.0019993194784004,1
0.226176941234063,0.00179282304571483,1
0.202878197429806,0.00123191831931471,1
0.161614384725913,0.00115971399044621,1
0.156416294073166,0.0016428580279996,1
0.177085768741682,0.00194349420113238,1
0.180440000301196,0.00169352482474132,1
0.18273976741023,0.00186913701138009,1
0.179596163727547,0.0018001777944377,1
0.187962668401669,0.00273691929168244,1
0.17317824478824,0.00293173621348715,1
0.163870630842316,0.00324703295878248,1
0.155161442130221,0.00372731400723231,1
0.155596559986928,0.00335791648087896,1
0.155951178021441,0.00404287420319216,1
0.103098230901418,0.00277300406222081,1
0.0934913784803397,0.00333712950804917,1
0.108600312063666,0.00346960553855273,1
0.097849895725422,0.0034677111543359,1
0.113590547276237,0.00429468283584396,1
0.207397829360627,0.00535169508183243,1
0.191457540818896,0.00250895346237345,1
0.197918017956262,0.00202289814307417,1
0.200742569766322,0.00245248416821931,1
0.167455747675212,0.00197837868184257,1
0.180191228056686,0.001809061474798,1
0.189102662547867,0.00136003579972179,1
0.204216052560108,0.000934749208773754,1
0.365645208380736,0.00237867573851797,1
0.373500915073748,0.00235987521825291,1
0.355509617982535,0.00241037142542605,1
0.307163131471112,0.0027357274762726,1
0.22607836059754,0.0022982996495068,1
0.236837035376728,0.00176136933553544,1
0.247558502159329,0.00187113661304226,1
0.316941008513509,0.0028197303390222,1
0.336872510055397,0.00400418226031664,1
0.292699764174961,0.00441480045783892,1
0.271650549732901,0.00489374596712076,1
0.299856267466916,0.00592260474328243,1
0.305651254323653,0.0036886728388425,1
0.334038836195615,0.00231525270064147,1
0.266243273020003,0.000914295272527284,1
0.32622798598564,0.00202250653005422,1
0.472763668224277,0.00313499190005512,1
0.473517149348624,0.00300141662693494,1
0.484426360204769,0.00288753560749888,1
0.448955928614549,0.00282634219641149,1
0.456498784899923,0.00269949162221097,1
0.323751444910904,0.00177623206160378,1
0.3028221751053,0.00235736347813231,1
0.216691445476892,0.00357871307481983,1
0.0998053049766189,0.00357933466217043,1
0.139525433121368,0.00404743560585293,1
0.105194318137885,0.00267687466589568,1
0.138751158962265,0.00261745387514651,1
0.228244694346998,0.00434857472426065,1
0.240968973560385,0.00457003256642264,1
0.306031065257998,0.00642331716000578,1
0.39042833697067,0.00780561621278295,1
0.44879577908956,0.00885076067357627,1
0.504813540536183,0.00943207534253322,1
0.509288871027868,0.00906938285215688,1
0.350306186272477,0.00809087507234905,1
0.260183674092712,0.00710226667832685,1
0.193773423583527,0.010669457518535,1
0.185722832171297,0.0220402376112836,1
0.0816580314877414,0.0140861516862793,1
0.0371477956179548,0.0169266230566448,1
0.0229198447072504,0.0129376977093174,1
0.0055023701361618,0.0113162459298819,1
0.00305909769566066,0.0135650075812939,1
0.000713581598187649,0.0170020226903973,1
0.00105912456028579,0.0303019673301842,1
0.00149859195806485,0.0351485594404246,1
0.00544195952246239,0.0106561769378162,1
0.0161590577235873,0.0201857312286077,1
0.0234123024297944,0.0258903889047131,1
0.0279327625160577,0.0282101196074791,1
0.0295562581427993,0.0295210580449364,1
0.0315073307267259,0.0179043143883873,1
0.053950177372051,0.0142422066246365,1
0.0543652697324469,0.0118381015166952,1
0.0628065781945077,0.010195980760085,1
0.0812729690783937,0.00753048682278819,1
0.0655950601031235,0.00571553105295437,1
0.0621950867379474,0.0055336211816704,1
0.057197050069001,0.00413926309849979,1
0.0636202322084549,0.00448019889954163,1
0.0590480276623537,0.00367698589533639,1
0.0600044482149336,0.00370316634484821,1
0.0723552454801564,0.00389232362245889,1
0.0732521298350132,0.00299953480097464,1
0.095845122816175,0.0034104842710024,1
0.0833760893546938,0.00328517460233312,1
0.085400087859987,0.00381438814041536,1
0.113491542846647,0.00277424416282183,1
0.128386604004326,0.00144717852293011,1
0.13755970712354,0.0016140501276261,1
0.147353886801806,0.00066944876106744,1
0.25833773291841,0.00178866392266912,1
0.263974924764272,0.00146410536615354,1
0.276487785905421,0.00170634027575783,1
0.279017301392911,0.00182786972845197,1
0.28658462830518,0.00186632298442008,1
0.287927432398254,0.00174762461023813,1
0.267996140090382,0.00198938555401608,1
0.255087216141022,0.00297743218162448,1
0.233516278347158,0.0024813161907901,1
0.218216654577821,0.00530955211982268,1
0.127223377559104,0.00476418868917656,1
0.147230343449697,0.00823611281065448,1
0.239667865927093,0.00704539371483979,1
0.234781214991951,0.00414970526622596,1
0.22899009092364,0.00334224216186206,1
0.229543804433521,0.003162944176959,1
0.222916847747313,0.00268278733474674,1
0.227804691637328,0.00270269134274735,1
0.220751334194322,0.00265165983016067,1
0.228032802541159,0.00273647506645661,1
0.227681641935574,0.00279674285537951,1
0.248017935331123,0.00319419203025452,1
0.137548744512204,0.00167113168254067,1
0.12991218562526,0.00325182698406779,1
0.125002537333388,0.00627893998104744,1
0.0586610805250787,0.00320349962126192,1
0.0533807636454846,0.00558183419236464,1
0.0569220121564966,0.00694929290883512,1
0.0433284889486804,0.00945742604007769,1
0.0149032083379488,0.00583093095753581,1
0.0155219423967703,0.00814910035981857,1
0.017252611479526,0.00444969070083697,1
0.0167841918717141,0.00507078571360753,1
0.0106801497725197,0.00348708075009814,1
0.0112030734087895,0.00282958322505751,1
0.0249940974768303,0.00367376811150961,1
0.028463540404102,0.00181619268908655,1
0.0312975138604276,0.00205563700105303,1
0.0318253516636583,0.00207643546511313,1
0.032386258002531,0.00217012906744104,1
0.0286168909546774,0.00193199962129805,1
0.0265890777841259,0.00261296362844428,1
0.0261702607039736,0.00209317604925909,1
0.0355909265399697,0.00258940421160657,1
0.0335813448932365,0.0022708756897823,1
0.0220144450555362,0.00201852516985022,1
0.0175289252459577,0.0033816548736314,1
0.0172844463315627,0.00331348430226935,1
0.02136106927663,0.00417353175940997,1
0.024588652977508,0.00466418854826126,1
0.0258317503825102,0.00491456796606362,1
0.0283531109015151,0.00520543066528852,1
0.0302764185235259,0.00756515774527231,1
0.0137010628087196,0.00820302233565421,1
0.0121513297323176,0.01874254014976,1
0.00455009058608972,0.0154689382019241,1
0.00211369611533543,0.0193192588975607,1
0.00150155434905538,0.0204931657473028,1
0.00161708051348583,0.0280626191392815,1
0.00154802739861009,0.0384920920257229,1
0.00059253034000016,0.0302428420163211,1
0.000277285113708765,0.0752882536372435,1
0.000168564654485673,0.0954395811614156,1
1.48541906421932e-05,0.0806953153865673,1
8.14613892831923e-06,0.107247623891993,1
4.22178776772487e-06,0.0807150917717613,1
4.59750957561558e-06,0.0930772836781565,1
3.96927182702395e-06,0.080893930269617,1
1.10583155029248e-05,0.0658625820551231,1
5.73422286935443e-05,0.109837411261015,1
6.02047055805766e-05,0.0738703614345916,1
6.1806834011002e-05,0.074577880932994,1
6.52690033329365e-05,0.0737642128626814,1
6.60224873353921e-05,0.0726452342963441,1
6.37029497568828e-05,0.0675798804557796,1
6.39956903635711e-05,0.0662198736429029,1
6.50744652050485e-05,0.0615407386924397,1
6.38883157576603e-05,0.0542269318379711,1
8.63054782076148e-05,0.0708554502384289,1
