Activity,Complexity,Tag
4.59592486289234e-07,0.209092633142346,0
3.14292754284312e-07,0.174516094133164,0
3.61634096943211e-07,0.188482372109422,0
3.68468077907027e-07,0.192558454139314,0
3.56017605280967e-07,0.190627445126409,0
3.51421916441849e-07,0.188191635049967,0
4.79099632680814e-07,0.225472813218838,0
5.33755745473057e-07,0.230889550362847,0
5.44880332693871e-07,0.227283826522039,0
5.60042456236083e-07,0.226051724334858,0
5.05734259970154e-07,0.231087221074866,0
3.99317259348366e-07,0.243726414471794,0
2.75534372463662e-07,0.192504063107925,0
2.87155265231749e-07,0.199835173316637,0
2.97706402097632e-07,0.196267819001418,0
2.86594053146589e-07,0.20724875636554,0
2.16672665681215e-07,0.177629586314927,0
1.87341685312934e-07,0.174180059374601,0
1.92831423466848e-07,0.180219061163777,0
1.92954898867204e-07,0.176709276599145,0
1.49035900933237e-07,0.151460255347696,0
2.73666943621099e-07,0.1768978554611,0
2.77413821035464e-07,0.170364570930821,0
2.51221956863156e-07,0.160465056808979,0
2.31549812370214e-07,0.158808167151363,0
2.71130125130231e-07,0.168604631087133,0
2.66432377862853e-07,0.164858559428389,0
2.83282727011712e-07,0.165223173816158,0
3.73803307905095e-07,0.202815990575521,0
4.66178423749677e-07,0.235720231794139,0
4.77782051815767e-07,0.229591410625395,0
3.32776038285325e-07,0.210574726791732,0
3.43823043617417e-07,0.22640238144418,0
4.00490603462552e-07,0.242876254656354,0
3.97867898542763e-07,0.233602310207459,0
3.28116754151508e-07,0.2110851807373,0
2.88373847235979e-07,0.211921905793631,0
2.64217251034506e-07,0.205743167730301,0
2.36882201341372e-07,0.186780135058282,0
1.39587956670897e-07,0.150620716184536,0
1.18158090682258e-07,0.149424372141891,0
1.34446135043298e-07,0.154049414383452,0
1.66058678561534e-07,0.176682596984745,0
1.43421376135778e-07,0.161764294049991,0
1.27016849671392e-07,0.154114382143138,0
1.37149262878719e-07,0.15538912338978,0
1.40694864463476e-07,0.147882749373798,0
2.28076110620355e-07,0.176357444050608,0
2.1720590457833e-07,0.172563052527848,0
2.11447580111074e-07,0.167597447999395,0
1.93320954257642e-07,0.150767958757129,0
1.74422661787114e-07,0.146112094760191,0
1.92002062149408e-07,0.152529917180804,0
2.00360800402229e-07,0.160897657952361,0
1.86574170965937e-07,0.147110887381312,0
1.30022874683616e-07,0.12966915954042,0
1.32292418104333e-07,0.138821479970998,0
1.09301735638972e-07,0.133264702203757,0
1.1148714095502e-07,0.129294468299968,0
1.17043533971073e-07,0.126206536764571,0
1.94440974482117e-07,0.167460599956488,0
2.18243316481859e-07,0.167096007427072,0
2.28581157788894e-07,0.162765769162446,0
2.49872250539964e-07,0.167186941048437,0
2.73207134342603e-07,0.188497214661745,0
2.57253675535449e-07,0.180184635188243,0
2.72215834491243e-07,0.17925246381212,0
2.96340960856165e-07,0.173358503606173,0
3.18519546706082e-07,0.172492401054424,0
3.21773178140614e-07,0.171158475161982,0
1.86801453118807e-07,0.129684691557277,0
1.32977542670914e-07,0.115538457011148,0
1.33537006431822e-07,0.120616685632175,0
1.83626496275652e-07,0.135276451141857,0
1.77631492412668e-07,0.126450370156134,0
1.71175149487466e-07,0.125817661093235,0
1.55136022791923e-07,0.118929040332727,0
1.16476202751027e-07,0.115586025316733,0
9.13814120473745e-08,0.113510391287828,0
7.82549935570616e-08,0.112850425492985,0
6.66139950600665e-08,0.112898571574025,0
5.17503978840265e-08,0.108448855009251,0
5.76651973719115e-08,0.103376993072876,0
4.60613507652892e-08,0.100302418152481,0
4.04179786176572e-08,0.100865401280616,0
4.06470090947792e-08,0.100988043474425,0
4.57119044552531e-08,0.109562871528948,0
6.72827290867773e-08,0.118194925926521,0
6.49312329667092e-08,0.114280447934436,0
6.53261357073191e-08,0.112180438017119,0
7.37373236877263e-08,0.117150955164135,0
5.82996205351601e-08,0.107979317180978,0
7.20309592169556e-08,0.122449984154664,0
8.42447524472872e-08,0.137363275015214,0
6.44198481227539e-08,0.116452200021581,0
9.75768175778402e-08,0.135464062908006,0
1.11994373528875e-07,0.143011574944839,0
1.30046695601561e-07,0.147252356904843,0
1.32554448201727e-07,0.153195566289835,0
1.4110134985226e-07,0.157200090134694,0
2.0067549876774e-07,0.16695748225201,0
2.39726724900741e-07,0.168836857999259,0
1.82949894789803e-07,0.144918818155294,0
1.88899442222213e-07,0.142954669946988,0
1.68307679172279e-07,0.131668454872052,0
2.21591357426045e-07,0.147197899181837,0
2.19858986632013e-07,0.146663015759222,0
2.13088600962895e-07,0.150618567931613,0
2.19038804016899e-07,0.150438148857808,0
2.06590735336688e-07,0.148560613730572,0
1.93540587491905e-07,0.153080049987777,0
1.94831724952627e-07,0.157287369665259,0
1.70655678643841e-07,0.15080481797504,0
1.50285952774017e-07,0.152283404261292,0
1.8230935249167e-07,0.171982698703833,0
1.8596575412595e-07,0.158392829143852,0
2.36637435945975e-07,0.176316952657687,0
2.4193944778324e-07,0.172266352287058,0
2.41400963913365e-07,0.181126428114138,0
2.9566894872148e-07,0.183842032634139,0
5.16568625364996e-07,0.22870864818753,0
5.19427135518387e-07,0.224813554669527,0
5.16579115310512e-07,0.218621357960195,0
7.60590982954961e-07,0.237164806197653,0
9.03115468749033e-07,0.238430265427998,0
1.44220775546335e-06,0.278430392299281,0
8.05727087744568e-05,0.121967549793575,1
0.000384206708093504,0.149403934444136,1
0.000383087652725477,0.123086408702743,1
0.000372401800482617,0.125550509673627,1
0.000453880344899819,0.0684519244637384,1
0.00189996982340467,0.0954005152956576,1
0.00213993862128146,0.0616564478098594,1
0.00202479321126331,0.0585250983624502,1
0.00192916011174951,0.0559677966497294,1
0.00181703480446902,0.0485060393757661,1
0.00178026289488931,0.0469365052148755,1
0.00178976669701882,0.0501365845005703,1
0.00175170896160601,0.0506156835950758,1
0.00174561199175741,0.0493423332820034,1
0.00184365315376686,0.0711346580503259,1
0.000840946764682557,0.0776393306765245,1
0.000460670906886436,0.135821368958874,1
0.000472570907601761,0.139905282558778,1
0.000499707996069529,0.151048161953038,1
0.000326418947727956,0.272375107749405,1
7.26650687745417e-05,0.397588791911193,1
4.97068500680696e-05,0.156722233374354,1
0.000154182733258145,0.252331832027561,1
0.000162264160403981,0.204594846653842,1
0.000168277868713984,0.177741749710191,1
0.000285917785590672,0.204365674980798,1
0.000658388019199734,0.254277080539663,1
0.000836219244545857,0.139692575756072,1
0.000824342838559027,0.106359763195478,1
0.000835874949454691,0.0766635596724683,1
0.000690402701772661,0.05853567859499,1
0.000635328552194753,0.0558051056944692,1
0.000622345051563191,0.0584433773914807,1
0.000466771710591581,0.0507167346385003,1
0.000361014128924885,0.0367664724972363,1
0.000537398305842769,0.0499299355871614,1
0.000556798494127371,0.0578794209543984,1
0.000651208812162089,0.0803543621777414,1
0.000661849903807427,0.106941721164399,1
0.000568490477911849,0.143255983497316,1
0.000536403731161544,0.22149674028031,1
0.000348473268153494,0.192207678134516,1
0.000263306008699008,0.158323882030276,1
0.000150712968734503,0.11520590752638,1
0.000100015499131749,0.167878422434484,1
0.000107149926121766,0.185612196417958,1
0.000107958568048486,0.193973725991183,1
9.6516703683889e-05,0.111862128176594,1
0.000233064898147995,0.106142242839454,1
0.000241917121682531,0.0715529287623907,1
0.000389500105063013,0.0732087946717803,1
0.000389723317772644,0.0698524216369514,1
0.000411234551864712,0.0686507511662505,1
0.000432969372807801,0.0676222064289525,1
0.000415179727712483,0.0645671840968342,1
0.000355076536533716,0.0587043139704371,1
0.000340547507646861,0.0560760760622794,1
0.000370428334025794,0.0711450687166691,1
0.00027647964942739,0.0796246743156289,1
0.000264840452797078,0.124307926633188,1
0.000112951625858113,0.140535505919206,1
0.000107727646103063,0.120693463115793,1
0.000191374179467188,0.172440926843891,1
0.00020163862612209,0.12636830163641,1
0.00020579861179605,0.111642933689171,1
0.000239804106824874,0.118443071921812,1
0.00025335536111533,0.101877793763274,1
0.000274156099614882,0.10270013036343,1
0.000278987783380784,0.0947645754272495,1
0.000466529506491214,0.102001594964487,1
0.000516939255464381,0.0862905716106722,1
0.000850141109485592,0.0869949647522556,1
0.00216028027059356,0.126394939893845,1
0.00275608189620206,0.161194645698072,1
0.00259766011651746,0.119598606756333,1
0.00254864786802613,0.110388349831344,1
0.00245996708982963,0.104381541622315,1
0.00165662192909999,0.0765193492189284,1
0.00122468714552621,0.0560999157743343,1
0.00112045445423971,0.0403424501951188,1
0.00111521466854071,0.0321106649126018,1
0.00213668206927126,0.0341408442761382,1
0.00476723333805754,0.0530223585278683,1
0.00504054206031064,0.0367744579372346,1
0.00480112164706397,0.0357082598551856,1
0.00677809347849682,0.0269860107706904,1
0.00891210345312523,0.0238779661289248,1
0.011341096113968,0.0140738593060446,1
0.0210427183058709,0.0213577443577021,1
0.019214868239072,0.0191007326696518,1
0.0149980675568441,0.014457831449502,1
0.0141297303345762,0.015293341173275,1
0.0174644594522334,0.0173268386588198,1
0.0159712908676878,0.0110725025359859,1
0.0140285399160901,0.00905164207502442,1
0.0153898688139376,0.0122911519636232,1
0.0158057331845533,0.0154107390580761,1
0.0204784980293052,0.011387955814223,1
0.027195188592268,0.0155050387335648,1
0.031997006430791,0.0191034772252292,1
0.0347763779536741,0.021047442263502,1
0.0346705602121699,0.0198767332962961,1
0.0341762167034306,0.0214028645108119,1
0.0344438985262472,0.0282775177114764,1
0.0270571282612305,0.0225677626108711,1
0.0171795498791272,0.0150161669546631,1
0.00888649836503531,0.00499109098845563,1
0.0085324472628542,0.0264307058521268,1
0.00798349632406715,0.0384618174372324,1
0.0085207978896655,0.0270441125444595,1
0.00958807961234166,0.0207922226132132,1
0.0153038021362831,0.00739761116483413,1
0.0712537172971863,0.0311585380059046,1
0.171607530897735,0.0534174460744893,1
0.204613453587027,0.0480850997533921,1
0.268351892772815,0.0508271395934735,1
0.279729676841832,0.041160215769987,1
0.249686364699336,0.0339861698373306,1
0.221078591589504,0.0237799767814219,1
0.154590671929445,0.0151209481453572,1
0.109584474175583,0.00970463923426498,1
0.0956484674135787,0.00896708146248279,1
0.117934389282781,0.0119031339005106,1
0.133153389272872,0.0131052198123795,1
0.170898279694237,0.017902733065584,1
0.159269929753257,0.0198465964064976,1
0.150133581463783,0.0210016073148059,1
0.145891883916236,0.0281843212768678,1
0.0741773353499618,0.0216755695551042,1
0.0683086549529988,0.0265846220849574,1
0.0405192563686551,0.0205815247200131,1
0.036023036981548,0.025012891249026,1
0.0238216330464804,0.0134871699359664,1
0.0191002928231903,0.0160151135844434,1
0.0189008511430727,0.0161368584956295,1
0.0173822359899045,0.0145691515177698,1
0.0164956595724295,0.0135772411466942,1
0.0172191585958187,0.0150276615739213,1
0.0198093921357741,0.01631326138539,1
0.021653463535907,0.0141552739330894,1
0.0157230150983466,0.0111060136056618,1
0.0119985972307839,0.00706270031321738,1
0.0121556857943397,0.00491260481112131,1
0.0152167398019532,0.00290578067702269,1
0.0259670274375054,0.00767346020168058,1
0.0319316142556317,0.00876646676873172,1
0.0326395750579323,0.00870520137126384,1
0.0366732726132728,0.00917599190390784,1
0.0344651463473174,0.00725260631166394,1
0.0324720996648054,0.0058599008185406,1
0.0333926012490217,0.00612662818066745,1
0.0331510035540476,0.00622512991073462,1
0.0270851866582293,0.00847250047261916,1
0.0123303270403665,0.00732565478405101,1
0.00944443459756075,0.00656545008829743,1
0.0109342308136672,0.00945600573521637,1
0.0128853611350552,0.0117813430633453,1
0.0195800187633132,0.0215767135457534,1
0.048402156879096,0.0413730570545468,1
0.0528386676536693,0.0476408575380208,1
0.0843507823164695,0.0212634352037859,1
0.155159415576729,0.0308628348932693,1
0.153023533505232,0.0293607876655566,1
0.134925794996419,0.0256832712883697,1
0.107188371294138,0.0224831670344065,1
0.104750740188512,0.0207787015549205,1
0.0907760768229464,0.0120348109803349,1
0.0841024915635524,0.00976000354122907,1
0.103340781667088,0.0138612851614213,1
0.108286605683972,0.0155156037468183,1
0.121532272558434,0.0358523901739495,1
0.100742137053012,0.0333127014522486,1
0.099764254098754,0.0331399056826336,1
0.103046857530455,0.0345399426032679,1
0.102950338186801,0.0317739185571737,1
0.0661721564848731,0.0296762899894288,1
0.0487660324116509,0.0190184243385105,1
0.0991995277762895,0.0289513203973671,1
0.100011433073266,0.0284095269863399,1
0.0972233382493712,0.0263017690553458,1
0.089395804600385,0.02399029988975,1
0.0854741093389194,0.0235117126296949,1
0.103120947665103,0.0257224852834714,1
0.100364855047521,0.0203637358235445,1
0.0711495363053778,0.0148659974751322,1
0.0635958210754815,0.0119131836643509,1
0.0707871330865034,0.0195068374514967,1
0.0608671662968204,0.0186298100588728,1
0.0669811214739418,0.0185630755377801,1
0.0997024505490354,0.0221824373472308,1
0.158692527863167,0.0347303731489623,1
0.201507059214842,0.0409348611116509,1
0.174581916066358,0.0428063919900395,1
0.14073015610734,0.038308529047302,1
0.116631971698668,0.0336652174172288,1
0.0714248662899947,0.0224780470205206,1
0.0620809789703935,0.0180934295857245,1
0.0415726666434736,0.0120892532364774,1
0.0260482626368221,0.00638032438143183,1
0.0238840225164768,0.0105812552110082,1
0.02076707907919,0.00809443422013395,1
0.0195083691400592,0.0036878512734098,1
0.0247684440333973,0.00535534220572713,1
0.0261521749913974,0.00521518967671018,1
0.0279986058488634,0.00309536857355395,1
0.0321928846023313,0.00490483122535588,1
0.0318508231376685,0.00835706670798621,1
0.0287250496733534,0.0085753803509644,1
0.0354552948790776,0.0122328694333769,1
0.0347511424517155,0.0112956634385913,1
0.0323964351906113,0.0105687850607398,1
0.0303431354743865,0.0154152179239806,1
0.0296012068092996,0.0181807148394755,1
0.0164794093687986,0.0150812930846748,1
0.00770422625996769,0.0184942455353548,1
0.0113544202976528,0.029375884495912,1
0.0181690602498069,0.0457134632897509,1
0.0351134105321184,0.0379251142261771,1
0.0573756294122175,0.046583338328779,1
0.0829016901306162,0.0534195965872852,1
0.0937625911029664,0.0588778094484467,1
0.0924673072668383,0.0509463592819164,1
0.0863151115079975,0.0475172726816641,1
0.0765288121737751,0.0388861499301482,1
0.0530747917868596,0.0274843792580209,1
0.0365718376909843,0.0203561539963871,1
0.0234584391765915,0.0132219949600035,1
0.017111682406385,0.0155553640037643,1
0.0183024227680148,0.0135121282390621,1
0.0211371750148156,0.0116490594486134,1
0.0236715868272061,0.0109693465060164,1
0.0205784495607492,0.0073674811750429,1
0.0364367531017976,0.0121281143827647,1
0.0478674923951063,0.0163980918692902,1
0.0549469047834693,0.0140131833476899,1
0.0613717081524454,0.0140344134261833,1
0.0816500482885831,0.0167399264825743,1
0.133170459011582,0.0279005530596061,1
0.137039392702766,0.0238237344728304,1
0.134178911844396,0.0292140353071128,1
0.147090857847684,0.0235808743472705,1
0.175415011341096,0.0295580763665275,1
0.167169501681038,0.0318907068336267,1
0.140249423352518,0.0187796761406221,1
0.110956022696548,0.0112103096397797,1
0.124187007082089,0.0127789547328196,1
0.137709305831697,0.0153012843096648,1
0.175653224263708,0.0168666482529769,1
0.22257685243877,0.0224372742202119,1
0.241657943339765,0.0217432452053575,1
0.241584537269326,0.0271862931947237,1
0.226890790082922,0.0212467633183205,1
0.164318068920585,0.018574666612013,1
0.0504176530363143,0.00458032865139044,1
0.0448896276466486,0.0082037989126929,1
0.0361477750739113,0.00540002434377855,1
0.0312032414147363,0.00427556602550268,1
0.0287178741572468,0.00490592894849316,1
0.0248510439591094,0.00342342385535304,1
0.0234382586371077,0.00473214965931629,1
0.0220803654497055,0.00667748864715362,1
0.0211844314675904,0.00764418603621328,1
0.0202821799315225,0.00547187650920499,1
0.0217375139918351,0.0063607396815504,1
0.0312214988799318,0.00969593637276633,1
0.0356482023074447,0.0142311008301394,1
0.0277847488646363,0.011912189954036,1
0.0285672077061757,0.0136085114065851,1
0.0263673883570496,0.0111172215728598,1
0.0249548930866308,0.0110946141201102,1
0.0245829637970024,0.0141809639105282,1
0.0306854348588811,0.0121936691543901,1
0.0584351269530294,0.0241120466129534,1
0.0596579059116853,0.0185617752494909,1
0.0553750288703299,0.0190378892915315,1
0.0548185390963918,0.0189221568510899,1
0.057062013774519,0.00978038473132394,1
0.153569291045415,0.0203510536609676,1
0.198914521930091,0.014204613465813,1
0.20907606072356,0.0132640141938416,1
0.23931641449603,0.0145517053972961,1
0.250227756499901,0.0170710513983849,1
0.27357204617163,0.0207588499707188,1
0.383731913522225,0.0259179205692319,1
0.423798769075214,0.0186244573859406,1
0.291816685625487,0.0122923829752719,1
0.201757647781802,0.0088062566225521,1
0.209130959066678,0.0118705688102629,1
0.20217416012859,0.0126666835308021,1
0.213247162641957,0.0148532315753475,1
0.255069443988358,0.0184679474609408,1
0.279785505074911,0.0199964633740084,1
0.347653968648431,0.0253035353458821,1
0.330498440978158,0.0376184204317344,1
0.243444769437781,0.0416847650037923,1
0.245132048750814,0.0456889107285781,1
0.228891828007677,0.03470542758142,1
0.158077043045405,0.0277887580591093,1
0.109588772947607,0.0246416154317164,1
0.17921622850898,0.0410371518426749,1
0.23759793996273,0.0494422600620686,1
0.266008379003013,0.0459654437863814,1
0.239598842030234,0.0462009369979264,1
0.188933969390319,0.0374171525791998,1
0.117356732043596,0.0260858069523667,1
0.0849206238329276,0.016917477674462,1
0.119910837117833,0.0303822558457466,1
0.153911092562234,0.0353557180583811,1
0.20849308570615,0.0571168874574495,1
0.262125708882245,0.0661782495297883,1
0.261301803993667,0.0848002796824476,1
0.227231568517759,0.0838706484294343,1
0.192722330096493,0.0729261484127839,1
0.128348397126352,0.0589009078259553,1
0.0873262155110727,0.0416232459984169,1
0.0456190898281745,0.0340213813799844,1
0.0586017028617384,0.0215734826957884,1
0.0632154658518503,0.0130941931366541,1
0.0597066570298106,0.019330215811804,1
0.0568141269708278,0.0184493002838646,1
0.0572495347373716,0.0173530720685547,1
0.0530124981975878,0.0130358447658268,1
0.0511372769870689,0.0125529603211398,1
0.0512303213389278,0.0128806928210436,1
0.0569077243381907,0.0152558144913726,1
0.0711757571093429,0.0183858925183781,1
0.0632530632421233,0.0325407934820959,1
0.0514433362576392,0.0581981641701753,1
0.0511069129218996,0.0388032243960807,1
0.0437327659817386,0.0401216172024764,1
0.019452574445958,0.0237873343409804,1
0.014255503687093,0.0292341883163734,1
0.0168282067168255,0.0217872240395887,1
0.0220167533529568,0.0263734024589653,1
0.0355534048531627,0.0384792497376878,1
0.0595277296739982,0.0472156684107262,1
0.134567061299478,0.0712512228983564,1
0.180934211521023,0.0914828623543353,1
0.20764323368055,0.0647539465827614,1
0.197095911518322,0.0456129600321869,1
0.208532161038397,0.0380659502850808,1
0.169383085646231,0.0248402054349568,1
0.13055841252747,0.0193426664422157,1
0.0946032326224727,0.0132923278108539,1
0.0698138147227668,0.00853715881428103,1
0.0790587113110401,0.00922748935180091,1
0.140397446474781,0.0142887414703751,1
0.259392436874516,0.0264763956762873,1
0.284989279376857,0.0304187432663172,1
0.242872752163041,0.0290819968779712,1
0.236803443435569,0.0369870611353081,1
0.253311376322054,0.0347079604931376,1
0.298791838900357,0.0406351363191125,1
0.361437413293556,0.0481957913510133,1
0.391473784327831,0.0526763133996945,1
0.409834166622731,0.0643277689214345,1
0.357749443118675,0.076055108039951,1
0.207370988561628,0.0516441200623088,1
0.152970616801769,0.0363462313957011,1
0.121138286020374,0.0292739050689707,1
0.142573191977641,0.0265805724055064,1
0.164406741969658,0.0287708691091446,1
0.246442879334827,0.0373972099892288,1
0.234955415369383,0.0350914582540804,1
0.187047112101306,0.0242231912134471,1
0.138894008370599,0.0169232428380961,1
0.170919351847838,0.0189775852946328,1
0.2009636335159,0.0216009810008463,1
0.23930847497796,0.0251882889932788,1
0.365958335990315,0.0365344522270052,1
0.470252006558964,0.044332863902047,1
0.507315297407835,0.072081434087614,1
0.388059025670122,0.0648813460934121,1
0.259510429527175,0.0403764100583222,1
0.183658037891403,0.0338081486530681,1
0.0925326947993226,0.0168367051276388,1
0.0811882286679746,0.0197697913880018,1
0.0769104777463281,0.0213403486150568,1
0.0562762754243793,0.020106700374233,1
0.0566570094882406,0.0220420627920257,1
0.056081897420166,0.021428399508845,1
0.0550817289685,0.0209961820100856,1
0.0464077345986713,0.0271357090340832,1
0.0299679723777908,0.0170249731201735,1
0.0247048183510764,0.00698181804235296,1
0.0381419807002463,0.0163003826092418,1
0.0452214922380445,0.0222835171433688,1
0.041640974758834,0.0196480918299359,1
0.0470908436218758,0.0278310000546117,1
0.0509869506351108,0.0428073219547143,1
0.0407977219026679,0.0322257704312375,1
0.0323937194381265,0.0281166976242175,1
0.0317139925927713,0.0260893349558154,1
0.0219624734801993,0.0154068638951942,1
0.0124487662250924,0.0181870338727461,1
0.0158585824826863,0.0190583465120975,1
0.020682646993799,0.0240449098468341,1
0.0238867811756798,0.0244433569429173,1
0.047051329570605,0.0336354013128208,1
0.0624661376760091,0.0426349831119302,1
0.0917596585203111,0.0521939291866157,1
0.100528055546362,0.0495343833651514,1
0.122717952766377,0.0238142267189306,1
0.300568878167241,0.0466031414099462,1
0.446448296892583,0.0703392794353115,1
0.651559122282642,0.0823615671985775,1
0.638302241093243,0.056399348877218,1
0.563255884816304,0.0502641219347935,1
0.476874347501339,0.0371612459616783,1
0.377548981704204,0.0317330965997587,1
0.326818711028529,0.0226880906840286,1
0.271649016694587,0.0141684206362998,1
0.222984918230727,0.0144287277271547,1
0.228680056673537,0.0125002789537422,1
0.269586446421264,0.0159275262889904,1
0.270067252032036,0.0168208109849058,1
0.306243671675856,0.0212526909576932,1
0.337580136466666,0.0235889416180188,1
0.460726057150841,0.0320950817653216,1
0.521311350432957,0.034887053397191,1
0.534192640574228,0.0402614914699695,1
0.540480586422975,0.0720967398637084,1
0.297182804053346,0.0506563159982838,1
0.161504740607053,0.0230029931216048,1
0.209380942396344,0.0178825172298101,1
0.208180437958897,0.0191467985181142,1
0.235408202215045,0.0213322289022285,1
0.254027843356923,0.0266089487077433,1
0.247759916341872,0.027840001103389,1
0.230407270264184,0.0279038773199573,1
0.190116953647298,0.0116797654920087,1
0.157294387056485,0.010085725541017,1
0.171567362948717,0.0105243953252,1
0.260395986269496,0.0246842051928357,1
0.316480381699725,0.0381263712489066,1
0.371167585261227,0.0400580387803706,1
0.369572186284559,0.0411293660644174,1
0.34608971500644,0.0378939484080737,1
0.270492750952992,0.0300956848681245,1
0.131932610350612,0.0135674212436145,1
0.0639812589830169,0.0167533251945427,1
0.0540849564076648,0.0133829850843067,1
0.0456586388634137,0.0197221196937119,1
0.0462258449272642,0.020755402560319,1
0.0347454266690037,0.0117793022780531,1
0.0234036198631938,0.00815431721654507,1
0.0296965331707867,0.00791909411667446,1
0.0315795880110247,0.00449957849581596,1
0.0300355389761674,0.00511901365863485,1
0.0283834655479793,0.00429158694938452,1
0.0313580792339464,0.00571157974973783,1
0.0411026060029993,0.00734072016769897,1
0.0602200180429135,0.0126411823084725,1
0.0668356233099752,0.014755201890594,1
0.0604055208844854,0.0148189427700691,1
0.0670812073203966,0.0167820561087007,1
0.0468686579961424,0.0149941095772958,1
0.035186952311639,0.0210124937858028,1
0.029750129967795,0.0246766009428133,1
0.0269837752216176,0.0112199528042324,1
0.043169406181854,0.0154407101516588,1
0.0484675043356176,0.0216700705095076,1
0.0541453830552209,0.0237174488961652,1
0.0547441027596682,0.0243066682170616,1
0.0864787497103055,0.0280443568920024,1
0.173958108371314,0.0438362214648936,1
0.187313530117559,0.0346779827667817,1
0.295240756812969,0.0338341321564955,1
0.475985379563139,0.0618859919065722,1
0.528074326543046,0.064840636552301,1
0.663590646658446,0.0802616107660902,1
0.720750843113955,0.0838916254954021,1
0.628793467999928,0.0593138738003758,1
0.456451246482467,0.0368886057363385,1
0.364600910285586,0.0323212021055132,1
0.335869261212894,0.0328964007898839,1
0.257050155979269,0.0307065915648893,1
0.240723331659246,0.038613616400614,1
0.255308787940392,0.0385910432929497,1
0.330595995659547,0.0467123743567904,1
0.290361023651444,0.0513892896779572,1
0.22857767355349,0.0372952432805998,1
0.231208134289676,0.0429461469069859,1
0.29615779473038,0.0661719056607818,1
0.360757620761036,0.0877893405908053,1
0.357981534464648,0.0823776910793749,1
0.284107097221817,0.0744021220631083,1
0.169192424811033,0.0339350892824969,1
0.198188024980583,0.033490580840805,1
0.289320640829036,0.0267689151994615,1
0.273435977130123,0.0208374132207962,1
0.311606693606202,0.0221973248596837,1
0.296945358685293,0.0162572548750965,1
0.263619399074305,0.0145691261910027,1
0.242021198568624,0.012354717187394,1
0.198478869880689,0.00506181469223117,1
0.265961346849968,0.00565362454906275,1
0.3974969133738,0.01272364352506,1
0.462846798453046,0.0167836752072296,1
0.497062954933445,0.020595314643775,1
0.555621751531556,0.0224242402804607,1
0.530281433327256,0.0281112533377634,1
0.500275218336849,0.0278413058414521,1
0.46131570595376,0.0266358605496428,1
0.237356576049085,0.0168899750707953,1
0.0288990074294968,0,1
0.0109204400459474,0.00910212328135241,1
0.0316941195516166,0.00466644607517967,1
0.0767956507256065,0.015533443433289,1
0.0787062562427053,0.0172513170085693,1
0.0790838754431247,0.014447656890268,1
0.0764001032467202,0.0137461818732592,1
0.0710855021688365,0.0123724068031932,1
0.0708915682468508,0.0105261459373533,1
0.0742624150557416,0.0110322185677612,1
0.0753136394086143,0.01167733060583,1
0.0722893103840278,0.0102667746198494,1
0.064764840281289,0.0281435200795804,1
0.0322626268326728,0.0181686659879226,1
0.0265860322419353,0.0130414045558982,1
0.0248568722005933,0.0179226555704082,1
0.0236880317277225,0.0255001493086986,1
0.0116380256038201,0.0156284294280809,1
0.00931706382761756,0.0229124903171028,1
0.0102017867748708,0.0222252293542206,1
0.0103443518759856,0.0126350411341912,1
0.0383177600878785,0.0183417972577187,1
0.0776124995958227,0.0290455077959321,1
0.104986431147926,0.0270889953872034,1
0.185077701594812,0.043781151855164,1
0.188767851534478,0.035278844425238,1
0.208921668645956,0.0298962221187634,1
0.258995157752794,0.0340277268919769,1
0.231360103787793,0.0276348046768301,1
0.18414548861167,0.0229964599711791,1
0.142077586790486,0.0189084199500976,1
0.130823040562367,0.0191049807436644,1
0.11428120709954,0.0186502206296862,1
0.0826625881588973,0.0179154925404425,1
0.0863336207109056,0.017840506474373,1
0.0920483853876504,0.0203617093412875,1
0.12703219266782,0.0380087561793745,1
0.201957512965496,0.056381708595402,1
0.253137914718479,0.074303672290481,1
0.29402110934563,0.131045478267918,1
0.284356616407016,0.120954576693553,1
0.238419347615534,0.103393763397107,1
0.191350075308476,0.0296756016056119,1
0.216183671174242,0.0283841977295988,1
0.225016626866891,0.0270922532553195,1
0.281520155831721,0.0242507471745732,1
0.463862046547779,0.0363911745987993,1
0.463494148546836,0.0320373404123299,1
0.423632571063077,0.0271638790228254,1
0.349985503757132,0.0231972910120538,1
0.248048600380294,0.0163535917971829,1
0.192965273318421,0.00640724350701542,1
0.271725822804849,0.0172942570146971,1
0.328218121788227,0.0183628407706635,1
0.330971653177215,0.0177340099910782,1
0.359107441129043,0.0244335133131287,1
0.250760716858586,0.0170513266238585,1
0.194135869383329,0.0136957476412082,1
0.174473132312209,0.0129051936987122,1
0.171943203744965,0.0141951073095828,1
0.0683211507786858,0.00251044109475576,1
0.0475917095733095,0.00829016384213691,1
0.0614453017428997,0.00421252466677122,1
0.108308422319715,0.00908979696477611,1
0.087829073314341,0.0076205735443484,1
0.0844339777421834,0.0116084434163016,1
0.0792372583556261,0.012114030434623,1
0.0812223351479605,0.0132290748120823,1
0.0773640372929591,0.00950696135641273,1
0.0822641603802739,0.0099827677488462,1
0.085663173545186,0.0103915343184873,1
0.0844037816098963,0.0103804379002632,1
0.0772760788661789,0.0221528070327024,1
0.0295813722612184,0.0174465555601062,1
0.0390284983198284,0.0287868166216701,1
0.0455140290376421,0.0320176970767774,1
0.0522779260198362,0.0335991977910458,1
0.0344023189087648,0.02480779201536,1
0.0248818183341268,0.0416092520269001,1
0.0258641434450702,0.0265359437933639,1
0.0429673952988168,0.0270851669008609,1
0.0432545550642352,0.0194871023679408,1
0.0755081749388097,0.0285218142620441,1
0.0921161511820064,0.0336722384116652,1
0.0885650275500633,0.0315199014387616,1
0.0821376380146145,0.0303564023535195,1
0.0768776748835598,0.0270471119439445,1
0.095446062423507,0.0166265512342389,1
0.1644723951469,0.0259201249498289,1
0.163306692012835,0.0267300072972549,1
0.227440426597125,0.0369922601742952,1
0.206586574078672,0.0320159074772201,1
0.225851962863707,0.033443141507715,1
0.204005466928559,0.0260069819835148,1
0.142648418176885,0.0185255853241757,1
0.0846709113208741,0.00907681498497165,1
0.0975842775692497,0.010103426447407,1
0.125575076446186,0.0238299975777148,1
0.160644860987277,0.0276715024789028,1
0.223502373485519,0.0376404989076746,1
0.212854046953604,0.0394007848006909,1
0.232592284670009,0.0454504315079869,1
0.186764940214724,0.0359467520088344,1
0.155221596856492,0.0316349662938946,1
0.11111423619159,0.0274559729365497,1
0.163753848539338,0.0268422918250331,1
0.267736973417751,0.0312517167334918,1
0.28743087938309,0.0295023186414022,1
0.326628204092413,0.0294014388516441,1
0.288887963469431,0.0250985911191022,1
0.278982004461057,0.0215864262976739,1
0.207626894498798,0.0127802727133088,1
0.124690839674908,0.00658727572590974,1
0.134531369549423,0.00660975257670052,1
0.178204149271624,0.0100696496412041,1
0.2215268083348,0.0178140256961963,1
0.265560428293225,0.0229084987640871,1
0.322771355132071,0.0287698872364214,1
0.284183596348851,0.0285030436885926,1
0.312371669014864,0.0317008117570126,1
0.210568438963485,0.0311346112014306,1
0.138680913322691,0.0281819330802781,1
0.0877456401899583,0.0155233864842371,1
0.0952329825764036,0.0355712794015097,1
0.22569554986947,0.0397343556725783,1
0.318583044166302,0.0181338144614284,1
0.300759841464284,0.0163145723105537,1
0.278738767556713,0.0104535263117693,1
0.297360356267996,0.0119664119537078,1
0.257019081630054,0.00649488364620883,1
0.258068747382014,0.00664029285461364,1
0.279088226978088,0.00790853426288677,1
0.321721138236188,0.0103646648703132,1
0.340742694737949,0.010531011074765,1
0.260516071819482,0.010097672870943,1
0.164211686704622,0.0108879578299303,1
0.164802438124946,0.0122422622735166,1
0.153766406889567,0.0274112731675294,1
0.0335762872396789,0.00527386277623936,1
0.00915008961742552,0.0245849662730186,1
0.00892055138323252,0.0186226046389284,1
0.02904835112663,0.0225551594091055,1
0.0361672468604449,0.0139728490237882,1
0.0437720371942673,0.00934011830338059,1
0.0737709661390717,0.0203807320689141,1
0.126692331370667,0.0278675673241453,1
0.192767539408646,0.0375953374043618,1
0.330536920275197,0.0290174521756333,1
0.563296735340176,0.0398060742113909,1
0.62946843254442,0.0475455498524178,1
0.837631314806736,0.0520480431636606,1
1,0.0547442725472595,1
0.900413577443913,0.0496422302595689,1
0.673207882059669,0.0417085211673949,1
0.515797994998915,0.0310825711045862,1
0.35782187756403,0.02321683371987,1
0.262590207722137,0.0141308177837695,1
0.384419181499593,0.0327965784864782,1
0.639951974261135,0.0472238810985149,1
0.763725423070648,0.0406307084904246,1
0.701127199558091,0.0536333061434386,1
0.610248906912246,0.0490951630682068,1
0.634187585776665,0.0482895611592952,1
0.628745347882621,0.0556383431125046,1
0.381264537115728,0.0229800281076511,1
0.274563538427166,0.0132613225727416,1
0.23395754303064,0.0133778347579715,1
0.237673274735313,0.0178473194205499,1
0.269607462922208,0.019841152830815,1
0.292983562651765,0.0216640623853612,1
0.288737984758419,0.0211087099757458,1
0.319167128911552,0.0234805892747008,1
0.253240759571835,0.0205941022534756,1
0.120688237692128,0.00825640833051824,1
0.0702000923119775,0.00468918243271522,1
0.0658374096638087,0.00633802576353355,1
0.0616298587620307,0.00784217107614302,1
0.0826812118438257,0.00554370608343876,1
0.242834099988641,0.0227051940856536,1
0.410117931824953,0.0375404392452444,1
0.536596384250036,0.0534839840488318,1
0.605944407289742,0.0613315479371969,1
0.643072252293878,0.0637233380753936,1
0.626232704917279,0.0827304337267408,1
0.450505633594344,0.0445650735431463,1
0.323107145421234,0.0291245657914699,1
0.182351670232857,0.0170663219751215,1
0.122203007850176,0.0251147749848191,1
0.124718001279471,0.043281454735908,1
0.130221835064054,0.0479473506499377,1
0.125010616437869,0.0423748607579725,1
0.100058268891682,0.0373435453217549,1
0.0812970410858997,0.0226922253744576,1
0.0582047850622562,0.0131936250568767,1
0.0342075497683569,0.00963969881757674,1
0.0587673056361222,0.0161139670481446,1
0.070283920188745,0.0174828668662649,1
0.0788884779226363,0.0209167124521472,1
0.107438606154121,0.0284888033007567,1
0.124829680983264,0.0303533935317419,1
0.143088328981572,0.0340133947686046,1
0.149123300595586,0.0304540588054794,1
0.116910194977442,0.0440469628557658,1
0.0531833752916639,0.0259813646732926,1
0.0230959626122367,0.00771472015932943,1
0.0242772816959198,0.00971793153419781,1
0.0319246996902508,0.00320804877420407,1
0.0598572207858449,0.00955863934062826,1
0.0585868620594325,0.00902300986044669,1
0.0711392934295475,0.0114033216969067,1
0.0993333511669756,0.015210073865618,1
0.137792688724757,0.016133235036885,1
0.130275447230799,0.0133942899740251,1
0.10326241715697,0.010470038441422,1
0.0999232449002882,0.00851455364857687,1
0.1062549452561,0.0123285782765099,1
0.124249965963155,0.0195829899018063,1
0.1600500526651,0.032489839717358,1
0.123037144867199,0.0202141484755655,1
0.115220941364002,0.0197138484478956,1
0.119040619458097,0.0193857261319438,1
0.128491526275116,0.0283160804426796,1
0.0980157926455139,0.0260882909413754,1
0.0749436267614078,0.0159581616723392,1
0.125229326617463,0.0326438651033077,1
0.214546258224448,0.0448997310335229,1
0.267679919794693,0.0620323449493257,1
0.26951448391659,0.0549634881214014,1
0.259124524332997,0.054600149168291,1
0.259935394390581,0.0516952658433445,1
0.239768155752001,0.0781513286163796,1
0.154829296231005,0.0467915279299206,1
0.0608699016867018,0.0221558046701446,1
0.0247418085155553,0.00810456853853454,1
0.0196837118898284,0.0112383630873581,1
0.0198444682855624,0.0104701888760772,1
0.0205523253742087,0.0109454071994928,1
0.0189545008620747,0.010582952434486,1
0.0253337572276649,0.00654336228986791,1
0.0410517353284426,0.0125383639599052,1
0.0377919449070662,0.0121930150828322,1
0.0330627251238305,0.0107356432236244,1
0.0297424273107278,0.00971519479874463,1
0.0316713861518926,0.0107529057607333,1
0.034839433080865,0.0116672611684409,1
0.0392580785516109,0.0132174506067518,1
0.0478053704840643,0.0164654843944378,1
0.0559450354113328,0.0162238553018918,1
0.0479039024398102,0.0239409685267247,1
0.0226961651203415,0.00922884346189284,1
0.0240944714765028,0.00997327677587851,1
0.0246423593650853,0.00992196576462349,1
0.0211910037648435,0.00800016175957002,1
0.0214471546437709,0.0100137112580988,1
0.0220674380691897,0.0121728882976669,1
0.0229543595702501,0.0139708587188984,1
0.0246137725053929,0.0154058302741585,1
0.0259500610955654,0.0232866626746864,1
0.00887009983379333,0.019548285952533,1
0.00218058215820427,0.130002135563607,1
0.00232495576788598,0.208864135427434,1
0.00185703911295937,0.237617696697931,1
0.00123630717112547,0.214536783083758,1
0.000246578841450572,0.170311339993578,1
0.000152157877650937,0.444011892445275,1
9.01449475270664e-05,0.501382914296905,1
2.70363589844815e-05,0.835529782543032,1
2.06541624908426e-05,0.573469769322833,1
5.47973304056594e-05,0.334998516793087,1
0.000132988286123447,0.293837506620135,1
0.00016612102380439,0.162794870840788,1
0.000320846786575466,0.145698211161279,1
0.000347264130378339,0.132870336207909,1
0.000375588077943849,0.124614442180311,1
0.000322732241733779,0.112795917322121,1
0.000272954533176444,0.0975505154495426,1
0.000218594526195444,0.0768501014817991,1
0.00024140739949494,0.0652069410146505,1
0.000362212780032631,0.0840690697509101,1
0.000384307408073819,0.0701835343870188,1
0.000423974220050407,0.0512343028340147,1
0.000751210345898247,0.0659776684738937,1
0.000733456412074116,0.0621801877256523,1
0.000756048632210689,0.0585898232395861,1
0.000725899283769329,0.0508017534547572,1
0.000699942513481192,0.0494164206458458,1
0.000587745215452938,0.0454466108552552,1
0.000647333109693694,0.0547183904982313,1
0.000717312107721307,0.0589463879608758,1
0.000743784794072782,0.0736399204804381,1
0.000720086460757004,0.136324013387989,1
0.000281958554964233,0.124236111785782,1
0.000249061743369807,0.140283211423322,1
0.000234970083801123,0.212642376050525,1
8.10417282251173e-05,0.207975469887885,1
7.63709381508537e-05,0.255666096604627,1
4.80096992661115e-05,0.197951225156966,1
5.31157047230665e-05,0.247071617142039,1
7.32850726335152e-05,0.352462491077703,1
8.40234145968777e-05,0.378844212455851,1
9.24470034412102e-05,0.394361144807114,1
8.24722718167873e-05,0.376962182324589,1
7.13034255489733e-05,0.465580731119056,1
2.42442678879961e-05,0.504958658416324,1
1.88502015338463e-05,0.552298924568275,1
1.46447439129345e-05,0.52042786256363,1
2.00949767134904e-06,0.247975981577898,0
7.94326647737737e-07,0.229061957126324,0
8.03975649289154e-07,0.228228139986611,0
8.26662997496647e-07,0.233551106828308,0
8.86750061039804e-07,0.246613518377726,0
8.38336558532851e-07,0.244450764074643,0
5.63543694092924e-07,0.208159503319301,0
6.18094907429997e-07,0.221735185039626,0
6.47361855422519e-07,0.216951117384626,0
6.81148221608626e-07,0.231132686834243,0
6.90360797718429e-07,0.249626706730784,0
6.99773994036244e-07,0.2410704748555,0
7.42487085316816e-07,0.239609516487276,0
8.89928514531464e-07,0.259406517442944,0
8.87241340154851e-07,0.256364186722076,0
9.37515496747886e-07,0.261058943712766,0
9.8650244960977e-07,0.270544238023758,0
6.41592385388151e-07,0.231634257901627,0
5.70855841739891e-07,0.242617909690003,0
6.00695584465747e-07,0.245674351358093,0
4.82057797316616e-07,0.212529643072395,0
4.73897493866492e-07,0.220717854638426,0
4.23758832403052e-07,0.225461108607458,0
1.93139347075879e-07,0.155769026932207,0
1.75976047885761e-07,0.149103963623687,0
1.50627968705979e-07,0.144394955510023,0
1.11318646205152e-07,0.126908545189816,0
1.23886256556153e-07,0.13263420151725,0
1.16193629843662e-07,0.134084645849072,0
4.56410973230129e-08,0.0980385329728313,0
4.51034876152651e-08,0.0976948603926519,0
4.73446207668727e-08,0.0926249233869476,0
4.87496178445603e-08,0.0894747631390684,0
4.72338207173493e-08,0.0857205495019789,0
1.92200496952105e-07,0.144080918956114,0
2.19530083131948e-07,0.148516507331336,0
2.2906544360693e-07,0.151476117106621,0
2.21397511974511e-07,0.146127086268336,0
2.17493285377391e-07,0.144004680568404,0
2.49861760594447e-07,0.149764977283716,0
2.52127588826127e-07,0.154306488259185,0
2.33332447486515e-07,0.152783780814321,0
2.30560260843107e-07,0.15729775816974,0
2.18971712073697e-07,0.164568012448879,0
1.3461397417157e-07,0.140573065150597,0
1.37180732715269e-07,0.149140851938557,0
9.29385133350593e-08,0.132955017995971,0
9.35556717963111e-08,0.136226317150893,0
7.47863182394296e-08,0.123998849384514,0
8.31503014650098e-08,0.140258637401266,0
1.30823825731948e-07,0.171515694932743,0
1.39058432962818e-07,0.175744410259726,0
1.50042935702873e-07,0.176924162992458,0
1.59342272403722e-07,0.181431637786601,0
1.31458248895197e-07,0.167632203303044,0
7.33334607853205e-08,0.134089556648582,0
1.30002113333114e-07,0.159325792310386,0
1.87410088499326e-07,0.174094895518177,0
1.87405717688694e-07,0.177772630400412,0
2.04458872450883e-07,0.188746783024672,0
1.96668995201829e-07,0.181622781913382,0
2.01637077106802e-07,0.187577968074911,0
2.49471228664469e-07,0.206565481641361,0
2.42737339264129e-07,0.178793320382841,0
2.7413833554777e-07,0.188797942948772,0
2.8936274314149e-07,0.18751518987436,0
3.04376477662743e-07,0.20241443686309,0
2.58788048607847e-07,0.201517652963088,0
2.45374030777942e-07,0.19676003565085,0
2.02842328138602e-07,0.17042301785844,0
1.98765454521514e-07,0.168724111620662,0
2.05753288019578e-07,0.174653719099432,0
1.64148634315307e-07,0.155378226521103,0
1.3104739269578e-07,0.152888258321993,0
6.37231409079977e-08,0.116024629834681,0
6.89742328013987e-08,0.119214094375526,0
5.50652206674086e-08,0.103837357271696,0
5.01701312999918e-08,0.0952056448108062,0
1.39811960715792e-07,0.132878234913379,0
1.53015086932699e-07,0.133700141793682,0
1.49273673031623e-07,0.138727364731421,0
1.58842470207941e-07,0.140204831679172,0
1.66018467103718e-07,0.145618344021641,0
1.94380438754863e-07,0.161162202993309,0
1.95350103093593e-07,0.170630079684976,0
1.86966888301233e-07,0.17758834405551,0
1.98908817110246e-07,0.182727051344422,0
2.92583812036814e-07,0.215746089939332,0
1.29500344272549e-07,0.162452917309223,0
9.81159570693095e-08,0.148980687470595,0
1.05284086505948e-07,0.139688815796605,0
1.13074619376598e-07,0.135012071823884,0
1.17218147855826e-07,0.13708203578631,0
1.23814793802317e-07,0.142915065004688,0
1.75339439317196e-07,0.151569414377803,0
3.16959167310424e-07,0.195793520919899,0
3.19629732606635e-07,0.199909253347256,0
1.82822267119346e-07,0.15958852481952,0
1.85603195384018e-07,0.163584524527328,0
2.437314801424e-07,0.179131623611964,0
1.95800078048168e-07,0.162093514872192,0
1.58258311366962e-07,0.149866574155389,0
1.48356895501542e-07,0.143092492320856,0
2.10805289488688e-07,0.157872562251805,0
2.12655016548191e-07,0.167893227745989,0
1.62027042834487e-07,0.146230538694808,0
1.55198743924494e-07,0.14851801265347,0
1.60408750197953e-07,0.148015996615132,0
1.65803423220619e-07,0.147715194802765,0
1.52709348728983e-07,0.156489206308194,0
1.63425702236758e-07,0.15619119046408,0
1.08165324874627e-07,0.135301843799655,0
9.42871269555929e-08,0.12946844689198,0
9.61781581755693e-08,0.134711851102866,0
9.63763744377351e-08,0.12926293794576,0
8.2727206995823e-08,0.119595621175876,0
1.37488219243238e-07,0.136232516588781,0
2.52884831768137e-07,0.181970077754039,0
2.50449197543401e-07,0.175100365673148,0
2.46778809315098e-07,0.171126436085871,0
2.12925132645255e-07,0.155249932436573,0
2.14792124406755e-07,0.153392757397007,0
2.24196360562775e-07,0.161198886886516,0
2.33264262840654e-07,0.169380313609737,0
2.48424856599145e-07,0.180325253018178,0
3.38047235907633e-07,0.199165398557103,0
3.41872787913376e-07,0.191314961399202,0
2.69186207101605e-07,0.166766997851276,0
2.62017859124435e-07,0.170701295377815,0
2.39713831009377e-07,0.166390577159141,0
2.16985615722473e-07,0.166833568520762,0
2.18817859539448e-07,0.176171070650059,0
2.16838756485234e-07,0.175495551279241,0
1.7601538518145e-07,0.159831528669147,0
1.48376782689917e-07,0.148384796664888,0
9.08746165545831e-08,0.134731279753614,0
9.40038984266327e-08,0.146629723594283,0
8.83273081181969e-08,0.155504427940875,0
9.88557167687922e-08,0.15346518787735,0
1.55314133325182e-07,0.175301033462209,0
1.5039260055344e-07,0.181604985708146,0
1.47551792183109e-07,0.167484149910807,0
1.86452006808771e-07,0.177851840551977,0
2.64040670284969e-07,0.195792710393692,0
2.68674822257649e-07,0.193711237898469,0
2.70318247055318e-07,0.198540488475071,0
2.46015447238203e-07,0.193005855847275,0
2.67056529621116e-07,0.193334857974529,0
2.73009573702032e-07,0.19167657316898,0
2.23119611363557e-07,0.177741607807394,0
2.51216711890397e-07,0.181213148008497,0
2.54541368997701e-07,0.183880211169306,0
2.3932220637674e-07,0.176099639127321,0
1.33746805342163e-07,0.139460789149009,0
1.41066383367204e-07,0.140196239838944,0
1.74738234314751e-07,0.148754379703909,0
1.49465988699436e-07,0.138767918053877,0
1.35164696311215e-07,0.135399575150871,0
1.32722505870531e-07,0.134360818291887,0
1.54618518813083e-07,0.134310155025889,0
2.25868851251146e-07,0.154934567493904,0
3.11107526036172e-07,0.172792829275051,0
2.93043839855842e-07,0.165796709643874,0
3.25319435346966e-07,0.169965686476252,0
3.27370438236078e-07,0.170549622711857,0
2.88937900348051e-07,0.158717728254638,0
3.06758569457236e-07,0.159463751633557,0
3.52304820189532e-07,0.172566293691016,0
3.38376139407699e-07,0.170647026985913,0
2.8823922626851e-07,0.160354196910274,0
2.45034855872891e-07,0.154369731553671,0
2.04852245407772e-07,0.147919254110602,0
1.99788224209425e-07,0.150582983959825,0
1.91560391735034e-07,0.154870253805633,0
1.70279788929481e-07,0.147061450172342,0
2.16561428550627e-07,0.163693655975406,0
1.88278131490862e-07,0.168049135120136,0
1.2185142566638e-07,0.131690607197582,0
1.34081827977113e-07,0.147859747919398,0
1.58949992149491e-07,0.15571908253841,0
3.24228481013195e-07,0.192096540735859,0
3.30022427587103e-07,0.181322412980388,0
3.30202504985145e-07,0.190513958593866,0
3.50220817680148e-07,0.190540653909371,0
3.57995615632522e-07,0.192745169527574,0
3.42014402177855e-07,0.185700751922217,0
3.72579480928108e-07,0.186099199562641,0
3.48018147662103e-07,0.181313101897518,0
3.19971311457534e-07,0.173082829335134,0
2.26680729326059e-07,0.154980338976603,0
1.24774623817126e-07,0.128830794629975,0
1.00186191525202e-07,0.12389749157747,0
1.15208667667719e-07,0.123309753689461,0
1.00297865736852e-07,0.117627424903432,0
9.13571540483666e-08,0.119532305489801,0
6.99480494102299e-08,0.11608662975654,0
8.31916056254834e-08,0.127673902801912,0
1.04201873793441e-07,0.148896760755309,0
7.08230856987757e-08,0.129094394457056,0
4.68518118681039e-08,0.105251197369575,0
8.03547309847209e-08,0.123310454296066,0
5.79283201719638e-08,0.110009788359919,0
6.16161916427954e-08,0.114763650386447,0
6.97336611487257e-08,0.114747154799714,0
9.2820282907461e-08,0.118099917884929,0
9.54945633927094e-08,0.117339025127043,0
8.38481013824242e-08,0.115706516989179,0
8.23985220362892e-08,0.110903518707092,0
8.87589256681166e-08,0.112123765679646,0
9.13953986413976e-08,0.121831411399747,0
8.85456301092703e-08,0.123147401058896,0
1.04211708117363e-07,0.128228583776078,0
1.26096356952272e-07,0.138543872832978,0
2.16162810620981e-07,0.175657841675221,0
2.45876674000633e-07,0.182876727783736,0
3.1455522146277e-07,0.205244670629881,0
3.91720790469782e-07,0.220396818002169,0
3.87813285764687e-07,0.200190467733047,0
4.80958101361581e-07,0.213624050499187,0
4.81210515675585e-07,0.210995696957122,0
4.58069695865012e-07,0.204707669014308,0
4.45091229314594e-07,0.208326432286996,0
4.90829795714704e-07,0.221518904236167,0
4.5634956334075e-07,0.222887233701833,0
4.35090814588357e-07,0.213146073540627,0
3.61495105165111e-07,0.187030623282819,0
4.21348985961045e-07,0.195329734616495,0
4.98668626042837e-07,0.1979614399014,0
5.40933272152556e-07,0.201797455974217,0
5.67891776509734e-07,0.202726719994209,0
6.1029628855968e-07,0.205012186498082,0
6.41098265246193e-07,0.213227852090794,0
6.17095740119501e-07,0.207164259139566,0
5.35495983726227e-07,0.196746782801568,0
5.15958460200754e-07,0.205849911941567,0
5.16134385328697e-07,0.207010257030857,0
3.44157629171304e-07,0.181711482395267,0
2.53533241525408e-07,0.185807665295035,0
1.97830101046245e-07,0.168515412589682,0
1.78566190266342e-07,0.158018941894759,0
1.16688624147747e-07,0.136744791244964,0
9.22765540648281e-08,0.12716053833773,0
7.27462423768982e-08,0.121459735853024,0
9.90541515714892e-08,0.128173943220733,0
1.34129906894066e-07,0.134739291889829,0
1.34549504714747e-07,0.137296941552197,0
1.46126689376514e-07,0.139708680037104,0
1.34796892596524e-07,0.141094421820781,0
1.22604079257227e-07,0.145107386866303,0
1.43859331361113e-07,0.169650092032868,0
1.35218238741458e-07,0.161275915263836,0
1.39762133474587e-07,0.159870914265483,0
1.4893274980232e-07,0.159133060767626,0
1.270874382631e-07,0.150394289463657,0
1.16382448862969e-07,0.16331007716028,0
1.26596159148052e-07,0.164643125708803,0
1.25363590549801e-07,0.164143001391134,0
1.50497500008611e-07,0.152375261416563,0
2.05486887111552e-07,0.174763537587197,0
1.88445970619133e-07,0.156265908963062,0
2.00931628270781e-07,0.160845635132055,0
2.12449369907951e-07,0.167958119554117,0
1.77507361390716e-07,0.149797186302288,0
1.65144304977299e-07,0.147616754988467,0
1.6739002748007e-07,0.138025566826503,0
1.82032024557063e-07,0.142273995596711,0
1.96207437599079e-07,0.145037620865855,0
2.19985740140344e-07,0.165561458738693,0
1.3594969390074e-07,0.134423578813295,0
1.30470445692343e-07,0.13583586427018,0
1.42881799563245e-07,0.143335119270885,0
1.10831519360206e-07,0.131424633269763,0
9.96686875463617e-08,0.131004062064467,0
8.69950850375338e-08,0.124350307330308,0
8.35465154488096e-08,0.127741072545423,0
8.1328547593552e-08,0.132480944473751,0
9.12642743224346e-08,0.145003224519206,0
1.10809883847577e-07,0.142355956786606,0
1.06181195388186e-07,0.129303820659869,0
1.75038727545708e-07,0.165624551083924,0
1.98362465781235e-07,0.165521062439968,0
2.29673860446919e-07,0.173909388544799,0
2.41756747898818e-07,0.178067904275841,0
2.46391336952562e-07,0.179639598346927,0
2.52573411510599e-07,0.181716699268957,0
2.95347257058958e-07,0.18914437962755,0
3.610877456142e-07,0.192193958199424,0
3.34088374177611e-07,0.194494625254516,0
3.16213507016588e-07,0.198680512680327,0
3.04593051329564e-07,0.180684940892045,0
3.93514571153194e-07,0.198771105919271,0
4.44985455697298e-07,0.191275934097419,0
5.65799906541213e-07,0.200610283211485,0
5.76599086910466e-07,0.203123735033942,0
5.79994332609479e-07,0.204753542944269,0
5.96615651281216e-07,0.210003214378371,0
6.0966864015291e-07,0.217640132905493,0
5.12842290760601e-07,0.196620434130031,0
4.6080254521273e-07,0.184371809045017,0
4.5462549708692e-07,0.193595813517434,0
4.66863766856789e-07,0.206553990260401,0
4.25000142622568e-07,0.215364856367788,0
3.79860377279056e-07,0.2087201704624,0
3.99353318536081e-07,0.215190887197438,0
4.00796341666267e-07,0.218944833921436,0
3.99506296908204e-07,0.222155793268128,0
2.51716077005114e-07,0.175875441389517,0
1.7216295269032e-07,0.150347920970334,0
2.25516345373668e-07,0.172599648894576,0
2.59522344794039e-07,0.175088900096106,0
2.86958797293837e-07,0.189956685382614,0
2.566655829649e-07,0.184591936626151,0
2.74157567114552e-07,0.19913174051793,0
2.69430972497003e-07,0.20130018242409,0
2.77618156432515e-07,0.196867996418216,0
2.09188745176407e-07,0.166643701045045,0
2.49823297460884e-07,0.185727087157349,0
2.83884150554689e-07,0.184144360534246,0
2.68159722224657e-07,0.183713814637349,0
2.31821021169936e-07,0.177680321977138,0
2.61426925526975e-07,0.179009151427142,0
2.36845486532063e-07,0.170577097249157,0
2.63989968881636e-07,0.174056161779561,0
4.13033955814543e-07,0.219388176033849,0
4.74356428982862e-07,0.227158051225946,0
5.44552521896463e-07,0.24313755281908,0
4.71035268524064e-07,0.223194235251942,0
4.18396940460127e-07,0.223615775512791,0
4.24739642308894e-07,0.218437967387267,0
4.36575141879017e-07,0.221386366710209,0
4.50368327531257e-07,0.224723266921027,0
4.47334984952581e-07,0.22398186752995,0
4.83378437749105e-07,0.244512636577767,0
3.58826069652621e-07,0.204649031999657,0
2.67260427937103e-07,0.183425159108798,0
2.11334157575172e-07,0.170425770416397,0
1.47481640672464e-07,0.142768945401117,0
1.31620187429116e-07,0.135991964346573,0
1.16676167337446e-07,0.136823717287315,0
8.60927311825381e-08,0.12026810037776,0
5.72890891170196e-08,0.112366985734186,0
9.56176017120029e-08,0.137465096726412,0
9.46892415337455e-08,0.133906969082475,0
9.33546145072348e-08,0.136212761345349,0
7.92526310838375e-08,0.125293562407111,0
2.04475262990754e-07,0.175731910005032,0
2.08000103225008e-07,0.175405404549557,0
2.10480756799254e-07,0.179806966730528,0
2.38172683180499e-07,0.172401056457785,0
2.47607515010943e-07,0.16623953304699,0
2.43407165993498e-07,0.162541156288765,0
2.01871352556682e-07,0.145877081451016,0
2.07431897842836e-07,0.15325617000388,0
2.2547984910489e-07,0.159168066423424,0
2.32077806294572e-07,0.166404991507196,0
7.56762152841243e-08,0.109672673915828,0
1.55495959047476e-07,0.149155675194619,0
1.78739929988967e-07,0.14218903467511,0
2.10164528650022e-07,0.164157672420333,0
1.57468068804679e-07,0.152235656705201,0
2.3546431037232e-07,0.182232853058291,0
3.41330807394995e-07,0.213376741153137,0
3.83494924860175e-07,0.201869677157952,0
3.96556873893666e-07,0.199561836488641,0
4.39704642291599e-07,0.204562767810532,0
4.94961085924162e-07,0.220069737191461,0
3.2203542677854e-07,0.171362787975158,0
2.75611080190255e-07,0.174897810301442,0
2.81472555788429e-07,0.168033393305803,0
3.12859346937516e-07,0.171220872032757,0
3.87596712097867e-07,0.192312317973932,0
3.28441286840941e-07,0.177359202301571,0
2.89243857092298e-07,0.176293727376253,0
2.62892021250854e-07,0.170968542351184,0
2.5931691669433e-07,0.172478231399391,0
2.04407078344893e-07,0.156995518027097,0
1.76201581714377e-07,0.154296069734701,0
1.76704880558663e-07,0.149495658980874,0
2.39698096091101e-07,0.171524945198117,0
2.07847124852885e-07,0.163594851625053,0
1.84479678511037e-07,0.145321430293359,0
2.65787464754087e-07,0.177430021349315,0
2.78143746411024e-07,0.177024405892547,0
2.85378967790866e-07,0.192341571702525,0
2.60094702446313e-07,0.181059099935643,0
2.61624486167547e-07,0.171839386194878,0
3.22985422469426e-07,0.191532335859117,0
3.62398988803829e-07,0.202136713523137,0
3.3355163863199e-07,0.210621918606606,0
3.38849935280217e-07,0.215943110169949,0
2.70016442581172e-07,0.199030608935055,0
1.23903739798681e-07,0.132762881256954,0
8.12114098686119e-08,0.114395531684121,0
1.00297865736852e-07,0.117548630431955,0
9.31244913274549e-08,0.116197453772184,0
1.00478161675426e-07,0.124039532200448,0
9.97593818669778e-08,0.122622769161696,0
9.54744576638016e-08,0.128835741679938,0
1.52445133226273e-07,0.142556111913615,0
1.91362831094463e-07,0.143400055405131,0
2.20920000912955e-07,0.157902156949573,0
2.6733626150157e-07,0.172321381710565,0
2.28304922556946e-07,0.162674895280057,0
2.0926676414619e-07,0.154022559917183,0
2.54459853379413e-07,0.163566766988866,0
2.60306468221437e-07,0.167692023202581,0
2.88024182385411e-07,0.17606249908832,0
2.98143483160842e-07,0.168156479346696,0
2.52853143391054e-07,0.160846587352827,0
1.92140835386976e-07,0.14794109387485,0
1.86924928519164e-07,0.146114598868102,0
1.81483269282203e-07,0.143163406329102,0
2.19369455841218e-07,0.157390936560901,0
2.47502615555773e-07,0.168760534817492,0
2.36122772994046e-07,0.168953234975907,0
2.45971739131881e-07,0.170865823576369,0
2.6287104135982e-07,0.170962132881789,0
2.73422178225701e-07,0.169200306282893,0
1.83623218167678e-07,0.140120914428068,0
1.38685821356432e-07,0.131145571901298,0
1.48950233044849e-07,0.132142495652669,0
1.52614065057204e-07,0.137850905909331,0
1.27008982212254e-07,0.125392555063024,0
1.39883423469627e-07,0.124833316509009,0
1.39525016997795e-07,0.12469550521888,0
1.70206577851393e-07,0.129600062353014,0
1.46134775376183e-07,0.127393484617907,0
1.91347314716719e-07,0.149959476035742,0
2.25172144036391e-07,0.164268429654152,0
2.64894071060886e-07,0.171660785654798,0
2.00678121254119e-07,0.158155701026168,0
2.07648471509656e-07,0.163348617045136,0
2.12010540520489e-07,0.164812625701869,0
8.37982741412185e-08,0.121369918397046,0
7.36990790946953e-08,0.119438660617517,0
1.46318349422731e-07,0.15665642878309,0
1.96164822195417e-07,0.167680009002417,0
1.64898665419775e-07,0.164695403344,0
1.43373078678293e-07,0.161741327750823,0
1.0347457090426e-07,0.135657659353702,0
1.1826189743477e-07,0.13749300652918,0
9.73967401797982e-08,0.129833501072973,0
1.24494891936672e-07,0.140509166740316,0
2.43185128813387e-07,0.178700511907743,0
2.48080436721336e-07,0.169068198962012,0
2.93050614612322e-07,0.179966271923258,0
2.75442585440388e-07,0.177437734415996,0
3.07436045105211e-07,0.174143729353752,0
3.28157184149855e-07,0.168754271492395,0
3.317718445426e-07,0.171588086659287,0
2.91111941556455e-07,0.163151173881357,0
3.54308399783286e-07,0.17202991853399,0
3.70933215103529e-07,0.170989536336478,0
3.0601968391988e-07,0.154164026928414,0
3.55624232324078e-07,0.1658616601942,0
2.53959177021506e-07,0.146663329097935,0
2.36635687621722e-07,0.146036000023163,0
2.18610464574955e-07,0.144407328147008,0
2.11199318067171e-07,0.145886686746194,0
1.63636156768694e-07,0.130029019571205,0
1.75042224194213e-07,0.137819174404005,0
1.96406746563903e-07,0.149419990973084,0
1.50179523535126e-07,0.144007782154017,0
1.13962986637572e-07,0.133032757147913,0
1.78243405901161e-07,0.164018724464168,0
2.11942355874628e-07,0.177222330622201,0
2.18479340255992e-07,0.172925286664423,0
2.19697266638626e-07,0.176544802593066,0
2.2913209846907e-07,0.18329029411369,0
2.34383190362471e-07,0.185873743394653,0
2.49269078672734e-07,0.184040133024566,0
1.18387776780974e-07,0.13272581512358,0
9.44462244626011e-08,0.12338071151874,0
1.68526219703884e-07,0.148938381960815,0
1.72837805851916e-07,0.147918363488854,0
1.90985411596382e-07,0.146493377029463,0
2.30256052423114e-07,0.153927137246548,0
2.88051499951861e-07,0.16544665961474,0
2.94639185736558e-07,0.170566299502108,0
2.93283141737949e-07,0.177458946760093,0
2.505377064587e-07,0.162453050632711,0
2.65645850489606e-07,0.166986442722236,0
2.58550932131055e-07,0.162540930301786,0
2.23960336788641e-07,0.166407164941559,0
2.18741588893918e-07,0.16185006726703,0
1.86621375720765e-07,0.152127222429628,0
1.25430026871409e-07,0.135768792995658,0
7.65259008710041e-08,0.112887079621465,0
9.9979015101241e-08,0.12614755683028,0
9.01752868534476e-08,0.116792916031253,0
1.59894742867619e-07,0.14554393792534,0
1.32498501825636e-07,0.131803140047366,0
1.41410803245013e-07,0.133526489020843,0
1.4922821660105e-07,0.134329219252868,0
1.451633627132e-07,0.134828600930348,0
1.62123200668394e-07,0.14153954493949,0
1.81338158369218e-07,0.153686531188175,0
1.75830936972775e-07,0.15971045650546,0
1.69843800568929e-07,0.154564994189452,0
1.69575214255587e-07,0.151833202537954,0
5.96888826945721e-08,0.103546809860303,0
5.81632512434388e-08,0.105703162393681,0
8.43146854174006e-08,0.123020838599862,0
7.56729371761503e-08,0.113461012806629,0
1.28489594313876e-07,0.13239285383421,0
1.30198799811558e-07,0.128687578592889,0
1.13308894826478e-07,0.125556487492643,0
1.03940717858173e-07,0.1172695737755,0
1.49081357363811e-07,0.138772613271257,0
1.67227214784025e-07,0.150670679171938,0
1.86831393171636e-07,0.158511870246443,0
2.00088935980913e-07,0.157842815840998,0
1.80332871923835e-07,0.158619531228641,0
1.77865767862548e-07,0.166743529039897,0
1.25204711583324e-07,0.147063131205514,0
9.97132698148094e-08,0.136605940813871,0
1.61220191191802e-07,0.154164900003455,0
2.22484751119245e-07,0.165730602810464,0
2.24254055263118e-07,0.163711596024415,0
2.06418743938316e-07,0.157616826594338,0
2.04456249964504e-07,0.154533236283295,0
2.13026535451919e-07,0.159899407070635,0
2.63341340583834e-07,0.159867938736562,0
3.21574743337918e-07,0.161276324921794,0
3.08727838187527e-07,0.158123492982271,0
3.02497029090942e-07,0.160221752894531,0
2.65668360164362e-07,0.148048753494984,0
1.98209268868579e-07,0.132862838439181,0
2.04032281333191e-07,0.135446442375064,0
2.13213606146973e-07,0.139103562229821,0
2.21664131423069e-07,0.14534039604601,0
1.67316379320919e-07,0.129513170039487,0
1.38914196211959e-07,0.126418713413997,0
8.99759778886238e-08,0.115645750854366,0
1.42930971182857e-07,0.140983596115534,0
1.62212365205288e-07,0.143839159940694,0
1.5299760369017e-07,0.142547200473364,0
1.61510194477242e-07,0.151372547382465,0
1.30120780841775e-07,0.137782038100027,0
1.36241008429369e-07,0.137923283900716,0
1.3629695480546e-07,0.131206926481129,0
1.92592995746867e-07,0.148032490736553,0
1.9360243446235e-07,0.146208086042326,0
2.03865097826513e-07,0.151942513150555,0
1.44743764892518e-07,0.134728461515326,0
1.20059174766689e-07,0.135657791199396,0
1.22951995783542e-07,0.137231991301466,0
1.31737980775651e-07,0.136727535300633,0
2.07214231473357e-07,0.150804609183569,0
2.16103367596384e-07,0.153822701416348,0
3.47152727156948e-07,0.194261239613582,0
3.69734083206613e-07,0.210626463412654,0
3.82617484625782e-07,0.207630523216034,0
4.00220487365488e-07,0.200458633812233,0
4.68975742554218e-07,0.211025103260038,0
4.74206728718713e-07,0.202002394250278,0
5.20652055198031e-07,0.211906640257946,0
4.45347358817635e-07,0.201201822626345,0
3.42096354877207e-07,0.178761905498675,0
4.34446338560654e-07,0.191174662171676,0
4.32587869879887e-07,0.191196226490254,0
5.24266497050244e-07,0.208057040105132,0
5.37372154190055e-07,0.207929817348543,0
5.46776171805543e-07,0.222012474839144,0
5.0059440520734e-07,0.213802713646565,0
5.15962175389792e-07,0.224070143188902,0
4.25945986043353e-07,0.20261472744697,0
3.84029256459948e-07,0.193901858063755,0
3.63385917844556e-07,0.1939703790278,0
3.2948678474414e-07,0.19944691465103,0
3.84807260752461e-07,0.203318709964874,0
3.10998255770369e-07,0.172872244964723,0
2.67245567180954e-07,0.174932756632811,0
2.53981905236793e-07,0.168226465301351,0
2.37974248377802e-07,0.173785929389553,0
2.31383721566195e-07,0.163564639543844,0
2.3004996870181e-07,0.168299557897187,0
2.33399757970249e-07,0.164182390801818,0
3.73041694152452e-07,0.202140622460037,0
4.76187580097178e-07,0.225928794923502,0
4.31614271811587e-07,0.220155008353898,0
6.53331290043305e-07,0.284234981228503,0
8.13423812092026e-07,0.301490694936484,0
9.41163375301435e-07,0.313055931643789,0
9.83381909358985e-07,0.299857136367655,0
1.0640616101142e-06,0.306548134058861,0
1.18219172760841e-06,0.300051026622591,0
1.26224924347015e-06,0.310225246234224,0
9.56679753045378e-07,0.263756647081057,0
8.93727623132883e-07,0.249901286565612,0
1.01532707156632e-06,0.278445654392575,0
1.06022054173072e-06,0.291192775526479,0
9.51403091909779e-07,0.265611498862752,0
9.00008696551738e-07,0.255701901347697,0
8.42039509300364e-07,0.244845395583547,0
8.19913591718563e-07,0.247576488350322,0
6.22828276804029e-07,0.238065870589669,0
3.88505622168811e-07,0.193620019806966,0
4.05347448236938e-07,0.210650591627472,0
3.65050103992726e-07,0.199941139974818,0
3.26545010648206e-07,0.184639412636123,0
2.3221789077533e-07,0.154845110492139,0
2.41794336870253e-07,0.166896413120733,0
1.60357393173026e-07,0.140788944696822,0
2.66124017172758e-07,0.181255274593402,0
2.85623733186263e-07,0.18050474967145,0
2.66813512549971e-07,0.167256519620013,0
2.55551026253716e-07,0.168712302693373,0
2.56323567032939e-07,0.166521018908621,0
2.56860521119093e-07,0.171837255027052,0
1.77736391867838e-07,0.146162936617202,0
2.33560385260978e-07,0.164274996546705,0
2.28261214450624e-07,0.160149092266339,0
2.43485840584876e-07,0.168804451226977,0
1.9320490923536e-07,0.145176912060328,0
1.54128988022288e-07,0.130206226609427,0
1.79977743559977e-07,0.14155074228143,0
2.15722451449796e-07,0.150389092075875,0
2.40860731719239e-07,0.151087230069706,0
3.7286161675441e-07,0.186243478055699,0
3.81634707855155e-07,0.183683108764677,0
3.78076212379033e-07,0.192351350825947,0
3.7840402317644e-07,0.197727712411292,0
3.75833986524768e-07,0.193091328384897,0
3.57897928014894e-07,0.198040050644746,0
3.05997174245125e-07,0.192347070382706,0
2.68208019682143e-07,0.187028294914657,0
2.16152539215994e-07,0.169145503920739,0
2.2723254416836e-07,0.167347023335187,0
1.83033814353939e-07,0.156925613010731,0
1.95034312025424e-07,0.167442775616725,0
1.65674047225909e-07,0.145179422540407,0
1.59440397102412e-07,0.13826379887469,0
1.43306860897216e-07,0.133001268047552,0
1.42756138757572e-07,0.13393162678942,0
2.04415819966157e-07,0.159484821790818,0
2.18337070369917e-07,0.16430668024796,0
2.05324292956039e-07,0.160139936106783,0
1.75778268704659e-07,0.15863206925937,0
1.15263739881683e-07,0.133647038840868,0
1.30906871133958e-07,0.132293964041099,0
1.15906249044601e-07,0.129047195374984,0
1.4488013418424e-07,0.146879556203019,0
2.46809404989522e-07,0.176744533157915,0
2.81053613589343e-07,0.181878695890285,0
2.79731880454197e-07,0.181474874659405,0
3.1780164105976e-07,0.187142310263111,0
3.213789310216e-07,0.185377950838671,0
3.05442736916443e-07,0.189188042681664,0
3.13710562308117e-07,0.191703131651164,0
3.60880350649707e-07,0.218893066711595,0
3.79762252580364e-07,0.228423658738118,0
3.20259129337657e-07,0.203619961860169,0
1.07990492449342e-07,0.125506503834776,0
1.77267840968077e-07,0.148671936843494,0
5.34319361504067e-07,0.237928068760362,0
5.75367611014872e-07,0.234962049263313,0
5.45945936325977e-07,0.240202210134129,0
4.89048471841593e-07,0.221122065415968,0
4.68374537551774e-07,0.213617476289616,0
4.93802165485061e-07,0.211105413217737,0
4.89247780806417e-07,0.207574075460174,0
4.85847071594114e-07,0.214693520660217,0
4.80956353037329e-07,0.216426667575244,0
5.24618128765595e-07,0.251294862159057,0
1.87016715542438e-07,0.161762995737208,0
1.05329542936522e-07,0.139567893393138,0
8.03809558485134e-08,0.123242052600118,0
7.51091026046098e-08,0.122848038594181,0
8.97731722752948e-08,0.13767378838806,0
1.06915491574378e-07,0.143468234711756,0
9.19059093232263e-08,0.129830916828189,0
1.04493843943665e-07,0.125978773685434,0
1.54679710161932e-07,0.143302512768838,0
1.41534060104838e-07,0.133438628290097,0
1.70056003425117e-07,0.133385132065705,0
2.023790222116e-07,0.137506127734828,0
2.2043047012216e-07,0.139566051908875,0
2.20166473159981e-07,0.136198970947208,0
2.1936421086846e-07,0.131390418555414,0
2.0726231039031e-07,0.132421521930531,0
2.17790719040905e-07,0.139001944219077,0
1.96023863552531e-07,0.129788818032251,0
2.34662922242925e-07,0.143936225042169,0
2.54834213310052e-07,0.144225356113999,0
2.27616082801327e-07,0.145321623091669,0
1.80069749123783e-07,0.135718176779693,0
1.65860025218304e-07,0.136455631970257,0
1.6655935491944e-07,0.13995252567404,0
1.80665927694001e-07,0.14287372754422,0
1.89070996539523e-07,0.140639161217215,0
1.74752220908773e-07,0.138035107806114,0
1.14340406135653e-07,0.118099135849613,0
7.16736454477818e-08,0.105435705770803,0
4.94961523005225e-08,0.0940706844501716,0
5.80812985440871e-08,0.101605938487799,0
9.69998705744035e-08,0.127116123328193,0
1.15846806020005e-07,0.126697660519909,0
1.38019928356632e-07,0.129811096010758,0
1.41177183416728e-07,0.137771330732842,0
1.03619681817246e-07,0.123253986474499,0
1.15033835242435e-07,0.128555370203407,0
1.10046740311213e-07,0.133544981849823,0
1.17087242077394e-07,0.134342405724252,0
1.03394366529161e-07,0.130270292961544,0
1.13254915315172e-07,0.1406206525773,0
1.09677843893864e-07,0.141774253828373,0
1.15202329992302e-07,0.141590281207798,0
1.13983747988074e-07,0.150591362309894,0
1.18354777160702e-07,0.149418350553639,0
1.33696103938831e-07,0.157078528658254,0
1.38285673643064e-07,0.149645099059215,0
1.43421376135777e-07,0.141071360202721,0
1.60992034876807e-07,0.141105279286261,0
1.84831310226389e-07,0.147638653405386,0
2.31060281579419e-07,0.152154735503681,0
2.59689091219654e-07,0.15451841817527,0
2.39164857193985e-07,0.154555024745941,0
2.21951512222129e-07,0.149273076842442,0
2.16940814913495e-07,0.153074681396308,0
2.25532298832474e-07,0.161640991872439,0
2.05443179005232e-07,0.162558755252217,0
2.07295310010583e-07,0.165911792637273,0
2.68593525179893e-07,0.178127812458093,0
3.49033924053002e-07,0.198625519301252,0
2.48891440634122e-07,0.174954305022931,0
1.48380279338423e-07,0.143262450593785,0
1.42427235257507e-07,0.143140625407315,0
1.43206987874273e-07,0.143474112259144,0
1.68482511597563e-07,0.151275681397771,0
2.16173519107029e-07,0.161220659179878,0
3.39561284710591e-07,0.190341389315935,0
3.47729455619854e-07,0.181694900812019,0
3.9789346778496e-07,0.218230470849094,0
3.73360107707001e-07,0.208397761142493,0
3.96276923472679e-07,0.20805309462364,0
4.10277722629944e-07,0.208560771740318,0
4.08419035408644e-07,0.208099740906101,0
4.14760426014221e-07,0.209716560052633,0
4.27430313334012e-07,0.210102195544706,0
3.87740074686599e-07,0.198774750131544,0
2.51407497774488e-07,0.165016532416062,0
2.92466018690279e-07,0.178545661711786,0
2.13304300467589e-07,0.154059663207011,0
2.06810368570951e-07,0.15530341503951,0
1.92803668819334e-07,0.155443714889706,0
2.2666870959682e-07,0.162135678750639,0
2.18746833866676e-07,0.156959219540968,0
2.10552438093621e-07,0.14979205117298,0
1.44729122676901e-07,0.130571331282591,0
1.55338609864721e-07,0.143723213446933,0
1.55699857363464e-07,0.143712252944466,0
1.39300575871837e-07,0.139329578711234,0
1.78397476975943e-07,0.145314477210366,0
1.8552867306274e-07,0.150195349613072,0
1.84790224606448e-07,0.145605756800779,0
1.58686650808907e-07,0.145063156334993,0
1.5319363454702e-07,0.147685412915659,0
1.55659645905649e-07,0.151431746427276,0
2.14293851994696e-07,0.168620347021584,0
2.43734976790905e-07,0.178887315618261,0
2.41227879812334e-07,0.187666669257907,0
3.32627430723832e-07,0.212187933831159,0
4.59709624014174e-07,0.248081682625063,0
4.63102465767339e-07,0.260625714885375,0
4.41789300422578e-07,0.265250985349497,0
3.1354621982835e-07,0.212853556601716,0
2.2823608228949e-07,0.167686870797488,0
2.19402455461491e-07,0.162074260930489,0
2.90818004541447e-07,0.18511419238705,0
3.08334465230638e-07,0.181740581921402,0
3.22078042182203e-07,0.177999682719064,0
2.75593815488259e-07,0.175058877222714,0
1.29499470110423e-07,0.128494360723084,0
1.37969008412768e-07,0.122345579236939,0
3.60507301962257e-07,0.185844246249111,0
3.98497295273785e-07,0.181645572988399,0
5.78268736571927e-07,0.219085946359072,0
5.82955338272193e-07,0.218781170281513,0
5.83316367230404e-07,0.214051832707291,0
5.98888472809908e-07,0.208079755293226,0
6.57843059318286e-07,0.211964791279956,0
6.90537597008498e-07,0.217228031877392,0
6.87161364335735e-07,0.216690014548975,0
6.89026170691918e-07,0.225796957472997,0
3.85968803677942e-07,0.170763504021683,0
3.24123581558024e-07,0.165655345338855,0
3.22873529717245e-07,0.169413287525856,0
4.3064373331073e-07,0.196407321421976,0
4.4953962183541e-07,0.206629016759682,0
3.50310200757575e-07,0.194651364765508,0
3.41973972179508e-07,0.202872636346791,0
3.34958165493398e-07,0.204102148454567,0
3.13057781740213e-07,0.200995600068029,0
2.5458748104987e-07,0.154532354248974,0
4.96034541717567e-05,0.137141840591765,0
0.000243133667981708,0.3216327958003,0
0.000398999494422115,0.332311610381422,0
0.000428876221199216,0.314078206330378,0
0.000499370872167367,0.347764487878165,0
0.000555092632081283,0.379236476667006,0
0.000522335449529147,0.326735822302535,0
0.000446841910527067,0.232190963949591,0
0.000418981179724022,0.231353992470607,0
0.000399838720003531,0.2317885368974,0
0.000401549653719736,0.316833242382345,0
0.00040375150093268,0.248471771013163,1
0.000386379416860288,0.198886576260231,1
0.000392555848046178,0.18536005318139,1
0.000402846322878393,0.191029745963831,1
0.000394698611515159,0.187350609170622,1
0.000395055733187206,0.191052217369774,1
0.00037403422657241,0.20612208112349,1
0.000291328513693492,0.179288364778841,1
0.000174205673985986,0.130763472608123,1
0.000125340902764512,0.117324923917673,1
0.00016581233202539,0.181990963068654,1
0.000167759586730851,0.2464407665056,1
0.000192791012044446,0.333825747510709,1
0.000178422094474125,0.258218934715407,1
0.000152039312200704,0.17490056777857,1
0.000119773762580737,0.11850225028562,1
0.000137633582133456,0.142921671712105,1
0.000151415047894067,0.15883231608922,1
0.000140752809174187,0.154361076910159,1
0.000135079098355796,0.155225348124409,1
0.000134566757178474,0.158862278702014,1
0.000142237578790883,0.17798768942153,1
0.00015601312319579,0.201113805643814,1
0.000157803117664493,0.234969770211085,1
4.98482525667744e-05,0.185904729303522,1
2.27719251415487e-05,0.303015357633289,1
2.32719644538058e-05,0.279666696681933,1
2.43918786861227e-05,0.266256022613119,1
2.5505066677958e-05,0.262537377484783,1
2.22367161015405e-05,0.244106652271831,1
2.76260287620468e-05,0.262388217757884,1
3.35169636238805e-05,0.302612940372286,1
2.82193870667044e-05,0.259267642621936,1
2.61809006494596e-05,0.286138148414031,1
2.70081508653647e-05,0.318056334875544,1
2.39750224564104e-05,0.244189429899872,1
2.30166450805156e-05,0.224148718565414,1
2.42183575040285e-05,0.222368219101813,1
3.46075875243681e-05,0.268723779164674,1
4.94702231220691e-05,0.325646898600616,1
5.38760421990048e-05,0.338863668750586,1
5.39115768894437e-05,0.344521410958273,1
6.54471075073458e-05,0.367280344975473,1
8.65171211599959e-05,0.414087531835708,1
0.000108243729568448,0.437889756529947,1
9.70858157907273e-05,0.33743605259862,1
8.29578041900159e-05,0.316653903190354,1
7.209522761649e-05,0.244308861225719,1
0.00010588484218906,0.20792194503828,1
0.000106905841917205,0.170184664135328,1
0.000154961722075753,0.17452377546878,1
0.000193321531204646,0.175653820850622,1
0.0005996356943573,0.17453695909346,1
0.000736238182156916,0.0890001897646042,1
0.000798227540499048,0.0920722557725088,1
0.000789380035254589,0.0916350352526301,1
0.000714816642562531,0.0828827659325971,1
0.000837305909366074,0.0921309221013713,1
0.000962312187895025,0.105873427520388,1
0.00101026217904688,0.113338511213663,1
0.00105661801645661,0.123441809956496,1
0.00100386545288599,0.120292976906127,1
0.000439073686273884,0.11052509455627,1
0.000121726976449414,0.166650518895052,1
0.000124665412338727,0.178677611070626,1
0.000119474335171953,0.202067226317393,1
7.46934315202004e-05,0.196996901993146,1
7.60621578629386e-05,0.209851922897455,1
9.09812846582757e-05,0.203011117971129,1
9.40770937698021e-05,0.176779062698083,1
0.000102022188338726,0.185606970160332,1
8.23297254769401e-05,0.207564224393491,1
5.7557188740598e-05,0.260018921135997,1
5.75075684572755e-05,0.271446912268922,1
5.55450045504938e-05,0.280124708827695,1
5.5074458157139e-05,0.296403309954998,1
5.69300412287273e-05,0.297635590016975,1
5.89549853448502e-05,0.355290096701576,1
1.72340479720358e-05,0.299884601506207,1
6.14308015244296e-06,0.406527333589694,1
6.90540000954345e-06,0.402046557120385,1
6.80228034846252e-06,0.3764519858204,1
7.06636997182657e-06,0.413741035107637,1
6.84099349239312e-06,0.400341595984113,1
5.93313066767604e-06,0.353281493559058,1
4.73815104086077e-06,0.341786094982868,1
5.08983520594055e-06,0.353983597883239,1
5.63807581784837e-06,0.375300242142712,1
5.96543379927415e-06,0.390016638159503,1
6.20098377753486e-06,0.414571765752988,1
4.506410661147e-06,0.397840023006871,1
3.17772902979854e-06,0.361138813603048,1
3.17390107384695e-06,0.36817181866021,1
3.13285020184977e-06,0.402110844770882,1
7.61519561673748e-07,0.256228292721629,1
2.4598244761793e-07,0.182706544661391,1
2.56376016760523e-07,0.193018639677694,1
2.42397508737484e-07,0.184683188507423,1
2.18060835137968e-07,0.17277419898166,1
2.02807361653545e-07,0.167182717425815,1
1.55472575210595e-07,0.154331905965264,1
1.37691024856567e-07,0.162686928952826,1
8.70239323877059e-08,0.132557820475114,1
1.72420830517614e-07,0.167819028169268,1
1.88357461703833e-07,0.168080647523034,1
1.92767828172151e-07,0.163500988268857,1
1.7875391658299e-07,0.159577643225996,1
1.93916477206266e-07,0.166864868498269,1
1.65767364032904e-07,0.149221331175672,1
1.56074872915697e-07,0.146262623411582,1
1.4733674830001e-07,0.142668751513783,1
2.34224967017589e-07,0.167283612172924,1
2.47402961073361e-07,0.166254682683939,1
1.74645354588819e-07,0.141800103179278,1
1.72885884768869e-07,0.139291349166596,1
1.65403056966719e-07,0.140515578163402,1
2.21483179862901e-07,0.15131320968004,1
2.53543950011457e-07,0.161017255055469,1
2.53980812534135e-07,0.161290216636446,1
2.97194361632082e-07,0.169046362988449,1
3.03462104078509e-07,0.163415404213662,1
2.50837544068062e-07,0.156242019644348,1
2.10923082835223e-07,0.152082146333824,1
1.6877623007204e-07,0.148874566057408,1
1.49863076845362e-07,0.154839403874733,1
1.52524900520309e-07,0.162534284100815,1
1.20714796361503e-07,0.15428403849612,1
1.17433410279456e-07,0.146169582981411,1
1.33309724278953e-07,0.15355807508473,1
1.79322121965163e-07,0.174290506677473,1
1.74738234314751e-07,0.176080744681362,1
1.46154006942964e-07,0.166750477890329,1
1.58784775507598e-07,0.155935265185142,1
2.20110745324422e-07,0.170693466750398,1
2.02422730317921e-07,0.153793806694096,1
3.54972762999364e-07,0.192214671889346,1
5.35789920741236e-07,0.225394231612936,1
5.24185418513019e-07,0.227484727159185,1
5.81639724271932e-07,0.237792042048729,1
5.02814777008444e-07,0.221228223425747,1
5.09209272963202e-07,0.228775119864994,1
5.20687895845215e-07,0.21939370516903,1
5.20603976281078e-07,0.234892021227166,1
4.69488001560301e-07,0.220290009701284,1
4.53349220382346e-07,0.213070613797981,1
3.94946448716268e-07,0.205150432961956,1
3.703300432363e-07,0.189236665288133,1
4.7608289918254e-07,0.209882059534658,1
3.86793357103687e-07,0.192117825133957,1
3.55273693311384e-07,0.191777950918671,1
3.49477779872692e-07,0.180841397094758,1
3.38074553474083e-07,0.1798511088337,1
3.48496314345255e-07,0.175729630137015,1
3.31645091034269e-07,0.180602741048296,1
3.45112432753885e-07,0.174510633305643,1
2.75532689701569e-06,0.317888683266014,1
1.41699844952114e-05,0.651775436794204,1
2.06396603597059e-05,0.671309910834148,1
8.07146689885983e-05,0.444030916509356,1
0.000106940032146294,0.318867744666276,1
0.000113603562859565,0.309669307743599,1
0.000114216827584165,0.285212877984132,1
0.000223197661803177,0.192091300259059,1
0.000661413633311049,0.284705115696491,1
0.000774599112835817,0.229409621935432,1
0.000688823839093002,0.190834674115803,1
0.000649139146130119,0.17345590001305,1
0.000561210625310481,0.132200641878184,1
0.000547326843462324,0.123775278265583,1
0.000508827752114964,0.121971112179278,1
0.000529984140853163,0.109189799794311,1
0.000401707142768432,0.0820878972019664,1
0.000372253409713333,0.0884486631959477,1
0.000347922704237195,0.0874027030757475,1
0.000308489795098882,0.083268738787409,1
0.000304841988226628,0.0802218190177525,1
0.000332418246568007,0.0878071334738922,1
0.000326539379514329,0.0909249357345944,1
0.000293924836400307,0.0901449397170629,1
0.000291238084244,0.0909479295263101,1
0.000215354806832613,0.0840297693051372,1
0.000218023207921939,0.0837949331743505,1
0.00020545199230779,0.0996652222969889,1
0.000170318120938724,0.0912733335716169,1
0.000216841600353172,0.114608451647243,1
0.000460687008952805,0.163226587177307,1
0.00046527072526744,0.121178628190899,1
0.000572403503824934,0.105747291082965,1
0.000743728743671398,0.0904225341914134,1
0.000790848949537177,0.0646155137892452,1
0.000781693462988986,0.0642027295151939,1
0.000743300739689169,0.0665300386934306,1
0.000609558226701587,0.0432636052635049,1
0.000636344851334604,0.0447156660620735,1
0.000612581491065107,0.0427718474146331,1
0.000687596602883722,0.0450163705848656,1
0.000745485209651742,0.0477912011920127,1
0.000777766827464295,0.0490593589157969,1
0.000729429740713786,0.0554417489688986,1
0.000644525103164454,0.0664015254927097,1
0.000705958722550498,0.0670711578580387,1
0.000654311698927272,0.0619877477712925,1
0.00064150525764901,0.097838235073413,1
0.000431627490235641,0.0748049100538351,1
0.000313038730469371,0.0630161743326302,1
0.00028593921501958,0.0709300601549768,1
0.000911332601478995,0.0659133475687694,1
0.00167378575628403,0.0750781087789646,1
0.00165855940018293,0.0788442283614809,1
0.00178357238419102,0.0765388224146085,1
0.00164816171723337,0.0604677944340385,1
0.00154414458886373,0.0560126692938333,1
0.00135683628343159,0.0491661632132726,1
0.0012291196982293,0.0381830396966252,1
0.00131792103321735,0.0400482679979742,1
0.00118628333806917,0.0348107327524876,1
0.000989964325038761,0.0486007332914532,1
0.000641326376323298,0.0422961831124217,1
0.000656823883529418,0.0375417876562492,1
0.000629370647116793,0.0314292516814977,1
0.00130605286948667,0.0396621302755843,1
0.0013396374930406,0.0266767500243484,1
0.00150587851832506,0.024273860698912,1
0.00242404605731977,0.0393368254802736,1
0.00248495364767938,0.0350148632655632,1
0.00239334465276736,0.0333140946896761,1
0.00356359917204225,0.0379663213870223,1
0.00751602949548756,0.0547038511948664,1
0.00844586762664536,0.054317122672761,1
0.00709180572356703,0.0509501074151084,1
0.00830391984308933,0.0556072725646463,1
0.0114428698330864,0.0793444675597777,1
0.0163240043324466,0.0401228873270894,1
0.0576062108889754,0.0370822448156692,1
0.0569423813261466,0.0215336847152993,1
0.0491717391003103,0.0190697743682054,1
0.0453068499267249,0.0171884139527746,1
0.0450341385839223,0.0149604142763863,1
0.043271520515404,0.0121752555729851,1
0.0371648084314924,0.0103336056137942,1
0.0313043706429662,0.00865612108020322,1
0.030095580246509,0.00787206696942981,1
0.0318690615786922,0.00809267618025723,1
0.035700655659306,0.0151690857858308,1
0.0555558919163385,0.0320119631971912,1
0.0755409698740201,0.0398409879897942,1
0.0874436390295521,0.0480754052403653,1
0.0887840120581222,0.0350394028792672,1
0.10724083671184,0.0309521430967106,1
0.133884867039734,0.0371268888797177,1
0.206854480966984,0.0429979093602248,1
0.356431050669928,0.0715164679154443,1
0.430512217183561,0.0868554619124254,1
0.496144721190656,0.105751973295808,1
0.526599518250513,0.0971356410958061,1
0.440024521292628,0.0856521362285312,1
0.29856636996604,0.0648190526810078,1
0.154465643392126,0.0394179611623916,1
0.121749477086426,0.0257394301372492,1
0.115438765746808,0.00676736570847069,1
0.256465004304283,0.0195563071054582,1
0.442132300627875,0.0310761971370553,1
0.614559265934869,0.039774235453466,1
0.69187992269628,0.0445388432241287,1
0.667430982319238,0.0428862254772581,1
0.669420706399798,0.0427083094699817,1
0.585079129112797,0.0378401805479755,1
0.429832341060161,0.0274327595668129,1
0.128679930354137,0.00464862722730588,1
0.0185893791117541,0.00579533151694595,1
0.0118542301478152,0.00475818830898935,1
0.0158638453541329,0.00910171047607513,1
0.034684347174662,0.0206265446262339,1
0.0441321326784518,0.0192348771994998,1
0.0527810588924228,0.0218545281569512,1
0.05004654648251,0.0154411049365561,1
0.0469376801424255,0.0171077911628708,1
0.0447808403941027,0.0194770887452449,1
0.0374511300887271,0.0150199879570194,1
0.0378921197613642,0.0158064379934963,1
0.0383098438242692,0.0163313421736857,1
0.0431783651528225,0.0182938562877227,1
0.0414701008270394,0.0214421204669209,1
0.0367052984486246,0.0222165294245993,1
0.0250344834701393,0.0258219314788054,1
0.00774713442402342,0.0171394972438775,1
0.00847450315859235,0.0252174179602353,1
0.007254110495358,0.0215111651900138,1
0.0119723613501446,0.0354004357375328,1
0.0121980583061552,0.0269414473231193,1
0.0159801002889665,0.0181107438433424,1
0.0212981053594155,0.0282687277621805,1
0.018630779663244,0.0265113123686082,1
0.0198199999340807,0.0248223380153918,1
0.0264497688610747,0.031006354025313,1
0.0464125868016448,0.0412661820460791,1
0.0491875703250273,0.0309751182599024,1
0.0449208784839515,0.0289850546702273,1
0.0467519452370339,0.0327648955930958,1
0.0334544004086981,0.0296679879580904,1
0.0291780767835681,0.0294488864570357,1
0.0237679008356396,0.0266551769136686,1
0.0224431639043762,0.0132751190304154,1
0.0332683946284367,0.021299613293708,1
0.0437639629818,0.0271571160411253,1
0.0461889089328641,0.0317960835571078,1
0.0462268520721783,0.0387917334404728,1
0.0460402351483467,0.0390664051038657,1
0.042682826014954,0.036649365349401,1
0.0467283340952711,0.0191807110514119,1
0.0469965451703684,0.0194990633561156,1
0.0633255967923317,0.0212787127031848,1
0.119448523364844,0.0508856953461602,1
0.139335374860655,0.0468797711785311,1
0.134631579915683,0.0481805046044077,1
0.105417950791905,0.0417975670425554,1
0.0995807103150432,0.0354871671189829,1
0.0833027335907038,0.014557903492901,1
0.0896439723921276,0.0117487990495513,1
0.130127788353755,0.0235602620042048,1
0.143007511692725,0.0229839116219099,1
0.175719664012031,0.0246076668821423,1
0.198169918273388,0.0284182100264874,1
0.188795944969643,0.0268273178997509,1
0.178377498769806,0.0241904866144249,1
0.163708923195474,0.0216466781114388,1
0.090686368443568,0.0105162884972044,1
0.0404259659506475,0.00760328276937674,1
0.041420758871693,0.0125594766860625,1
0.0400531664920653,0.012206298985087,1
0.0356875128046008,0.012727845910981,1
0.0321433519666559,0.0276728553011937,1
0.0232666423731729,0.0206506483066938,1
0.023728390751098,0.0136575177120443,1
0.0293411768105855,0.0178918906498863,1
0.0334495771651861,0.0190549586197988,1
0.0333827399047481,0.0369812906553799,1
0.0328123800877309,0.0382105028263669,1
0.0283970384884838,0.0344029020545619,1
0.0286415019603025,0.0329986300553611,1
0.0261106007935016,0.0238237806165328,1
0.0214478669799117,0.0200756661368804,1
0.00755387981867118,0.00382830437346256,1
0.00492080440412237,0.00571338615774866,1
0.00496201331173812,0.00410150446840523,1
0.0101940385044609,0.0102933973465875,1
0.0113270291232545,0.0107409135842328,1
0.0141834603862366,0.0110226829439613,1
0.0154534613639841,0.0109510880534762,1
0.0216174304104619,0.0101218788257422,1
0.0541696487737362,0.0225926253784231,1
0.0568834502854137,0.0245318909220375,1
0.0490988558330201,0.0203506842466384,1
0.0434518640844497,0.0189033515418045,1
0.0327515125541024,0.0150270268858104,1
0.0326937209168278,0.0151329518300305,1
0.0307589157503871,0.0153685009851921,1
0.0327226748640777,0.0184416027978492,1
0.0426991014156526,0.0243768888382535,1
0.0473174328100367,0.037699804089937,1
0.0238560493336763,0.0292831948082502,1
0.018523821504909,0.023085498770644,1
0.0196509233174255,0.0251376270930622,1
0.0206581463258548,0.0248891636697107,1
0.0171316463669571,0.0207688334601351,1
0.0186495512284311,0.0157864694074073,1
0.0334609454994034,0.0244046297977524,1
0.0428655149192437,0.0223841863970489,1
0.119636124882611,0.0321804555774507,1
0.122574650615466,0.0104952965429516,1
0.119957836613055,0.00871090182344664,1
0.116366315844267,0.00862437000350023,1
0.11583154313704,0.00934636146433393,1
0.21511532480077,0.0163107634972627,1
0.221661758789709,0.00354119094072975,1
0.266155404647502,0.00569523512168576,1
0.312171830428426,0.00748431151900443,1
0.376056963894218,0.0103242785059019,1
0.376042649601291,0.0112069082233585,1
0.382914240189496,0.0150602493047687,1
0.409379532571968,0.017733702018398,1
0.390097844485767,0.0157379154347796,1
0.369260551887242,0.0140511632363268,1
0.165929713660795,0.000901747509286004,1
0.0812462695907183,0.0222270607264663,1
0.078322350678438,0.0254496222075092,1
0.0795619740139672,0.0250842335652597,1
0.0705974284402156,0.0239063366181194,1
0.0603207035001175,0.0176170060828711,1
0.055654568886184,0.0138172024257117,1
0.0466424584132996,0.00985735737272783,1
0.0585754227963559,0.0165432483389755,1
0.0706105933823752,0.0203922017141975,1
0.0579417639534842,0.0242600938437977,1
0.0317525475911575,0.0206984801556613,1
0.0304019560938007,0.0210859473220478,1
0.02459583156731,0.0191961911433579,1
0.0243184751247467,0.0194006162541729,1
0.0253870339421247,0.0278781804696093,1
0.0145466543304292,0.0272371163633763,1
0.0262193413048171,0.0439884438516916,1
0.0314955417569754,0.0442248144065714,1
0.0332879370527336,0.038744044626698,1
0.0331122608527286,0.0314420874995463,1
0.0509461090416789,0.0387898377194884,1
0.0718828364625016,0.0513604627464963,1
0.0783102153069476,0.030806428653647,1
0.0589511966754928,0.0208009966042423,1
0.0598320361778238,0.0211170815045315,1
0.0562516209202914,0.0212043432041072,1
0.0569326100784854,0.0235166719937651,1
0.0530340565085884,0.0210185920659726,1
0.0794208173910622,0.027609354520856,1
0.060775474704296,0.0134873857945219,1
0.0613828310840032,0.0141287580207307,1
0.0719963485595924,0.0187063774227054,1
0.0819582361035012,0.0273185952591626,1
0.0911383691379645,0.035462989089744,1
0.116597665006927,0.0462889559737685,1
0.14227165325643,0.0535961453417523,1
0.173050490402905,0.0597758797431196,1
0.187329356208978,0.0768581540712171,1
0.106214285578867,0.0819794573727857,1
0.0466666761221753,0.111679626354383,1
0.0303798422206432,0.0513026146325003,1
0.0629911289249249,0.0292124708019119,1
0.0740643317857609,0.0190847727202352,1
0.0767237927420944,0.0190942679712369,1
0.0854564749030579,0.0217105614826387,1
0.0876797211485437,0.0188750711817282,1
0.0783431856333914,0.0166645837475621,1
0.0702725468534462,0.013942772645651,1
0.0895405049709954,0.0165289922178278,1
0.109806892004565,0.0196632357481516,1
0.123541744158772,0.02427603223312,1
0.0958382023657562,0.0359115731886177,1
0.0749159508254187,0.0464201177542909,1
0.0653225254614451,0.0399364294947458,1
0.0403994652065328,0.0255903850979248,1
0.0284325045309709,0.020370549673595,1
0.0297174013078418,0.0139526439827093,1
0.0809237935425199,0.0208560823955179,1
0.0931481585065067,0.0186954568191599,1
0.0839757389206421,0.0171310393646103,1
0.0759446687423068,0.0159771133324177,1
0.0657322744184841,0.0109417649542483,1
0.064912116651211,0.0110031605687891,1
0.0657247614854125,0.010345878748108,1
0.0811164368017149,0.0139665565078337,1
0.0966045980966509,0.0171414267481034,1
0.0972350320190689,0.0182625124019904,1
0.0624212336136222,0.0226314644082957,1
0.0480159012470894,0.024768674560664,1
0.0380045767152656,0.0195093949935619,1
0.0220315648422026,0.00769432221555028,1
0.0183639937106219,0.00992560823300091,1
0.0163474854362554,0.0105931324221607,1
0.0218800842821948,0.0145728379474298,1
0.0330012649961336,0.0236342728443713,1
0.0567055015724592,0.0365115552703395,1
0.0683974722235254,0.0398574103737292,1
0.124031332800961,0.0407283412849999,1
0.158929724956938,0.0449873021972265,1
0.188620789496653,0.0443048807695659,1
0.196830212725296,0.0407169306454794,1
0.212883889489278,0.0422973575748227,1
0.179378652837521,0.0363341551103494,1
0.234093115019847,0.0430997870855145,1
0.292123440262307,0.0478895446190851,1
0.263062250654827,0.0355845021080562,1
0.19156882905172,0.0264793793572624,1
0.177483285554857,0.0320060077489171,1
0.226334007081133,0.0348997824094311,1
0.324454397010851,0.0477289188130223,1
0.406997868196424,0.0657845010726598,1
0.451344228107631,0.0691392142570024,1
0.507884596129274,0.0924762753975797,1
0.42737776198508,0.109588165336566,1
0.221454203662324,0.0667632450639378,1
0.0972111067121795,0.0464169452998712,1
0.0583788323183963,0.0379406383328037,1
0.0205025589119657,0.0136661354070897,1
0.0412597545157196,0.0224150631710959,1
0.107785381897768,0.0472854974398723,1
0.135627685959585,0.0498925591701049,1
0.143147518732553,0.0205720351547531,1
0.16789043580763,0.0240415650285607,1
0.176456201611107,0.0244388332427427,1
0.196717865698812,0.0264500922755852,1
0.212216756662712,0.0279599473250968,1
0.23582212946599,0.0292069819616948,1
0.261294532126755,0.030902187844237,1
0.241057182454733,0.0437511973633487,1
0.145813886841373,0.0275933233002879,1
0.0580313412566226,0.00584320740456546,1
0.0297621328257043,0.0188143069304303,1
0.0298659816216996,0.0186592530298245,1
0.0542822376703908,0.0249373500164698,1
0.0589218960233054,0.0195615012204499,1
0.0582093468405981,0.0194349200562222,1
0.0529499261872416,0.017845029714368,1
0.0456046841584244,0.0136503573693394,1
0.0402677345523285,0.00877973208508197,1
0.0329738987443161,0.00701820157595095,1
0.0504206229890264,0.0173747326669266,1
0.0574775141094959,0.0173257082382178,1
0.0601429459316722,0.0196742294326986,1
0.0390612484891963,0.01743804869117,1
0.0291669069206497,0.0187549513253729,1
0.0268126927842354,0.0171633811519209,1
0.0275250643680128,0.0224519148888046,1
0.0135746943359624,0.0138889684215448,1
0.0130816613037726,0.0120407632038115,1
0.0363049375671064,0.0236470304653696,1
0.0500901392501317,0.035409159816678,1
0.102525267061996,0.048979277954274,1
0.138900228699366,0.0443717338919221,1
0.13816148865668,0.0462403307206861,1
0.130366403643359,0.0467588161581048,1
0.134022078852628,0.0343052020630049,1
0.173972456939483,0.0446798337363397,1
0.165137742861849,0.0386629939418691,1
0.107274564635262,0.0156988857024497,1
0.184831637413035,0.0224140799552229,1
0.163558934166071,0.0149822975374504,1
0.160994505418074,0.0141654692758259,1
0.156857427991342,0.0148119803004577,1
0.127619322814933,0.0107965674977932,1
0.110371174727339,0.00846639681231813,1
0.144289367247538,0.014016171434038,1
0.163239869653583,0.0138397715008352,1
0.190972983105655,0.0145281161207438,1
0.286661800249173,0.033994709575358,1
0.223032422250587,0.0276487202219566,1
0.22837080539581,0.0351203313753418,1
0.213232364535259,0.0311373429192417,1
0.167052592959476,0.0256267539340272,1
0.107379452455116,0.0191823678327318,1
0.0942010440080327,0.0152324827321776,1
0.153385164402742,0.0264339725649804,1
0.222858178798155,0.0424200621507642,1
0.229640181874757,0.0338356925689012,1
0.189897564221223,0.0283679584512603,1
0.146937994081494,0.0172739321092222,1
0.161769448858126,0.0170450534352899,1
0.218528628674153,0.0276758269775835,1
0.254745583263854,0.0299018730056716,1
0.283760089475542,0.0311994388456616,1
0.290306081906177,0.0336351723281379,1
0.23017830832487,0.0321670871037652,1
0.114814158795934,0.0128850082565589,1
0.0808957102727677,0.0165676006893903,1
0.0474606951924723,0.0106274054145588,1
0.0394246334454625,0.0192716098879792,1
0.0377141899261594,0.0174712766733194,1
0.0312054694627736,0.0148552829285582,1
0.0287090461582746,0.0134489404192178,1
0.0255435908892282,0.0111185378181914,1
0.0345640219257053,0.00972979749445136,1
0.0532994225518011,0.0152627791338621,1
0.0573231927253829,0.0190595951390513,1
0.0562037934881994,0.0130882931364643,1
0.0560485229373198,0.0139353161022183,1
0.0336546677552684,0.00771563352706503,1
0.0305807773132185,0.00913002699991276,1
0.0328656684525864,0.0103034324283633,1
0.0341115999065808,0.0110503276280983,1
0.0293172133567907,0.00926081015715069,1
0.0275645501722643,0.0176898848426124,1
0.024023429491866,0.017018781921309,1
0.0401619144897053,0.0240757109176833,1
0.0541319929693275,0.0315588025078141,1
0.1598472752883,0.0370225317755716,1
0.164961435306116,0.024471414736581,1
0.225507876053906,0.0268229040901307,1
0.215368655686002,0.0260961018451366,1
0.194742261920836,0.0244427810336807,1
0.157991824643532,0.0203200236528573,1
0.10733854545294,0.0133812973470134,1
0.0753186698934568,0.00785707247405384,1
0.0588738718603713,0.00510596573474729,1
0.059457689577283,0.00606185720869416,1
0.053327201287945,0.0109740432929803,1
0.0732622590475551,0.0306775899197504,1
0.0802891474067375,0.0524947753110508,1
0.0927099702347926,0.0541242232471974,1
0.111378454951428,0.0508515753531734,1
0.138718512693159,0.0574020682793394,1
0.148402358619455,0.0846398991507691,1
0.0958027841523942,0.050053004599228,1
0.065150790841422,0.0365182107382058,1
0.0680574677386167,0.0268695918616089,1
0.10346452469218,0.0333622917897116,1
0.146748632029396,0.0524944493790288,1
0.163614670373481,0.0503794134856614,1
0.177568005661152,0.0514368855000608,1
0.196614185058392,0.0787944598122896,1
0.1903418990634,0.0397654104709692,1
0.148978637713419,0.017020516101876,1
0.134159925595262,0.0158887164819649,1
0.143771357994247,0.0159347961969752,1
0.200170192472415,0.0244626774982752,1
0.19503823420906,0.0226404275291393,1
0.196127321115081,0.0222511878358805,1
0.187289638474435,0.0188412185624206,1
0.174405081486365,0.017978409712756,1
0.123259755536346,0.0105860292391931,1
0.0443883315322708,0.000452851057055783,1
0.0479400848854776,0.00179556102527869,1
0.0737528130680656,0.00657856442341721,1
0.0861053719252921,0.0104174781937762,1
0.0669635138610896,0.00574064207049793,1
0.0670164623503991,0.00626013709017614,1
0.0677595938820221,0.00551356236067596,1
0.08655738744373,0.0106008031505268,1
0.101747677860123,0.0138408491334058,1
0.109515030409542,0.0186522417835661,1
0.128536017814276,0.0254185835880603,1
0.131585977213185,0.0544944506692281,1
0.0893932199040345,0.0414892176073121,1
0.0477492439685099,0.0258976642416044,1
0.0299611318246576,0.0185469841610469,1
0.0174994818259715,0.0128979735117644,1
0.0248800889337356,0.0297699980024915,1
0.0358718121574518,0.0303207492828356,1
0.0632652949014791,0.00931987715371445,1
0.216122825433038,0.0275875600032063,1
0.211754604087736,0.0142022565232245,1
0.199483964888718,0.0127975807688435,1
0.184761106063429,0.0107844104267652,1
0.150941379081013,0.00775744343147501,1
0.141087669508919,0.00669710801018214,1
0.153404910405193,0.00752340482088118,1
0.159414548187996,0.00730671940353223,1
0.183606541218421,0.00829595288826684,1
0.167911910297192,0.0113369190611506,1
0.140860280133072,0.0099114908921026,1
0.123323099269693,0.0160748864175192,1
0.106842900452071,0.0155920787795367,1
0.0884941945070023,0.0147294194947034,1
0.05410473401807,0.00995966326210532,1
0.0784789700221414,0.0156146862807606,1
0.10254163594887,0.0186635146771978,1
0.0993540780132062,0.0258671033306672,1
0.0658445874800544,0.0252333983967989,1
0.0696392340869895,0.0195098175302223,1
0.0523873214990919,0.0182990454475744,1
0.0491511801550549,0.0154409450381908,1
0.079899619355804,0.0256856208313316,1
0.206488769876664,0.0358729583412083,1
0.423639860673731,0.053024725722687,1
0.428282970850303,0.0458501481589356,1
0.389411320479157,0.0375588313615529,1
0.351757651492707,0.0319469716632026,1
0.294676505946848,0.0248535363254202,1
0.231343761409229,0.0216045873800442,1
0.195339747010271,0.0140099598881151,1
0.161473352182969,0.0108632407320085,1
0.151883406974028,0.00815647347476326,1
0.246819586282598,0.0162583276161279,1
0.308300849598805,0.0201896654866997,1
0.389967787519635,0.0270721003409702,1
0.401553544669559,0.0294510184724525,1
0.430280097398471,0.0323918601717942,1
0.391880910965018,0.0377641529995782,1
0.291804444245448,0.0235670903092015,1
0.20158974263615,0.022364994120196,1
0.167470480417269,0.020192668702976,1
0.089814178967138,0.0134439081658956,1
0.0875957307495206,0.0292454454266504,1
0.0784227634283098,0.022316858159477,1
0.0671290406880493,0.0184560720559691,1
0.0732357581943886,0.0161864608841519,1
0.11411290665406,0.0234633145670936,1
0.145672861632135,0.0293437990356034,1
0.176912851762088,0.0531261482239815,1
0.17268314957804,0.0465459658931315,1
0.142144342695277,0.0436244665589747,1
0.101456910037951,0.0259458429530313,1
0.0548259226169725,0.0188304983272366,1
0.0611802601615693,0.0229453288881145,1
0.0494835244359244,0.0214625569951922,1
0.0459314986319521,0.0366691868929857,1
0.0826724513701626,0.0295305411281646,1
0.195493573817274,0.0534278592588726,1
0.229977759519511,0.039723341211707,1
0.225167884158025,0.0406013950392673,1
0.197550235228418,0.0359455930527874,1
0.156531990126258,0.0308875412007739,1
0.129133038212456,0.0280601373775627,1
0.113258558693539,0.0270022383870771,1
0.0754605322890749,0.020222055272126,1
0.0401232213063927,0.0084401441564224,1
0.0883238650481808,0.0137098950850384,1
0.151904878601146,0.0189172704455076,1
0.151982650441799,0.0211171044848583,1
0.153083546941377,0.0216428785460284,1
0.185846439247784,0.0241427828651383,1
0.190774215372848,0.0230672670213401,1
0.201758124322543,0.0231821754239303,1
0.208220217274665,0.0215636833744296,1
0.265407034489756,0.0254441016761097,1
0.308012296763596,0.0304835839864357,1
0.243679473777825,0.0532081081798345,1
0.104244520560511,0.0348809145599315,1
0.0685704845569385,0.0239370354253452,1
0.0660127169717672,0.0226225166381775,1
0.0741407470177067,0.0111166581101501,1
0.169643912596046,0.0211259823114021,1
0.21487241777877,0.0168291722027515,1
0.252837011690589,0.01634198143122,1
0.519673868240344,0.0337396720455012,1
0.570179702203488,0.016916810494094,1
0.545017209118511,0.0152389173950092,1
0.56220230397672,0.0153295251758765,1
0.510546436119364,0.0121153166221754,1
0.424570328736826,0.00482743971855785,1
0.555628332283487,0.00971629382409791,1
0.712885364315082,0.0139957383454732,1
0.833920595669859,0.0172829086432959,1
0.936495535045307,0.0220886337706953,1
0.74659848137607,0.0159951849337977,1
0.636652364412624,0.0178868881278397,1
0.608715548386074,0.0205110424760545,1
0.455579014674954,0.0153865289210231,1
0.656293705460287,0.018309298749648,1
0.725129061792563,0.0170049680475919,1
0.744532374194486,0.0148013636240289,1
0.739534504515945,0.0104853084594388,1
0.679585508043834,0.00916692574722543,1
0.629155096715529,0.00818473754716436,1
0.602933312247328,0.00786277653234764,1
0.649888218724556,0.00908883907073725,1
0.684095194985957,0.00984861372052377,1
0.758272530076948,0.0127803997651634,1
0.458891200835007,0.00989605394163354,1
0.405684000424831,0.0157244128004045,1
0.274347640654416,0.0234590885301896,1
0.0443320178527046,0.0208138761726132,1
0.0364295360979565,0.0257869490652868,1
0.0588410257062535,0.0147902180426249,1
0.0904744190454432,0.0128082100788575,1
0.0899596725282039,0.012561602712673,1
0.12759840034149,0.0111131026781266,1
0.185038411046909,0.0189239433271487,1
0.245033731698866,0.0240385608911193,1
0.285921000227701,0.0282487038549567,1
0.366020067198747,0.0326288210047834,1
0.375605494697606,0.0283184877958198,1
0.288046374666977,0.0207424657707391,1
0.255850636222518,0.0224957250660141,1
0.232487104929395,0.0268776464363055,1
0.145962977359956,0.0166684802508913,1
0.135028897074821,0.019857356943448,1
0.141523092080054,0.0222776761402858,1
0.154767688230043,0.0285105835793513,1
0.155565106958809,0.0268517436618572,1
0.170773017335376,0.027526588840685,1
0.189625612013704,0.0311471123104629,1
0.147799351365696,0.0312276074823461,1
0.0936745750151412,0.0188908850307475,1
0.0740278713456104,0.0133860703802349,1
0.183103680486709,0.0384148483517619,1
0.299195007815066,0.0516937348956912,1
0.376202096764408,0.0659072429884462,1
0.437631908311812,0.0669270036759827,1
0.462764424414543,0.0683158033185467,1
0.426749538012484,0.0985242480869576,1
0.298270843530003,0.0694670936941183,1
0.204549051402224,0.0196725375710299,1
0.266889982993997,0.021150545927626,1
0.260864154178068,0.0154552818248969,1
0.25831512346746,0.017881983938997,1
0.275338485907596,0.0133536861180773,1
0.33903748585706,0.0160348486326776,1
0.303016419215528,0.00916964026929664,1
0.330997141909736,0.0104605241010628,1
0.336284192441446,0.0106744717289316,1
0.373534119977643,0.0129481751682864,1
0.409031727406915,0.0212135429912184,1
0.29763395498676,0.0184641360784883,1
0.276939791308841,0.0189429852962797,1
0.281857602776125,0.0146667624185942,1
0.412412321338996,0.0237271250562835,1
0.366428376239428,0.0193632407087972,1
0.394930697615723,0.0309109252864794,1
0.379345371578646,0.0230503965256556,1
0.3658512653743,0.0150511776660555,1
0.366451371040945,0.0143553900513795,1
0.324150457223282,0.0109715751409328,1
0.293581701301521,0.00970540848538183,1
0.29380518734045,0.0103627608268942,1
0.358716495274556,0.0161343031376248,1
0.274094823385983,0.0159899189709769,1
0.226953154742012,0.0146453282251008,1
0.211212499239899,0.0127881115212624,1
0.230422765124646,0.0179529205834495,1
0.208063009253358,0.0542050254122828,1
0.0653584015849684,0.0315078029919788,1
0.0365091093122653,0.0306481003812016,1
0.0269248119312954,0.0244052025297424,1
0.0184497086604033,0.0182700919459309,1
0.0182181878149249,0.0159391481183706,1
0.0135371829177863,0.0125769603091701,1
0.0265701173599028,0.0177796294435904,1
0.0479474492946887,0.0141878664058334,1
0.0501290643364182,0.0131446131052261,1
0.0519159158321214,0.0108722509680187,1
0.0531440018860859,0.011774018068322,1
0.0483684437574247,0.0106439630500734,1
0.0541424704825108,0.0124439856260077,1
0.0475076436213279,0.0104567460127308,1
0.0552332002440319,0.00865657399796471,1
0.0783615025424858,0.0142719612050566,1
0.105172272807089,0.0229755068060234,1
0.105710685959651,0.0316042348092246,1
0.0797742325857527,0.0262779295291338,1
0.0531912752200241,0.0181204878985471,1
0.0530919876835554,0.0184196001195396,1
0.0425739069997322,0.0150829839403783,1
0.0418357872406373,0.0141640595032095,1
0.0376435874352733,0.00916686012154964,1
0.0437868099607534,0.0213544299127385,1
0.0566882848158511,0.0252925510107503,1
0.062887802157353,0.0264557792751094,1
0.0632305879131979,0.0262834588574107,1
0.07416266666996,0.0290097810727438,1
0.0733435281418526,0.0391048720716613,1
0.0552893178256493,0.0281898795605074,1
0.0430000393153997,0.0202859168233402,1
0.0178317944324505,0.00696897053996577,1
0.0157859763774585,0.00647961391141924,1
0.0233550054727667,0.0114072304602757,1
0.026131621168732,0.00656623279801204,1
0.0278503151160707,0.00669227784680215,1
0.0284357385147375,0.00659695410608781,1
0.0341126697464026,0.008740910352396,1
0.0354505798284265,0.00757532512231076,1
0.0318293049655702,0.00595516237096603,1
0.0335080439762212,0.00808875592066007,1
0.0346857717300245,0.00748256921047961,1
0.03340070125102,0.00848407288301333,1
0.0251801112841505,0.0046444427511051,1
0.0244383020274246,0.0100354759460348,1
0.0288887940725918,0.0139408617739705,1
0.0380924297854037,0.0254169041855495,1
0.0327234509454321,0.0254896470674692,1
0.0407192099299222,0.0373008895427873,1
0.045314177748973,0.052369933637047,1
0.0328582931963345,0.0427333050538041,1
0.0314206320780694,0.0673590386676122,1
0.0209197094746884,0.126199481053884,1
0.0137384460045145,0.176571178681586,1
0.00531904599408029,0.217459749414227,1
0.00200798911774775,0.203875855859667,1
0.000633157106592242,0.341659219039238,1
9.36310997495515e-05,0.357270810000664,1
3.66908933265371e-05,1,1
2.71883585135639e-05,0.952581942511766,1
1.81815232349711e-05,0.798682401509204,1
1.44140088196661e-05,0.747494281471811,1
1.09452688140367e-05,0.652467567982079,1
1.44092323978073e-05,0.214996465124453,1
0.000119915298170625,0.34392008885457,1
0.000139501472533622,0.203193836275682,1
0.000143923724984373,0.206627504417586,1
0.000144925504946925,0.200048909457161,1
0.000148582133863359,0.197741193311621,1
0.000147652250894677,0.192832266570087,1
0.000145721620130374,0.185519512443347,1
0.000140200274022293,0.185682242198,1
0.000134916707005895,0.163624871691976,1
0.000156185188897944,0.186620646146282,1
8.53637114389403e-05,0.166271219659666,1
7.20897887982799e-05,0.249414221538981,1
6.96248541888501e-05,0.242547884358148,1
7.36915280822474e-05,0.267811755230435,1
8.0108061664212e-05,0.315968713106672,1
8.50648006599731e-05,0.34146043851619,1
9.17794820959091e-05,0.352017885068769,1
9.67954355228705e-05,0.35150799253214,1
9.21855118276859e-05,0.544739072844355,1
2.10248771654145e-05,0.486900862731698,1
6.07750138388111e-06,0.610731730106375,1
2.60818617957253e-06,0.442986967210432,1
5.39351038703736e-07,0.212284305127332,0
1.52631548299732e-07,0.137786979136725,0
8.67920608836732e-08,0.110702773539143,0
1.61957765485969e-07,0.143853712846844,0
1.35378210410593e-07,0.137653411906919,0
1.31737325154056e-07,0.138576782035155,0
1.31291502469583e-07,0.12924121219408,0
2.28979775718541e-07,0.170999547599811,0
2.30154649616449e-07,0.171128526012509,0
2.27809491171797e-07,0.170324189102297,0
2.27313622705586e-07,0.176086985179849,0
2.66499906887119e-07,0.183277868912796,0
3.12681017863727e-07,0.212575846533742,0
2.08721286979304e-07,0.179076411861618,0
1.63379371644058e-07,0.16066531793603,0
2.59419193663122e-07,0.172655242781967,0
5.24664459358297e-07,0.259155829964502,0
4.88688098504976e-07,0.241074501322784,0
4.91539833901887e-07,0.245628327904934,0
5.01478183117149e-07,0.248112456866392,0
5.3220913413089e-07,0.255658800572783,0
4.81537670851396e-07,0.243720823014689,0
3.46324021461103e-07,0.200987406303488,0
2.58727512880592e-07,0.172420837600411,0
2.15640061669382e-07,0.150431311390936,0
1.93527256519477e-07,0.158997705093774,0
1.46100464512721e-07,0.140195495564948,0
1.6573960938539e-07,0.164951802904304,0
1.93435688036735e-07,0.173064235114282,0
2.36530788166551e-07,0.179331357718117,0
2.1011644973307e-07,0.164228474748939,0
2.0075308065646e-07,0.160780977054842,0
2.05693189373388e-07,0.161282026471198,0
2.09573376512031e-07,0.161260584081016,0
2.54396258084716e-07,0.180909578633864,0
3.38686466962577e-07,0.208837091564787,0
2.82342128563684e-07,0.191428552002752,0
2.27750703768795e-07,0.170576911404017,0
1.58591585677659e-07,0.144789576071788,0
1.40023289409854e-07,0.142190255579121,0
2.10596146199942e-07,0.16570735360987,0
2.26461533172859e-07,0.178953015996811,0
1.89436396308366e-07,0.174927520275982,0
1.78215432713116e-07,0.181661840528697,0
1.4681662183479e-07,0.171168679056553,0
8.29772173639792e-08,0.139923400020354,0
9.26902512911559e-08,0.153790835538223,0
9.59760081838351e-08,0.151744229874265,0
8.32656908656976e-08,0.145745507938621,0
1.35723504450529e-07,0.178753793767314,0
1.26572775311171e-07,0.157584979302971,0
1.79649058600444e-07,0.191381427808694,0
1.94350935783096e-07,0.188729698295221,0
2.05132632909821e-07,0.181258607129749,0
2.04091724357787e-07,0.173911345694264,0
2.01094003885763e-07,0.179649132167418,0
2.04588904067189e-07,0.174102052486586,0
2.06062959952864e-07,0.171638562006888,0
2.40350876659004e-07,0.180967026091028,0
1.07331374206022e-07,0.131170499836818,0
8.6163756855309e-08,0.135173714802609,0
1.02025210098657e-07,0.132550344028842,0
1.24818113382916e-07,0.149436821578581,0
1.42801595188146e-07,0.173281540721953,0
1.48070825945671e-07,0.175868773576703,0
1.5976820789982e-07,0.173259418722592,0
1.56195288748612e-07,0.164198210696438,0
1.75656104547491e-07,0.169856144062296,0
1.2547373497773e-07,0.140877333549154,0
1.59247862894069e-07,0.14754816768123,0
1.47708922825333e-07,0.138207296975565,0
1.5528812700192e-07,0.135707174233223,0
2.0174438050782e-07,0.15371097736192,0
1.9668822676861e-07,0.14730690533054,0
2.00018128848673e-07,0.146314144013993,0
1.99892249502469e-07,0.146272136076416,0
2.2838993482374e-07,0.153380272595482,0
2.05854909366775e-07,0.150538712271443,0
1.69974050725766e-07,0.141110660723661,0
1.47425912836905e-07,0.129706359078924,0
1.54129862184415e-07,0.136230375835402,0
1.27366514521959e-07,0.129665783671262,0
9.95130866878591e-08,0.115371928259991,0
1.02783982824389e-07,0.117744331924347,0
1.37353816816301e-07,0.129621218974692,0
1.73107047786853e-07,0.145695968452603,0
1.32423323882764e-07,0.129643891939848,0
1.55259935273343e-07,0.138886034310532,0
1.52774910888464e-07,0.133608555456756,0
1.60309095715542e-07,0.148141035570854,0
1.47016586421209e-07,0.1378183140697,0
2.24089931323883e-07,0.164968566217036,0
2.40177792557973e-07,0.171683867380347,0
2.61226960940557e-07,0.175996981999395,0
2.94910175995747e-07,0.192117769384632,0
3.57333000740697e-07,0.203935112405137,0
3.71844092039258e-07,0.204781669901433,0
4.0688925168741e-07,0.217152209083481,0
4.27589629381552e-07,0.242224910004919,0
4.21724875675405e-07,0.235965290313953,0
4.15455384904726e-07,0.238259391636263,0
3.69720096612591e-07,0.233807488916801,0
3.66616821063802e-07,0.218508611937893,0
3.24962121577793e-07,0.208207296308507,0
2.37202363220173e-07,0.18017651797655,0
7.89193567731402e-08,0.11430490791828,0
6.66646964633989e-08,0.116518489247562,0
5.98593443092241e-08,0.111201647674705,0
6.66863319760277e-08,0.110906890877064,0
8.61558893961714e-08,0.123898605060716,0
8.67879086135725e-08,0.126794295625912,0
1.22943909783872e-07,0.138427601372345,0
9.69823873318751e-08,0.135098020717485,0
9.73694226133474e-08,0.135493547641931,0
1.03044701678593e-07,0.1447048326129,0
9.86404543451611e-08,0.139022319229118,0
1.41832805011542e-07,0.145556350085964,0
1.46756086107536e-07,0.140236088746521,0
3.36321639870081e-07,0.204821581182114,0
3.88439404387735e-07,0.194983358953031,0
3.98081194101609e-07,0.197245094684832,0
3.96420286061412e-07,0.194315819900076,0
5.07531537302072e-07,0.225402058565358,0
5.51012361470172e-07,0.23777178976829,0
5.31219582603783e-07,0.233505542276091,0
5.2271070700575e-07,0.238272820255741,0
4.94497779997158e-07,0.242627805758819,0
4.80519271974118e-07,0.256361331708113,0
2.32590065300653e-07,0.181366932982777,0
1.44268439236278e-07,0.165900811030169,0
1.77517851336233e-07,0.181350589280881,0
1.81851947159021e-07,0.179186971203533,0
1.29019336562487e-07,0.140205607817513,0
1.1085796276453e-07,0.131556116553073,0
1.27424209222303e-07,0.136582849774069,0
1.33152375096198e-07,0.139119192369359,0
1.76830759904867e-07,0.147759360909061,0
2.6433897811061e-07,0.160973258483193,0
2.52074483476946e-07,0.162919408323623,0
2.80852556300266e-07,0.168986902386689,0
2.87059107397844e-07,0.168460195789219,0
2.4330663734896e-07,0.165359921786466,0
1.59454383696434e-07,0.147631491432158,0
1.63512025746742e-07,0.144305695866148,0
1.63382649752032e-07,0.149250001381562,0
1.61814621437767e-07,0.148580779145341,0
1.40933510723988e-07,0.145815232091059,0
8.87729122621392e-08,0.130619838699155,0
8.69942108754073e-08,0.124309463863401,0
1.30028338196906e-07,0.152133635915593,0
1.46655776003529e-07,0.153416305685534,0
1.43486938295259e-07,0.149028800132753,0
1.52515066196386e-07,0.147402687992268,0
2.25184163765629e-07,0.169691274923344,0
3.6186815385256e-07,0.208456504007402,0
3.65492648569226e-07,0.206165282360728,0
3.62057191412398e-07,0.208508898677142,0
3.38245015088735e-07,0.208537638705387,0
3.8594257881415e-07,0.222108667857865,0
3.10852052154725e-07,0.200485874303397,0
3.26116015584666e-07,0.201831246859914,0
4.30517853964525e-07,0.227203439508356,0
4.58124986619508e-07,0.243519678552482,0
3.45846510399546e-07,0.212842596386541,0
4.26012640905492e-07,0.207103747493163,0
1.30657516387397e-06,0.364543327456928,0
1.50271616515144e-06,0.353112835012752,0
1.52238830964438e-06,0.345438001829159,0
1.48584483611155e-06,0.326846448484772,0
1.47073253981054e-06,0.316222077328596,0
1.44490257875857e-06,0.310528839657895,0
1.42734066163881e-06,0.317181242416719,0
1.34449303881007e-06,0.294326540173059,0
1.25394186224226e-06,0.291483947133601,0
1.15591965906101e-06,0.30671253569527,0
5.685830202112e-07,0.222073886005983,0
5.13536375488978e-07,0.212867625906611,0
5.12462904397735e-07,0.205711709947537,0
4.34665097632791e-07,0.203239751572934,0
4.36103749952345e-07,0.218094314563235,0
3.99256067999517e-07,0.219036874050301,0
2.68338269838979e-07,0.175268570936037,0
3.66454226908288e-07,0.207453330574257,0
5.5579075019371e-07,0.246289131191092,0
5.36532958548691e-07,0.236460011114262,0
5.42593524571157e-07,0.248219421688651,0
3.26146611259091e-07,0.218032320247752,0
3.16814930559565e-07,0.202962634375312,0
5.05038426917524e-07,0.234267738811575,0
5.09930456717498e-07,0.224258676874591,0
5.42145079400305e-07,0.229632141016588,0
5.38687768190316e-07,0.216509788069051,0
5.27323660546864e-07,0.226594402012059,0
4.24985500406949e-07,0.199744931743242,0
5.9352221005635e-07,0.240498035181533,0
6.5625973316681e-07,0.229658476982116,0
6.79723992964158e-07,0.224108196512981,0
5.9358077891882e-07,0.231691256865378,0
4.53349220382347e-07,0.219041525524135,0
4.55644770126324e-07,0.213738529879695,0
4.31764627697331e-07,0.20524125317357,0
4.16278845627812e-07,0.207128876200522,0
4.03413583072767e-07,0.20537502734762,0
3.9943636393809e-07,0.209445485819875,0
2.36011535863458e-07,0.153666292114928,0
1.75949823021968e-07,0.143296572442267,0
1.52254565882714e-07,0.142246969648264,0
1.67543661473788e-07,0.141598143805453,0
1.81754259541393e-07,0.144493002824144,0
2.12103201705889e-07,0.148486957784091,0
3.33545300956573e-07,0.182212282353578,0
3.42944292139834e-07,0.191251813494691,0
3.28609125969214e-07,0.179804385315864,0
3.46293425786678e-07,0.184331585650936,0
3.2727406186164e-07,0.181841176844197,0
3.21941891431014e-07,0.176846313543953,0
3.6423472926931e-07,0.191607767405292,0
3.59798137937199e-07,0.193213905355433,0
1.97666632728605e-07,0.14276043783726,0
1.64330241497071e-07,0.140392672929686,0
2.40777686317229e-07,0.165940906725247,0
3.86379659877359e-07,0.211879581928542,0
4.26012640905492e-07,0.22954463626646,0
4.08467332866129e-07,0.228342083432142,0
4.41785803774072e-07,0.233275269735564,0
4.45133844718257e-07,0.221818856017993,0
6.64086325225174e-07,0.26088985903252,0
6.56602404720366e-07,0.259419590827638,0
6.24798638236977e-07,0.256825277921709,0
6.07348832409925e-07,0.268429816784844,0
5.39496368157254e-07,0.261760802727102,0
4.37813829612155e-07,0.240157204389384,0
5.90297207431457e-07,0.264940033239561,0
7.10623875808829e-07,0.285795783001349,0
6.97071084741356e-07,0.269617442379054,0
8.0734401450278e-07,0.309261757152919,0
5.88068094009088e-07,0.248629067989689,0
5.81109107861195e-07,0.247744149083159,0
5.61282018131346e-07,0.246802902541379,0
5.68179157308795e-07,0.238206350919021,0
5.7510448821482e-07,0.239643473960565,0
5.97795770151885e-07,0.241156385069549,0
4.52139598539913e-07,0.21390038333254,0
3.15538653854991e-07,0.181221029610346,0
2.98543849414741e-07,0.190159647693282,0
1.77688531491417e-07,0.147775377644897,0
1.50174278562367e-07,0.147894711449757,0
7.89193567731403e-08,0.117536257704908,0
8.15505847736625e-08,0.116709248478288,0
8.168367595741e-08,0.114583061862039,0
1.33731070423887e-07,0.132320048684992,0
1.38516452444438e-07,0.130056174648947,0
1.93467157873286e-07,0.144113405107522,0
2.07837509069495e-07,0.151093987586649,0
2.13947902333165e-07,0.145948183109308,0
2.74521874180737e-07,0.168321952470884,0
2.52893573389401e-07,0.163093545817688,0
2.40947055229222e-07,0.157357469458991,0
2.35454038967334e-07,0.153496765995503,0
2.58739969690894e-07,0.162596869661491,0
2.05305717010852e-07,0.154787222905645,0
1.98231341462272e-07,0.159865241627214,0
1.84560319967199e-07,0.157507698722408,0
1.54499414223358e-07,0.137403327286866,0
1.71262565700108e-07,0.142661924040578,0
1.72678489804376e-07,0.138953698060853,0
1.7636395732936e-07,0.138220430255137,0
1.80507485808588e-07,0.141737565275019,0
1.73475944204202e-07,0.14362094928296,0
2.00088935980913e-07,0.150758569523297,0
2.30797377319899e-07,0.146266799528406,0
2.63897307696236e-07,0.146698753150847,0
2.62372768947761e-07,0.144622617094367,0
2.60535280158027e-07,0.151074772513626,0
2.61764570648304e-07,0.159145895247773,0
2.15539751565375e-07,0.141682347338562,0
2.64406288594344e-07,0.152284121585318,0
3.09928281327633e-07,0.162107451908153,0
3.46289054976046e-07,0.169118444182467,0
2.69803365562857e-07,0.151737886726174,0
3.11500024830935e-07,0.171073133409869,0
3.57096976966562e-07,0.197826104183901,0
3.17995705051825e-07,0.192850758049534,0
3.26536487567474e-07,0.195306620415853,0
3.16522086247215e-07,0.193895884166664,0
2.63670244083899e-07,0.192021933291243,0
2.39101917520883e-07,0.194310675469958,0
2.08812199840452e-07,0.186559486627518,0
1.7365405473746e-07,0.175602927360208,0
1.83890493237831e-07,0.172639963822931,0
1.4316437247061e-07,0.151853489204683,0
6.13102348985485e-08,0.107638495682315,0
8.20838236707782e-08,0.119325047157473,0
8.32552009201802e-08,0.111334388228309,0
1.02946795520434e-07,0.113387671119367,0
1.97400887442173e-07,0.149834902323201,0
1.67046481764387e-07,0.13895721203368,0
1.82832757064863e-07,0.14466713696852,0
2.01531303489505e-07,0.146885509601874,0
2.42099200911843e-07,0.167035129382973,0
2.74785871142916e-07,0.18022698621443,0
3.42288014923424e-07,0.199862016959679,0
3.17957460458794e-07,0.185801255231989,0
3.15680268119472e-07,0.192179989333001,0
2.7804234360436e-07,0.18745402978986,0
1.31063127614055e-07,0.131758833886394,0
1.07172276699014e-07,0.125301834820544,0
1.93157704480534e-07,0.153021044173297,0
1.78914762414251e-07,0.147851246375939,0
2.46034678804983e-07,0.172384634337977,0
4.3849829855714e-07,0.229652129187207,0
5.23780462907955e-07,0.238623869103306,0
5.11628079567004e-07,0.246656161959017,0
5.14341260266878e-07,0.247360314343849,0
5.61161383757899e-07,0.258203801162435,0
5.73159477483538e-07,0.24001242802296,0
5.91839447962993e-07,0.234381386394316,0
3.76467754066421e-07,0.197235997208717,0
3.76537687036535e-07,0.188267274407306,0
4.0882814328381e-07,0.194733007963862,0
3.68765293030008e-07,0.179321168647337,0
3.69885313254485e-07,0.187981496989358,0
3.94430693061681e-07,0.193798762649469,0
4.01800972490055e-07,0.195559617913108,0
3.55799064749363e-07,0.176840011258131,0
3.3672047634026e-07,0.189922501152764,0
2.33149529061562e-07,0.166675694589489,0
2.34861138505091e-07,0.163391576694141,0
2.2695871288226e-07,0.176060649617267,0
1.35550420349498e-07,0.142793777500416,0
1.1586254093828e-07,0.148458040113874,0
9.9423703610433e-08,0.133822161715151,0
8.01921368292068e-08,0.131655519980545,0
8.38496311661454e-08,0.140976514931152,0
8.38199096538472e-08,0.140670619861101,0
7.49124161261654e-08,0.134932759757588,0
6.38341594980528e-08,0.127658916753129,0
8.70595544943574e-08,0.135694469417964,0
8.88166203684603e-08,0.122825733728496,0
7.79868443247824e-08,0.119384299147191,0
7.17916573348483e-08,0.115890649694553,0
6.81070639719907e-08,0.118734312536649,0
6.60779151360399e-08,0.112621840088103,0
4.3028008186614e-08,0.0983204163788408,0
3.07792484712258e-08,0.0961355350056133,0
4.30579482394437e-08,0.100425860710481,0
7.66745084324955e-08,0.118806910864778,0
8.80648409397396e-08,0.130272503856648,0
8.11381987905243e-08,0.142460834398565,0
8.46818335104968e-08,0.144817742911036,0
8.96732992523512e-08,0.143992554048184,0
1.24062837305689e-07,0.139724489252752,0
3.59070835048019e-07,0.204716226170924,0
3.57281643715769e-07,0.192301165828678,0
3.50881902788254e-07,0.184505954629238,0
