Activity,Complexity,Tag
2.06463855112554e-05,0.37478926879762,0
1.8775426692536e-05,0.535635379826101,0
5.00639831310416e-06,0.354237824964803,0
4.70457069911237e-06,0.410047674241961,0
6.36607764720568e-06,0.480550855848793,0
7.12230424505344e-06,0.493848197286948,0
6.69752398065361e-06,0.488554738791618,0
6.86013123415248e-06,0.576732013354315,0
3.71795671726996e-06,0.41281514675005,0
3.51414493815253e-06,0.41694684273808,0
3.86421772340578e-06,0.394540248160376,0
4.52334584769756e-06,0.405895970327153,0
3.88357904803131e-06,0.390875917166892,0
3.34974198471463e-06,0.403621323487239,0
3.1111290095457e-06,0.351433948920092,0
4.53451486521452e-06,0.406584388237329,0
4.3896365414733e-06,0.39451391181977,0
4.4795310643152e-06,0.421474432207151,0
4.44050623509816e-06,0.419690718817453,0
5.21974163208233e-06,0.451166440199651,0
5.34798218595396e-06,0.444340520760419,0
5.82550375782122e-06,0.458100321472532,0
5.89337701811663e-06,0.441330528550352,0
7.129420640639e-06,0.454274370340114,0
7.08097953608433e-06,0.457983737569638,0
5.38319180864426e-06,0.378768398737582,0
6.16703253980366e-06,0.376000282123668,0
6.56307865388276e-06,0.377885297082009,0
1.69482055955691e-05,0.253733939681265,0
9.58052903744535e-05,0.544663750303132,0
0.00012794112057888,0.426639712404963,0
0.00014607820545606,0.22002529519226,0
0.000660877766953969,0.221268298767711,0
0.00119691819344644,0.204523937943722,0
0.00114095932223349,0.158358908664584,0
0.00115897341412588,0.133552994792139,0
0.00117940169669676,0.123533823222692,0
0.00104127523751842,0.109145770558899,0
0.000888610521426223,0.101569722183488,0
0.000949846586175804,0.102482457749068,0
0.000954428952214202,0.109519998299629,0
0.000636645631821766,0.0858621012776696,0
0.000646908378336637,0.106944454652751,0
0.000674364117698415,0.126218945891285,0
0.000484989013018193,0.1121126575035,0
0.000591838295465317,0.136154226622588,0
0.000974941918630052,0.196934859364698,0
0.00134198654132949,0.277357366824196,0
0.0014481605828853,0.229516107838233,0
0.00130492055726072,0.233469480905779,0
0.00102987983064041,0.192919650775494,0
0.000633690460630819,0.100134043624257,0
0.000668268010059454,0.114348295966765,0
0.000647506590390171,0.109202522757027,0
0.000809464326497743,0.0709917364908063,0
0.00188483500014751,0.14455859396962,0
0.00204713250524457,0.109803757233989,0
0.001811368298503,0.0946310540596546,0
0.00168763638121747,0.0894779090751489,0
0.00173358380553046,0.094755186220029,0
0.00153186703454262,0.0908637143396547,0
0.00155117028601569,0.115884462058409,0
0.00156423578434341,0.113955018478531,0
0.00147851440733028,0.108200561508632,0
0.00145171038587925,0.220692397190706,0
0.000676962857371911,0.148180926108382,0
0.000339187489146464,0.161691130521545,0
0.00018921811931857,0.128633051415565,0
0.000174525557967973,0.145981481354275,0
0.000209078636557994,0.148896629018407,0
0.000223384793024224,0.137729196428251,0
0.000228382751941121,0.132251662633341,0
0.000195437270770209,0.160167584589929,0
0.000112336842264404,0.138787472766034,0
0.00011527812285061,0.148369677278507,0
9.4706463510045e-05,0.0747276044212313,0
0.00050010544415823,0.122716734042744,0
0.000550579905407033,0.0789372298358673,0
0.000571527959818115,0.0829021910572516,0
0.000564706657807808,0.0837426714905662,0
0.00057185157144321,0.0875012938957925,0
0.000611289399021238,0.093601634424208,0
0.000621500704602657,0.0942258560529494,0
0.000661920674620459,0.0993051180393328,0
0.000677963642003738,0.0867451290519575,0
0.000680691581238496,0.107493048642463,0
0.000295349695325368,0.0527827648753139,0
0.00105818086705532,0.115784134249842,0
0.00131256064335235,0.0755861224852979,0
0.00249418321097139,0.0809092387986809,0
0.00283445944027074,0.0611291609105638,0
0.00454282845355592,0.0660886227632162,1
0.00419773545903851,0.0517634683129456,1
0.00335860932956693,0.0435948757845046,1
0.00279293260635241,0.0394924615770682,1
0.00237247379223237,0.0348909016397558,1
0.00187592098037763,0.0330578097920255,1
0.00186344695350628,0.0367949927924003,1
0.00223543694105205,0.0259015282981668,1
0.00429739297437922,0.0372740636128679,1
0.00468381328353259,0.0462614321762945,1
0.00703568773375543,0.0607474164313275,1
0.0131299772981799,0.107332926655654,1
0.0146044919816329,0.0541537668544776,1
0.0132575949120687,0.0491766830698698,1
0.0112635143415238,0.0409031256562231,1
0.00922259568015214,0.0313468282666991,1
0.00723032672474048,0.0253355594620397,1
0.00639264592237418,0.0269302264622564,1
0.00669981977712305,0.0284611876371025,1
0.00659502496658458,0.0259500796389106,1
0.00655028857316468,0.0252761581381638,1
0.00489962832559862,0.0181777006349236,1
0.00430471117830548,0.0284426596521514,1
0.00318088850768558,0.0221925248221851,1
0.00300867953905442,0.0240635871528756,1
0.00319642316901544,0.0195796752149067,1
0.00509416455719556,0.0287137657389967,1
0.00594770636197415,0.0373885579259015,1
0.0067460027084996,0.0437470101508102,1
0.00729194045984857,0.029752831174552,1
0.00712225110728848,0.0175455885208044,1
0.00926943206447384,0.0173029812243895,1
0.00876987332044062,0.0158870952441318,1
0.00876899466783482,0.0132127022132276,1
0.00762846226227645,0.00764151595045548,1
0.00651429243865596,0.00679341625489003,1
0.00641742196914811,0.00650251061056204,1
0.00763674448948575,0.00785175661312723,1
0.00869258244163978,0.0102414033186797,1
0.00954939925091909,0.0148266388542592,1
0.00665099382826399,0.0163351263978774,1
0.00658082514992095,0.0237467325972052,1
0.00517499247168183,0.0195312505310781,1
0.00468505645158479,0.0246709537785756,1
0.00392334037606893,0.039742540041021,1
0.00292713530441736,0.0301351361139948,1
0.00344539551926081,0.0152691269467007,1
0.0071241223035226,0.0310701178586065,1
0.0110218049197174,0.043946857637957,1
0.015343999955893,0.0580161554615095,1
0.0168503114126432,0.0541679558541237,1
0.0179619415774464,0.0515004728018728,1
0.0195469224181598,0.0488916843065126,1
0.0223027531728456,0.0304682025834535,1
0.023148718334569,0.02509858148195,1
0.0202776953641899,0.0223688679713931,1
0.0169913741960333,0.0245507621253375,1
0.018180804786219,0.023036347809257,1
0.0176903647391205,0.0225555812260574,1
0.014745692241823,0.0188314542868087,1
0.0139267908208865,0.018397175550752,1
0.0131713920084104,0.0167744999722224,1
0.0100438623461548,0.0129074001998671,1
0.00822191095102239,0.0173985196085475,1
0.00871493382965061,0.0238811439675097,1
0.00899797403730958,0.0206147045598377,1
0.00994441743909633,0.0196556401842618,1
0.00934519913709732,0.0195572376256777,1
0.00949945314781567,0.0197816218283859,1
0.00993179092906608,0.0185927216884627,1
0.00979173990372001,0.0186745275510158,1
0.0105046261213846,0.0229005780232827,1
0.00770967417322521,0.0180576775111692,1
0.00802371064501966,0.0275582739136161,1
0.00712082839301672,0.0244436385804533,1
0.00599431632151924,0.0250194807425882,1
0.00667406503535154,0.0272939630804944,1
0.00935451087275924,0.0519999040168689,1
0.00753182075172511,0.0302303603778225,1
0.00568732186673681,0.0223734248991276,1
0.00640618877650929,0.0186254397394777,1
0.0233802237449233,0.0404631555902357,1
0.0710905014112453,0.0785714976281756,1
0.248240572318134,0.0612919440839305,1
0.483207265021041,0.0667365783843748,1
0.490953239891585,0.0579472934649834,1
0.611586893201539,0.0612281235334376,1
0.583334657780637,0.044347697611061,1
0.486098810433957,0.0384825116579201,1
0.370171745688291,0.0300107462321473,1
0.242523867145055,0.0201265846462471,1
0.184803885514288,0.0138434021937484,1
0.194083815347344,0.0140112461645471,1
0.184065971307672,0.0188658998064318,1
0.14832336384913,0.0162566637768936,1
0.146774364239042,0.0195143160773659,1
0.0777167079756773,0.0100357998750714,1
0.0732513599838452,0.016162332476514,1
0.122765630769966,0.0287976465939127,1
0.129054853178586,0.0271814717054317,1
0.115302903116262,0.0229197159403815,1
0.115563192399888,0.0261007274612186,1
0.117887685873483,0.0329914514590403,1
0.0988887380909851,0.0297522151745526,1
0.0919770416344487,0.0321858165001407,1
0.0447064796818052,0.0170798552001562,1
0.031412356968843,0.0127258180190645,1
0.0320352047015556,0.00516805074773197,1
0.0389989824113839,0.00995448871409476,1
0.0379601658628804,0.00918734690655859,1
0.0415820703871009,0.0105197486164143,1
0.0402510083142722,0.0105058401301943,1
0.0449659958208542,0.0100459133736879,1
0.0555168976397497,0.0151008688753847,1
0.0668946917562795,0.0180185105928271,1
0.0722199209260592,0.0201581597071306,1
0.0828737051047253,0.0249691953268061,1
0.0753616952641928,0.0513798081223183,1
0.0353237140796203,0.0356977719091761,1
0.0318987509524467,0.0471043600490749,1
0.0303428530162656,0.0527572931533761,1
0.0118250720417517,0.0257813291058966,1
0.00532932364634175,0.0242925088316539,1
0.00484702563478758,0.0212028631820052,1
0.00417788221887637,0.0195041024097662,1
0.00440097969154835,0.0190485892860333,1
0.00474088471005735,0.0206211398657953,1
0.0035662423719273,0.0118115658753289,1
0.00496670785110541,0.0128815366315644,1
0.00532596659399569,0.0123989848246958,1
0.00490232042100987,0.0124585423280046,1
0.00418773303408789,0.0104458572315911,1
0.0119131548071424,0.0252263478572547,1
0.0143901480406721,0.014206562187572,1
0.0136856591206102,0.0111393277602343,1
0.0174178137565322,0.0135700108605295,1
0.0178268822118029,0.0131776550099811,1
0.0171356548494478,0.01396498223654,1
0.0178663206409535,0.0170237989914413,1
0.0168163897086774,0.0173703634461968,1
0.0205234861599499,0.0226573859508641,1
0.0234698367140822,0.0244444140157704,1
0.0238060907299694,0.0233319806661035,1
0.0447618150153977,0.0450667748087443,1
0.0380262860293003,0.030026907150075,1
0.0501906090970205,0.0295101606685503,1
0.0960072518089022,0.0487375928249624,1
0.107428882136538,0.0314795973859612,1
0.08871875095654,0.0258566502184693,1
0.0785679238153421,0.0216480472637161,1
0.102973926045529,0.0111406013507252,1
0.234784634573594,0.0260288704251827,1
0.230012393243643,0.0270929854962513,1
0.234879041815649,0.028073315418224,1
0.210503666428768,0.0275408676872296,1
0.190566576876632,0.0221455733532199,1
0.199846478247384,0.0246304561311379,1
0.19907365843293,0.0285265821623457,1
0.176581793488767,0.0258352009350938,1
0.163466769437987,0.0249263212902898,1
0.193227658308916,0.0596045528571188,1
0.129393375852132,0.0688015199593513,1
0.10873119545931,0.0592576335157399,1
0.0961475873618542,0.0536497312726956,1
0.0592772923548617,0.0432089780343216,1
0.0490818876286869,0.0550512294826444,1
0.0461042139171163,0.046864634476817,1
0.0360802462509331,0.0297516130931814,1
0.0346375822353858,0.0290985038939267,1
0.0473553758181263,0.0321882901498415,1
0.0637393503294398,0.032761454457452,1
0.0691772678945083,0.0221108089447856,1
0.076673336447527,0.0158432549535023,1
0.080467823479414,0.0121674643962333,1
0.0861105262910316,0.0118680685178722,1
0.0857262391109205,0.0113316271793133,1
0.0971180520988159,0.0109467225469198,1
0.134834604158622,0.0189302860053608,1
0.148141421952037,0.0202614183841759,1
0.131706779073394,0.0209051232033144,1
0.0892500655402083,0.0143309215109701,1
0.087903359102753,0.0183808190412533,1
0.0848077741708124,0.0302000401794149,1
0.0297706303889751,0.0184132124293721,1
0.0275232338881005,0.0245597851149809,1
0.0128460341038199,0.0137110499460392,1
0.00361786543316354,0.020226862010665,1
0.00299994078514047,0.016961869676436,1
0.00352193443789077,0.023975343755505,1
0.00356526831866323,0.0297142453707346,1
0.00284481036103054,0.0228293393250377,1
0.00295864444993559,0.028438254252082,1
0.00312616383717448,0.0279540532554677,1
0.00410364070172925,0.033645067896796,1
0.00557511358819324,0.016014060092644,1
0.0102913521250812,0.0308586850449486,1
0.0134766338889095,0.0382830585579902,1
0.021275503413006,0.0641821428187547,1
0.0241613112439093,0.0629690413526303,1
0.0253724284047018,0.0604415235853452,1
0.0238254092470234,0.0476138099213305,1
0.0306948007049093,0.0468024809895047,1
0.0342677324045751,0.0562809263601266,1
0.0221206233601485,0.0305466881794078,1
0.016159716458522,0.0257789710762174,1
0.0215806854205536,0.0333993697278877,1
0.0201689623277422,0.0254976172830976,1
0.0247727589116142,0.023094288776535,1
0.0283063337782624,0.0265997886605138,1
0.0334595847781729,0.0308460558623365,1
0.080986288242713,0.0248583797153233,1
0.192317178765932,0.0458722222351378,1
0.226714190610248,0.0541083170425921,1
0.233120800447404,0.0457141812619421,1
0.279994043012233,0.0385058729016711,1
0.254178230212637,0.0341885358412969,1
0.198373707338596,0.0298164235555935,1
0.149908027380056,0.0241253038044159,1
0.101818772300454,0.0165192086604422,1
0.0865516238914025,0.0129934220900003,1
0.091072154759738,0.017049163224419,1
0.0834598815527082,0.0145101797497288,1
0.0837050079945816,0.0132793658537193,1
0.0801337462027293,0.0207684842828009,1
0.0378263629820306,0.0163433309392273,1
0.0423616866482382,0.0158643542134116,1
0.0578620693425251,0.0201794301640608,1
0.0934113294882669,0.028872385307061,1
0.109788047450697,0.03095644541206,1
0.144145345187718,0.0383609414080483,1
0.148908120755156,0.0550126607942822,1
0.120024054355014,0.0494461021364234,1
0.117715199455438,0.0390935235498778,1
0.113755197355856,0.0195703071238241,1
0.11364189922075,0.0160505505921006,1
0.101211798634724,0.0173214534604133,1
0.100127360195646,0.018267823642115,1
0.0972115070681746,0.0182803696336977,1
0.0990958128446269,0.0185222515529139,1
0.0948953014643397,0.0180485352514478,1
0.0950034046436215,0.0202702545878047,1
0.101274612970187,0.0221333646206118,1
0.127277916802215,0.033185091772472,1
0.124117115203917,0.0976531844089637,1
0.0899811666731928,0.107867819671376,1
0.0772932081025563,0.0823406817229434,1
0.0655855409631471,0.0773203376484982,1
0.0585693762547308,0.0730374506491752,1
0.0475684605313912,0.0478061011270312,1
0.0365373483532926,0.0391912770661464,1
0.0149496120087142,0.015336597417551,1
0.00695124885967379,0.0153547435307323,1
0.00792236838356663,0.0185444195625166,1
0.00809120319315364,0.0219924159397188,1
0.00612582109782184,0.0189037632657949,1
0.00599576308295462,0.0143000573606021,1
0.00747469966783373,0.0184254787749899,1
0.0109681412902941,0.0251191858762414,1
0.0155358463076826,0.0499518881250076,1
0.0164902822549613,0.0607252655859343,1
0.0166358241703348,0.0873061174112409,1
0.0157999293915902,0.0867379070315453,1
0.0135956861588666,0.0841290924376126,1
0.0125575385597462,0.0532539540219121,1
0.00866504664491817,0.0372307495400672,1
0.00554021686195434,0.0427194810943372,1
0.00926469388916544,0.0443174466458475,1
0.0114217359906081,0.0598283019035717,1
0.0108529634734844,0.0576580661542954,1
0.0113258203797879,0.0497491549097186,1
0.0265113715362931,0.0623393332163942,1
0.0365548772712293,0.0718220798306754,1
0.060862421189976,0.0609518538586103,1
0.0894606392694524,0.0732690107320442,1
0.119324239947681,0.0874782834023407,1
0.139389443300261,0.0825908599496301,1
0.132248729785866,0.0748138258325881,1
0.128092197746694,0.0706720886482796,1
0.110239447362335,0.0595637547224242,1
0.133534694414486,0.0416230815480232,1
0.304178855780126,0.0630422272132125,1
0.30074806927462,0.0407745060782535,1
0.275034562994553,0.0412954442432014,1
0.251178013091214,0.0388240444882236,1
0.221155906681121,0.0343851875407343,1
0.202396441417878,0.031988577112402,1
0.157120432258626,0.0247708801208889,1
0.129307565129209,0.0193122540502269,1
0.0999604071581001,0.013490073460207,1
0.110772789940028,0.0289083082255278,1
0.0593548982319289,0.0209999734547827,1
0.129861167286153,0.0452736314680895,1
0.190817629791853,0.0594295453508106,1
0.192770075003898,0.047541889521316,1
0.182864556082793,0.0472987924252015,1
0.181967152987938,0.0473831527968507,1
0.177022005089443,0.0531212006383977,1
0.108633404237773,0.044256202888531,1
0.0721839347516842,0.0365877008060967,1
0.0480652013375516,0.0278859459266272,1
0.0284935100870621,0.0198010118202387,1
0.0310399476019054,0.0376539774199391,1
0.0373495034818779,0.042873120307479,1
0.0464796630782603,0.0762059025466687,1
0.0356126481976622,0.055544540961251,1
0.0351827963145766,0.0515630748963267,1
0.0457718388390355,0.0615487568580522,1
0.0430525316670208,0.027201668976559,1
0.0408336190412797,0.0204283194193884,1
0.0405494568543275,0.0180566167959513,1
0.0306740970716248,0.0105430956886022,1
0.0287062845192161,0.00986392375214891,1
0.0330190131093259,0.0118612424841635,1
0.0473115545171336,0.0178835930414347,1
0.058426523433464,0.0212706551354622,1
0.0566094897075561,0.0211198171698263,1
0.0582272258137922,0.0202984475125905,1
0.0511294732853368,0.0332713320775539,1
0.0254848097964584,0.0226464242681427,1
0.0243070917820956,0.0245378313455429,1
0.0245409384083882,0.0304654090943933,1
0.0156616392849903,0.0194756976274216,1
0.0160270605957646,0.0202255609403507,1
0.012746796341702,0.0169883422537842,1
0.00953049776976356,0.0118668844945483,1
0.0119149035991754,0.0189386340282504,1
0.0124212215760111,0.0213244603346948,1
0.0121904764881623,0.0225840857577423,1
0.0123378053948547,0.0230174260965222,1
0.0124294882385747,0.023161594196368,1
0.00709121780733364,0.0165229964205012,1
0.00635006894814549,0.0243776217758259,1
0.00553675266967641,0.0223705973430152,1
0.00411640997777477,0.0188831625618752,1
0.0041263411315391,0.0153314997147573,1
0.00849372142561784,0.0215874511366537,1
0.0135639187696608,0.0175015942164272,1
0.0137288433078547,0.016488368033086,1
0.0184431830199467,0.0171549008787527,1
0.0229239351385776,0.0168209688963732,1
0.0239109519028683,0.0165231026693555,1
0.0259253765056517,0.0189077224352793,1
0.0293435243849078,0.0238081181390563,1
0.0263794430356344,0.0209973511763053,1
0.0175034307609458,0.0134660546264424,1
0.0209089931431909,0.0142020089297197,1
0.0391588519707934,0.033358032044015,1
0.0464823322955493,0.0368208699424212,1
0.0498164099930744,0.0451901556508994,1
0.0574792281807785,0.0437336253679543,1
0.228216010404138,0.0315364028086592,1
0.485911782470107,0.0387772743086351,1
0.493248326847875,0.0366977871425917,1
0.565331412057543,0.0404445014384663,1
0.477989304795605,0.0253024555286248,1
0.427800027934961,0.0217364375192423,1
0.420623504477284,0.0214229884222973,1
0.394703616888882,0.0170506662874555,1
0.339914891824898,0.0139144457434474,1
0.306843393738041,0.0124189080186526,1
0.279291751161871,0.0203529923811332,1
0.230936429383311,0.0178878723759232,1
0.24465160684962,0.0199133664636833,1
0.157459075198159,0.0130036493038927,1
0.123125004711139,0.0153681484736172,1
0.114142260520997,0.0167971426512441,1
0.114200321566743,0.0145790204229546,1
0.118621818600333,0.0226177508971098,1
0.0723113678211688,0.00994139931518347,1
0.072713192781632,0.00960091493181328,1
0.0506978711606397,0.00850315718621008,1
0.0494326294282518,0.0152286460104556,1
0.056769479907931,0.0200256575248453,1
0.0579960922725313,0.0203306225629476,1
0.0521788844810243,0.0150272090441704,1
0.0503187054300517,0.0128842261921448,1
0.0468298686895623,0.0167611264623783,1
0.0490650334343449,0.019212720184371,1
0.0377528379734254,0.0145880646325767,1
0.0413154113793369,0.0141553379923383,1
0.0501845781284296,0.0152916841259669,1
0.0619240339636016,0.0170695590998572,1
0.0816399460603026,0.0218294589983444,1
0.0956637452764221,0.0252394718077916,1
0.103912690076845,0.0327928119026047,1
0.0883782837742603,0.0276880087166884,1
0.0781946279463338,0.024768782056295,1
0.0804543871826576,0.0277044985886902,1
0.0708981671683398,0.0392565333560892,1
0.0280215361327475,0.0289507847861421,1
0.0221653878305634,0.0290629695803421,1
0.0131279745784025,0.0226646127809528,1
0.011409296931845,0.0175308514938943,1
0.0077295911707368,0.0138516667052523,1
0.00873982135197487,0.0155426488870174,1
0.0104117129246336,0.0209667538958107,1
0.0143639976257976,0.02810989572471,1
0.0145152339091532,0.0230739092325799,1
0.0158247797984101,0.0250293518143245,1
0.0117043320124086,0.0175493036823109,1
0.0102098876723497,0.0156514629557713,1
0.0123418804112237,0.0237535515484322,1
0.0128924471254833,0.0188072394266409,1
0.0129480196265716,0.0157556712418816,1
0.0131009151617569,0.0166140062576049,1
0.0126005971922806,0.0146889022593294,1
0.00987009794722092,0.00981826515948759,1
0.01700278956794,0.0160326049386378,1
0.0230140300208376,0.017109951906338,1
0.024341275555285,0.0160583989384098,1
0.0285449771847411,0.0130970881257293,1
0.0315152238274208,0.0139629985607615,1
0.0522679566178915,0.0268475079014846,1
0.0673779066985906,0.0377426038577817,1
0.0860832033727998,0.0389189010243805,1
0.104968642064307,0.0349720756889478,1
0.0853227872456568,0.029646101570493,1
0.0966850459323719,0.0327496218706067,1
0.15940789823601,0.0355599146840662,1
0.204430585878619,0.018365408412554,1
0.203552083243771,0.0135777415649764,1
0.1974328009738,0.00705267742178871,1
0.312450131860721,0.0123257999158829,1
0.404178223514932,0.0177433074039029,1
0.490166109934119,0.0226329502880849,1
0.485011399765359,0.0155780683684926,1
0.444783953080027,0.0141395056331664,1
0.426977830042285,0.0139316247997336,1
0.431149999512833,0.0171178180995898,1
0.41779704451051,0.0217594815744096,1
0.319655251456258,0.0198085240467019,1
0.26322098183412,0.0239153602708198,1
0.231294149093793,0.0326249069381417,1
0.161768488963564,0.0222969761504455,1
0.0614072622157837,0.00498084921372219,1
0.0384586956123145,0.0143632993945127,1
0.0362107062918969,0.0118535923778801,1
0.0442675464127306,0.0103616900936915,1
0.0561008815979528,0.0105482804870118,1
0.0594106606464854,0.00852345165286545,1
0.0577256082789558,0.0108870091140526,1
0.0532839036049989,0.00964940197042117,1
0.0590134132970302,0.0103781610262454,1
0.059708371287166,0.00990083597175287,1
0.0537736613477699,0.0102306881911783,1
0.0530672346667856,0.0118005610958697,1
0.0526591786944301,0.0133049674253042,1
0.0436918441316479,0.0164490571884598,1
0.034121412015731,0.0184251425691344,1
0.0368788665566808,0.0309302444971234,1
0.0335136161661895,0.0291013697705323,1
0.0365074942976202,0.016270838840192,1
0.0607260201057689,0.0131591251808402,1
0.0775357951256513,0.0154777976812088,1
0.0907606386985692,0.0181717074451867,1
0.0962441148539854,0.0183016365450903,1
0.131166441215584,0.0223655296167618,1
0.181906358603233,0.0285723214377713,1
0.222543564119631,0.0338274988090808,1
0.277214575552544,0.0419080571382818,1
0.304323702530242,0.0420204619420469,1
0.266716546934555,0.0589304392209236,1
0.103728952884961,0.0491786293699588,1
0.0789218276844413,0.053093185349661,1
0.0580991762868473,0.0408357186495227,1
0.0184425832843684,0.0115675628559317,1
0.0102204932829442,0.0173091387617505,1
0.0144399954261879,0.0240415300306325,1
0.0165641513585008,0.0288473449733301,1
0.0159458524186978,0.0313312505324223,1
0.0130173891180977,0.0291412151749132,1
0.0134387470573113,0.0365164212411382,1
0.0113028093112685,0.0457599566664938,1
0.0111593590870953,0.0566847271266636,1
0.00714458830415421,0.0486704616689975,1
0.00495194933172196,0.0350925314016019,1
0.00779926241724221,0.0392250051424076,1
0.0109139837433714,0.0248045477427268,1
0.0134557924530345,0.0257090620589129,1
0.0180017435100767,0.0245451578902984,1
0.0425346402012585,0.0435966495248155,1
0.0614796641790218,0.0401540441084317,1
0.0600397501252835,0.0383277157230605,1
0.0568255685037081,0.0357177090067715,1
0.0509999330052593,0.033359950837418,1
0.0454676060907464,0.0263145155431373,1
0.035692869337892,0.0153884079859433,1
0.0299869722591033,0.0139009158851957,1
0.0362279705385502,0.0150225475983598,1
0.0373191457864797,0.00690029612586109,1
0.0383757684609827,0.0064519539963093,1
0.0516901663011171,0.00795914439335245,1
0.08063987496539,0.0148502387343319,1
0.0908815710284875,0.0143993294824979,1
0.165212325994979,0.0236258609984712,1
0.201907739425176,0.0270657401717199,1
0.301409839846303,0.0370804111012483,1
0.280280501701343,0.0354295891106023,1
0.27258436182874,0.0337494840333614,1
0.222370740651725,0.0318442702139373,1
0.160838143902369,0.0213117883667717,1
0.147553586123515,0.0176801132109805,1
0.214470540662835,0.0252206052995922,1
0.226987176032694,0.0233960698962718,1
0.219034971287461,0.0227930998459383,1
0.224345154341395,0.0200727634018739,1
0.164105218140119,0.011676456830043,1
0.138921167198268,0.00813255580166525,1
0.142480654387064,0.00879880778028934,1
0.138605812675176,0.00872339412854027,1
0.134620755204678,0.0108532216556538,1
0.135652275437218,0.0140897638975094,1
0.105775828291621,0.00699527395111007,1
0.1032615995245,0.0117389252938241,1
0.0796202662211365,0.00798645333868091,1
0.0692499877725495,0.015279350843689,1
0.0646630949787369,0.0196675238100161,1
0.0675125351531433,0.0218897124138726,1
0.0419837963510789,0.0137473402146297,1
0.0445505761741118,0.0164763640957823,1
0.0494000417958765,0.0131882747150936,1
0.0429747409186114,0.00620828572346471,1
0.0474122137390584,0.0118796637245745,1
0.0543174041412354,0.00533506378329826,1
0.0926792490601878,0.0141474731164586,1
0.137270354216027,0.0221126405434465,1
0.181702753428641,0.0280861728324478,1
0.213436186270622,0.0342043187365134,1
0.226842198733127,0.0362114059799413,1
0.232323356978501,0.0378705974124377,1
0.224325524406161,0.0389050884495242,1
0.224744910022475,0.0663732589561799,1
0.0910080201021182,0.0335799927296715,1
0.0124071961125969,0.0310345746178493,1
0.00623622815012376,0.021643530632989,1
0.00536891885770646,0.0245299981147177,1
0.00537203641709912,0.025859310844419,1
0.0052307240148575,0.0207477702649796,1
0.00765783937155189,0.0234320239349791,1
0.0148263424266127,0.0435941805904373,1
0.0169302651924667,0.0798700801742199,1
0.0139750649100985,0.0673361970978028,1
0.0139081119506128,0.0660004467695646,1
0.0133637781095299,0.0667382924849405,1
0.0132314681074019,0.0637595184317357,1
0.0116307841246973,0.0577901605050563,1
0.00826797221651379,0.0415689297348994,1
0.00543636238300257,0.0322286116468146,1
0.00542843668535934,0.0426644463140816,1
0.00332996484225624,0.0257409667912112,1
0.00314323951926605,0.0159581947651414,1
0.0135242020196446,0.0313614664594244,1
0.0204174434664991,0.0378175105393311,1
0.0429247181393501,0.0492333022550568,1
0.0448927321067573,0.0306449477824404,1
0.0419804588807489,0.0279184606426716,1
0.0434048181141628,0.024082344982557,1
0.0639942956780911,0.0273924225813778,1
0.0549358172942441,0.0176817969274463,1
0.0549165907063039,0.0117848274898965,1
0.0703838655323659,0.0167263228207457,1
0.0707162466937244,0.0126057345006946,1
0.0693437197717455,0.0119763246302212,1
0.0931762615505679,0.0145037222363257,1
0.180700286890832,0.0350786549798743,1
0.353755832807034,0.0502420156922954,1
0.59604477228492,0.0749224817173339,1
0.861298289006141,0.10083843517859,1
1,0.0863004122014485,1
0.882544105931202,0.0725066506834255,1
0.815779392190964,0.070725985211268,1
0.621256994426309,0.0702220024280413,1
0.37803449207049,0.0369557607766777,1
0.240678473009698,0.0254493051564329,1
0.189534646941018,0.0187443913536626,1
0.234885428251831,0.023023039451503,1
0.334842156287029,0.0322297722443041,1
0.430238909418097,0.046854043290943,1
0.459427154259558,0.054728085314642,1
0.4819058790594,0.043044924598635,1
0.460564501183111,0.0419518205187971,1
0.383669302642001,0.0366939536029702,1
0.345380152207479,0.0394048246805674,1
0.314152858704949,0.0401862394696579,1
0.139412291623472,0.0191603931196508,1
0.0812208168465589,0.0182902890272445,1
0.0807890290749846,0.0215953031185471,1
0.0826583696912929,0.025479873561269,1
0.0530358154228405,0.0124437418272849,1
0.0684128874706868,0.0356403553471095,1
0.0902627356331654,0.0425508346377118,1
0.112056109418362,0.0629329909070141,1
0.118289164549642,0.0578665632784226,1
0.126364603945759,0.0552435565100408,1
0.163408393444474,0.0704022929869159,1
0.154049213812211,0.0554662905299492,1
0.133196163597986,0.0458128545397554,1
0.113419662496972,0.0396534493005217,1
0.108559724231996,0.042272687470547,1
0.113459170399641,0.0397584907476467,1
0.10592643114543,0.0369158504448635,1
0.100037506920943,0.0350904521251773,1
0.0715721602233046,0.0288089806806294,1
0.0276720388011169,0.0165874194040401,1
0.0263559351553775,0.0222873760048461,1
0.0139209383165372,0.0197161570979897,1
0.0129741784003375,0.0364513955977362,1
0.0163028300840539,0.0493570044494003,1
0.030325335231275,0.0512325833731023,1
0.0379409990377099,0.0573141631943057,1
0.04198688508106,0.0487013856401088,1
0.0354233288910128,0.0443433278854291,1
0.033536397501529,0.0457905272207308,1
0.031538195581884,0.043575449721693,1
0.0277748398843144,0.0372455131480591,1
0.0277496724728384,0.0353849503313765,1
0.028190908709377,0.0313335821361134,1
0.0281605320568178,0.0315819559881859,1
0.0202773849935564,0.0356962561061626,1
0.0137270424523287,0.0225044207137968,1
0.00929028791251319,0.00713046520518913,1
0.0249383529173077,0.0195038151013231,1
0.029320966302357,0.020741401796789,1
0.032672998567404,0.0232802924472553,1
0.0326341440758697,0.0227082501550733,1
0.028096771791486,0.0156264408239274,1
0.0377355845786891,0.0251003906660775,1
0.04362098024263,0.0308812379597143,1
0.0975348136592354,0.0361860018139976,1
0.180852095542066,0.0459994286748608,1
0.329594214512372,0.0547993653256878,1
0.433942142901684,0.0586230727252823,1
0.58900135500144,0.0710750341624664,1
0.600387254835187,0.0712700545058356,1
0.486764192860462,0.0531068696776721,1
0.377396174616939,0.0363398284157697,1
0.415769708378372,0.0368408693459934,1
0.340643619694144,0.0291951607642042,1
0.277495858900145,0.0191556352098599,1
0.334069433656472,0.0181069917373248,1
0.395080702172546,0.0204461021064035,1
0.414982986869679,0.0240135031406212,1
0.498393783278048,0.0270935785125681,1
0.532060130312,0.0226102634099606,1
0.523323672092698,0.0236698822522852,1
0.513215157720422,0.0283418306884289,1
0.401323163513274,0.0245523345180388,1
0.266401602533949,0.0150687747103734,1
0.152104008298459,0.00946524567138382,1
0.184565547516002,0.0240701641266759,1
0.200825517296612,0.0145466577502215,1
0.237038647222516,0.0164234336121516,1
0.186675538453015,0.0119969695747472,1
0.155915817582436,0.0129299603272004,1
0.185422911038523,0.0157847878401208,1
0.201842304191541,0.0142362976987342,1
0.181905400048866,0.0155277402760983,1
0.19983340392468,0.0171768843621934,1
0.247655118513946,0.021243323989563,1
0.18045962305401,0.0180437878644133,1
0.155835729160696,0.0235258434363908,1
0.170915012557063,0.0278501665185223,1
0.169999659092249,0.0348415321448012,1
0.154277208752155,0.0236773328827949,1
0.164532980726489,0.0181391275671938,1
0.170954274081568,0.0253105996058101,1
0.1817343549076,0.0239851876197549,1
0.230701329044476,0.0318207378189838,1
0.268244171837042,0.0367274298420867,1
0.275313061613909,0.0403145035940889,1
0.287130922406718,0.0432383929371728,1
0.298703577277437,0.0451213420906034,1
0.297405528096669,0.0433830763282535,1
0.162497192582335,0.0458989633136777,1
0.0350708430890412,0.0363766863086045,1
0.00732635187948741,0.0085667264925482,1
0.00668660817650335,0.0290426709727603,1
0.00587730542102613,0.0171981129082095,1
0.0085974086396784,0.00375683950342431,1
0.0330560868757995,0.0200345578144874,1
0.0339941782054867,0.0131969772514222,1
0.0327181348867451,0.0144217309052377,1
0.0307702107814979,0.0136568800437722,1
0.0301104148858822,0.0136043496814429,1
0.0291622500394314,0.0126077927957177,1
0.0315356111573101,0.0138709221358322,1
0.0329416901151728,0.011340918596664,1
0.0365002166563126,0.0131034725701224,1
0.0340555141645713,0.0220554342717991,1
0.0126295586788367,0.00965918930272629,1
0.0119264811449869,0.0240055243740289,1
0.0197961667895645,0.0305859978007507,1
0.0344227991980774,0.0506457408068904,1
0.0489457502292103,0.0666472137572028,1
0.05793596220023,0.0754633969005254,1
0.0697888447288184,0.0635189253313234,1
0.0659337451809516,0.0221238208362413,1
0.0772774177810711,0.0238001890477484,1
0.0709891607834988,0.0172809333015521,1
0.0665948162689735,0.0137915667327319,1
0.0950254651366042,0.0194145508873767,1
0.165900770550547,0.0316360807271996,1
0.232455905316838,0.040593373770781,1
0.257955495334383,0.0441074094357079,1
0.250635412275027,0.0380237137605713,1
0.245630171331687,0.0399766234512584,1
0.225411878240417,0.0634608023712895,1
0.120917007705256,0.0472157016601726,1
0.105467009712143,0.0350989998806525,1
0.189907445987959,0.0503519125713468,1
0.208990327975302,0.0175672111392936,1
0.232056121749777,0.0146638903170448,1
0.366812834314026,0.0134974099623389,1
0.554202128264649,0.019510602237189,1
0.515373021670212,0.0153200985042994,1
0.454480419294337,0.0108516868159333,1
0.488489390850408,0.0123336394091264,1
0.4466770367295,0.00726575295167122,1
0.4208774042198,0.00634762680969776,1
0.417607549879635,0.00556487610406776,1
0.421151676310113,0.0098383877532122,1
0.357676025962853,0.00910751946696254,1
0.394942721584803,0.0187500313638623,1
0.311456478781027,0.0141131671558676,1
0.351370782764203,0.0172082512484283,1
0.374018044397624,0.0223611974677805,1
0.216860102063184,0.013131484375845,1
0.238354648124444,0.024898031021833,1
0.166297093331454,0.0244379487441872,1
0.105304979420871,0.0180515847444971,1
0.103880567090519,0.0150252719510096,1
0.106685569559432,0.0164923815952147,1
0.115947506614694,0.0181839388123142,1
0.131480043880738,0.0206998048810294,1
0.195472847152479,0.0364211817807969,1
0.237281435761445,0.0454726009046792,1
0.268758630355738,0.0603149060894998,1
0.271922941829923,0.0557336430861957,1
0.27911390749539,0.0673157391948838,1
0.20620981310312,0.0656755423691212,1
0.128261582464957,0.0562359910748804,1
0.096734798632263,0.0419978056077596,1
0.0648677841079546,0.0297308714484094,1
0.0525649120554182,0.0311483587943531,1
0.060233945626916,0.0335447888014077,1
0.0689487417646498,0.0382231342291347,1
0.07128712645866,0.0449964718415873,1
0.0275363559122815,0.0350732376368052,1
0.0119721423178089,0.0374428276587464,1
0.0165018749573198,0.020645871774435,1
0.0318170454968457,0.0384876670997349,1
0.0430158981144525,0.0538916529624107,1
0.0451014966124022,0.0436970808810624,1
0.0451963736164146,0.0462650614398189,1
0.0444060787499393,0.0569092271963315,1
0.037725277010015,0.0500585781158548,1
0.0309497421409613,0.0436001659822454,1
0.0228093519675076,0.0323794355079916,1
0.0157041085867421,0.017538760268951,1
0.0159725606500834,0.0378921753366703,1
0.0119134732125166,0.0251619117083638,1
0.011003964478174,0.014100660242237,1
0.0112044682723806,0.0154490996675547,1
0.012213005373865,0.0135789041412812,1
0.0156855274065128,0.016813099353272,1
0.0255219263611577,0.0114396146305662,1
0.056494435325114,0.0221741448154665,1
0.0580608318980501,0.0182464370318277,1
0.0551830120584604,0.0146396455123867,1
0.0562765963447606,0.0137607560936669,1
0.0555146098130924,0.0136595787050114,1
0.0459119090658444,0.012058915873449,1
0.0357858034954064,0.00885110628889636,1
0.0318924688713203,0.00687916540265394,1
0.0311171931568266,0.00509554626490619,1
0.0303138547417991,0.0091027776774974,1
0.0225163167319947,0.00709678606319738,1
0.029717702450701,0.00622641627609187,1
0.0543330461671236,0.0178324081680618,1
0.0549589943408895,0.0159777151115438,1
0.0494652893734571,0.0145876363379981,1
0.0478194019782771,0.0122969469899146,1
0.0657411428250592,0.0181375695796811,1
0.0800012962155271,0.0264083102209921,1
0.0708219460984367,0.0218055271056065,1
0.0773997432442527,0.0236751612289711,1
0.0563539880450955,0.0125281488082836,1
0.0667583993089673,0.0259015259968375,1
0.0628925843280096,0.0154227929296064,1
0.103803962826906,0.0236814303386043,1
0.159570745565179,0.0326503991399859,1
0.217384537070018,0.0349169684314071,1
0.219795443535146,0.0313733804014459,1
0.233152531584196,0.0268016676257297,1
0.281463192922427,0.0350969628283673,1
0.320959840307143,0.0392801627815149,1
0.31588449692649,0.0301110717207785,1
0.204829610909857,0.021894566879294,1
0.143778969544407,0.0179397066752896,1
0.172329508317318,0.0116435641959359,1
0.294420918018597,0.0229375419715892,1
0.321108208909016,0.0158537330939173,1
0.303669553010921,0.0155402075111204,1
0.299215077190944,0.0122840311427146,1
0.324436658041977,0.0128787713019341,1
0.323586742247094,0.0141807801790108,1
0.354831995494375,0.0171468214506621,1
0.392711984632398,0.0177823347649552,1
0.40889983853484,0.0189243187985572,1
0.445965971489465,0.0365925654007854,1
0.314267612955297,0.0248471580592249,1
0.365627805346252,0.0400460427156501,1
0.489975730006122,0.050230788433664,1
0.530123488996749,0.0918271156570722,1
0.332749692225,0.0557092290538606,1
0.207946634542523,0.0354428154922612,1
0.164417046401889,0.035860154082621,1
0.150784941833736,0.029714835225255,1
0.135276034050053,0.0236767875351163,1
0.11481912448108,0.017174329614802,1
0.0664800195222519,0.0125320286242602,1
0.0761287585840704,0.00988274698604908,1
0.0929027101256981,0.0134512498394243,1
0.0658007658811876,0.00902553492786338,1
0.0572454323189166,0.0104659217110189,1
0.0639083180490236,0.0115892988097654,1
0.0654419019943831,0.00851381306009191,1
0.0672988278330641,0.00918268072508617,1
0.0604949687989409,0.00862375205818464,1
0.0670618206451858,0.0144432058215609,1
0.0596591817508793,0.0120522615568022,1
0.0541665506062718,0.0244129173140831,1
0.0358245002632631,0.020082632625583,1
0.0411563147454526,0.0214846128779797,1
0.0401530097351364,0.0205325359918076,1
0.0471699736439784,0.0265412957170749,1
0.0424428531616889,0.0685087727129153,1
0.0205611165055215,0.061422055782244,1
0.0247024067446114,0.0868756145021711,1
0.0316495830117504,0.123511855526136,1
0.031024514998047,0.209387128188186,1
0.0252475689301726,0.184028807326633,1
0.0199840004398064,0.190938412656702,1
0.0176748609163793,0.20709404021836,1
0.0116017481306944,0.226069657299417,1
0.00858997911170169,0.262550793251182,1
0.00338560219136199,0.193826942491596,1
0.00104965964123478,0.192645874255969,1
0.00062289088722535,0.288490312067489,1
0.000204264906748354,0.235164931492319,1
0.000120590209237445,0.249221620785152,1
0.000106014130475596,0.238026234822355,1
0.000100851617597259,0.240423292996047,1
7.93155927872264e-05,0.21828016725468,1
6.2659578166842e-05,0.221502141430399,1
7.61141688622848e-05,0.277231710862564,1
8.00630840394157e-05,0.240762544078769,1
0.000330803703726721,0.316052524917497,1
0.000627914277627861,0.32657218754235,1
0.000573215229124948,0.225548968466604,1
0.000633634779504149,0.197185762453044,1
0.000663351805989744,0.196006986646369,1
0.000650558141741906,0.119010557915373,1
0.00065051701116266,0.0955748181443171,1
0.000568221821107203,0.0755645092016253,1
0.000534852031387442,0.0685232601918721,1
0.000550402256215249,0.0735286453658203,1
0.000656635046934369,0.0983783021261889,1
0.000663718300608342,0.107053279961645,1
0.000802086389806641,0.130601226882731,1
0.000782971651739535,0.157927025208645,1
0.000649372301803773,0.164425809088044,1
0.000278738496469751,0.187268309167573,1
0.000275496809318803,0.378375632485201,1
0.000131418383984894,0.812454177082653,0
5.45168272610184e-05,1,0
2.2154517681002e-05,0.764671243780506,0
1.36562652440357e-05,0.665494218506264,0
1.27004045911799e-05,0.672687444916237,0
1.39775146842306e-05,0.705868135832632,0
2.31082906195294e-05,0.638954873337219,0
5.789975477093e-05,0.87380174673489,0
6.34932740014854e-05,0.72831525734907,0
6.43900623240701e-05,0.700789741403521,0
6.52250344304744e-05,0.723760218133349,0
6.17561999271691e-05,0.67863568563893,0
5.31947966321759e-05,0.605065622049306,0
5.21807941272406e-05,0.536457669370061,0
4.94368367309102e-05,0.468802962858182,0
5.14678387823426e-05,0.444653383801099,0
5.02924011804884e-05,0.500567604828289,0
3.25846125431845e-05,0.412002984610213,0
2.9575347203262e-05,0.431513976421316,0
2.82300295336106e-05,0.445475592899627,0
2.50502292659971e-05,0.421477599855577,0
2.57456150511467e-05,0.447045001644134,0
2.68277688940888e-05,0.492738247090567,0
1.24315980495876e-05,0.390221368409394,0
5.20214157560372e-06,0.267452825202777,0
5.2014895030455e-06,0.301166084446864,0
4.41204262028687e-06,0.3208382056762,0
3.71537810396272e-06,0.364210254723372,0
3.21112286889634e-06,0.408081162351886,0
3.65946415279368e-06,0.406800800035488,0
4.00882419995025e-06,0.393609396003823,0
4.11980524416333e-06,0.380249556009337,0
5.34621977008065e-06,0.373439056166298,0
5.66156907675603e-06,0.355735158017479,0
4.80729745899109e-06,0.329333830020134,0
5.74048149752386e-06,0.361415674899451,0
5.78733578834499e-06,0.361724547945928,0
8.99038358218687e-06,0.449424299851992,0
9.40819140868434e-06,0.437175482953017,0
7.98729644723333e-06,0.428330210973121,0
7.62508186435553e-06,0.426325276408001,0
7.29227973810304e-06,0.439997133421154,0
3.94340428682318e-06,0.367990004502597,0
4.10976558942759e-06,0.412010281290883,0
3.19630260576744e-06,0.395380262483959,0
3.37348926381136e-06,0.412736817601663,0
3.33022981604749e-06,0.416162398170514,0
1.86348482437858e-06,0.328325802332498,0
1.64547763717859e-06,0.351430607265268,0
1.84658766834175e-06,0.412949199741534,0
2.13739530528814e-06,0.445800256380841,0
2.10801219766659e-06,0.445204858334904,0
1.85149518248298e-06,0.428180486849417,0
1.64044469293753e-06,0.407272174613058,0
1.7795860242695e-06,0.432254238497116,0
1.48589775801079e-06,0.393872909888385,0
1.4761763514107e-06,0.383432323738611,0
1.6056143118432e-06,0.404608879345822,0
1.65005690156836e-06,0.40709252135146,0
1.60381582456863e-06,0.418127071606991,0
1.53920604232164e-06,0.440885374317863,0
1.26851968884093e-06,0.424578709338101,0
9.49666865337862e-07,0.368375532915061,0
7.95649360205043e-07,0.383688317397601,0
7.87618390636657e-07,0.364601119333075,0
7.09685964256657e-07,0.350072912399298,0
5.0251265846376e-07,0.338773268487954,0
3.91656880389597e-07,0.315876349112234,0
4.64130228110946e-07,0.316642165205509,0
6.01139739628531e-07,0.321010978413222,0
6.77727850467992e-07,0.324538002775323,0
5.71079965311554e-07,0.305796098752438,0
4.73736370187926e-07,0.303285064541908,0
8.23496973859383e-07,0.35182611980935,0
1.3552510777143e-06,0.460026633970525,0
1.19469874636075e-06,0.440089407952752,0
1.23257289787765e-06,0.445434077023622,0
1.22362587867821e-06,0.444098055604944,0
1.12589336826465e-06,0.448133448187336,0
9.95745293110099e-07,0.462292251106441,0
1.21434306752524e-06,0.508285306547244,0
1.22693526578277e-06,0.501920447066932,0
1.2480180160529e-06,0.495127135877803,0
9.92041743966336e-07,0.469563891497709,0
4.28894207713368e-07,0.323000808713774,0
1.91028402433233e-07,0.275028231017223,0
2.8429510941007e-07,0.266191726890758,0
1.65768944611376e-06,0.461716421873526,0
2.7651614776775e-06,0.576869632987786,0
3.52303998174197e-06,0.616186942459848,0
3.14429420358921e-06,0.570875702356494,0
3.0648992458491e-06,0.559483995785886,0
3.21399808749848e-06,0.574668179199947,0
3.19033852749117e-06,0.559821148357829,0
2.71485171057672e-06,0.522010695641837,0
2.52511630391769e-06,0.516515284151821,0
2.12001216909982e-06,0.478996501923005,0
3.45827935545336e-06,0.549549193074431,0
7.21101693762138e-06,0.743367441881091,0
1.03704609657783e-05,0.672848711882375,0
1.06152587106148e-05,0.656769353615608,0
1.0266898005234e-05,0.650504137630796,0
1.00695836692487e-05,0.592978338918652,0
9.66078959404303e-06,0.536526903479244,0
1.09672342622845e-05,0.549038903337558,0
1.28924541421906e-05,0.593689589059837,0
1.2449027094832e-05,0.588989048610467,0
1.20011881871777e-05,0.601713606563577,0
9.81810369732905e-06,0.569766547843552,0
6.26509084055495e-06,0.557784532393903,0
6.60302035253543e-06,0.596403571515664,0
6.74038811865188e-06,0.590945342565898,0
5.02640154471117e-06,0.587165076834999,0
1.77133879025447e-06,0.397203401706305,0
1.59981517824723e-06,0.427763765628773,0
1.29198265971138e-06,0.402280393121836,0
1.71036025038782e-06,0.434405644141332,0
3.53862364689024e-06,0.652374753982128,0
3.72537512886061e-06,0.565818315160995,0
3.84523104947061e-06,0.553111010432408,0
3.6796136375367e-06,0.524136915516833,0
3.77431992134558e-06,0.534454446011895,0
3.88156495215377e-06,0.545283449805357,0
3.80439035312202e-06,0.533700813512006,0
3.51824658439745e-06,0.512718021018943,0
3.4955207818e-06,0.511163779964142,0
3.37447384910481e-06,0.571856894108784,0
1.45858186960318e-06,0.384498709687528,0
1.09661913069053e-06,0.403857773362497,0
9.46342557790056e-07,0.394040063231063,0
1.09550763964902e-06,0.437243054029507,0
1.2071715810723e-06,0.454981809799091,0
1.02798919077328e-06,0.439921025990284,0
3.73768088739997e-07,0.331127125876011,0
5.13753818783241e-07,0.35306509474608,0
7.09267372041144e-07,0.37401134571447,0
7.37118428874695e-07,0.375094740088511,0
7.48388446315184e-07,0.395406994615318,0
5.48093792781376e-07,0.362155085145266,0
5.14774475477941e-07,0.371328704777891,0
5.06256378031653e-07,0.358582271581495,0
6.29771414377501e-07,0.412068867294241,0
6.40303607701337e-07,0.427911585066441,0
6.79965589033339e-07,0.425533198969658,0
5.56731253773647e-07,0.41491932622597,0
3.76408515312121e-07,0.401155871015143,0
3.12304880409158e-07,0.39211183852449,0
3.06622650945449e-07,0.357630859408387,0
3.11959414761651e-07,0.342616072669833,0
1.59776632265574e-07,0.289627166891115,0
1.79080898492744e-07,0.306763618147151,0
2.03904580995215e-07,0.284589376441099,0
1.01923351396144e-07,0.2412228445016,0
6.8194787649341e-08,0.229626601347466,0
6.42800568473003e-08,0.226907845174322,0
3.49744371540891e-07,0.286914147608032,0
4.25872080131559e-07,0.28897511568254,0
5.61932913796045e-07,0.312540288173295,0
6.67602936056547e-07,0.310597007697604,0
8.24208072346922e-07,0.329458741487708,0
7.51364828801758e-07,0.316516654988713,0
7.8511454350657e-07,0.324003746589927,0
8.24054604930658e-07,0.33806918777571,0
8.65372755463171e-07,0.338351549660411,0
1.89114093168442e-06,0.462508505387821,0
1.87869121546186e-06,0.439616501722397,0
1.74243100532496e-06,0.430159966972844,0
1.35076330351499e-06,0.399369829031522,0
1.21932108485983e-06,0.418103049290401,0
1.30297853450231e-06,0.427697876601758,0
2.55816279025887e-06,0.532231450144074,0
2.44674938111344e-06,0.500369640889534,0
2.46104300178396e-06,0.493199484905643,0
2.73165196571288e-06,0.527600494088698,0
1.71456420824359e-06,0.431701868176884,0
1.32739477413147e-06,0.406453738368155,0
1.51380538135995e-06,0.428526992706211,0
1.59383470387948e-06,0.440217061035396,0
1.84966357510362e-06,0.431598046341059,0
2.22253873270155e-06,0.456154177077616,0
1.55240571576855e-06,0.419215719447664,0
1.57729170341865e-06,0.450481232512679,0
1.50357012125284e-06,0.45710342648922,0
1.30844745081584e-06,0.435898788808478,0
1.12386435194386e-06,0.413959579665167,0
1.20714452752135e-06,0.438861057402637,0
1.10408656659471e-06,0.42929907981843,0
1.12829375605749e-06,0.425927392977985,0
7.5727512789797e-07,0.393399255996954,0
4.74309577546108e-07,0.350778738558011,0
5.39357955240215e-07,0.362015883791768,0
5.04520359865627e-07,0.351720458814845,0
7.06501023486443e-07,0.405218409785243,0
1.0078611849101e-06,0.460948243775351,0
1.04508637912617e-06,0.469358079423705,0
1.09855386948531e-06,0.463977738279407,0
1.24603162956996e-06,0.469254726709121,0
1.55405434276698e-06,0.489236690252889,0
1.77095249833918e-06,0.499850418100028,0
1.2893238695168e-06,0.439649230069673,0
1.18287716440284e-06,0.410608062298927,0
1.19911831281949e-06,0.398122344563763,0
1.25118442923974e-06,0.378672831750646,0
1.26683039953563e-06,0.378168243631579,0
1.24330905857951e-06,0.378841334358631,0
1.08115171383087e-06,0.36122562921845,0
8.92823747664584e-07,0.3410282285949,0
1.00102991735539e-06,0.375311123196617,0
1.11630362227915e-06,0.384186361187662,0
1.52877025801572e-06,0.414764206500451,0
1.74918094826593e-06,0.452095555211666,0
1.70467949657235e-06,0.469017783205777,0
1.55241473361887e-06,0.489118999098198,0
1.46716161635344e-06,0.467139245863302,0
1.46924719918984e-06,0.463769945980666,0
1.65421740978171e-06,0.492995934919916,0
1.73806308655439e-06,0.485894877804477,0
1.56140389077341e-06,0.461893806440391,0
1.09593524971485e-06,0.439926465374823,0
8.25272998488622e-07,0.41343723011926,0
9.2738867603784e-07,0.408762138072544,0
8.35300848038499e-07,0.392278910041273,0
8.89608802046958e-07,0.386772221387417,0
1.46815472761446e-06,0.46307623003119,0
1.66535379907662e-06,0.419513179933031,0
1.4683954222374e-06,0.371713098050889,0
1.28634633930382e-06,0.354245376492762,0
1.49311990838641e-06,0.379305169012068,0
1.74423457538789e-06,0.402027596432448,0
1.70475409878858e-06,0.398093809620661,0
1.79500474473746e-06,0.414797985260812,0
2.25004825894955e-06,0.472184802683456,0
2.26759781546641e-06,0.452183617207425,0
2.38335553301069e-06,0.479372940488371,0
2.2247077716436e-06,0.516899909231482,0
2.04917564319103e-06,0.52743398069133,0
2.23549164497167e-06,0.566841459011366,0
2.07476879426672e-06,0.547443763665622,0
1.75777922259956e-06,0.484978133138876,0
1.83498497420512e-06,0.498390689553802,0
1.63366999189843e-06,0.481329563021195,0
1.19602682977073e-06,0.424556052352016,0
8.98605009520841e-07,0.386047634013778,0
7.676899252068e-07,0.370878503153801,0
6.3998617937026e-07,0.354108145056822,0
6.24645176375917e-07,0.359279821784033,0
4.56623277626299e-07,0.318166240274837,0
3.22924300939675e-07,0.280420650090253,0
2.81855370997674e-07,0.280872921674849,0
2.31549047076104e-07,0.271910936303662,0
3.16271586821195e-07,0.282667239372116,0
2.5937059094499e-07,0.272072127849175,0
2.23668921549344e-07,0.270990319938303,0
4.9426345691776e-07,0.331270360513942,0
8.10536191465358e-07,0.357145920356206,0
9.60626012883866e-07,0.372655612386354,0
1.06401140375738e-06,0.394734688784541,0
1.22740239042906e-06,0.419232120150863,0
1.2190362847508e-06,0.429720305042757,0
1.1926779280857e-06,0.426008473557601,0
1.1715933742455e-06,0.420157348875405,0
1.19563447130158e-06,0.423745137767836,0
1.24574305835988e-06,0.434583886301927,0
1.06356870928739e-06,0.415826508754836,0
6.34478896202656e-07,0.372204162686765,0
5.88410634007135e-07,0.366670391363549,0
7.42263686342397e-07,0.363626432308126,0
8.31881443160103e-07,0.373812222298041,0
8.65378658056106e-07,0.374525815454627,0
8.77239426672659e-07,0.383466911603425,0
8.52077328842018e-07,0.392062361870287,0
8.34292160490577e-07,0.391704256155856,0
7.46468300041825e-07,0.36943884978798,0
5.47478611429002e-07,0.320949318034425,0
5.61553016356427e-07,0.313837260947729,0
5.61440211247036e-07,0.313018085694711,0
3.11288322737326e-07,0.296154796022256,0
6.56001061724481e-08,0.244511504076025,0
4.08388927785203e-08,0.235309279124375,0
1.59960268490161e-08,0.226244955181479,0
7.4431696887859e-08,0.239036427091337,0
9.16287374378696e-08,0.24267527239299,0
1.22166785743354e-07,0.257691313944759,0
1.53433312393344e-07,0.286657187193423,0
2.3273136923281e-07,0.330218659560083,0
2.43316685893045e-07,0.33814485243707,0
2.07207245702264e-07,0.339968806641729,0
1.54438228840224e-07,0.313946704277383,0
1.72360960399192e-07,0.324455561968822,0
3.19907420107141e-07,0.339292940142065,0
2.49698044697511e-07,0.30751050947901,0
2.49719851499181e-07,0.32265140641956,0
3.29817217798353e-07,0.353881745916957,0
2.84044577132238e-07,0.325721181180651,0
4.11481558560379e-07,0.328876305952932,0
4.39054537682411e-07,0.308696960705937,0
6.69603423178163e-07,0.337372166280236,0
6.58111566619936e-07,0.340388163120709,0
6.30783381143718e-07,0.337178411919973,0
5.161555182634e-07,0.328379875361546,0
4.44125028972958e-07,0.320872617847383,0
4.31399530491688e-07,0.304565679986266,0
4.73234649788603e-07,0.305024826624675,0
8.22984104117856e-07,0.352823745975509,0
1.16529514362485e-06,0.366798394208166,0
1.16761027174199e-06,0.383470614555873,0
9.24759234847008e-07,0.359420643001274,0
8.92576986487793e-07,0.353686363514754,0
7.98074014213276e-07,0.338789420454376,0
1.01538125226793e-06,0.363651630859627,0
9.74524651710613e-07,0.357315644540119,0
9.32144034450118e-07,0.359364498490164,0
9.21762849128827e-07,0.35332394208857,0
7.6614213417098e-07,0.355203967057851,0
4.24204925549756e-07,0.35007095972536,0
4.9743118179192e-07,0.3557334583483,0
7.13311468004971e-07,0.385921648926111,0
7.22654452813679e-07,0.375149066840085,0
1.06513863504671e-06,0.414362291849055,0
9.94546246940083e-07,0.392105232809799,0
1.0751699277758e-06,0.40943406502811,0
1.15075590950393e-06,0.398428019156158,0
1.47075563960611e-06,0.453873464914325,0
1.53147364557914e-06,0.45062117841649,0
1.01335584308727e-06,0.376805314971456,0
7.23052058032095e-07,0.346457145990822,0
9.8102668574838e-07,0.39384212723951,0
1.26249986385363e-06,0.441050355653829,0
1.38825985304507e-06,0.490212475409404,0
1.42299054590321e-06,0.534688320393469,0
1.44145861146484e-06,0.533048223299287,0
1.38247268859589e-06,0.54944944470406,0
8.58880559080293e-07,0.407621406234434,0
9.20758752486519e-07,0.423015518364057,0
1.08205628619789e-06,0.434991722313423,0
1.18067877645704e-06,0.44710784273919,0
1.15855962924439e-06,0.431045130401673,0
1.53810438893502e-06,0.466420654812399,0
1.44207248112989e-06,0.439680062905484,0
1.26442082993156e-06,0.404600398356921,0
1.11068189439301e-06,0.384297800460267,0
1.14867606529955e-06,0.385249296903057,0
1.52568861262183e-06,0.472184743633093,0
1.42189807432781e-06,0.440244641205104,0
1.78431449309175e-06,0.481357726694961,0
1.80714391898737e-06,0.467075686802625,0
1.93194112968704e-06,0.483875831123173,0
1.87553988667918e-06,0.496393313853575,0
1.64446649021695e-06,0.474493611380969,0
1.6353002552744e-06,0.489195699028975,0
1.68097320770432e-06,0.487827608844376,0
1.50532925790786e-06,0.48524018905634,0
7.72304441193259e-07,0.360038537501445,0
6.61733299267207e-07,0.352144525114622,0
4.37966657012636e-07,0.322959102374735,0
4.85669445567913e-07,0.336997377172441,0
4.50551477028998e-07,0.324067030388253,0
2.38635273853345e-07,0.276503856395521,0
2.13000968588046e-07,0.278322849358259,0
1.78421775615201e-07,0.255094181742064,0
2.81408085622068e-07,0.268377239895941,0
3.75886463759362e-07,0.282897590516748,0
4.4377005359239e-07,0.305051971601209,0
3.5700193747411e-07,0.295207728085437,0
7.49481081851488e-07,0.347257396265213,0
1.38633806716257e-06,0.420166777738435,0
1.38693094983053e-06,0.424587233205537,0
1.3755509146162e-06,0.419725574471703,0
1.40928029816758e-06,0.427383676381614,0
1.50064981339913e-06,0.453198610033647,0
1.37616019337564e-06,0.458209709738827,0
1.22486017644491e-06,0.44140781329178,0
1.12382041041869e-06,0.411958133826448,0
1.11791584995449e-06,0.39420062390522,0
9.38780680398944e-07,0.402145590188051,0
0,0.228366574792316,0
7.67863395854671e-08,0.250276007001092,0
2.54096296237331e-07,0.312737802464725,0
3.49945879505195e-07,0.314168707135687,0
3.2000005802401e-07,0.295514715494642,0
4.26023088134102e-07,0.318226960415753,0
4.72384512445305e-07,0.316769201168092,0
5.42311383198715e-07,0.339610863072327,0
4.91673694268312e-07,0.354955252900593,0
3.30519790318321e-07,0.318263091871745,0
3.72567730882661e-07,0.328057687917479,0
3.26320259407251e-07,0.324422788263173,0
2.69491406333563e-07,0.212572829989033,0
3.06825052496738e-05,0.385567728888169,0
0.000180367080051328,0.629518617395056,0
0.000329510003576426,0.69826961830258,0
0.000382271765004024,0.658099980466177,0
0.000404779934245167,0.552918970776155,0
0.000621181921790464,0.439171230244193,0
0.00111047743267282,0.557621261921467,0
0.00124866381743403,0.408390565710914,0
0.00106285436437374,0.21052208284848,0
0.000912891060443852,0.186537477043085,0
0.000784296076853577,0.158887120992585,0
0.000869951554203946,0.162649424996988,0
0.000879522726205132,0.139350873924047,0
0.0012137225936785,0.118902761608279,0
0.00120294943929523,0.093384393298398,0
0.00118553506133836,0.0991008765710605,0
0.00123787143125526,0.0785133646086934,0
0.00159503939555171,0.0928531519858437,0
0.00137842251706036,0.0920533714585492,0
0.000824955229282805,0.0666254792498073,0
0.000829200248854235,0.0517715451405188,0
0.00101185210129893,0.0469010446494797,0
0.00089244511469154,0.0407843422622884,0
0.00119108196877628,0.0488969513035262,0
0.00197986154553208,0.0751683640627415,0
0.00252173590075002,0.0868849281885089,0
0.00257355860620684,0.0917572280184132,0
0.0025064696049069,0.0757374460258508,0
0.002496262773163,0.0664131932856934,0
0.00252273718513472,0.0632966851265152,0
0.00214069230039072,0.0717671541994576,0
0.00160682963867621,0.0706036535709477,0
0.00135313995321055,0.0673624042426074,0
0.00129181980717236,0.0859595712426521,0
0.00103294247378407,0.0727640792763042,0
0.00100932171676686,0.0691835490987577,0
0.00100175136374418,0.0683771949198733,0
0.000611737766538882,0.0577975326181419,0
0.000588228696417623,0.0707727186434898,0
0.000609609397281954,0.0725899694806868,0
0.000623028731133963,0.0603855222542641,0
0.000834311625930383,0.0525214059447453,0
0.0010125942105341,0.0594142366718676,0
0.00106876561444326,0.0569535264790218,0
0.00105124896816122,0.0537947069589763,0
0.000834779543655626,0.0483708056775919,0
0.000827936386147258,0.0602108770222999,0
0.000824316876318108,0.0715132448502466,0
0.00109903159125345,0.0914956400465875,0
0.00127115990308368,0.112903127308733,0
0.00134469505054,0.139923243063986,0
0.00108192724977773,0.241106615792329,0
0.000642203605145795,0.208993768053376,0
0.00035644947067977,0.147183884078288,0
0.00112890581313463,0.252265562109429,0
0.00141360426246008,0.156890453400289,0
0.00187637718670265,0.117778903411103,0
0.00293273269246966,0.116539420992357,0
0.0026888874241327,0.10109702379412,0
0.00236011716514712,0.0868151606119445,0
0.00203076901722736,0.0646960250719721,0
0.0017161780435557,0.0567542333448078,0
0.00137277621979509,0.0475057786701292,0
0.00151316168474508,0.0539347342766887,0
0.00141217015782356,0.0559069465016538,0
0.00143486651304072,0.0662801323990156,0
0.00126688390932791,0.0856540099090048,0
0.000623978580323838,0.0684618394768516,0
0.000598990697359659,0.0757796645712505,0
0.000339660122223656,0.0520617962152408,0
0.000598729663713155,0.0972353119485112,0
0.000638956505645049,0.0641169744952245,0
0.000792701453138465,0.0754745473102699,0
0.00075618366714162,0.0733238228951172,0
0.000761656849718164,0.0729166615281807,0
0.000766469038131243,0.074492105825415,0
0.000779372287460065,0.0802531845738254,0
0.000727253332175611,0.0883476282720333,0
0.000698008355722196,0.0886877732384642,0
0.000659093790876205,0.0964997274120947,0
0.000367542593968486,0.084631637716085,0
0.000308510620217198,0.147485596378567,0
0.000161743898446436,0.089975471527533,0
0.00017519831009656,0.0836008995879043,0
0.000371394020773005,0.108598789983125,0
0.000695168047842003,0.163989873713102,0
0.000791764332562329,0.175238197479028,0
0.000708138790533681,0.135220584542738,0
0.000953138216477247,0.14172414386345,0
0.00102731536666824,0.118479393545652,0
0.00100377250731769,0.101687011047093,0
0.00121166795616931,0.11488091599229,0
0.00129984089924335,0.127631490636359,0
0.00152944340233881,0.145021960949354,0
0.00137755264784077,0.119138806861586,0
0.000964617065032338,0.0969351058483741,0
0.000635404308821748,0.0756803018654373,0
0.000561678298235591,0.0743712774022065,0
0.000763063455977771,0.0963161102784931,0
0.000936185585248666,0.125304593725608,0
0.00111847368958405,0.163512104830338,0
0.00104962413926978,0.136857455556522,0
0.00106774238290635,0.108386898447673,0
0.000913630137221894,0.110482486238166,0
0.000920549280120778,0.158132550958859,0
0.00102398507126782,0.167141285913928,0
0.00126506065001852,0.177471754047259,0
0.00146928198267812,0.210975504451035,0
0.00135699444788774,0.173388446172081,0
0.00114474536339272,0.139072080177339,0
0.00088151308365747,0.117388457170117,0
0.000662455329356858,0.0640086242388849,0
0.0010663391957237,0.0609580390510327,0
0.00114147349792371,0.0458413471115928,0
0.00150259166153917,0.0563086086357464,0
0.00193815895387507,0.0684487487650219,0
0.00192274131833648,0.0633952981645707,0
0.00172888427925286,0.0566885972550737,0
0.00165944789364104,0.0607883070317744,0
0.00165432277188537,0.0614033420689421,0
0.00166213339290469,0.0601804402107517,0
0.0017359456718541,0.0869461490075719,0
0.00119586405347352,0.0979672687425524,0
0.00115306781087027,0.151266104725658,0
0.000951628363373739,0.139828679172231,0
0.000551472429106224,0.0998292292993697,0
0.000341646393933958,0.0875272589893852,0
0.000463740016873943,0.107369298540769,0
0.000428333239217672,0.100042467514025,0
0.000462983914558468,0.107182300089162,0
0.00048301791818601,0.122208791680013,0
0.000325597749240043,0.0864423231532055,0
0.000220708348338138,0.0790006069345511,0
0.000234668609579264,0.0800478396896172,0
0.000293818285952468,0.0783505141110184,0
0.000295216105218729,0.0744597137754387,0
0.000297028851846136,0.0776170582235962,0
0.000631733790424078,0.0916518125828814,0
0.00092174370128131,0.104538857310932,0
0.000876994421845187,0.100330590362945,0
0.000787523772235899,0.087550331019601,0
0.000782933469833381,0.0844615883040758,0
0.000801431112632356,0.0853820735364218,0
0.000656623879884383,0.0746018181056782,0
0.000798874165940202,0.0815356523467298,0
0.00100716046842769,0.0961420243695728,0
0.00131941475049854,0.110644210154133,0
0.00103313702587053,0.130903143302134,0
0.000696871899335956,0.0909141449286155,0
0.000782035159461624,0.104439705845348,0
0.000958434832659888,0.125571025811797,0
0.000964322220677669,0.10053415952222,0
0.000957452939112783,0.104106748228893,0
0.00094637414928724,0.101374522682354,0
0.000997368937711862,0.0985957417437193,0
0.000916049906506553,0.0804336224077055,0
0.000898128062959901,0.0814971608345332,0
0.00116842003157852,0.0954830448297862,0
0.00116421321408044,0.0816776810364904,0
0.00106936887518128,0.0717456180871479,0
0.000852339343630635,0.0622976870672282,0
0.000977977477070195,0.0855609967041562,0
0.00108244613147413,0.0952549776579824,0
0.0011142678993011,0.0881736398938553,0
0.00116136574160015,0.108602844559325,0
0.00115348152885571,0.121123711744954,0
0.00101153845849746,0.118173396147574,0
0.000752916081380412,0.106054616567549,0
0.000821839213746115,0.180185624147795,0
0.000990929130120484,0.227351657294131,0
0.0013132907408109,0.282986259831589,0
0.00120146101916251,0.353433950399216,0
0.000826749591136796,0.289820257826384,0
0.000475398683331838,0.397896181313289,0
0.000469816468878437,0.55860300722597,0
0.000374363358186992,0.677031239020121,0
0.000275621437977682,0.591161149716552,0
0.000145863255320117,0.441251481865324,0
4.80243790341745e-05,0.374719453096075,0
4.33349224161504e-05,0.455077040594716,0
3.86472429704819e-05,0.430809548965347,0
3.52657342143662e-05,0.446103796295605,0
4.25497654067669e-05,0.498654521779094,0
4.11002722185935e-05,0.588735419678607,0
2.28632288976201e-05,0.479488017043777,0
1.98673867098713e-05,0.456137244225003,0
1.93395238904076e-05,0.334834964705314,0
7.97511524980096e-05,0.424779068327807,0
8.6637272848847e-05,0.287855460349687,0
8.99923447110195e-05,0.306262996633719,0
9.29912578867027e-05,0.320157314712988,0
0.000101544719242904,0.332202170395779,0
0.000102639953231786,0.345288718009332,0
9.97942410358804e-05,0.357063359822026,0
0.000105211730516607,0.377385752474153,0
0.000108031812342309,0.387590230411903,0
0.000108100096324696,0.488867477370667,0
2.7160161773898e-05,0.421858515730655,0
2.61062782358485e-06,0.425063751462973,0
2.8619248151236e-06,0.469706418316087,0
2.58817157273135e-06,0.464904253040826,0
2.55417017802229e-06,0.479152342616576,0
1.91647108945274e-06,0.452440028140242,0
1.30167537315138e-06,0.391150832951044,0
1.29641796641795e-06,0.388112523300443,0
1.48228405944834e-06,0.433486938839928,0
1.93174158925372e-06,0.492290992377573,0
2.88030876873593e-06,0.601731382915449,0
3.81567627477125e-06,0.637556759037643,0
2.912364275308e-06,0.531397466847966,0
2.55169748346602e-06,0.488535873068336,0
2.15794157544501e-06,0.437358550020805,0
2.20536038369583e-06,0.424691562833368,0
2.16875315816768e-06,0.447567556897054,0
1.68729636038402e-06,0.368734751942768,0
2.70340346762183e-06,0.449938872157921,0
3.11319491707233e-06,0.472270067372035,0
3.27557918372707e-06,0.491167607980737,0
3.08550782115359e-06,0.490751173276424,0
3.51210592021593e-06,0.543452581462388,0
3.7991540973466e-06,0.583174285641541,0
4.01461923452335e-06,0.596408995300464,0
3.63989164650986e-06,0.621923684607073,0
9.42794935476278e-07,0.342173782469372,0
2.43596239252798e-07,0.263118393841719,0
2.96802047991896e-07,0.280255063291548,0
3.03708245684674e-07,0.293701698738487,0
5.14436715993432e-07,0.334460506735799,0
1.24601392179116e-06,0.444926386428849,0
1.23367553502975e-06,0.421360493581353,0
9.04118523203207e-07,0.370719484565853,0
8.62318983424807e-07,0.363403934772532,0
8.15048395840974e-07,0.350102422565383,0
1.07645456154335e-06,0.38285866018155,0
1.29155947659026e-06,0.42395630359057,0
1.6572947921918e-06,0.462875871117698,0
1.8670163785227e-06,0.442642069512091,0
2.32272803346265e-06,0.48410614949554,0
2.02646508895865e-06,0.45059042409195,0
2.01392486631112e-06,0.454669640350599,0
2.14699603665493e-06,0.483558416101681,0
2.16322160878469e-06,0.479517813420726,0
2.01140445912864e-06,0.463437899989199,0
2.12694312489073e-06,0.48969006835209,0
1.61628095311718e-06,0.426854605859548,0
6.42543149836747e-07,0.304055223162942,0
7.87867775188086e-07,0.344665875319115,0
6.75795243165107e-07,0.328802822669183,0
7.60814880087837e-07,0.35553050476512,0
7.75778609017199e-07,0.367580663712683,0
7.44258762753827e-07,0.352839473399894,0
6.56827424735131e-07,0.347783063815264,0
7.50723249742099e-07,0.369393951986165,0
6.51147818646058e-07,0.365437177656237,0
6.33421184341207e-07,0.366001360015497,0
8.64998760616487e-07,0.409239035616417,0
9.23312443734708e-07,0.410927384022685,0
1.06321438975048e-06,0.441316698893347,0
1.0384636698551e-06,0.433939563158672,0
1.03821969601387e-06,0.450203183902457,0
8.9758107360784e-07,0.435169340626584,0
6.7749305843798e-07,0.36833097024164,0
7.72785830439144e-07,0.395453758296143,0
7.13692513170994e-07,0.376134681911813,0
7.30590161090557e-07,0.361479662544209,0
4.41809081051244e-07,0.298154383371521,0
4.0345796723316e-07,0.297047752099755,0
3.41665197463551e-07,0.268902638211132,0
6.89291685867821e-07,0.31916881141487,0
9.13641373135464e-07,0.332435477432739,0
1.09393935349885e-06,0.347074486371961,0
9.21777933532988e-07,0.333646870186282,0
9.13918958964239e-07,0.333946473545025,0
9.18292616366838e-07,0.329867714859772,0
8.40676142669681e-07,0.325473795929934,0
8.32707642209838e-07,0.332531502720104,0
7.84046666068403e-07,0.331160735067545,0
9.35085001379094e-07,0.380652259843997,0
3.51158534431141e-07,0.280706226495033,0
6.7378623007592e-07,0.347547948396732,0
6.91488270243552e-07,0.352920913272599,0
5.56259866143565e-07,0.337234542701638,0
5.80539854252521e-07,0.347667631911101,0
3.50063111559286e-07,0.31601668707649,0
2.78713387987139e-07,0.308284946219043,0
2.83344136104162e-07,0.310030148010849,0
3.07278494604695e-07,0.303638969307134,0
4.33462814643676e-07,0.328357532663743,0
6.04146290923431e-07,0.363819523374827,0
5.04959775117323e-07,0.333918248544229,0
5.84839565282539e-07,0.360236963974514,0
6.62368811773017e-07,0.348340521255226,0
7.50774569508436e-07,0.345783572274544,0
8.44317550626731e-07,0.353502837299272,0
1.25103112578439e-06,0.411878896071639,0
1.22445109396245e-06,0.385093313147264,0
1.88345591964629e-06,0.442586268172388,0
2.08071401703778e-06,0.425827768386363,0
2.26231712628307e-06,0.444882570522589,0
1.88491959873281e-06,0.41989322524422,0
2.198517802838e-06,0.444807675289558,0
2.22136870761346e-06,0.433211404097695,0
3.05991811325712e-06,0.516166855244657,0
3.71394951251197e-06,0.549344370823556,0
3.91556634686281e-06,0.550014542829846,0
4.03448129578271e-06,0.555030912895337,0
3.52222411222987e-06,0.553525901450162,0
3.2947158818993e-06,0.570312143528065,0
3.03680618270528e-06,0.536328076410701,0
2.86097318597404e-06,0.51615717590442,0
1.88698763775133e-06,0.415936385666148,0
2.10581430160354e-06,0.446403437962298,0
1.95385007900691e-06,0.421966992151158,0
1.95869282858678e-06,0.432038948502675,0
1.78688228497861e-06,0.441803917022549,0
1.49530911452097e-06,0.415824984256698,0
1.62142916188135e-06,0.409563081111231,0
1.75810320936723e-06,0.394211462372247,0
2.25367835360348e-06,0.409633635432982,0
2.59118992921211e-06,0.405462957847975,0
2.70599782117689e-06,0.409441677212332,0
2.29117014826704e-06,0.386917739879714,0
2.18804545524807e-06,0.38547076533546,0
2.13117708759391e-06,0.381252881710775,0
2.20003165396446e-06,0.384764662133446,0
2.79514287867719e-06,0.428838001716236,0
2.76291800048013e-06,0.435885806170434,0
2.68096508850803e-06,0.453538543232923,0
2.03671592535267e-06,0.432314359738246,0
1.88066399318887e-06,0.441957279818,0
1.80866350874584e-06,0.483376913921167,0
1.03662993098385e-06,0.379105874064415,0
1.09889753156276e-06,0.395458353561493,0
1.12422375426912e-06,0.392279417896442,0
1.23628103792702e-06,0.407281005741125,0
9.78026856850989e-07,0.361780016732683,0
1.69602744305865e-06,0.445605431499227,0
1.82211600992339e-06,0.455490935762968,0
1.55779789837396e-06,0.444296963690951,0
1.54348214297993e-06,0.467820394763282,0
1.27295925853129e-06,0.428090000035282,0
1.27721486407522e-06,0.449133625641272,0
1.4961507258967e-06,0.474169318993508,0
1.53718555196842e-06,0.482738670856379,0
1.26859839008004e-06,0.459746136750559,0
1.22787049884085e-06,0.466522376867369,0
1.00422207240586e-06,0.441149573663669,0
1.22078492790727e-06,0.494624257867163,0
1.16678390873134e-06,0.470088745348372,0
1.16620758611577e-06,0.449239046169108,0
1.30482998115236e-06,0.457922427273997,0
1.28499316987388e-06,0.437421495961116,0
1.09914019371668e-06,0.406135354364535,0
1.03079472598662e-06,0.387093833951001,0
1.40388663991394e-06,0.4269331254532,0
1.65936725815502e-06,0.467804320527804,0
1.38073978568724e-06,0.455267893756604,0
6.82043301745831e-07,0.366227184751498,0
6.41642184609858e-07,0.374233943551432,0
7.07378542302513e-07,0.394911359217726,0
7.02493326845704e-07,0.377145417034514,0
6.90833738271624e-07,0.374796005071553,0
6.77788188084641e-07,0.381356691055133,0
5.65338054074851e-07,0.365550714130809,0
5.73242937699747e-07,0.371540230173079,0
7.50003953208822e-07,0.388205129555836,0
9.22328842206755e-07,0.394689496236597,0
1.14907170298699e-06,0.417748754260946,0
1.58707229990899e-06,0.45662772852769,0
2.19062357667257e-06,0.485640583224101,0
2.3854865330205e-06,0.506125985274488,0
2.52757161861699e-06,0.512159588016579,0
2.53642550801681e-06,0.51541322096157,0
2.48678224203475e-06,0.515854021107712,0
2.20353500683124e-06,0.493612142797854,0
1.82616256530094e-06,0.459009241435757,0
1.82094286957791e-06,0.476110793601125,0
1.74295305687773e-06,0.469548501065504,0
1.55579101677666e-06,0.458870829065964,0
1.32227263515276e-06,0.479364733192095,0
1.81410373189929e-06,0.56861002695481,0
1.79367944866304e-06,0.565869336519624,0
1.80499193198047e-06,0.572021036855441,0
1.81483827679764e-06,0.560625297195595,0
1.84395642358086e-06,0.578750656700807,0
1.40190205700106e-06,0.499395965353736,0
1.28997889337147e-06,0.475913430907236,0
1.08043766404687e-06,0.433741148930194,0
1.11858989327528e-06,0.458597401410681,0
8.86439109641822e-07,0.403370968988209,0
3.99460764090969e-07,0.311753273545347,0
2.8674009457174e-07,0.293970649327041,0
3.76548865855201e-07,0.302309656626091,0
7.3816777872949e-07,0.374053876768466,0
5.35500446797443e-07,0.329569570743562,0
3.6698256628052e-07,0.301338237208177,0
4.06901146444203e-07,0.302608539411971,0
2.35299653002418e-07,0.274209259261016,0
1.90975115135919e-07,0.26728148822563,0
1.54217865370718e-07,0.261403102532885,0
2.01474680237707e-07,0.275577741374432,0
3.27115961726832e-07,0.305548683568541,0
2.86191317389866e-07,0.309631131082733,0
1.81048429470482e-07,0.267348539526202,0
2.76432363740281e-07,0.281357707173127,0
4.01998879052251e-07,0.308685672851618,0
7.22116169130352e-07,0.392374238187564,0
1.04472369758261e-06,0.449116206588914,0
1.02633384137735e-06,0.443047369193878,0
8.75578338644704e-07,0.396230701379239,0
1.05590452028544e-06,0.437663991788834,0
1.1234741249666e-06,0.432398906397149,0
1.89116323036883e-06,0.420940274609451,0
3.49012859919459e-06,0.478603802084592,0
3.43198264809222e-06,0.480072606742371,0
3.47353034390547e-06,0.486592807860021,0
3.52873270470423e-06,0.482076551545502,0
3.33671889717298e-06,0.467211411307016,0
3.23215364355648e-06,0.466535402086751,0
3.31995274590709e-06,0.482384664216086,0
3.34691316705138e-06,0.469754265887865,0
3.30416609714629e-06,0.472295838068673,0
2.59716663247882e-06,0.54100475754859,0
5.64832234652658e-07,0.359907794642381,0
8.54776781343474e-07,0.411502566162889,0
9.15770241653377e-07,0.387462751140164,0
7.71370027939746e-07,0.354216162816378,0
7.10101769136619e-07,0.345440936975398,0
7.26464904473899e-07,0.344626034999021,0
5.08130615248864e-07,0.307814521049895,0
4.73040356104552e-07,0.306399559568804,0
5.4794442438798e-07,0.312263458349214,0
6.28126394519196e-07,0.318263533963652,0
7.70275424872463e-07,0.341828278398928,0
6.39574965395914e-07,0.329131821948749,0
4.660846422155e-07,0.313922584858589,0
2.92400025351035e-07,0.285973126133456,0
3.05170121201134e-07,0.282451619158245,0
2.45324879177657e-07,0.2569740190867,0
3.26563741365746e-07,0.27998534493482,0
4.15103291207651e-07,0.295667447248993,0
3.79057467851817e-07,0.296389656462293,0
3.09538039971714e-07,0.287053100216662,0
2.75040663495361e-07,0.278258050420063,0
3.22694263776194e-07,0.296652802614402,0
4.01905093408979e-07,0.311061836494598,0
6.85529930599299e-07,0.359999885104418,0
7.39305011634622e-07,0.356379059773699,0
8.06947578922878e-07,0.396100782748171,0
7.4116104919029e-07,0.381917318951499,0
5.08180459366966e-07,0.344574270903621,0
4.92793875238306e-07,0.34917635135271,0
6.11561259334869e-07,0.375516380529202,0
6.34841085863474e-07,0.375104274257292,0
7.3756259899292e-07,0.37644264875363,0
8.76419622098601e-07,0.381074342310682,0
6.19576324694518e-07,0.319630043286651,0
5.1540785649186e-07,0.308585562727198,0
7.262025670102e-07,0.331893424054989,0
7.46670135927958e-07,0.331183106756029,0
8.68536545275376e-07,0.333502177152116,0
1.44792572182775e-06,0.396422945245677,0
1.3899294670406e-06,0.387242961515306,0
1.35731714920184e-06,0.386144314228455,0
1.44598704797102e-06,0.396109708266743,0
1.67249970762685e-06,0.42375730938846,0
1.73671614763921e-06,0.438152045153916,0
1.61885513947972e-06,0.426940202015754,0
1.23047288648074e-06,0.376798058161385,0
1.1448144578339e-06,0.365987765261219,0
1.27136359090834e-06,0.401482284610684,0
1.07643488623357e-06,0.378389371442735,0
1.41619879292897e-06,0.417087907162457,0
1.41313337966565e-06,0.409245928761218,0
1.39705717592929e-06,0.412575239699951,0
8.66774785245725e-07,0.362543488831487,0
6.25766669033228e-07,0.328382705680475,0
3.55119535003341e-06,0.552481325587631,0
6.10773951814127e-06,0.583473008598695,0
6.12405428500868e-06,0.569183344972311,0
6.40373241901857e-06,0.561969993856823,0
6.10733289507253e-06,0.522614032449995,0
5.14543716886437e-06,0.482976667023445,0
5.06589382649634e-06,0.478979068416647,0
4.3363398983874e-06,0.446245250543684,0
5.08987671742766e-06,0.470403213390403,0
5.34628289503286e-06,0.472223537192172,0
4.59864456990293e-06,0.496205435829773,0
3.66637346574384e-06,0.506523730422312,0
3.12044264535066e-06,0.484851139891916,0
2.98053397693738e-06,0.497156012698377,0
2.74642353245009e-06,0.520877750561975,0
2.67798936186512e-06,0.506979702431369,0
2.81802657563561e-06,0.534720604403722,0
3.36645288115223e-06,0.598659421246214,0
2.45654194675056e-06,0.546519600623839,0
1.69562344336456e-06,0.475351845295852,0
1.07358672118238e-06,0.402286446252205,0
1.21487823595118e-06,0.426425302563621,0
2.1332005292436e-06,0.555137147463119,0
2.91857921378393e-06,0.551459223140865,0
3.54846835209827e-06,0.563106472352524,0
4.21419246003199e-06,0.591716006388577,0
4.24204220517822e-06,0.541750285619612,0
3.99846908441441e-06,0.502803172201794,0
4.30905106353074e-06,0.442548522202006,0
5.49557258718709e-06,0.3855824539322,0
6.79305679143406e-06,0.415698622164478,0
7.5034732015662e-06,0.438422060414552,0
6.70344362552196e-06,0.4105372240861,0
6.03666311741411e-06,0.409808759070219,0
5.7301637650766e-06,0.413410892232291,0
4.91843475795598e-06,0.386536438465193,0
5.46545214733162e-06,0.422509924684645,0
5.92318724392125e-06,0.437547405128816,0
5.82156951567032e-06,0.523696654015195,0
3.60829719803027e-06,0.583559604951972,0
3.11359563754813e-06,0.594164707113459,0
2.94374639440294e-06,0.568378071405375,0
3.20811041500851e-06,0.638270269808144,0
2.30952409703196e-06,0.567266350465185,0
1.4844898256353e-06,0.465198116297568,0
8.02739686005153e-07,0.336887587187081,0
8.81031678671336e-07,0.331974563233431,0
8.23263657477607e-07,0.317971626390296,0
8.32239369837136e-07,0.316272626756531,0
8.24752422584094e-07,0.316576201723626,0
1.82055510201438e-06,0.388961614243237,0
7.2306305980948e-06,0.676875212950865,0
7.4407496256832e-06,0.512246551754123,0
8.71686660747285e-06,0.398534088818392,0
3.63616292936569e-05,0.597960212831989,0
8.03357812095557e-05,0.639184715710386,0
7.84202153483136e-05,0.540894423111349,0
7.60173038690715e-05,0.50916641018618,0
8.91401767117916e-05,0.45916828615243,0
8.27241998556158e-05,0.304298795656495,1
7.96857989890531e-05,0.222708283837973,1
0.00014707781301248,0.207088717910086,1
0.000138326549208649,0.166463328667978,1
0.000108564555458403,0.146782067360701,1
0.000108305739875154,0.153397521315559,1
0.000157933865214469,0.10023408155979,1
0.000592155488348519,0.150289192443644,1
0.000691489692932409,0.119367672298125,1
0.00156391040981056,0.142892863604888,1
0.00271841757059097,0.206148662961834,1
0.0029794573702201,0.186620448236714,1
0.00289731894647451,0.152838133410654,1
0.00259333891983329,0.144138871313025,1
0.00233933827101542,0.115048662009869,1
0.00190465859699606,0.0724499404734205,1
0.00189923223755777,0.0665515780032179,1
0.0019194104548115,0.0570143682850068,1
0.00171884865647997,0.0583362518027847,1
0.00167006292575767,0.0633216245300316,1
0.00176575837264874,0.0647194358239294,1
0.0016479629882058,0.0412478211434166,1
0.00305860656055054,0.0470170562741203,1
0.00692099474510786,0.0723134995678457,1
0.00687929729706872,0.0468890552777273,1
0.00659009741576373,0.0507940406262762,1
0.00665857766985925,0.04577318064835,1
0.00744710854889589,0.049387775304017,1
0.00825025533870318,0.0536019196744994,1
0.00806429027607727,0.0517161216722351,1
0.00615063238078012,0.0416976656077889,1
0.0048607884731506,0.0280559222394703,1
0.00657671741334784,0.0461227777739255,1
0.00774883738561831,0.0538631472234885,1
0.00772553161325871,0.0659751768923414,1
0.00621038416918118,0.0550044310966544,1
0.00434826545779905,0.0471998813331404,1
0.00464328364382997,0.0481287327768335,1
0.00524264174349586,0.0373955122118263,1
0.00486895476949963,0.0307561116881474,1
0.00349392538717198,0.0208149242594376,1
0.00631438297128504,0.0321799504557592,1
0.0159726039554402,0.0508142273539534,1
0.0178610352756049,0.0492815717080377,1
0.0173670497332575,0.0538222357531845,1
0.01764948475249,0.0585207118889361,1
0.0175247384549336,0.0602810860193449,1
0.017419750202652,0.0627918545016508,1
0.0112544945420419,0.0455803017966373,1
0.00723085512043291,0.031673018467238,1
0.00374978174726329,0.0128390404196609,1
0.00862043655272243,0.0287145893692444,1
0.00712771394803032,0.0186521125653746,1
0.00824721045318244,0.0220986090705625,1
0.00881118052904148,0.0169986988698668,1
0.00909656888638188,0.0164917239561006,1
0.00902522083668671,0.0167310559347853,1
0.0154911615639184,0.0186819430354931,1
0.0176163084591124,0.0108517827821921,1
0.0191167822689954,0.00799520054502857,1
0.0222834323818177,0.010626749077235,1
0.0170015795988578,0.00709298046129425,1
0.0160957242448983,0.00787993504199515,1
0.0158994473235609,0.00807343509838432,1
0.015277509576221,0.00915419655374864,1
0.0163329460797488,0.00890262995089753,1
0.0204585393540749,0.0115793956378304,1
0.0147334777255652,0.00922323260090598,1
0.0126907386848576,0.0203945654086083,1
0.0109408183154957,0.036858446045226,1
0.00760715497999451,0.0262232865570929,1
0.0158383945659663,0.0524165781775134,1
0.0166162040235676,0.0353030355458367,1
0.016974159755787,0.0288707296608674,1
0.031945047048171,0.035091843664985,1
0.034471471487358,0.0323697212835816,1
0.0572010168363576,0.0381176529345705,1
0.0660959340494816,0.0350421606682793,1
0.0551869964210036,0.0300918837188433,1
0.0467876542983367,0.0268248450306454,1
0.0422107444909245,0.0226615171173187,1
0.0447183342886066,0.0138976694763874,1
0.0474763667065214,0.0102751424694137,1
0.054239439050562,0.00921028615408263,1
0.067668161951215,0.0133783673432467,1
0.0766884297770661,0.0168550276315508,1
0.0658627603438694,0.0173638974756453,1
0.0619556402139879,0.0171395127022271,1
0.0610804651195053,0.0155072304710565,1
0.0607498292953593,0.0136900516944663,1
0.0631619177350472,0.0135841915400668,1
0.0546515848685674,0.0186849584869293,1
0.0112886796333131,0.00173667483754821,1
0.0107295852592428,0.00886326972634822,1
0.0110266111081447,0.0100383523713281,1
0.0131993324567347,0.0129781906619884,1
0.0144504236158243,0.0130149958115914,1
0.0154213983210751,0.0124677431663759,1
0.0158139201003732,0.0112475294163068,1
0.0157226530720267,0.0162454010476674,1
0.0151148291225356,0.0192426150619564,1
0.0115053626483908,0.0119967294607751,1
0.0102073663097669,0.00469149662705583,1
0.0465361850981572,0.0172172948790984,1
0.0805099836748349,0.0296464756833869,1
0.165991536591891,0.0359831845102614,1
0.219623563898408,0.0283040641664849,1
0.273025443235675,0.0262045485391756,1
0.327087835935778,0.0261355587231688,1
0.279388458547983,0.0221516526862448,1
0.261147080723473,0.0162672236065859,1
0.246756797379795,0.0138130242366125,1
0.153764218688071,0.00596928646196768,1
0.134650030136135,0.00473521716795338,1
0.143805572995258,0.00546318260632752,1
0.140585546349394,0.00665904031517799,1
0.129542412107113,0.00765312682279551,1
0.11526307930895,0.0112384092668319,1
0.105658637037073,0.0116144662519655,1
0.0876804882202942,0.00724262229854473,1
0.118458987211607,0.0194572914167133,1
0.106813855952676,0.0203782873556127,1
0.12163037731331,0.0265099874233238,1
0.141211639399844,0.0347452943075373,1
0.0919663737077211,0.0265710372572751,1
0.0714221899877631,0.0220029802462523,1
0.0595915548556311,0.0180284535222566,1
0.052532897244601,0.0158064788036392,1
0.0496945558025862,0.020772232923199,1
0.021494129021426,0.0139856708299913,1
0.0174086235296809,0.0163518045479585,1
0.0303780400267783,0.0240670879480036,1
0.0312770318548568,0.0131882585399461,1
0.0400911396704205,0.0138853258821782,1
0.0400356169857409,0.0137348067825412,1
0.0435057989229593,0.0121251404547438,1
0.0493652933367055,0.00949754278775453,1
0.0776915800800935,0.0138840074704902,1
0.113442822834852,0.0200593876232377,1
0.143301708940602,0.0245292679933194,1
0.188128671864527,0.0325473210732083,1
0.168318282074226,0.0301491685416925,1
0.145763281828155,0.0344939773634441,1
0.148989935444798,0.039414640431538,1
0.12899024769605,0.0309973773968895,1
0.0878318544971098,0.0279079121608632,1
0.0231130739964026,0.0110417002299391,1
0.0191068436778,0.0218090643050774,1
0.0205385175478426,0.0227250063070326,1
0.0207301090661676,0.0221356334805684,1
0.015380630372053,0.0167920693598805,1
0.0127712478552265,0.0199070765325356,1
0.0129995469249599,0.0202827666945729,1
0.0136274999354026,0.0215470276443818,1
0.00770261115937844,0.0143646981115465,1
0.0076710164446263,0.0178806359672565,1
0.00779069420924133,0.0185502539808859,1
0.00853274276312324,0.0114457237488702,1
0.00910058294470611,0.0115222257226424,1
0.0162359051590973,0.011158629350993,1
0.0250373603987803,0.0195782278939871,1
0.0313770586605137,0.0241846585291155,1
0.0338497344570349,0.0269186147341952,1
0.0435209842903183,0.0362098664439757,1
0.0470879360358643,0.0420394568856118,1
0.0416974235140359,0.0366752066093114,1
0.0481277131415171,0.0358357565284776,1
0.0393206477028597,0.0314247485214337,1
0.0159158167825427,0.00923883597437678,1
0.0151624601001453,0.00313127140478008,1
0.118567551412254,0.0317113333462847,1
0.155098141274832,0.0185002690675482,1
0.15024587485534,0.0164682541979309,1
0.232187098044472,0.0147926068769173,1
0.460304753105607,0.0268739427140997,1
0.453484612193045,0.0242996661538728,1
0.438278922247295,0.0209200092763865,1
0.396709306233235,0.0179417441123551,1
0.352482024035359,0.0155090208389332,1
0.287730410697909,0.0130283816402196,1
0.280479237784394,0.0134093734470285,1
0.265067193865218,0.0169446177485455,1
0.23532112189376,0.0148509669875031,1
0.221460537739005,0.0292484065746716,1
0.0894413475140989,0.00785036862355482,1
0.10897944591539,0.0123872682310125,1
0.0879736936897025,0.0151876113214544,1
0.0574562895797042,0.0112141991275871,1
0.0803652411199129,0.0100489350146101,1
0.121393884299482,0.017162593799147,1
0.135691905061847,0.0208889755392382,1
0.167138149708175,0.0254755868633208,1
0.189948674954739,0.0311005936080372,1
0.197126687656779,0.0311199941974032,1
0.213090372501299,0.0473813489441548,1
0.161638400465084,0.0422963873444829,1
0.127339107261564,0.024747121818997,1
0.058886716386803,0.00982007612278257,1
0.0391200755954856,0.0183288804428822,1
0.0391046346668397,0.0179957929151845,1
0.0465618948300342,0.0230531092352631,1
0.0581044766539638,0.0290559948539128,1
0.0727397079203472,0.0289353286362117,1
0.0977782695163007,0.0385923816376342,1
0.138514945079556,0.0565807628818552,1
0.173589014769869,0.0630317501256075,1
0.177890051204012,0.124037405920051,1
0.124349488820271,0.100209991111446,1
0.0754255740793325,0.0678154177739865,1
0.0423559954453576,0.045439395184602,1
0.0329256198141933,0.0466775109545649,1
0.0241298885338304,0.0399529898633673,1
0.0190618109853642,0.0617858590911728,1
0.0187639243359208,0.0720336404456477,1
0.0147777286008755,0.068025672085511,1
0.0101325926494367,0.0431766420446059,1
0.00929278970554093,0.0340476168928535,1
0.00602833392261699,0.0230122538115716,1
0.00586793027118496,0.0170173916933463,1
0.00960854185746161,0.0341912177542896,1
0.012816194686414,0.0411055359026312,1
0.0163156130172239,0.0416797406283397,1
0.0166058277578935,0.0478575431237255,1
0.0124536303540819,0.0399793100065373,1
0.0111293880707241,0.0256417940104272,1
0.0142745091149421,0.0303106716800992,1
0.0138620147002915,0.024080061194308,1
0.0167937799623703,0.0179616522441175,1
0.0182257679570955,0.0201394488351553,1
0.0237476537343065,0.0256230591654164,1
0.0249078797835878,0.0284596221875791,1
0.0318626101235784,0.0365950661308089,1
0.0398188055425381,0.0407130748108227,1
0.0312798294928927,0.0317931443448398,1
0.0377493555916514,0.0345729087285757,1
0.0416056575208172,0.0303895082100096,1
0.0553028305212157,0.03991654980627,1
0.0693521336136603,0.0507397555295856,1
0.065022570895401,0.0514299133044013,1
0.0575809383134659,0.0409308709407781,1
0.0731067384032213,0.0276789903418897,1
0.12356639461365,0.0227343508222656,1
0.121003535240868,0.0206471872339475,1
0.104630268237431,0.0142090216808567,1
0.0987049107576529,0.0145227399620597,1
0.0852628387861384,0.0121651838414073,1
0.089005855109927,0.0105867232252652,1
0.0990366329566517,0.0108088706889554,1
0.112902388247153,0.0102131262927833,1
0.12171347457409,0.0107492775237779,1
0.116094240708571,0.0132501685236716,1
0.0940975730756358,0.0137236832937238,1
0.0954840762378309,0.0160296519425617,1
0.0879918631111153,0.0196713989931166,1
0.0842136988224663,0.0156265634315192,1
0.0801705981563189,0.0137478075092313,1
0.115511811607299,0.0217527003611692,1
0.151405435673052,0.0292668621278418,1
0.139735723220794,0.0399439510503082,1
0.0941720265571906,0.0277339359659552,1
0.0872779476406131,0.0244265880156298,1
0.0786437059590889,0.0235005898311476,1
0.087747044939864,0.027827285320713,1
0.0840453453967145,0.0246343132801888,1
0.0464179334929607,0.0157603199314575,1
0.0545685210577806,0.0186242656013462,1
0.0596095925028044,0.0163346492628769,1
0.0524017834973725,0.0115589084493982,1
0.0545009810446014,0.0123348630130225,1
0.0438918487243867,0.00977463439482133,1
0.0561195303263079,0.0153266580556727,1
0.0739216365444601,0.0171651468788412,1
0.132257461547995,0.0281381802854565,1
0.15218681937776,0.0315091219029256,1
0.154545920223799,0.0331920612020399,1
0.186026472234758,0.0404155760215683,1
0.137188540722644,0.0508615865805331,1
0.10054448639727,0.0500073718087387,1
0.0788640216831773,0.0413471149815449,1
0.034175030747737,0.0220253114354687,1
0.0199388329121447,0.011435922224057,1
0.0106775133451646,0.0122707775101881,1
0.0109150236700645,0.00882823503519529,1
0.0117399001954848,0.00840256459637049,1
0.0111536299846492,0.00883746358879613,1
0.0100574852150199,0.00871085924798491,1
0.00955255882234487,0.0104694175226858,1
0.0136416112335033,0.0201943398290812,1
0.021539431923089,0.0336837238898772,1
0.0241287688394964,0.0261190056309614,1
0.0226903980737715,0.0239231334970999,1
0.0294174625548511,0.0224064124693082,1
0.0438168422067653,0.0431962136105062,1
0.0694478907192011,0.0512986748224807,1
0.0798173127143424,0.0195473213234985,1
0.0680062669013743,0.0146010763197903,1
0.0669224523075078,0.0124979842858456,1
0.0676312793015188,0.0111912683914935,1
0.0766203168123077,0.0127072416736911,1
0.0733355588507921,0.0138010203918798,1
0.0731423143559135,0.0131199128616825,1
0.10025752212353,0.0184704533252302,1
0.152808795551144,0.0210624441661364,1
0.151434497323003,0.0200631936859676,1
0.220475100000141,0.0208422877370273,1
0.271534630732026,0.0164687205845187,1
0.248731176335985,0.0144959537822865,1
0.194416079326821,0.0102565036168476,1
0.181258121439733,0.00935483950990618,1
0.168397109009216,0.00782269564651567,1
0.168677655371853,0.00836263464224016,1
0.173994521736159,0.00953242316672641,1
0.16834735952591,0.0103279056133261,1
0.121272880070079,0.00651872670798326,1
0.115437973362352,0.0154471957198846,1
0.121973922968667,0.0240618278212653,1
0.113513386173676,0.0274016781251359,1
0.116818348778354,0.0386518635031923,1
0.122002453913701,0.0322101635772578,1
0.19523054848105,0.0250740904855963,1
0.277157934788873,0.0318634460460241,1
0.298414772211719,0.0239863780057738,1
0.311463762706793,0.0240077708489494,1
0.312499183718536,0.0212628246023231,1
0.297100666447434,0.0261199106584544,1
0.249828339227801,0.023875598282662,1
0.243956879238998,0.0237897628753316,1
0.224115561619388,0.0206752534693193,1
0.209633252470845,0.0185938937737166,1
0.187120762825329,0.0280256615546556,1
0.114624695155443,0.0180412968431888,1
0.0910872333688661,0.021312856253447,1
0.0953591890773535,0.0256147607971899,1
0.103843428235333,0.0318916119125005,1
0.152130665698846,0.0430923411897248,1
0.166603998711354,0.0343465437045409,1
0.16984219368911,0.0312352665920401,1
0.188339888379583,0.0352915065923377,1
0.179827686011734,0.044118567397894,1
0.0799188458348262,0.026411638447308,1
0.0441406388768366,0.0110729272483161,1
0.0349653092387799,0.00829064848153168,1
0.0387375304158185,0.00399308604867028,1
0.0519732201534394,0.0057221766209345,1
0.0693703738784853,0.00582800509943045,1
0.115284282276019,0.0203660191642381,1
0.141181510006411,0.0251492465913071,1
0.163005905691688,0.0281921884894201,1
0.189526682544007,0.0327284454587023,1
0.211969535446789,0.034261048445859,1
0.197321468833522,0.0331669497135508,1
0.170201530172921,0.0298349605262228,1
0.13722750878269,0.0381698107438,1
0.0220158426545117,0.0047359600894069,1
0.0145655578818276,0.0149542700695793,1
0.0159650345161717,0.0162279680557882,1
0.0191833915119687,0.017070984677144,1
0.0319002057605919,0.025979306041668,1
0.0320624911793101,0.0321563712203689,1
0.0351240152587392,0.0333033679263951,1
0.0394049230236333,0.0341467996228264,1
0.0329161345749274,0.028589097966318,1
0.0300224212012763,0.0268528422102497,1
0.0265705904417194,0.0238714058532421,1
0.0439662071228756,0.0368981080179078,1
0.0401637275625486,0.0352081014017782,1
0.0340309910539062,0.0292275632838429,1
0.0380880347632672,0.0335329618977614,1
0.0363943181033615,0.0332425057467918,1
0.0354287244439988,0.0363414457048446,1
0.0359485804812443,0.031296032040992,1
0.044173520261095,0.0326151703310198,1
0.0455473601833915,0.0185677275926214,1
0.0477845415426552,0.0251721750562328,1
0.0403378050094338,0.0195002599980601,1
0.0400586865520715,0.0171492735884627,1
0.0398756141521774,0.0185915614665904,1
0.0363772888228646,0.0150958944847273,1
0.0355130737298366,0.0145937414123725,1
0.0373596774112571,0.0155532890274741,1
0.0343734264807216,0.0176699340732846,1
0.0250265651308244,0.0149260944461111,1
0.0226978158755915,0.0227506043026903,1
0.0263044070452187,0.0264850566764427,1
0.129854647306757,0.0240903292427252,1
0.398075689315109,0.0399115414169261,1
0.414273701556379,0.0343462751455193,1
0.590787360320971,0.0412051628075127,1
0.596301805852408,0.019245636625159,1
0.585479373151955,0.0179789171976738,1
0.564132797722045,0.0151456975812306,1
0.513087563852665,0.0128780574992937,1
0.41862378006774,0.0079175551486516,1
0.418397890678121,0.00736755394935965,1
0.422905262013265,0.00819826857452916,1
0.383599478013339,0.00789985935895979,1
0.400757042146259,0.00629740787642121,1
0.359587105229103,0.00515148611059698,1
0.323921184502086,0.0120877353107394,1
0.265015216677263,0.0101545520483877,1
0.245328600647072,0.0119362855983027,1
0.215565250741504,0.00940021969979205,1
0.217073743936788,0.0117449362325853,1
0.179168866917039,0.0100592913742645,1
0.138676899136381,0.012836810273177,1
0.114371215470297,0.0100631989848354,1
0.0928522898122135,0.0139781934622648,1
0.0829471733508816,0.0153657251022202,1
0.0964858144269876,0.0101896827147108,1
0.131805718098889,0.0145264239308064,1
0.108101337907574,0.0101247085313448,1
0.113858622980115,0.0103603270364276,1
0.17221993196299,0.0161441627157715,1
0.212300759070323,0.0205442882114427,1
0.257246331819612,0.0259834303276868,1
0.342299808855913,0.0319339889623522,1
0.379502838229523,0.0464153918296884,1
0.272847778560733,0.028304391121226,1
0.217865142761121,0.0303504398691004,1
0.227651094031302,0.0355603791621884,1
0.122171482187329,0.0209420172560633,1
0.0472234227472687,0.0102802032714752,1
0.0368794708705398,0.009476243077216,1
0.0353958351658421,0.00861850009395429,1
0.0343146037145392,0.0095136449804974,1
0.0427655014729593,0.0116875735652426,1
0.0453753679105882,0.0101659277453671,1
0.0404613142538603,0.0149855706886023,1
0.0396300912882276,0.0289642345251454,1
0.0555583135241043,0.0367354111947294,1
0.0667097387025577,0.0392034285441602,1
0.0723622961013078,0.0370282864884624,1
0.0520095973098317,0.0253695010778659,1
0.0522628661930527,0.0269217666656383,1
0.0442674421007966,0.0217660610118183,1
0.044023378399302,0.0247549637318729,1
0.0409425638281661,0.0206989134631416,1
0.0307113883350393,0.0131784970989844,1
0.0220748608120965,0.0076383512747015,1
0.0236431687284085,0.00827691759402031,1
0.0261898696800734,0.009930497599028,1
0.0247808726855436,0.0135265506007408,1
0.0208126625313912,0.0143073749615188,1
0.0291303230488675,0.0132547520598163,1
0.0375578210077703,0.00834092547573575,1
0.0552147040723743,0.0128839945236624,1
0.0607390174160313,0.0125424474937103,1
0.0580486087730245,0.0131598309083791,1
0.061620760521112,0.0152644552368851,1
0.0603129527849563,0.0161979029671026,1
0.0760353532238739,0.0198079790568032,1
0.0792729792577478,0.0166499792628586,1
0.112101338362831,0.00952000503986527,1
0.235071531711898,0.0256849888028222,1
0.28061010415674,0.0392704434880637,1
0.245025568264019,0.0379673595684201,1
0.215469531204655,0.0366346743674208,1
0.216635342444936,0.0391082215326279,1
0.202161729665755,0.0228205327694851,1
0.188350077023143,0.0117623227837375,1
0.304610883138604,0.0155801469995961,1
0.24124044473501,0.00948170496952155,1
0.270105151686239,0.0123289557357009,1
0.272643768139688,0.0118398545227973,1
0.275130862734972,0.00998470855121288,1
0.339622854832459,0.0124069856984216,1
0.374447407536013,0.0137284781669286,1
0.402423715134194,0.0136143613968727,1
0.361505133986597,0.0141213566831429,1
0.328675721488383,0.0168723464357387,1
0.267848955277145,0.0196820420955281,1
0.268874638285508,0.0256816186129194,1
0.20137589493426,0.0234501667544643,1
0.154723495253602,0.0164527481580277,1
0.0876972661944537,0.0120545365425173,1
0.0852509260983144,0.0162650185332974,1
0.105695409302378,0.021081353156052,1
0.119734941968992,0.0176564340905862,1
0.136934499934391,0.0232750379885753,1
0.181686410772022,0.0302733832322099,1
0.215314968372898,0.0331790097467046,1
0.282235237648875,0.0441624307290105,1
0.370403464875641,0.064055232872772,1
0.415331560943301,0.0775097520816004,1
0.397398152820966,0.0749615283688225,1
0.331123170602213,0.0747888790122827,1
0.132092992124802,0.0331590484727372,1
0.0521827169029552,0.0445703927800725,1
0.0380057928531308,0.039293289418075,1
0.0285988528262847,0.0311316502704032,1
0.00892904091136216,0.0139076255009065,1
0.00779625780003026,0.0209303165230936,1
0.00703623136781133,0.0216978179969462,1
0.0114446365755407,0.0327891088252696,1
0.0122027395881706,0.0214977518050112,1
0.012562369123259,0.0187776224342685,1
0.0159321471789844,0.02218235047283,1
0.0154819644295577,0.0212447269704434,1
0.0168205687977614,0.0230433299520129,1
0.0122597429545196,0.0162932658842722,1
0.0121844628525355,0.0144176918842048,1
0.017417404395972,0.0200453671519252,1
0.0357104438217147,0.0361624829118458,1
0.0445401374183422,0.0378214211519464,1
0.0444884250948164,0.0499272598512892,1
0.0353434854090084,0.0354954061893641,1
0.0397119552415658,0.0337413820430026,1
0.0329111808461068,0.030603278665515,1
0.0311287520963535,0.027951022204848,1
0.0224671585083077,0.0178309875473679,1
0.018661933108805,0.00554664963862188,1
0.0282295467010168,0.00725776541084068,1
0.0274836658983467,0.00567352130610805,1
0.0301955282028574,0.00581291317690608,1
0.0339720798472063,0.00720588266983961,1
0.0351867517626124,0.00859195048123098,1
0.0357748945180968,0.00804729514818749,1
0.0361206732383141,0.00751903284056622,1
0.0541328496396064,0.00587618084382113,1
0.118296917936169,0.01742435495087,1
0.118697036310598,0.0171460302527559,1
0.111910100310134,0.0152364154846479,1
0.1336038052457,0.0184201077750652,1
0.128251869247221,0.0199145541593458,1
0.233820776263273,0.0223003967568697,1
0.366937538592991,0.0321361882822868,1
0.38097528628107,0.0246941077164013,1
0.31018806252283,0.0232424123521163,1
0.281397867083514,0.0301385584680999,1
0.321364193208465,0.022935051910131,1
0.284338743924492,0.0192208424371652,1
0.261536576666722,0.0130692466209537,1
0.440033651468957,0.0221755412280241,1
0.416115567420746,0.0179013565626292,1
0.56285827920374,0.0224988130214274,1
0.668295904145698,0.0176196861921432,1
0.679638707461118,0.0184271494350584,1
0.609622162015626,0.0148679207614243,1
0.421060455106547,0.00890787588738645,1
0.38441782984106,0.00893587729609828,1
0.336827558870854,0.00759634029717452,1
0.352050680763956,0.0103988009525858,1
0.305996003031096,0.00796097057500392,1
0.401601061326059,0.0085486426640542,1
0.46619723110914,0.0123635488951079,1
0.349656547509923,0.0124326567393173,1
0.306903429401483,0.0129290786220939,1
0.282870992796344,0.00799275647888542,1
0.292549301481162,0.00451555092604431,1
0.316175654742141,0.00487696939288852,1
0.401639979325723,0.00655278144128327,1
0.499188120763363,0.00955870063927968,1
0.42152685671538,0.0072837502801578,1
0.398031989380445,0.0121864964013113,1
0.400686789852604,0.0140220672436417,1
0.385046486871634,0.0138284885568175,1
0.387336426441259,0.0127936347070193,1
0.457669361657747,0.0201073034925786,1
0.499591745452777,0.0351625387452958,1
0.259529127246546,0.0253613506014786,1
0.266721451242112,0.0433988582225479,1
0.291090256772195,0.0494521233442517,1
0.273026585980126,0.0538351458025044,1
0.137352003916227,0.0382214792947194,1
0.072263548234728,0.0319749810367444,1
0.0146132416353405,0.00233168106498262,1
0.00685902467767867,0.0327759908603645,1
0.0142498491885672,0.0237161855746545,1
0.027765150960339,0.0468578305591181,1
0.034912782815864,0.0586885110516814,1
0.0415739125142438,0.08866607671659,1
0.046160634381754,0.0970743234458139,1
0.0706672999953578,0.061531482831609,1
0.0898167407860498,0.0351463196655913,1
0.0853764596968332,0.024558955721633,1
0.0907614083232332,0.0247546444818146,1
0.0670045768773759,0.0194375789719768,1
0.0570212877224872,0.0146857178044556,1
0.0587030485374328,0.0137693957895903,1
0.054300422228555,0.0102195511142707,1
0.0638026690126125,0.0105617223803035,1
0.0724433451562743,0.00801974045012124,1
0.0741312522763128,0.00911498357992053,1
0.0789143393991032,0.0118333237289502,1
0.0855627445527624,0.0150951901944619,1
0.0771538154511144,0.0126637536208493,1
0.0772868567989353,0.0116585341331396,1
0.0740680636810416,0.0137964729946326,1
0.065123229793339,0.0112223869100339,1
0.067254577741323,0.0129551039509975,1
0.0400703452052486,0.00732471119365392,1
0.0344236053845497,0.0130303210044251,1
0.0445914274282316,0.0188808053376313,1
0.0509705036882052,0.026907425408642,1
0.0440186963123991,0.0273963765142737,1
0.0866898066303288,0.0323756315683992,1
0.0987049740162332,0.0122941984768746,1
0.0994754325508517,0.00993566234598992,1
0.0918043592660591,0.0103449349373045,1
0.109933769439752,0.0127511634640296,1
0.193622754137505,0.022172719293155,1
0.339908962416977,0.0359739181817049,1
0.557927178688757,0.0424752181086115,1
0.559078353786639,0.0365856153878019,1
0.509649649293952,0.0319313229194522,1
0.538536845146556,0.0330489388942936,1
0.463848259430004,0.0399197160116927,1
0.325601548016374,0.0222430855668586,1
0.232997881856269,0.0111090310586445,1
0.209783884518715,0.00887739879898174,1
0.211186011162818,0.00977219310356026,1
0.228380890203792,0.0103222273147233,1
0.214558986636084,0.00920566930535036,1
0.20362577815294,0.00891936173742883,1
0.174241073683903,0.00732016552864299,1
0.179517411156169,0.00759138361888357,1
0.17847673749387,0.00726636714818785,1
0.205726060987633,0.0119479625104578,1
0.195438568983383,0.0165958230689544,1
0.223300554805346,0.0206468816329279,1
0.221400894561593,0.0212181007335744,1
0.155867961140369,0.0168352050442582,1
0.160916693647332,0.019637552453898,1
0.149549628130938,0.018743726736955,1
0.162882495458011,0.023515871038586,1
0.14320840450048,0.0234892558918516,1
0.162324570827016,0.0264358640651616,1
0.155599156477768,0.0230928976830551,1
0.127955770013099,0.0209987482315834,1
0.133873790168649,0.0199212803138025,1
0.136062282009455,0.0185519928225879,1
0.130434179929598,0.0160999741070355,1
0.132775471101031,0.0193228857451663,1
0.0913429365442098,0.0132168599201506,1
0.0911924208336592,0.012326269090136,1
0.0910509507759477,0.0170632557042612,1
0.0626577773213176,0.000428058823429291,1
0.156177434203122,0.0141360966307863,1
0.168364095564934,0.0136199300141017,1
0.1767114257378,0.0162094036050161,1
0.17497759742654,0.0168926690198744,1
0.200321991943395,0.0199483336823429,1
0.21325407249445,0.0216060591910547,1
0.254915199274266,0.0265861238050876,1
0.295079459337269,0.0299715448532677,1
0.217314407737539,0.0241161829539863,1
0.145188722332022,0.0421264132786722,1
0.144694657413408,0.0491989293522389,1
0.117935508142816,0.0745012884693439,1
0.0787942564000044,0.0439354992391654,1
0.0387231088861231,0.0224048514279816,1
0.0187434098545061,0.0144429458671578,1
0.0179746327669423,0.0216129225855726,1
0.027068664909568,0.019106836185303,1
0.0635301809011649,0.0357957244160358,1
0.0603799243126877,0.023931015888798,1
0.0617341007479365,0.0284657962894869,1
0.0829336571854844,0.0390659071717546,1
0.0954790344362573,0.0540013065014786,1
0.0887884672911493,0.046323377330702,1
0.0763280415515391,0.0387914655169354,1
0.0533056588285001,0.0311336901536373,1
0.0356568061963285,0.0217280497279708,1
0.0313125825175616,0.0299832847630734,1
0.0329939309465403,0.0176342213051823,1
0.0373474192131882,0.0128201727882604,1
0.0389996520290717,0.0108550389401693,1
0.0429190058330602,0.0112500830870978,1
0.0389467807714299,0.00628327426016859,1
0.0720618490382187,0.0121188219615105,1
0.0777841553770094,0.0112530340845034,1
0.0876028843058391,0.0122035865586908,1
0.0989985463070343,0.0147984008731492,1
0.0830907035078044,0.0106883486379491,1
0.0801534993547545,0.0105243285084841,1
0.189617659917198,0.0268520911385935,1
0.21218685035969,0.0126419086667081,1
0.21307132727561,0.0126499544098439,1
0.173046571411742,0.00942549988199788,1
0.173212382914049,0.00929058971458562,1
0.203884033859344,0.0124577706265756,1
0.195387563329433,0.0111007547352016,1
0.209006951756026,0.0113910603033593,1
0.183189036335923,0.00820510406169701,1
0.179614549987884,0.00642075583840458,1
0.343977075432008,0.0104852288231487,1
0.488414700623065,0.021402766565076,1
0.479851809538861,0.0211551699419879,1
0.562240394355589,0.0249893673476658,1
0.509312443627437,0.0218216522620297,1
0.520428779229643,0.0226327930574134,1
0.466678978465996,0.0219504169234449,1
0.441147207823961,0.0215510749520143,1
0.302998090366722,0.0158959964864359,1
0.0767864164241102,0,1
0.0540589774075287,0.00695692723775969,1
0.0587013494721219,0.00177580950785894,1
0.190323653507887,0.017586765616709,1
0.192512705084531,0.0146320985476071,1
0.263162107203821,0.0206979981214273,1
0.334108929233052,0.0241974709770988,1
0.513514144083267,0.0334586937289208,1
0.561783285609369,0.0338447984315928,1
0.482452644063739,0.0258622410119047,1
0.428920825902993,0.0222112471647271,1
0.337634108731589,0.0175412570113046,1
0.170194539961491,0.00916159228897396,1
0.172387867745532,0.011082177376661,1
0.151394486552044,0.011157894678297,1
0.148915921169445,0.0109158210836931,1
0.189949503410711,0.0188725073127687,1
0.219845463564455,0.0220565658217451,1
0.261856286743472,0.0281023385959497,1
0.246246770077801,0.0361229401305592,1
0.204952505619265,0.0301056346710482,1
0.172919891543613,0.027277808418528,1
0.190908174706982,0.0427623218135639,1
0.127670759275453,0.0372623974466423,1
0.124614390546598,0.0376355708918714,1
0.0776111098478186,0.0263284304368507,1
0.0711698071053842,0.0275897149422737,1
0.0655421297433229,0.0250709829918151,1
0.0587890849246815,0.0214107909871159,1
0.0588868649142409,0.0194007923824547,1
0.0607230355790157,0.0176433629517602,1
0.076587457998253,0.04164507930235,1
0.0732839724674485,0.0322625375150823,1
0.0658546720684857,0.0290141312243781,1
0.0759613592729517,0.0259295578241115,1
0.0725471403759804,0.0133080621007926,1
0.0693724748351169,0.013534147911912,1
0.0613543748527532,0.0116023762114024,1
0.0570144842823789,0.00979352576321379,1
0.0561050858078165,0.0100428801114001,1
0.0546923779327946,0.00850735701643174,1
0.0729548352519664,0.0147577172386629,1
0.0704364723284303,0.015345865829675,1
0.0830551268358157,0.0187504278969467,1
0.1123493943652,0.0288563984543835,1
0.126105388471021,0.0207522726580181,1
0.123675408943247,0.0126165770282796,1
0.193493036276936,0.0178605551136805,1
0.164134691230966,0.0131768008329957,1
0.131650763378575,0.00858892577845984,1
0.110916991454755,0.00376708556615114,1
0.165647468116824,0.00783102497740713,1
0.187178398113768,0.00902776438424178,1
0.254560516427517,0.0131045117437534,1
0.290750295934668,0.0129458278826081,1
0.364012521244017,0.0221853900761562,1
0.309606643173705,0.0231630778785862,1
0.336927031623067,0.0278938989337854,1
0.294462178034492,0.0262786574648354,1
0.317901967662209,0.0258493873001365,1
0.19920672504926,0.00664023653361372,1
0.213072942908426,0.00359821064215849,1
0.334933311715215,0.0106580439279391,1
0.403503747074989,0.0127120526012928,1
0.357903572741215,0.0111997999421256,1
0.384655640302481,0.0107802951668103,1
0.393133186613793,0.00476683162782488,1
0.518717421202978,0.00905476293914367,1
0.568793898105884,0.0111308437620072,1
0.572366028418214,0.0117609317555319,1
0.545061584931058,0.0164768450466407,1
0.528798306628401,0.025346398405949,1
0.450431396141059,0.0222576620417241,1
0.321455450377678,0.0136244709142049,1
0.367861146203263,0.0155904879344076,1
0.336557022826246,0.0132602822749475,1
0.276653815010445,0.0232382366195179,1
0.253844920315828,0.0222537714675081,1
0.260309518767356,0.0218298237087507,1
0.28505277516255,0.0297114318087408,1
0.319645716526997,0.0276722270326708,1
0.320416617120409,0.0261716757498413,1
0.309439731643684,0.0253499638586036,1
0.30531627896059,0.0274489681550861,1
0.281847269981543,0.0246659747032262,1
0.193108387852562,0.0142441741682622,1
0.194962270161679,0.0130388014970119,1
0.230657810245796,0.0153276506233978,1
0.236236316671953,0.0120160509095448,1
0.248222617396949,0.0119029219373167,1
0.29330618720779,0.0180265183610138,1
0.300472498250853,0.0160784791660629,1
0.261680019488388,0.0129945477676202,1
0.232065564124413,0.0114432735022376,1
0.203461998888458,0.0166372208833397,1
0.187012601715541,0.0226274076342509,1
0.167113972204819,0.0242825141436619,1
0.108668916125689,0.0150542260577173,1
0.0952001818174161,0.0146007028220208,1
0.102536007081631,0.0155235804371115,1
0.0813363439694726,0.0106690989916438,1
0.0709970645985905,0.0137880209068092,1
0.0993251310795026,0.0224702929296143,1
0.140210780056111,0.0340754040463061,1
0.194518230923616,0.0451292517204625,1
0.220019706687942,0.0489131142659189,1
0.240926981832271,0.0580080626646568,1
0.210247072076501,0.052294813848571,1
0.127533077152977,0.0372434731104606,1
0.145062934521943,0.0400296511269467,1
0.138747677679316,0.0531124164907234,1
0.0822922734780425,0.0352982345208305,1
0.0723939668735932,0.0345806584289357,1
0.0676788946718529,0.0341203656095856,1
0.0699887167280051,0.037063904311,1
0.0572342521343497,0.0315189958645191,1
0.0465019488110741,0.0257527883836253,1
0.0424759375503828,0.0308187847448793,1
0.00827880360702667,0.00523142109177286,1
0.00385932004036102,0.043285418449113,1
0.00317287346331293,0.0385676027691924,1
0.00392269341253284,0.046541396466558,1
0.00412798808088945,0.0564384300961694,1
0.00422514101914608,0.0632442815365064,1
0.00550698004978324,0.074540863305177,1
0.00641256425108444,0.0842550179410056,1
0.00468095156530822,0.125904244772163,1
0.00379809399509898,0.140173099461836,1
0.00179427402996608,0.0721002461824093,1
0.00102336839442794,0.0548587841123779,1
0.000870631739008723,0.0555201348488847,1
0.00106933086920519,0.0593993352652585,1
0.00125448312035402,0.0523672768705279,1
0.00161006475952044,0.0487484283013546,1
0.00210930868515244,0.0229513793394714,1
0.00270747067551621,0.016213487349414,1
0.00343891142271109,0.0200192121256527,1
0.00343890686853272,0.0183692303023281,1
0.00357351611670379,0.0185258701723391,1
0.00498249948903289,0.0237198973511384,1
0.00520890611106609,0.0243127258465995,1
0.0060809739927455,0.0272319079395269,1
0.00820170129262364,0.035343567595997,1
0.00681691649525086,0.0281027776424164,1
0.0064650552140093,0.0409576185992612,1
0.00647233175595899,0.0501560250043859,1
0.00439817582791653,0.0376852648965108,1
0.00350239797677448,0.0251774136838522,1
0.00429578064832733,0.0335608162993633,1
0.00444259389958234,0.0338299923204102,1
0.0045358337012289,0.0294031787037911,1
0.011033563330814,0.0394763507022971,1
0.0147052351884372,0.0273184873566909,1
0.0139946538190322,0.0278360763643287,1
0.0138209269723946,0.0261940467200988,1
0.0124088934118848,0.0247227528237296,1
0.0120174885623758,0.0247831464432683,1
0.0136004953582722,0.0325056416778307,1
0.0153988740546433,0.0350863183969244,1
0.0163064198061199,0.029539553042965,1
0.0174907141083198,0.0288317746182006,1
0.0129656774827158,0.0216349202676478,1
0.00946732067930189,0.023659683353852,1
0.00922082830659265,0.0190690512875678,1
0.00774145247714515,0.01405388306615,1
0.00802537015492381,0.011071136470155,1
0.0190593441015828,0.020993022641624,1
0.0240961569212304,0.0113830235111022,1
0.0237719333126772,0.0117215080426975,1
0.023043137910226,0.0129717540561845,1
0.0219809180418004,0.0128935140321587,1
0.023653607262011,0.0179909073514342,1
0.0241628357360991,0.0187219222609552,1
0.025133162801967,0.0213101476925757,1
0.0269193824684213,0.0236599414594328,1
0.0293535613334686,0.03076246582439,1
0.0162364623481299,0.0315570964962676,1
0.00536293878012412,0.124227030092496,1
0.00519135472474543,0.17369275553082,1
0.00231175034538036,0.112725338146366,1
0.00100501272095816,0.13236907360507,1
0.000962290615741953,0.147954469546087,1
0.00118500556727175,0.123444334958911,1
0.00107027625800234,0.112380028684527,1
0.0010418163911736,0.117187703170526,1
0.00116906072852846,0.122263109013114,1
0.00115173503424307,0.118413222656481,1
0.00107057656028794,0.110097800159409,1
0.00112176241843315,0.107839909690905,1
0.00121238973425103,0.109306803518523,1
0.00114889544582337,0.09842508967152,1
0.00116348659570855,0.103973725950332,1
0.000802821948639294,0.13939654662788,1
0.000313730785688245,0.0840609172851935,1
0.000285501511686529,0.107045358758548,1
0.000312447511976484,0.117875213482657,1
0.000315987829503586,0.123358206071405,1
0.000294535140123959,0.123788374325793,1
0.00029399968788167,0.137660406964926,1
0.000283317469500977,0.198384124698276,1
0.000130863669614333,0.175186881506378,1
0.000164346271493803,0.213890183307732,1
0.000176077183065826,0.170618043996773,1
0.000162560983728721,0.188377098543243,1
0.000153714616855668,0.244272545448931,1
0.000147961831239214,0.242778462093024,1
0.000161074538997099,0.282739331324246,1
0.000173931168335247,0.311682285774361,1
0.000182138881867206,0.32682282137721,1
0.000184901557697415,0.342335448762127,1
0.000154783227527047,0.33363729408611,1
3.41048614245356e-05,0.197364337739596,1
2.06282886532049e-05,0.384017885651847,1
2.85288523998775e-05,0.56311111149683,1
2.48059550483616e-05,0.603328205514431,1
2.43266686012073e-05,0.621802295858619,1
2.56423191829326e-05,0.642670648423658,1
2.62175301434929e-05,0.648573522410951,1
2.70130394810766e-05,0.666497981157802,1
2.34887284743231e-05,0.776769121205943,1
7.83420745276109e-06,0.525207915947882,1
4.68433710242005e-06,0.434701855033835,1
5.76036749707678e-06,0.509682676407071,1
5.88403255765968e-06,0.503170473773359,1
5.61305632128159e-06,0.473409943951384,1
8.32913200008737e-06,0.540944550033547,1
7.94462397954447e-06,0.530719439292687,1
8.15950197268528e-06,0.54860985910607,1
5.92656680629736e-06,0.471246601445789,1
8.36925651516006e-06,0.578471276414158,1
8.92195367458568e-06,0.563271084099863,1
5.82703072582087e-06,0.469026155297964,1
6.44142047489716e-06,0.508856697140488,1
7.5337490763689e-06,0.509980609445741,1
7.75399318232966e-06,0.530441639140195,1
7.90296872537111e-06,0.562651757280179,1
7.84867651161047e-06,0.565246310424514,1
7.88186220076834e-06,0.558801493989354,1
8.37893676757053e-06,0.517431468449493,1
9.56846730193551e-06,0.579346008472976,1
9.52373810853125e-06,0.642074401548428,1
9.71682881135099e-06,0.651012699549088,1
9.81688956675487e-06,0.659421747215017,1
1.04527157297945e-05,0.753263866864513,1
1.00209946719489e-05,0.720074059443397,1
3.2583427925575e-05,0.218760266979474,1
0.000518392862010866,0.262732584788829,1
0.00204224716927649,0.336206671043845,1
0.0044438067553604,0.37030957241051,1
0.00474153556274635,0.175349191085165,1
0.0045551773508678,0.14803238862818,1
0.00456057706911686,0.149079149020361,1
0.0045053542184505,0.15028511757873,1
0.00442638290046265,0.144905963042161,1
0.00436076960855344,0.142870046788368,1
0.00448763051330739,0.151060216654184,1
0.00466676859726819,0.194231371530999,1
0.00384531326603173,0.254622779892053,1
0.00119761158415518,0.162409270412021,1
6.65960034573262e-05,0.154840684038932,1
1.0072119816679e-05,0.452763010123123,1
1.04733470956662e-05,0.559530207052669,1
8.63500682530036e-06,0.4711835244731,1
1.44252799734342e-05,0.566598316815277,1
8.3074089824449e-05,0.695394510672739,1
0.000273176761062532,0.616152424953712,1
0.000819682843736039,0.47922559561888,1
0.00100378710246249,0.357684042237193,1
0.00126722402657037,0.257642532270312,1
0.00119152415086842,0.185566012609118,1
0.00112715728343912,0.174603930125558,1
0.00111748940335532,0.169465345661924,1
0.00111495013148582,0.163695844037012,1
0.00112254297125608,0.167262286391231,1
0.00120843939244998,0.1809427552018,1
0.00127293061128025,0.219409349368341,1
0.000916626789212601,0.242393182661032,1
0.000668120303573893,0.274668086348512,1
7.71121364816342e-05,0.186076788364068,1
1.8657075933124e-05,0.482670527811946,1
1.47717774269791e-05,0.403804145447003,1
1.59250803053337e-05,0.449177250960077,1
2.21102141301326e-05,0.524533585402195,1
4.10266149091063e-05,0.226876320262721,1
0.00043717994581774,0.354383078407545,1
0.00103067395106509,0.477081791115837,1
0.0012139175889513,0.435887332643409,1
0.00115355430126814,0.26576446261226,1
0.00114449404410249,0.253583578445748,1
0.00113413447620801,0.248964835015145,1
0.00113911186967132,0.258541336941357,1
0.00113033041574425,0.256935211590725,1
0.00113880266643954,0.257733129793346,1
0.00117591501029301,0.322504299496938,1
0.00101886928872585,0.589734929233287,1
0.000478285439535626,0.420807187866679,1
0.000122206830245499,0.219759854054503,1
4.93834207242783e-05,0.470370128005125,1
5.33777540585775e-05,0.491282108344193,1
4.52018069700976e-05,0.42906179465744,1
3.51842349822454e-05,0.351872019727523,1
4.31819847576025e-05,0.368471661684663,1
4.15267744005207e-05,0.378121508332111,1
3.0485132379642e-05,0.32576280726534,1
2.11485838566455e-05,0.266607575481564,1
2.25204771311741e-05,0.276812230355018,1
4.86004288187749e-05,0.423650965943119,1
5.26219688435125e-05,0.509284998700904,1
5.18220927348845e-05,0.550015998180061,1
6.0450663110513e-05,0.305041725498551,1
0.000121723041923507,0.304520214713657,1
0.000118296557376771,0.254921181760231,1
0.000124100035936984,0.263925137428781,1
0.000121801667248713,0.265633911228909,1
0.000123950136146266,0.273722767861522,1
0.000122801822106666,0.27849218879397,1
0.000111105276906348,0.257144363700208,1
0.000112992521962736,0.25503457124794,1
0.000116071525782321,0.20072645835826,1
0.00126167322620845,0.0568462580967705,1
0.00509382384690647,0.103879026160996,1
0.00555910699832625,0.0697117703243363,1
0.00540379908488643,0.0691225856795097,1
0.00536662746785056,0.0675219293887725,1
0.00528782338917603,0.0657718000408894,1
0.00532923411204104,0.0681392737056453,1
0.00539296668617789,0.0697391207598128,1
0.00540156536467518,0.0681564391939656,1
