Activity,Complexity,Tag
5.23278410137828e-07,0.0925608284085928,0
4.06064070437974e-07,0.0852445653057083,0
4.12841020146616e-07,0.0897498698718675,0
5.23640975436552e-07,0.094625626621014,0
9.63070117489566e-07,0.111106010017852,0
1.74693629333001e-06,0.148573208522879,0
2.63736343184281e-06,0.194378239954093,0
3.45566122555204e-06,0.259035213669965,0
3.82564400601204e-06,0.285283086654311,0
3.33511732785891e-06,0.221285793087545,0
2.3810630007976e-06,0.164845888185421,0
1.52338155151452e-06,0.125637931640591,0
1.01276573443462e-06,0.101166588676225,0
9.11480096858686e-07,0.105098714486906,0
1.04713692475361e-06,0.128811187564362,0
1.15501218663385e-06,0.140753282414579,0
1.15756525061236e-06,0.156941880052431,0
9.96788690270862e-07,0.15303701217476,0
6.18249368760988e-07,0.124836240234464,0
3.09993330408686e-07,0.0981322358237813,0
1.55591876569748e-07,0.0616318922279732,0
9.98263122485672e-08,0.0502453349358356,0
1.08092801059465e-07,0.0556910906795133,0
1.36255060637822e-07,0.0645005453457497,0
1.59456218378643e-07,0.0744511788546202,0
1.62299334596134e-07,0.0722282563602615,0
1.86712064710191e-07,0.0688681842125432,0
4.254008863699e-07,0.0790689874600105,0
1.48468072725327e-06,0.0886045679612322,0
4.30698871797499e-06,0.112594417939225,0
9.72554825704176e-06,0.143601841121889,0
1.63992423899849e-05,0.192794235347983,0
2.18594002543252e-05,0.232852149019383,0
2.39946832604956e-05,0.203421766076114,0
2.18545811572297e-05,0.12905006412235,0
1.72137543977e-05,0.0898300438684999,0
1.30486193528506e-05,0.0674734141998387,0
1.20334697515769e-05,0.0626349928052268,0
1.54319181729903e-05,0.0787268027623204,0
2.11238761183146e-05,0.129749546847898,0
2.51621284154982e-05,0.229308692429195,0
2.53359180486863e-05,0.317609001984518,0
2.11767049037161e-05,0.312467917196851,0
1.40874021688461e-05,0.219308026585945,0
7.55245271159201e-06,0.165794452040927,0
3.53652537267736e-06,0.130803880625268,0
1.32555383902096e-06,0.0951829465953057,0
4.44858557401401e-07,0.0761346844439175,0
4.16587528233427e-07,0.0963914765513855,0
4.97321756126707e-07,0.105280008443488,0
5.0034313361607e-07,0.0999535680904969,0
4.78223629016441e-07,0.097723963999274,0
4.80036455510059e-07,0.0915934304828446,0
6.08508447735281e-07,0.0991150625431495,0
8.14397195370461e-07,0.120485148292661,0
9.32928855655677e-07,0.130326315823352,0
9.44700142354237e-07,0.133441627778906,0
8.28235104271745e-07,0.13759608662379,0
5.36793031647751e-07,0.113739268026224,0
2.488889920638e-07,0.0814169304883877,0
1.04660516231549e-07,0.0570927369994523,0
5.80104477957776e-08,0.0451563943403251,0
5.23816215330935e-08,0.0465747024490486,0
5.17773460352208e-08,0.0463414070064529,0
5.82521579949266e-08,0.0454125022458761,0
1.06959784500954e-07,0.0599332057796962,0
1.91304558494023e-07,0.0768160585149234,0
3.20991144469969e-07,0.100671064563052,0
4.92016217255385e-07,0.124310926449017,0
6.31081158958315e-07,0.137757489233325,0
6.71881840574678e-07,0.149668560493764,0
6.27676066527802e-07,0.147749053706221,0
4.79770574290995e-07,0.131904179990805,0
2.85414424532715e-07,0.0972202357522645,0
1.49561207100978e-07,0.0674448579897849,0
1.50165482598851e-07,0.0651304179215332,0
2.70449541827898e-07,0.0885688942057186,0
4.49390623635446e-07,0.109873382029846,0
6.11285093648006e-07,0.138491981843643,0
6.60110553876118e-07,0.155483218841854,0
6.32063106642358e-07,0.15215687302268,0
5.1358885252944e-07,0.133878993192052,0
3.55667493915392e-07,0.105322359541439,0
2.0394600190952e-07,0.0830697288905258,0
1.49573292610936e-07,0.0749962882784416,0
1.52884722339278e-07,0.0763613690352513,0
1.80210060353081e-07,0.0848448319290799,0
1.80895913043166e-07,0.0826514986423065,0
1.78699371608399e-07,0.0756656437154812,0
1.92235142760747e-07,0.0744026845121544,0
2.14653763731824e-07,0.0761859965380833,0
2.58605742069593e-07,0.0848479549973303,0
2.84227023179395e-07,0.0888834470130248,0
2.84967260664289e-07,0.0835813960137224,0
3.02862879533789e-07,0.0838291158730092,0
3.52292615259774e-07,0.0881410264599681,0
4.12421048675595e-07,0.0940810638252598,0
4.47469027552211e-07,0.0992648832353935,0
4.47118547763444e-07,0.0966366002604966,0
4.68268190188988e-07,0.092490935306422,0
6.11638594814261e-07,0.0993701579068235,0
9.56060521714243e-07,0.123440039071251,0
1.47073404876236e-06,0.156917353600998,0
1.97909893961269e-06,0.207185449704037,0
2.20753924882848e-06,0.239415660663888,0
1.98481840720006e-06,0.207485776044033,0
1.41345175294152e-06,0.149572884173127,0
9.09966386736515e-07,0.113974237138579,0
6.75096586223361e-07,0.104454495676749,0
6.80148329385577e-07,0.11147044541156,0
6.99606000417077e-07,0.107150030360101,0
7.11102341764105e-07,0.0994501188178453,0
8.58675482477082e-07,0.102226184240338,0
1.13312834947839e-06,0.11743686415505,0
1.36294640682932e-06,0.126678728383106,0
1.45901412548112e-06,0.127905361161695,0
1.45086547039231e-06,0.13548357402115,0
1.29459982664243e-06,0.125584235994251,0
1.05479913806664e-06,0.110347879057049,0
8.26141289671617e-07,0.100688677135388,0
7.69774471230053e-07,0.104257202903263,0
9.70321423464038e-07,0.13865673077137,0
1.18075432284322e-06,0.190403716043155,0
1.15790364489117e-06,0.195794543326031,0
9.33306527841848e-07,0.177426449416298,0
6.910494593672e-07,0.154556982476122,0
4.5103123161217e-07,0.113592927239872,0
3.0262116933464e-07,0.096149634523661,0
2.36274741045708e-07,0.0869399951621509,0
1.97601109181857e-07,0.0796829428760913,0
1.73789633188184e-07,0.0708492460853878,0
2.46136517170991e-07,0.0891567511921425,0
4.22026007714282e-07,0.114858765523161,0
6.6138255379914e-07,0.15824351405263,0
9.16806785372434e-07,0.178140230251638,0
1.05393200272719e-06,0.182140042412075,0
1.13252407398051e-06,0.191457552884894,0
1.11512093964178e-06,0.185568291368813,0
9.72572349693615e-07,0.157624912247652,0
7.04878304136016e-07,0.12010677458418,0
4.52605369284128e-07,0.0904189080292656,0
4.61669501752219e-07,0.0829275125241761,0
9.69185385528038e-07,0.117849358292829,0
1.79742048979978e-06,0.180845112556884,0
2.58329286029317e-06,0.234924879066151,0
3.07662337675642e-06,0.284418072020697,0
2.97784548249666e-06,0.24130775575401,0
2.40787168326072e-06,0.194466585953507,0
1.69307419682713e-06,0.153338922461363,0
1.0649509664309e-06,0.117698260296854,0
6.38673880589085e-07,0.0896825430558009,0
5.16534695581569e-07,0.0930510429709479,0
6.41368949309597e-07,0.11642353513602,0
7.91072161152576e-07,0.148670021974381,0
7.99988246123687e-07,0.154625726952094,0
6.23829852983842e-07,0.146872677843333,0
4.23113703610452e-07,0.126109692194987,0
2.98503031816637e-07,0.108719172872315,0
2.35900090237027e-07,0.0950824698499917,0
2.86402414971737e-07,0.102226883256928,0
4.18391290594577e-07,0.12078116560634,0
5.93329047228719e-07,0.155873826870566,0
6.67775788566633e-07,0.155481894330401,0
6.17270442454434e-07,0.127342275455137,0
5.26339065534553e-07,0.102513079919715,0
5.53326009269547e-07,0.0939280131816482,0
7.89380189758532e-07,0.110827901568721,0
1.15827527432236e-06,0.135929952607681,0
1.45350011156304e-06,0.160827504423196,0
1.57266323974353e-06,0.17249531908063,0
1.46415953134551e-06,0.172019693233307,0
1.09385950624913e-06,0.138104064884152,0
6.58877831860458e-07,0.110965800785623,0
3.4177822159679e-07,0.082485983729848,0
2.14750447811483e-07,0.0694827535254451,0
2.0470436765935e-07,0.0694487922124003,0
2.67394929186151e-07,0.0763785359138848,0
4.72800256423033e-07,0.0969410468441349,0
8.95829361463784e-07,0.13306075913066,0
1.44290414070784e-06,0.173269741498226,0
1.86734725041361e-06,0.224668111430615,0
1.93003176918543e-06,0.228418763062749,0
1.59731768005673e-06,0.182340640894907,0
1.13569047758937e-06,0.127996210318136,0
9.20326690147542e-07,0.10264487467705,0
1.15718757842619e-06,0.115357071600045,0
1.874196713182e-06,0.153115865752344,0
2.92439429333234e-06,0.221711838965689,0
3.96252751316765e-06,0.295544159310088,0
4.36317425376719e-06,0.326515208137005,0
3.92874851283657e-06,0.28080410321245,0
2.94944453409665e-06,0.216216920727971,0
1.81592340554464e-06,0.160782590572143,0
9.73237052741275e-07,0.10974360048546,0
6.1183196297358e-07,0.0944014740220184,0
5.95066339285103e-07,0.102316242301943,0
7.71152219365202e-07,0.124224995504738,0
1.02477873133232e-06,0.160219921808921,0
1.18430746277071e-06,0.200097292262326,0
1.22909636267304e-06,0.197644896437433,0
1.16214263750874e-06,0.198214847230823,0
1.05060848748889e-06,0.190692075870621,0
9.21958233991799e-07,0.181084121415735,0
8.12753566016247e-07,0.170817987732267,0
6.13943905838645e-07,0.129758613703957,0
4.01471576654142e-07,0.0931086881926965,0
2.8937545042127e-07,0.0750941802648732,0
4.34594938070033e-07,0.0884974262356665,0
9.52265671587603e-07,0.139214247567107,0
1.53060566509159e-06,0.189745490594442,0
1.97084755768924e-06,0.207529906509911,0
2.26161284175562e-06,0.248756985568969,0
2.28536993295449e-06,0.263139873316378,0
1.9100423357158e-06,0.239303484535986,0
1.48040547810582e-06,0.212020151583772,0
9.95534818612776e-07,0.180878655020934,0
5.1225944643412e-07,0.122255461957466,0
1.99628453477219e-07,0.0783785474445441,0
1.25378101676114e-07,0.0638353040101425,0
2.16209773138846e-07,0.0763115724988905,0
4.82323638269507e-07,0.115062762084986,0
8.57201050262273e-07,0.160056289652765,0
1.28197349011439e-06,0.188080864650754,0
1.68375324727244e-06,0.222685256714551,0
1.80555101662366e-06,0.230618043165671,0
1.56746647046182e-06,0.205790204641505,0
1.18775485448608e-06,0.165184882155595,0
7.48020553306636e-07,0.124650087889217,0
3.97468251480736e-07,0.0879086547814626,0
2.51333286452695e-07,0.0764643096232241,0
3.34647770721892e-07,0.0873700728292438,0
6.16699402108945e-07,0.115897389749238,0
1.08610060885644e-06,0.171236357511231,0
1.53401377889959e-06,0.219160603600117,0
1.86955587735833e-06,0.244602588843855,0
1.9032261080998e-06,0.210828386772884,0
1.58754352387864e-06,0.172120779176478,0
1.15621167349712e-06,0.137811501237003,0
8.25370838411829e-07,0.113336270152653,0
6.1055089891809e-07,0.0960411470347551,0
4.98820359361431e-07,0.0873946768562492,0
4.77574032856228e-07,0.0887586156624296,0
5.34073791907324e-07,0.10186129132622,0
5.38847568340518e-07,0.112679658287194,0
3.91498009561754e-07,0.103302365833614,0
1.94697565414578e-07,0.080641618235984,0
8.39217811445581e-08,0.0528491250100849,0
2.7119884344526e-08,0.0335540842538141,0
2.46302692932905e-08,0.0321493234548462,0
3.16640360885286e-08,0.0369569309361731,0
3.33560074825721e-08,0.0411750996587432,0
4.96714459251345e-08,0.0478734210507595,0
1.15117503722235e-07,0.0685050067353662,0
1.87316340208064e-07,0.0886471665190383,0
3.36557281295169e-07,0.102487003679395,0
7.11764023434275e-07,0.13350783846648,0
1.16618221921202e-06,0.173678539766816,0
1.84175920445619e-06,0.197153154731239,0
3.42073108039751e-06,0.18939971038214,0
6.92956552838486e-06,0.18898796301957,0
1.40504688504161e-05,0.157532043795439,0
3.23329841715611e-05,0.0794400571399498,0
8.88138052285535e-05,0.0421081224239512,0
0.000231983659880215,0.0367469581684037,0
0.000487386379245784,0.039224286365676,0
0.000848060431623039,0.0454864323907035,0
0.00123435106988948,0.0664741476242372,0
0.00146452746261065,0.0631055311281815,0
0.00143802473691762,0.0394870207112601,0
0.00120947009877763,0.0269429187904726,0
0.000878574471011566,0.0194106906167347,0
0.000538973789406514,0.0150098064489683,0
0.000276287809978145,0.0115203725356601,0
0.000141742462262984,0.00863965198927654,0
0.000128157503085109,0.0100794375424716,0
0.000184381751787082,0.0179266911223856,0
0.000230253187072824,0.0215909052656728,0
0.000241673265830643,0.0199503760179947,0
0.00024237301685718,0.0181020730772092,0
0.000250175712137951,0.0175133447118457,0
0.000270171575098876,0.0176321025099225,0
0.000306112506985586,0.0184907151141565,0
0.000365279417229192,0.0229842137053328,0
0.000432339395175654,0.0380562548281894,0
0.000452857207140622,0.0736357386075466,0
0.000377940581175562,0.0830283713946741,0
0.000247566223934825,0.0588972952918997,0
0.000130621705330281,0.0448275250976092,0
5.75657161362307e-05,0.0470625031031985,0
3.14510319969059e-05,0.0928423964304068,0
3.55656012680933e-05,0.143102797138003,0
5.67734867874997e-05,0.149861049702162,0
8.38725931190313e-05,0.190090202924815,0
0.000111151030290067,0.243071879111768,0
0.00013930363052459,0.279642733942982,0
0.000155788571265683,0.355764461598691,0
0.000145639897219521,0.15145747942834,0
0.000116327266290354,0.0660415433803847,0
8.26305803675912e-05,0.035518402415705,0
6.48259653880714e-05,0.022348029048832,0
9.2005310441588e-05,0.0256092128836455,0
0.000154589253599545,0.0413507546490745,0
0.000222234596242173,0.0626344931916454,0
0.000279466879201433,0.0985896887504144,0
0.00030696431487703,0.167705001571025,0
0.000281192354650456,0.166223209921178,0
0.000213601575063908,0.118728549649682,0
0.000133711640896256,0.0670377500604838,0
6.64151857764566e-05,0.0324893279726914,0
3.95568922949597e-05,0.022479349038201,0
6.25319422299874e-05,0.0353573022965703,0
0.000117008151835847,0.0541474437265854,0
0.000172267318182923,0.0755376797867479,0
0.000194590826190634,0.0699227328203991,0
0.00017558309869485,0.0483175222308468,0
0.0001410015389254,0.0292260909174764,0
0.000114629345804034,0.0250610091632859,0
9.76782488156168e-05,0.0236432611739369,0
8.76260866305974e-05,0.0223065892419501,0
8.55248515273546e-05,0.0251799818535175,0
8.41904178598924e-05,0.029665542809438,0
7.28578019376357e-05,0.0310713338789668,0
5.06984030696367e-05,0.0253404516927693,0
3.30748532002994e-05,0.0209640277580046,0
2.82007428634384e-05,0.0224576881069428,0
2.93374303955993e-05,0.0326717032718292,0
2.60375544147763e-05,0.0329179071673606,0
2.14052418970116e-05,0.0298359593185811,0
2.57565663082655e-05,0.0508285154455161,0
3.17247687974423e-05,0.0984184351034212,0
2.94115145716384e-05,0.122802287580587,0
1.8516137292755e-05,0.0480594735575992,0
1.32838033766226e-05,0.0170314157934574,0
3.03787451259309e-05,0.026215964783568,0
4.36586056049299e-05,0.0223918621686729,0
4.99689216886048e-05,0.00890514434868539,0
0.000152958298923899,0.00704290004709888,0
0.000568656892579293,0.0086483378070531,0
0.00145762006492891,0.0129207992836012,0
0.00254017872504008,0.0209118612124031,0
0.00331245711754378,0.0234357289102795,0
0.00351482613262237,0.0195429319649377,0
0.00315783166179916,0.0131550832653062,0
0.00253868396499752,0.00855975016408868,0
0.00214285323968847,0.00645524511058289,0
0.00231551172655081,0.00678126981011615,0
0.00308586938708524,0.0101878345166424,0
0.00408205294076564,0.0206029919941912,0
0.00461848331043059,0.0501114787812854,0
0.00430293269997817,0.0662516659880274,0
0.00332490577290444,0.0444088701276469,0
0.00212153320063666,0.0274093074915834,0
0.00112046621566984,0.0234881209876229,0
0.000514479482100244,0.0238834592752136,0
0.000204381941360572,0.0229626004964915,0
7.08814101522535e-05,0.017936278916022,0
6.21984304972015e-05,0.0167419821552742,0
0.000167084326382569,0.0243193914920467,0
0.000388684034530148,0.0344451910518006,0
0.000695404593735468,0.0517177020118261,0
0.001018990134628,0.0744385037540007,0
0.00127897809647143,0.105728193592086,0
0.00140421830247893,0.122022378993135,0
0.00135584060133061,0.117418039208237,0
0.00114676926456736,0.0882358628688955,0
0.000825057920388011,0.0518787096487407,0
0.000480141892520305,0.0282096716883365,0
0.000223781828547589,0.0150723382249725,0
0.000127587260383276,0.0125483732450995,0
0.000178853099295058,0.020629526582618,0
0.000298536847073498,0.0414123154816795,0
0.000389161146292248,0.0545223307612977,0
0.000401009079294958,0.0418300455964123,0
0.000351543933024797,0.0302577528706755,0
0.000269020551130528,0.0219667824915758,0
0.000192343782431132,0.0152462266003841,0
0.000176470456113833,0.0143779066907142,0
0.000247814348518384,0.0212964319853754,0
0.000382673629440199,0.0446937059507303,0
0.000497229036094314,0.110805693564129,0
0.000484198463429207,0.0624935631373104,0
0.000365510540521618,0.0220860441711953,0
0.000276349557869895,0.0135238758918875,0
0.000300486569159782,0.0125290039690713,0
0.000449230989155795,0.0165413359967511,0
0.000671561502047746,0.0245608306135608,0
0.000867353096165713,0.0347636727405163,0
0.000956228727841831,0.0457648743298499,0
0.000889139599645352,0.052874620645564,0
0.000637982640782936,0.0252456398634234,0
0.00039710638714159,0.00759830469318101,0
0.000581984137321458,0.00493209316811053,0
0.00166060173680653,0.00553151338085308,0
0.00406129841293852,0.00827289915971352,0
0.00747736488531428,0.0164528870566651,0
0.0106683983253607,0.0285860082453867,0
0.0123741770912432,0.0304250721405251,0
0.0118999505633625,0.0191778117885655,0
0.00958016729791583,0.0102286975454048,0
0.00681578279672437,0.00654025460119027,0
0.00481097858170766,0.00578670223599107,0
0.00377709287779583,0.00597912936541457,0
0.00341812954445994,0.00675173422412432,0
0.00339102596044697,0.00743907829386798,0
0.0034573881724119,0.00748756001542107,0
0.00351183975174847,0.00772757595180323,0
0.00344695958889099,0.00742975346326365,0
0.00334799418794424,0.00714160800464837,0
0.00334935126985737,0.00708619454384262,0
0.00344494522141195,0.00704075345071274,0
0.00365024209328247,0.00679289783753954,0
0.00400303555926728,0.00720018893311756,0
0.00441587183887261,0.00867370514568689,0
0.00456513810212446,0.0106918844912218,0
0.00409796728530374,0.00981357347216203,0
0.00319170459977777,0.00660060785557316,0
0.00250358188835696,0.00511618320749505,0
0.00244516876647629,0.0063028739575712,0
0.00274267216950782,0.0115034521961594,0
0.00273365239086127,0.0135851579441142,0
0.00224150550205085,0.00939481739108048,0
0.0016859585416378,0.00552128199240677,0
0.00154462840978216,0.0048038597478189,0
0.00192572558113249,0.00844328971138492,0
0.00237166913029721,0.0166065114815926,0
0.00237184241233898,0.0144610125939427,0
0.00198372587709991,0.0094857705434421,0
0.00160116631372406,0.00652160510139887,0
0.00158165278044416,0.00672384106603322,0
0.0018559605246419,0.0108653302786471,0
0.00199515386582399,0.0104914811789494,0
0.00197298541188766,0.00762967843010072,0
0.00213753863668468,0.00680645187263088,0
0.00265477137621451,0.00743475161812829,0
0.00342624930007306,0.00898346581215284,0
0.00416573078797722,0.0118985930420415,0
0.00447453708261926,0.0139195317435615,0
0.00412177216260898,0.0147647784143325,0
0.00310412876469757,0.0129724856331592,0
0.00178424010817462,0.00734178039807285,0
0.000982897532612705,0.00435283723733686,0
0.00133942483804851,0.00590630457742247,0
0.00290622426087374,0.0124314968769843,0
0.00540049256277296,0.0202175327039396,0
0.00829992085134539,0.0374260587110543,0
0.0102628146539435,0.0414691151070419,0
0.0103162650364001,0.0211758638029759,0
0.00895361155816109,0.012434869091952,0
0.00707970020804021,0.00876844542379313,0
0.00528369636661075,0.0071273571187405,0
0.00397680238878833,0.00651994374647779,0
0.00328327206125773,0.00643324848790268,0
0.00308735289551803,0.00726069656211103,0
0.00304151001527094,0.0104607615988628,0
0.00253561632417604,0.011167960342159,0
0.0015853983458612,0.00697954320629142,0
0.000905457379655469,0.00530709715141938,0
0.000784746605240844,0.00660013910343317,0
0.00088557599064486,0.00999802120450653,0
0.000899535745657536,0.0101928421103494,0
0.000857196835440675,0.00895787514695291,0
0.000876196305511781,0.0127668826622368,0
0.000836070502942461,0.0115144450153058,0
0.000915014431732684,0.00482233038362221,0
0.00192820920177079,0.00362615228147708,0
0.00475631586851214,0.00475699421892296,0
0.00942729089947154,0.00941500571686297,0
0.0146623538687784,0.0198924881121614,0
0.0187542416349821,0.0308859916615557,0
0.0204574378331349,0.0341339858694754,0
0.0190689221763376,0.0256192704706686,0
0.0150828298040924,0.0162274092652407,0
0.00991530223554411,0.00867496564503345,0
0.00530334595554037,0.00556633388966674,0
0.00243020811369996,0.00498819445253072,0
0.00125808217724193,0.00573536068460277,0
0.00103430003447109,0.00960023594327669,0
0.00101760668213215,0.0141695548545196,0
0.000868611826198802,0.0161238674854727,0
0.000603340901216653,0.00981599449312276,0
0.000624407757898988,0.00625306726054213,0
0.00108970148956965,0.00953992971361321,0
0.00171763204974475,0.0131725082404785,0
0.0023662591937695,0.0155850022037161,0
0.00278806043516959,0.0150719312095908,0
0.00283454474177216,0.015390904627776,0
0.00254610330488107,0.0154622032519425,0
0.00195481064493054,0.0145510986880478,0
0.0010736252686898,0.00936455460525394,0
0.000383897045613192,0.0056656815410733,0
0.00020952976432695,0.00925179064127882,0
0.000222884092696929,0.0123367389275616,0
0.000218512923878325,0.0125353509102509,0
0.000182701004810412,0.0106032733876839,0
0.000164030212268108,0.0123785327480777,0
0.000157204944690656,0.0181893717161221,0
0.000129386215732841,0.0135262467932481,0
0.00016215575873784,0.0128074657294368,0
0.000274266100551799,0.0194767343734302,0
0.000330790731582388,0.0149882601062291,0
0.000334942043825223,0.00958864309325784,0
0.000425609557806203,0.00819298587388453,0
0.000679313704067915,0.0105179013554279,0
0.00111836771189185,0.0119082604344465,0
0.00181866790400088,0.0142898024046656,0
0.00273656286868989,0.0199377944951526,0
0.00375970618881477,0.0330238813201648,0
0.00470877040881464,0.0975550656594106,0
0.00492250004194206,0.142319220954346,0
0.00407652783234942,0.0281400771408501,0
0.00282356234580021,0.00849665865261198,0
0.0023788416870888,0.00374624542367826,0
0.00373375555338761,0.00436351412738267,0
0.00677108216938677,0.00723579347199525,0
0.0107305233091925,0.0113327534548848,0
0.0143599394825192,0.0166150761367334,0
0.0163352982951943,0.0225163098345205,0
0.0158823135859236,0.0314543152326247,0
0.0128148143612991,0.0250627755770441,0
0.0081454713938609,0.0115229588636312,0
0.00390735406632132,0.00599751980768523,0
0.00157515522657609,0.00422210212786491,0
0.00119479121060182,0.00678106762759062,0
0.00161801676560693,0.0171615814835855,0
0.00179797504853107,0.0175487906307471,0
0.00166481013193427,0.0172238135107672,0
0.00144808251584339,0.0162230919746949,0
0.00119069779701582,0.0130750787752278,0
0.00134264456594867,0.00684697099299749,0
0.00315232701112991,0.0075858152631582,0
0.00658099313824912,0.0132587737985385,0
0.00962034159661524,0.0170128570359933,0
0.0106897657486757,0.0119051343362354,0
0.0103686616288586,0.00706323611535216,0
0.010426544211959,0.00633078506349304,0
0.011200935036791,0.00711885270006306,0
0.0118045731448685,0.0075975394643546,0
0.0116235810915936,0.0066455066966014,0
0.0115951430497422,0.00657690429287332,0
0.0117839672295359,0.00796119250360909,0
0.0109332828675254,0.00774112203864147,0
0.009226329550208,0.00624747063950485,0
0.00806128395810059,0.00582657881206927,0
0.00795832734468279,0.00820107607623993,0
0.00743469208267107,0.00999563426023287,0
0.00563717469125245,0.00808141163090419,0
0.00362549069394425,0.00547722194306982,0
0.00274785171693783,0.00591629324708092,0
0.00281437873900206,0.0104685985759437,0
0.00251960574272216,0.010449571724592,0
0.00188462938462665,0.00671775758836873,0
0.00189044589885897,0.00502631459799341,0
0.00359310083838421,0.00666786157248956,0
0.0070073798729014,0.00988575373400726,0
0.0102420263924367,0.0135320477431771,0
0.0115062242274748,0.0111760707584946,0
0.0112057471242907,0.00791762015049969,0
0.010693433966829,0.00642841003582829,0
0.0109648187367808,0.00503232624852966,0
0.0129362881664704,0.00643031433911896,0
0.0154886084510418,0.00847319353136577,0
0.0171361390773614,0.0110040794592401,0
0.0166665921193638,0.0143944598363762,0
0.0129867725563083,0.010911816041395,0
0.00793283937883333,0.0049391228620504,0
0.00492352550048333,0.00341441551514349,0
0.00495968594753015,0.00624936082357606,0
0.00612223460983142,0.0150904723524753,0
0.00618990989130359,0.0215944901525834,0
0.00472370954031912,0.00944540589392187,0
0.00331592756841215,0.00755116931203031,0
0.00259888787242303,0.00822714411475496,0
0.00210643119573587,0.00697887247775846,0
0.00190137936966524,0.00727473951478886,0
0.00193163535018102,0.00896992127354873,0
0.00187058626376629,0.0102688432522903,0
0.00152424506422236,0.00863266146554023,0
0.00109941990435443,0.00759108036629579,0
0.000931441144486802,0.00636332737267113,0
0.00143420522328653,0.00817579660805185,0
0.00264310881076353,0.0103231565884415,0
0.00462521100262203,0.0134195669963385,0
0.00676578436524182,0.0178217464985985,0
0.0078898438205612,0.0151441320636562,0
0.00784318475144188,0.0105985420111117,0
0.0073691106188204,0.0078613486323164,0
0.00676311866431051,0.00747513449923904,0
0.0059557278257987,0.00632192018383344,0
0.00547418402016608,0.0061247650311309,0
0.00549602437063534,0.00757365258182534,0
0.00545075980923211,0.0101334872302251,0
0.00466768008586664,0.0122905530341229,0
0.00307229520818225,0.00843813923996861,0
0.00172223585556591,0.00520205397904909,0
0.00174728749824937,0.0047328552091973,0
0.00411745669590577,0.00610094397377263,0
0.00907136383599466,0.00883479893988696,0
0.0155980110192429,0.0113626225546534,0
0.0229976653836353,0.0161416243060715,0
0.0291483670224138,0.0320615494052059,0
0.0299763864728458,0.0348896915232443,0
0.0245836710475215,0.0140991094306443,0
0.0169176392209407,0.00647444151126945,0
0.011162446261866,0.00329810003522298,0
0.0103276867376376,0.00285802030050198,0
0.0145191654719331,0.00655567471025482,0
0.020175835531944,0.0114561362375113,0
0.0243772584323075,0.0175924429347474,0
0.0254783327221201,0.0303356039287723,0
0.0221852555174367,0.03225783314429,0
0.0155317108422005,0.015584915851196,0
0.00858317932967128,0.00720188515968199,0
0.00374157954333692,0.0030841012007418,0
0.00223008477067549,0.00247265261061286,0
0.00364811132421427,0.00728389490351352,0
0.00591670182880653,0.0163552816607867,0
0.00715372297458193,0.0160939402133474,0
0.00718285470959805,0.0133596625686378,0
0.00630550604164769,0.00961542292095957,0
0.00523369233047296,0.00574106034034496,0
0.0051102038919414,0.0053213864309564,0
0.00628782480461795,0.00606375869600115,0
0.00880302804985832,0.0103200664167457,0
0.0115713609566446,0.0248615221523199,0
0.0124413668826735,0.051626074214266,0
0.0107798987719146,0.0406489437056804,0
0.00806473173655227,0.029712925103614,0
0.0051985860390108,0.0211200809301686,0
0.00265261909191721,0.0136467515198257,0
0.00111810772840165,0.0143726913660374,0
0.000464284781935992,0.011475848202079,0
0.000169910791788716,0.00798928910539354,0
0.000140080124539356,0.0179513437810514,0
0.000205186506993593,0.0469617453755394,0
0.000220828178256027,0.0448760309826666,0
0.000282210048251576,0.0229719007364287,0
0.000697793793305844,0.0123671436342629,0
0.00192809808759224,0.012089202931288,0
0.00441929590857514,0.012876466984713,0
0.00861388067935726,0.0156824987475556,0
0.0135062247151433,0.0273483912579925,0
0.0166442542054282,0.028040652795029,0
0.0169838586818834,0.0195398874669456,0
0.0148918059073962,0.013039666810564,0
0.0111951735811206,0.00672097869998503,0
0.00831578245471803,0.00394495420979621,0
0.0081487971902392,0.00503824993140814,0
0.00975574262562778,0.00786477493391929,0
0.0112930078145919,0.0115864233902329,0
0.0110942303743838,0.0124329523791183,0
0.00902157085818139,0.00778022138926395,0
0.00685394489729376,0.005792578036552,0
0.00569100231988093,0.00588051090350879,0
0.005364513250328,0.00625978133388263,0
0.00548709536927546,0.00909972429794674,0
0.00536723585890433,0.0158200837920624,0
0.00465480732881193,0.0144479626228539,0
0.00444081273296421,0.00907807990445987,0
0.00685988229079668,0.00719131562915048,0
0.0138865956198582,0.00901608884288612,0
0.0248459700761134,0.0131250500068328,0
0.0368026705534763,0.0157850679306881,0
0.0479598855419297,0.0200726413071187,0
0.0556874836845376,0.0299072221654464,0
0.0570431221436286,0.05272713258578,0
0.049495680749168,0.0383986752753988,0
0.0345999871658646,0.0128363694390884,0
0.0194617063832752,0.00339654184776947,0
0.0145064906725101,0.00112519688734373,0
0.0264420721351511,0.003355844865925,0
0.0494454065988613,0.00994561400193634,0
0.068824263521098,0.0147292750542743,0
0.0753501660949281,0.0129254168586301,0
0.0694955382128448,0.00873410763934132,0
0.0580734642793369,0.00657361862923191,0
0.0471858975422515,0.00590760120472878,0
0.039518064669528,0.00551615138867977,0
0.0361812981046382,0.00585173759784848,0
0.0356849306928908,0.00676050161929661,0
0.0350766099814672,0.00720746032680315,0
0.0329770266078918,0.00578631538050878,0
0.032725432706481,0.00517457571145784,0
0.0367788224432805,0.00625402234777076,0
0.0422437302997704,0.0114704521996326,0
0.0412449198879877,0.0152431529785715,0
0.0313418309092627,0.00786714400784173,0
0.0202047947191131,0.00322115127992457,0
0.0155770913036443,0.0025012417736637,0
0.0188756527405278,0.00517809322420827,0
0.0252740508487819,0.013859651316366,0
0.0280068938367848,0.0201465906777069,0
0.0248024124932862,0.0122350738052437,0
0.0183828361271403,0.0074033096914071,0
0.0123541206164285,0.00384537672766557,0
0.0100390831011174,0.00269451083517454,0
0.0129309185713749,0.00456889505806566,0
0.0187553174055014,0.0126896611885838,0
0.0231531494786058,0.0259963711442724,0
0.0232769305043121,0.034714846786295,0
0.0185867467396553,0.0172039414714592,0
0.0117323290602334,0.00583324348578536,0
0.00666605306927254,0.00307602068779457,0
0.00504678906997387,0.00274546958655397,0
0.00614318005548072,0.00632058316204762,0
0.00796788304318289,0.012495691783954,0
0.00865461868551899,0.0158237504596887,0
0.00778774838130505,0.0133199555474745,0
0.00607351071622899,0.0068846031609051,0
0.00563345864167211,0.004582162939459,0
0.0075553270084252,0.00699521633210767,0
0.0108477527557798,0.0114546336286329,0
0.0141562425780767,0.0192634139552685,0
0.0154550285685514,0.0287875046445297,0
0.0133894440307331,0.0218538885491039,0
0.00951399616692746,0.0130280722920428,0
0.00589283601636009,0.00794642190164473,0
0.00349563754547007,0.0042964389902448,0
0.00340528587420632,0.00587222339508022,0
0.00497521651972092,0.0171860152904937,0
0.00628188936896765,0.029451213014239,0
0.00639888796116512,0.0300865108609013,0
0.00516626375353693,0.0189132734365269,0
0.00341285674221371,0.0146119064042593,0
0.00203453079883293,0.0120086650685266,0
0.00107503835485607,0.00832409102417434,0
0.000559155914246904,0.00651619382043256,0
0.000487362208225869,0.00939732417691203,0
0.000501001286317334,0.00786123560015986,0
0.00067370201505835,0.00526593086142334,0
0.00143649276861128,0.00627802726539592,0
0.00309792734207999,0.00836565545290314,0
0.00572587580816478,0.0120728848201451,0
0.00841468669996301,0.0155650834458458,0
0.0102346996728801,0.0201735334124518,0
0.01133420214846,0.0286975589202139,0
0.0112182663801792,0.044202665019609,0
0.00907875905320033,0.0398673922582353,0
0.00603225984936671,0.0294786272584298,0
0.00376482723029108,0.0297091652447495,0
0.00219273800392849,0.0228007102861586,0
0.0012786222295666,0.0295925080082469,0
0.0010223422925249,0.033494425631274,0
0.000994852594597055,0.033433951520568,0
0.000769630958820685,0.0271975376899381,0
0.000533251992337104,0.0243280093976343,0
0.000397054927040191,0.00857096778243178,0
0.000740053712629623,0.00402708739519429,0
0.00252883593009707,0.00644975006658532,0
0.00572983630531227,0.0107460721573059,0
0.00951682436962566,0.014867123486577,0
0.0128279721430207,0.0189689455778226,0
0.0140819590515508,0.0195503720394871,0
0.0129005314207768,0.0153361032789105,0
0.0101198893737569,0.0113046552427535,0
0.00665596159896639,0.0069343724946342,0
0.00396724979626429,0.00311742256571807,0
0.0036321799844278,0.00409387956777507,0
0.005276614188284,0.0107934631641122,0
0.00714409609544955,0.0331372683574773,0
0.00743133564952502,0.0418378094108061,0
0.00574243049438384,0.0107885490015746,0
0.00401661223987083,0.00360695341935879,0
0.00439206611558168,0.00238185007246412,0
0.00783561284105926,0.00452092377278354,0
0.0132404176074477,0.00960338971536276,0
0.0179811302335977,0.0146147452678257,0
0.0201111094079751,0.0170199268557239,0
0.0188718845540575,0.0157824224333207,0
0.0145346034570321,0.0103081349162773,0
0.00919492328293998,0.00507898590294907,0
0.00562091407570443,0.0030221199440103,0
0.00505864503077657,0.0039195655719684,0
0.00662591496667546,0.0097748858407034,0
0.00832356595820899,0.0304922457605609,0
0.00872756703209723,0.0782440937413935,0
0.00791334392547632,0.086049747338861,0
0.0065613618558457,0.0747015170064296,0
0.00525753527713456,0.0713941467006732,0
0.00437667292240397,0.0896726025247956,0
0.00378938821637716,0.0938511776667523,0
0.00319792770984297,0.0503499553493922,0
0.00251772084731129,0.0205880713674353,0
0.00186088786258599,0.0101910031369803,0
0.00145668220216381,0.00679377469998828,0
0.00154006114147899,0.00703919193742537,0
0.00204561153459941,0.00996195067331088,0
0.00256320744370345,0.0147947162817497,0
0.00266894008063022,0.0144737476193656,0
0.00234425463747645,0.0120884229294172,0
0.00179804652223696,0.00952434331256628,0
0.00129218605118756,0.0077699864900385,0
0.00101048411100975,0.00770217609190538,0
0.0009546241588558,0.00970510291033299,0
0.000950016331581209,0.0128514137436896,0
0.000852777502843513,0.0154483252803583,0
0.000591402012666003,0.0141271744446676,0
0.000261897593271804,0.00691123951152018,0
0.000238204724472854,0.00527429746475208,0
0.000858742028316285,0.00857891441025328,0
0.00217857605833423,0.0135596228984989,0
0.0038704795559828,0.0222612506439252,0
0.00499403654414018,0.0229415054293428,0
0.0051145563916685,0.0142489347317172,0
0.00471744149632789,0.00983205345491171,0
0.00423003290391481,0.00890443216216505,0
0.00351887086275289,0.00971371475328729,0
0.00262230345128152,0.00591759356412219,0
0.0034984335856049,0.00330818709674648,0
0.0111846001527629,0.00345082587074507,0
0.0351208080933008,0.00363786660689194,0
0.0843814749705915,0.00516850164193248,0
0.152678541049789,0.010014584057774,0
0.219010856049389,0.0182899233518041,0
0.257065732910914,0.0253394166457104,0
0.247690989304167,0.0176935030322222,0
0.197385888003432,0.00877591907739551,0
0.136013445808453,0.00474773157640496,0
0.0918258954416144,0.00319825030726598,0
0.0771954972776004,0.00311917204413465,0
0.0896172766304379,0.00551767473117336,0
0.111341722793016,0.0119699967496653,0
0.122546938030992,0.0236395882621481,0
0.115635905197048,0.0380056424823985,0
0.0932359835765742,0.0301454137667884,0
0.0677739500892492,0.0209351963349195,0
0.0498100515117108,0.0270674052973876,0
0.038743107689918,0.0283463590707447,0
0.0302374036880807,0.016954738261688,0
0.0230671192835651,0.00985132270490688,0
0.0172254798561448,0.00839264779785921,0
0.0120784019403066,0.00797912613012123,0
0.00752910914122323,0.0052136908937237,0
0.00572331651108451,0.00433327212075726,0
0.00731031284839294,0.00539973940499065,0
0.011088836372601,0.00788964391994862,0
0.0148163679820232,0.00923634751948039,0
0.0171271525096962,0.00907639478397933,0
0.0180466082213121,0.0109312207600059,0
0.0169506221245599,0.014655291414223,0
0.0128273915098016,0.0139186085368927,0
0.00716152665181038,0.007719510570305,0
0.00356242858456345,0.00568620727296921,0
0.00331993309616974,0.00680520324194304,0
0.0054617565355975,0.0118898079294533,0
0.00851507196704711,0.0142823858275993,0
0.0112961141683231,0.0152286873034611,0
0.0124559931293893,0.0204742934172453,0
0.0108740124418676,0.0129350981959744,0
0.0079805643083537,0.00447430986416161,0
0.0073824620859459,0.00191007311600375,0
0.012063351105455,0.00283559865287582,0
0.0215816173217392,0.00712690206789242,0
0.0317600791436759,0.0162215871759278,0
0.0373120282780337,0.0221488989479338,0
0.0357418182668923,0.0163418267421501,0
0.0284173472043063,0.00893927020944035,0
0.0194709922395303,0.00487152954450012,0
0.0132937978667541,0.00267079148043685,0
0.0126171836637675,0.00328046361052954,0
0.0162891741398098,0.00691954706203477,0
0.02039637709931,0.0154871598270946,0
0.0212129366582931,0.0243772130731978,0
0.0175240118931853,0.0163663907166282,0
0.0113123313364629,0.00662339577206397,0
0.00611423311093323,0.00349834218648324,0
0.00376333530127923,0.00380167809093411,0
0.00366176272952589,0.00614483818953537,0
0.00435684059149966,0.0128949383539297,0
0.00460910061902691,0.0201732701462104,0
0.0040538703322099,0.0232139607910699,0
0.0030266752481877,0.0211526867742203,0
0.00195774777432999,0.0150190312512607,0
0.00161325465169085,0.00955470690357678,0
0.00288003670110938,0.0108380622527177,0
0.00564346283344673,0.014495983199535,0
0.00902194414332744,0.0210991071819145,0
0.0114195875785231,0.0234862785546304,0
0.0116271371562145,0.0162108393651481,0
0.00994827344945377,0.0100233887653657,0
0.00763716316894538,0.00735039558260288,0
0.00574088915376453,0.00724124603066316,0
0.00428920502603459,0.00625607790680625,0
0.00359349151155772,0.00667784053810417,0
0.00353122840545398,0.00814749504717251,0
0.00366103113318062,0.00854609609599684,0
0.0037992374084652,0.00825820100993064,0
0.00413577262161919,0.00804995575381766,0
0.00538688087951119,0.012015948756185,0
0.00709354871291234,0.0298192833101657,0
0.00722829755644417,0.0449240469051247,0
0.00535180930971914,0.0193286223104149,0
0.00330911510241112,0.00943857743545817,0
0.0024668206917598,0.00570996390530276,0
0.00315735020831761,0.00716817839652342,0
0.00500834160634336,0.0134399768920434,0
0.00710587657662235,0.0196452925036607,0
0.009350548409769,0.0239230439387961,0
0.0115755516887995,0.052898903862554,0
0.012980242800599,0.100468116042672,0
0.0137716377657225,0.137467514290183,0
0.0132677832385517,0.0661964604726142,0
0.0110307012476631,0.0223996919334817,0
0.00814927386994432,0.0108614253166554,0
0.00609846585913683,0.00618436986836535,0
0.0054868429634,0.00558949346652526,0
0.00600490853052788,0.00702334661682647,0
0.00683465403047069,0.00844730814194154,0
0.00755620579419625,0.0109600926374953,0
0.0076717840459001,0.0152806128787327,0
0.00635646090528138,0.0150816288121315,0
0.00400554296116779,0.0098487955491915,0
0.00197563812391715,0.00620741623311073,0
0.00107989885690872,0.00563509189254817,0
0.0011499048531472,0.0136843136116402,0
0.00131200366194075,0.0578089851438758,0
0.000997841026986275,0.0389938305846142,0
0.000599234634690806,0.0246300281633386,0
0.000347823369506488,0.0165045318900415,0
0.000207506565361502,0.0133411640269591,0
0.000164716315732526,0.0128794037142789,0
0.000183389156768766,0.00752941785260446,0
0.000363131314518334,0.00788577394862105,0
0.000812398469562677,0.0104222662261593,0
0.00176223483279373,0.0107920700128844,0
0.00333794896284194,0.0162537374911433,0
0.0048851230160995,0.0275836266734919,0
0.00551865593829187,0.0256002583932826,0
0.00505839453441168,0.0166741270372782,0
0.0038731492451324,0.00782528720598225,0
0.00321392743548753,0.00434258938401913,0
0.00399327892707863,0.00644605622136495,0
0.00550128351625531,0.00966562280577704,0
0.00677917329744819,0.0125746195635263,0
0.0071054377517558,0.0147846887647058,0
0.00623053400361948,0.0130532678407392,0
0.00458474573922764,0.00782095251048595,0
0.00329172962198105,0.00577072916702582,0
0.00280791533274237,0.00627470159803559,0
0.00299958354423102,0.00932646280756857,0
0.00339971184062441,0.0224525722301147,0
0.00316150035128736,0.0287974441040831,0
0.00229158562251657,0.0244447832853321,0
0.0012957073337108,0.017356659960741,0
0.000616385903980648,0.0134678498856948,0
0.000234134518087343,0.0105114157479056,0
0.000166874546100728,0.0163206517254363,0
0.000197440468583502,0.0196951249833611,0
0.000205435541011776,0.0106815752009137,0
0.000320114718394742,0.00830542208451019,0
0.000902863300477539,0.00747580037902383,0
0.002986545952906,0.00674957082424014,0
0.00733984403368418,0.00899802724655394,0
0.0136547737154647,0.0130323843650627,0
0.0210467788947238,0.022062492769191,0
0.0271151722041936,0.0389497478224424,0
0.0285999187249631,0.0344178384700602,0
0.0249342048585171,0.017877991808725,0
0.0187662075376689,0.0113976177621145,0
0.012066569159512,0.00825740712422286,0
0.00649307142795945,0.00606744108464888,0
0.00334107843313236,0.00541355199080177,0
0.00237847662915365,0.00437376306782196,0
0.00306270629870078,0.00592052519840356,0
0.00458798324491295,0.00888618490744327,0
0.00570619005938936,0.00982170513338665,0
0.00594859406651545,0.00764028227414076,0
0.00602699967949977,0.00622670287133039,0
0.0068677662490464,0.0055208728943517,0
0.00913905579244919,0.0060315694229539,0
0.0125931278429335,0.00782282973534316,0
0.015823293514626,0.0102457490283132,0
0.0171916510635126,0.0129340747384237,0
0.0155718863766433,0.0111033196375478,0
0.011811124168054,0.00739122223602083,0
0.0082411780065393,0.00415986023804129,0
0.00727440919426169,0.00404703057974844,0
0.00893501061382358,0.00816642049762137,0
0.0107715220481461,0.0163080244226462,0
0.0108351165091336,0.0309717244588842,0
0.00921633670370585,0.0351221120417618,0
0.00690874109796814,0.0294238875612628,0
0.0051706555160645,0.0247986495592694,0
0.0060659512297506,0.0183799204481156,0
0.0103239924510393,0.0204003860147459,0
0.0161456241112714,0.026346534355852,0
0.0223542335314386,0.0317093834103945,0
0.0274326448699786,0.036650832233722,0
0.028862397872974,0.0501252945708868,0
0.0269752322715697,0.0562172299663755,0
0.0241546505297697,0.0524054810930569,0
0.0206864135938908,0.0498854355219673,0
0.0165780365875258,0.0411380032740405,0
0.014297674636102,0.0589101364780507,0
0.0132943516248204,0.0590003337569168,0
0.0118028517694287,0.032526192502082,0
0.00983824949569407,0.0222666504176656,0
0.0075852999704688,0.0144963419462937,0
0.00485333401583801,0.00622601377834726,0
0.00378551607941434,0.00285813574382089,0
0.0064648119253466,0.00358386358218153,0
0.0138511873719298,0.00499683574996829,0
0.0253883093416488,0.0146672150193102,0
0.0362321239856669,0.0334796618215624,1
0.0420259000772855,0.0391573154400881,1
0.0410272565180533,0.0236826722293114,1
0.0336252743847376,0.00964448821483765,1
0.0247886420970649,0.00420412504432094,1
0.0217202615910116,0.00270792319602321,1
0.0297779482154961,0.0028063950675695,1
0.0524703654327111,0.00382634167408555,1
0.0901694461621528,0.00617724436915091,1
0.140348850687464,0.0106464128262182,1
0.199596908135946,0.0237145106738354,1
0.251133539938893,0.0754486478153315,1
0.271003208458201,0.0702535937730503,1
0.253238715450144,0.0290870718896849,1
0.205952231613457,0.0121165822570256,1
0.146599651909999,0.00581867917607029,1
0.0986695639059149,0.00414023661703795,1
0.0763332577782369,0.00319735084111474,1
0.0860251439018289,0.00366904868463245,1
0.125073422939644,0.00682243962437837,1
0.174125540646715,0.0183024201222327,1
0.20838727667153,0.0491888659759006,1
0.213943928289897,0.116816536263564,1
0.184403435488193,0.0429092011947251,1
0.134237721211022,0.0137847209203175,1
0.0878470110578547,0.00741699203511819,1
0.0546040189042532,0.00351956555639334,1
0.0377988791392692,0.00217362560210025,1
0.041258262445071,0.00354373345852467,1
0.0590508256483131,0.0064578427436622,1
0.0834560026902755,0.0120777169214263,1
0.102854540521041,0.0335513537823979,1
0.101448188944772,0.0383929505571995,1
0.0793555757166645,0.0140043486115679,1
0.0511227521450108,0.00580368846351358,1
0.0309578047873818,0.00191643872703008,1
0.0335096501990318,0.00165005475956383,1
0.0619387687867207,0.00480829204103712,1
0.103625807368447,0.00946937759526982,1
0.145812749379701,0.0159327869700216,1
0.174026330030771,0.036112654633048,1
0.168335877743598,0.0262349386084662,1
0.133282897027912,0.0122664886455306,1
0.0891631759210068,0.0062554318938322,1
0.0548294996533631,0.00256438236168882,1
0.0496311588927982,0.00188355123512571,1
0.0770776516875445,0.00576387118815051,1
0.116321174951625,0.0122515452901247,1
0.14877092145575,0.0216337371581481,1
0.163064826267795,0.0441356421619148,1
0.147145370876309,0.0317211029103503,1
0.109649997021855,0.0135333471062677,1
0.0688339740591517,0.00817506668261267,1
0.0356615661148844,0.00466116535907664,1
0.0173372533143686,0.00215948101714534,1
0.0191711157348277,0.00405463005650699,1
0.0337183827275875,0.00970095489695814,1
0.0522933875120769,0.0178575986734092,1
0.0750587689804012,0.0293219634726656,1
0.0988905335601718,0.0736973046020404,1
0.114231655955664,0.103050728967842,1
0.118786385844395,0.0816335512197048,1
0.112871983598081,0.0501697069592657,1
0.0911183048076283,0.0186923092644579,1
0.0623975241577989,0.0104034577355047,1
0.0395720913857834,0.00849519630029427,1
0.024298034397653,0.00655235170102138,1
0.0144833916131574,0.0051450252553363,1
0.0107838882229226,0.00654746324572719,1
0.0105404813722658,0.0099042365707506,1
0.00981803223525486,0.010841488414213,1
0.00763832855352094,0.0104687595423457,1
0.00423825175164546,0.00537362711612753,1
0.00254805083646867,0.00530722766740763,1
0.0028159214180916,0.00943314431593467,1
0.00478044088191202,0.007371699363214,1
0.0104655197882037,0.00819445391069555,1
0.020745294754337,0.0100823716046259,1
0.0340091854767347,0.0217309679661433,1
0.0446505081265463,0.0464582221123701,1
0.045412689631414,0.027439464538051,1
0.0372793902858046,0.0107740466835526,1
0.0284181969516183,0.00626287603364432,1
0.023898763831051,0.00528976300799089,1
0.0232438862334947,0.00580054864544743,1
0.0242472131091181,0.00747798219621583,1
0.0245118221258268,0.0065705398486388,1
0.025316103870218,0.00550046353771214,1
0.029196396482614,0.0053925241681441,1
0.0368703948598196,0.0060960923376498,1
0.0451051631227848,0.008555160315164,1
0.0486258683363245,0.00872447234093259,1
0.0470387157666075,0.00814440715278114,1
0.0419237897970231,0.00685965217101392,1
0.0372207563223791,0.00539327126250903,1
0.0366798863496954,0.00613461981744446,1
0.0399071305457452,0.00838734288305242,1
0.0449529254254135,0.013996904229686,1
0.0459959432307014,0.0241533723388578,1
0.0374137379991754,0.0276630782433318,1
0.0241625275237443,0.018399167912572,1
0.0160740878991256,0.0193109275381331,1
0.013250255043356,0.0243139846052269,1
0.0135508024811867,0.0338295631306355,1
0.0158181951969298,0.0388924442362047,1
0.0175072625849353,0.0446958161379095,1
0.0159636407802988,0.0465794747042306,1
0.0118359429229606,0.024495667621966,1
0.00753363474170946,0.0169351202440265,1
0.00353712700446993,0.00896949767822977,1
0.00119815211538655,0.00774281391051589,1
0.000741705366762449,0.0115093526503101,1
0.00069070838210518,0.0131749571623971,1
0.000718820526095121,0.0195993194907995,1
0.000826108963953858,0.020486419702824,1
0.001211857929664,0.0172381283336806,1
0.00200835112184243,0.0193480868499895,1
0.0036009195832222,0.0201099937013026,1
0.00692098433289467,0.0228135044624993,1
0.0105248558986081,0.0351281965474016,1
0.0120350284711595,0.0278843253523603,1
0.0124107021974033,0.0337582203319812,1
0.012598120487952,0.0384122426177971,1
0.0120979372607396,0.0388028771585954,1
0.0127642040525329,0.0287900408741915,1
0.0188384912960118,0.0210499888637759,1
0.0289371123959774,0.0309066356740334,1
0.035554007493365,0.0288513769637266,1
0.037163348059288,0.0203006235868673,1
0.0340428747663254,0.011371826872225,1
0.0291715289294396,0.00562694150347973,1
0.032373744294206,0.00343319033583447,1
0.0529459166563595,0.00460926018016754,1
0.0889547925881544,0.00729676327722685,1
0.128986082481388,0.0124919624828407,1
0.153014018638817,0.0236517853460488,1
0.145601889804414,0.0179302889368822,1
0.113656798401854,0.00940731217831137,1
0.0744644653425426,0.00506121413405456,1
0.0431817274708439,0.00363013279733342,1
0.0269775663219368,0.00369976980844087,1
0.0227522728232649,0.00526143581311219,1
0.0233248562134308,0.00900072446848053,1
0.0222063728039307,0.0125014793140447,1
0.0167531153216336,0.00984302487468015,1
0.00958605191399677,0.00532438658551453,1
0.00519605132990054,0.00328287982547852,1
0.00629749105229901,0.00606830746598238,1
0.0111137477750269,0.0266019571523825,1
0.0139656234855365,0.049148392039399,1
0.0124629395421186,0.0177487447815438,1
0.00956193866281946,0.00733557272940558,1
0.00908770707111012,0.00424861575773198,1
0.0133928733878462,0.00620836454265153,1
0.0195582688978115,0.0107334505424826,1
0.0221335847504924,0.00885824844662405,1
0.0223385112014827,0.0060882578439604,1
0.0251526909616275,0.00490043500088429,1
0.034757113814579,0.00484922677210953,1
0.0520172538769493,0.00660999471037203,1
0.0707785768201014,0.00965051603391695,1
0.0819413364864331,0.0115126309933668,1
0.0802276217825225,0.0116420021312507,1
0.0651169731074675,0.00868721571153503,1
0.0446065575954483,0.00464417256384529,1
0.0308157487816698,0.00465885439746394,1
0.0252044104331769,0.00537118326756754,1
0.0241277582367273,0.00660275073753543,1
0.0240544090802541,0.00715416711958833,1
0.0242826915980305,0.00516561499166547,1
0.0288748556891512,0.00459429479205515,1
0.0395157086748962,0.00648564064111513,1
0.0525116670587152,0.0114151787179082,1
0.0611800364682666,0.0212648932031532,1
0.0586254499239749,0.030988188306853,1
0.0443265508081751,0.0152952746974027,1
0.02676540330023,0.00627806438967676,1
0.0130089998032292,0.00340190774635689,1
0.0052341506734381,0.00150177653505217,1
0.00379511593534645,0.00305582433368973,1
0.0063268786013044,0.00785932031350016,1
0.0103971920160917,0.0172587893363421,1
0.0140234766857408,0.0493328378835612,1
0.0146021216117679,0.0305570140883808,1
0.0125460064879514,0.0228902465967694,1
0.0095886616559956,0.0200941015348935,1
0.00636999667643373,0.0157340489326531,1
0.00354323701531157,0.0123622237019425,1
0.00226127962007507,0.00898287483858236,1
0.00291900413172029,0.0107163303295732,1
0.00414134623220825,0.0147866887065883,1
0.00470403673210349,0.0135190598222739,1
0.00477755852102232,0.00971488144167984,1
0.0048615582537061,0.00727432847647998,1
0.00622054250163031,0.00517459947948006,1
0.0104836453459856,0.00664018944647023,1
0.0173136230847678,0.00926766464584191,1
0.0256777434551354,0.0123198891535316,1
0.0331357718961472,0.0256844086605475,1
0.0350579058419816,0.0483112591514004,1
0.0303376936699829,0.0256356110120972,1
0.0224284374779029,0.0152226937974382,1
0.0137584452381599,0.00893398127142674,1
0.00655896440791478,0.00543936137709007,1
0.00250194744399032,0.00574508124125321,1
0.000916000005069714,0.00514747298429831,1
0.000443617366464638,0.00541301832727726,1
0.000429367882500375,0.0101173175379307,1
0.000452553295843099,0.0133640147956531,1
0.000396946084937514,0.0108301478936981,1
0.000363724894339895,0.00849211531846784,1
0.000452229984280718,0.00887606551870777,1
0.0006192970616192,0.0120971754901539,1
0.000748694803907163,0.0137521897694111,1
0.000885204312871629,0.0148515230386405,1
0.00104462593345664,0.0247050133761807,1
0.0010484158285242,0.0343546881094364,1
0.000848791459949346,0.0348657073297403,1
0.000557814135610764,0.0284952608598003,1
0.000243161596381904,0.0154502447365897,1
5.47283163649496e-05,0.00946149164982668,1
1.79599137824731e-05,0.0128387569468778,1
1.67795250463061e-05,0.0123285342803989,1
1.84498361851284e-05,0.0120099386588153,1
3.57657282488563e-05,0.0125487512265499,1
0.000103682798475991,0.0178473288125396,1
0.000197024331240515,0.0302572873316099,1
0.00026902217361024,0.0362568472209956,1
0.000360513106619774,0.039796270660541,1
0.000541327877549086,0.0396352186068289,1
0.000865877071684967,0.042420510146919,1
0.00141541897484623,0.0363939824065336,1
0.00226564770104588,0.0453406965117859,1
0.00303449279656021,0.0614062737796305,1
0.00329194324847644,0.0361836769769569,1
0.00296734703264269,0.0143490208162906,1
0.00252870234593413,0.00697240079555622,1
0.00263279935411427,0.00590158337002372,1
0.00338604658833975,0.00725311402823934,1
0.0043535772016734,0.010383059762553,1
0.00490279329157171,0.0107912349733114,1
0.00484505674675223,0.00940300935582331,1
0.00437340664716221,0.00830559939736714,1
0.00373809971411283,0.00752701265618623,1
0.00313976624151476,0.00653616633548809,1
0.00286628068664494,0.0068607106068536,1
0.00285804416687736,0.00929815161092896,1
0.00268041745679074,0.0114146021772044,1
0.00210643610245291,0.00989649867229613,1
0.00141987956737438,0.00666089886503618,1
0.00104467739355804,0.00670390099720598,1
0.001008133455152,0.0116361542785247,1
0.000973051878557706,0.0238224318984627,1
0.000694679342282921,0.0212630593991566,1
0.000337065347069648,0.00962787662104942,1
0.000204048381285747,0.00843615813850376,1
0.000326751316054871,0.0174558373382756,1
0.000615209234560171,0.0300743149770982,1
0.0010340284519127,0.0545764745652057,1
0.0012755467935912,0.0512756113153538,1
0.00117316121447613,0.0196361287018421,1
0.000992226413283301,0.0135767373687981,1
0.000859852324116077,0.011156999185435,1
0.000757283193297155,0.011567037323864,1
0.000648932061440972,0.00799511575207926,1
0.000786703732723354,0.0048096101353316,1
0.00167462421561588,0.00567038166075195,1
0.0035373911937176,0.00813132588210066,1
0.00602828809456669,0.0120786023067186,1
0.00813151652139425,0.0142525850775847,1
0.00923201047710411,0.0176927737271557,1
0.00885867534537906,0.0164302575394747,1
0.00710429156199143,0.011363897719103,1
0.00468755369180883,0.00643969253613994,1
0.00301781369001614,0.00383726457753494,1
0.00320562290451266,0.00514455939241694,1
0.00484064278012149,0.0149180444430284,1
0.00605712065278382,0.0353024096957652,1
0.00557972970029656,0.0186620021059714,1
0.00425450775355005,0.00905081092900545,1
0.00342856708334372,0.00441289040236966,1
0.00477893671934271,0.0044441671792535,1
0.00830487481064654,0.0106826455122932,1
0.0115730302677074,0.0148805745451782,1
0.0131767012248144,0.0166719446884466,1
0.0126591169177999,0.0157930543098611,1
0.0100747694366299,0.00852321822133835,1
0.00781558940802874,0.00590711570010356,1
0.00745882590338633,0.00667365605664426,1
0.00848554300548971,0.00825350446969601,1
0.00987003028687292,0.0130995910366532,1
0.00974269390052672,0.012872696748394,1
0.00825861906520828,0.00642553584039233,1
0.00825778830725381,0.00442075160586119,1
0.0124372655077578,0.00424746921380174,1
0.022595331372905,0.00652209944626844,1
0.0357141205833809,0.016570410815571,1
0.0450412276963262,0.0303776875631628,1
0.0464481648850444,0.028303694865128,1
0.0391326041849405,0.013933853194039,1
0.0271475799825649,0.00553443504995229,1
0.0185417517606586,0.00382901860165089,1
0.0163398314732953,0.00526537859128395,1
0.0173271707933826,0.00700794044428064,1
0.0184024769147973,0.00862344782894864,1
0.0180379409769911,0.00978148636609349,1
0.0155376779630366,0.00890063627756076,1
0.0117102508759923,0.00784066116836707,1
0.00758156580168766,0.00539610025550917,1
0.00519283617334452,0.00454594770292228,1
0.00507747241829276,0.00646227270833981,1
0.0056536852865098,0.00807268828851376,1
0.00647170266315287,0.0064496105007474,1
0.00844636772827854,0.00777890107514263,1
0.0108924281727436,0.0142112321754883,1
0.012029285071241,0.0236443650442303,1
0.0104929512641873,0.0231412357685775,1
0.00682488967866255,0.00664183607783526,1
0.0046106975832058,0.00359062221928252,1
0.00569570226895517,0.0051368974122002,1
0.00894775376889088,0.0103136608684648,1
0.0118608340428794,0.0167531229656228,1
0.0122660892452428,0.01312552456465,1
0.0106825484271552,0.00810713384050799,1
0.00935327128422654,0.00590927018353287,1
0.00954254499362731,0.00611461883400687,1
0.0109589429672932,0.00679039317236636,1
0.0127879204518198,0.00988063277785993,1
0.0135157669745563,0.0124915022528473,1
0.012319884783821,0.014147249398075,1
0.00901321916350392,0.0111606251115919,1
0.00496830211848616,0.00466899474816074,1
0.00285133460597224,0.00373363326478313,1
0.0031343407418716,0.0076140563386627,1
0.0042409661571819,0.0247712561976733,1
0.0045517848312366,0.056533000588111,1
0.00348494499628343,0.0160917361314203,1
0.00223845156619766,0.00820321705028521,1
0.00174771759737774,0.00979997104296844,1
0.0015427939532471,0.00929790017286001,1
0.0013734849745336,0.006346995794255,1
0.00192831090435846,0.00412166908709423,1
0.00466877449224221,0.00586278210717286,1
0.00903885231560587,0.0103099472874269,1
0.0129037244578283,0.0126031338912842,1
0.0151434696086697,0.0125109815178615,1
0.0151826469162466,0.0106438329878029,1
0.013418113516143,0.00740947046585234,1
0.0116313545761968,0.00712600918524017,1
0.0102829470106539,0.00697422922841034,1
0.00933863852644224,0.00655703243462659,1
0.00908980452344875,0.00711471367924148,1
0.00990391865200498,0.00550477750073462,1
0.0134595813813579,0.00523164354533062,1
0.0203001486433758,0.00689749642156512,1
0.0292544493656567,0.00904962582535962,1
0.038404944921138,0.0140256248373834,1
0.043448605901591,0.0284471365627898,1
0.040988981067486,0.0342549879361259,1
0.0330785700988868,0.0276830882198565,1
0.0224398151999697,0.018482419524287,1
0.0116285744617427,0.00903007554667817,1
0.00473237884824103,0.00349276308516613,1
0.00532458260457348,0.00184106466098195,1
0.0155572853977075,0.00331760776025736,1
0.0354187921279992,0.00689145341473073,1
0.0590694358229588,0.0165364382492674,1
0.0744742504270431,0.019391835152513,1
0.075430861020743,0.0135432369333846,1
0.0648750015954221,0.00748404267208134,1
0.0534023403941727,0.00443040756880251,1
0.0513003552490751,0.00402086260683418,1
0.0610832906346725,0.00519349135209148,1
0.0777094206570455,0.00852305281289143,1
0.0889197066275414,0.0125853350591902,1
0.0854350990677601,0.0165184674514426,1
0.0677509643708303,0.0168901693129566,1
0.0448118556788913,0.0120878086540756,1
0.0275826010587374,0.00843566972501153,1
0.0248788464066844,0.00815206728578678,1
0.0361463049456348,0.0145632199392686,1
0.0471282897685406,0.0155499730026309,1
0.0495577618988552,0.0105924986239765,1
0.047617544256424,0.00743226157794793,1
0.0460898300465683,0.00694148598050288,1
0.0445810538338374,0.0062245209824947,1
0.0451682876779955,0.00616358440079266,1
0.0485920062209201,0.00756661389879102,1
0.0507064612042559,0.00886392995834028,1
0.0470130842581349,0.00941753673432086,1
0.0391091411916051,0.00422749583245639,1
0.0477459888598622,0.00165197542647776,1
0.0876302777555314,0.00444286092822267,1
0.143197840390281,0.0129885542135235,1
0.18347878905005,0.0236447275682122,1
0.186625765805922,0.0190602774817942,1
0.155071891799467,0.00996366122869735,1
0.112624519472534,0.00582759362123929,1
0.081179775255257,0.00418099676433071,1
0.0697930195356497,0.00393051496804296,1
0.0768695844209913,0.00543805593113545,1
0.0911565357261128,0.0107784477913753,1
0.0936662105968278,0.0156316856162194,1
0.0766848832280264,0.0125732488468524,1
0.0482650927173216,0.00663236828522338,1
0.0235450882859936,0.00410370839644251,1
0.0111475726156973,0.00421661577416677,1
0.00822647775118189,0.00377163370966405,1
0.0130683702334605,0.00416892905185203,1
0.0255093725657903,0.00589128954921349,1
0.0421573645777382,0.0083431818271537,1
0.0574602721798375,0.0109732406978602,1
0.0664424174547896,0.013557637238573,1
0.0644957847269889,0.0134411690430013,1
0.0516946968492106,0.0114275261814753,1
0.0335681763929436,0.00834086709608654,1
0.0171952972860378,0.00541928677853038,1
0.00772153348264237,0.00401516705412789,1
0.00653430515454723,0.00437795433116088,1
0.012203660794256,0.00640858110673023,1
0.0219372099851983,0.00786421966191338,1
0.0349978896255471,0.00988422059718242,1
0.0498077227155192,0.0142921853604259,1
0.0603199420532578,0.0262466609802085,1
0.0610163144304597,0.0405546186105338,1
0.0521400067641524,0.0317758383972425,1
0.0367686050661316,0.0161439385005754,1
0.02009597436129,0.00666704650411813,1
0.0087907215684368,0.00422469159815146,1
0.00460822280916079,0.0037239782857379,1
0.00444148866345062,0.0069512528666428,1
0.00550655981725667,0.0146321241309411,1
0.00587970075900773,0.0138388811507405,1
0.00540353964312063,0.0120601902934135,1
0.00441914096931611,0.0141863165764906,1
0.00305196693326994,0.00847023412278659,1
0.00427816024768161,0.00428654584490372,1
0.0172794165202441,0.00366927397361363,1
0.0528907266161081,0.00581192599264827,1
0.107648449806451,0.0104439058588936,1
0.163226170134059,0.0164216814967604,1
0.195392430018665,0.018116733225879,1
0.189206243733407,0.0112786876487922,1
0.158428104384957,0.00649932997145739,1
0.130345110684312,0.00493249553468476,1
0.12032586989673,0.00484251755364832,1
0.128241591214234,0.00564612949022647,1
0.144860870661972,0.00831849706351248,1
0.151042100712831,0.0114256451700109,1
0.133423891554221,0.0127658494244019,1
0.0943521239289809,0.0104274706334412,1
0.0486885677081881,0.00560022234387799,1
0.0181188292951363,0.00332666374884738,1
0.008598545221682,0.00440552356428148,1
0.00803596839507205,0.00784378441020327,1
0.00760306876097543,0.00629766991759143,1
0.00823140513444665,0.00522265147722847,1
0.0134723864504927,0.00617616521293937,1
0.0268295672667033,0.00858786061796668,1
0.0468254663844534,0.0103856424669212,1
0.0674436377081937,0.0144261844905884,1
0.0841390033843151,0.0261633905147449,1
0.0936087590917821,0.0545274275794093,1
0.0870408008679175,0.0631760091248288,1
0.0666437494787291,0.0324553232907758,1
0.0450263664710403,0.0295968344424697,1
0.027620827152082,0.022541916093151,1
0.0137133415107232,0.0153842164704984,1
0.00620184606967863,0.0106003394134299,1
0.00467169726103446,0.0068463856253505,1
0.00835104078189545,0.00721293677600806,1
0.0164868151311745,0.0139644909244076,1
0.0255222745728005,0.0238847712904641,1
0.0320548098134786,0.030813833152224,1
0.0338196472608416,0.0250875621499153,1
0.0316217308576066,0.0316029539725895,1
0.0267477872796334,0.027829301880837,1
0.0229408082318837,0.0229794204911705,1
0.021176130696967,0.0201786503337987,1
0.023792996720207,0.0227553272884842,1
0.0305052802943303,0.0275499136991109,1
0.0394112066691919,0.0308344727079512,1
0.0487661936033479,0.0341525180176262,1
0.0576199728155695,0.0410737327936912,1
0.06063018241149,0.122180971680441,1
0.0518639112950652,0.0386583286999231,1
0.0350346750263993,0.0081030643029032,1
0.0262970121611268,0.00225740310361342,1
0.0483325027671709,0.00146041635193425,1
0.12723313069799,0.00269784821024764,1
0.262558515125964,0.0075295558859633,1
0.40967269469997,0.0145770988598604,1
0.511529861072382,0.0198215209320758,1
0.52717642890003,0.0181163486134234,1
0.44865867318473,0.0104319269181421,1
0.322952751751904,0.00487016551848701,1
0.226622378648751,0.00282714488082249,1
0.204981034519262,0.00311645912418638,1
0.248894908621884,0.00542387255453816,1
0.31035686308299,0.0115406211498548,1
0.328333128028673,0.0166764084551375,1
0.280816415481093,0.0128087293696458,1
0.192732916514946,0.00701977715287397,1
0.106213536819445,0.00290991253747593,1
0.0574345577768521,0.00213466814432806,1
0.0494922507817366,0.00407955289738124,1
0.0611148050038057,0.0128428013941632,1
0.0654780463321531,0.0244118444913115,1
0.05264314452692,0.0115317077955809,1
0.0344970257847131,0.00445960592795391,1
0.0282565539901321,0.00207104026037035,1
0.0487597740312328,0.00332844449797202,1
0.0925569187131563,0.00973918753463621,1
0.138133433426457,0.0182564412961229,1
0.169713927291366,0.0256705129836624,1
0.178648653572418,0.0313098364597494,1
0.154875022105348,0.0200528613674915,1
0.107940931495792,0.00739751206995044,1
0.0667254329539378,0.00386865225775851,1
0.0472334370891133,0.0023418007982325,1
0.0581506563318815,0.00216184261354479,1
0.0975880330368484,0.00872976878615623,1
0.139433799881368,0.0188884350435339,1
0.167329778609102,0.0345549714305131,1
0.180119309388653,0.0708110028463044,1
0.16872713972315,0.0716058526122061,1
0.131985664019425,0.0237444974191292,1
0.0870546690721709,0.0100955802123993,1
0.0514562270018845,0.00399513972549068,1
0.0451363654923929,0.002127954790357,1
0.0785428738524599,0.0059894048623716,1
0.127878574107785,0.0119564488314556,1
0.163483416969304,0.0146866572627848,1
0.171520773149527,0.0128311454158365,1
0.151027990614075,0.00971441045838902,1
0.115502155293428,0.00730513217123278,1
0.0821353106102002,0.00605833751214466,1
0.0576124479993978,0.00507001897178779,1
0.0452302562964781,0.00488402695698481,1
0.0445938855756927,0.0064159820014807,1
0.0472095371622936,0.00622419497232603,1
0.0522151510055906,0.00532272339179666,1
0.0644886965119499,0.0056407909468587,1
0.082471749695208,0.00893847561772055,1
0.0948303608762293,0.0183151634617339,1
0.0898647801638112,0.0238742816274686,1
0.0697283358680772,0.0200511110388306,1
0.0443145553594378,0.0126407693659347,1
0.0249167728790875,0.0103077927188,1
0.0165457513773751,0.0134906923277938,1
0.0171375534476131,0.0198769925909753,1
0.0221876099681446,0.0272675443399791,1
0.0282679885745233,0.0262217045992063,1
0.0327063678145231,0.028198924351143,1
0.0338809979018795,0.0387275670490284,1
0.0305529488086902,0.0400878057176243,1
0.0234470423717941,0.0236809304852003,1
0.0150559385655108,0.0115579667212877,1
0.00797563225706072,0.00597325713185509,1
0.00363624448645261,0.00295300176871343,1
0.00265417123396104,0.00306226052055361,1
0.00435584920201096,0.00543958352288933,1
0.00751731885308165,0.0125028459785874,1
0.0101129374349282,0.0184955656674308,1
0.0107539081425137,0.0168536887827184,1
0.0096365115406248,0.0150485478786924,1
0.00738452720954539,0.0118598584112288,1
0.00466693083259132,0.00863363545390125,1
0.00241803307428474,0.0060788726974067,1
0.00127664373490249,0.00505886815124356,1
0.00103934284946282,0.00626998899393314,1
0.00109563842382318,0.00980112144295631,1
0.000981028701865944,0.00943795842196535,1
0.000769950318421311,0.00722986150129597,1
0.000747716481876107,0.00889167913623859,1
0.000813708248789827,0.0100618647197975,1
0.00090287219239149,0.010833654624968,1
0.00105931210919495,0.00994192483731499,1
0.00149527292742936,0.0172777539241999,1
0.00201538193675186,0.0662886244429893,1
0.00217604402314304,0.141468531328081,1
0.00187599150809476,0.0544532678983015,1
0.00133212103261878,0.0250912458453902,1
0.000815502732500707,0.0107316721703928,1
0.000636983434990674,0.00949808426584997,1
0.000691427373263569,0.0121556639827694,1
0.000755250032850125,0.0124737905265649,1
0.000769001194982313,0.0118214820062309,1
0.000772700832440131,0.0102864845809879,1
0.000876596181801121,0.00913595417645682,1
0.00111683331137663,0.0105174319352779,1
0.00143574498976817,0.0131928267379524,1
0.00180171024458056,0.0171184818323984,1
0.00211853669512679,0.030921965423083,1
0.0020680185172244,0.055226360346989,1
0.00167899511251051,0.0549927952170132,1
0.00123329940391987,0.0473274633718063,1
0.000777840461430757,0.0296205144307832,1
0.000375955454587858,0.015624828540194,1
0.000225328290401745,0.0118427540424285,1
0.000321620412802434,0.00892549137706445,1
0.000661718651831057,0.0129658393032364,1
0.00106864724713833,0.0187168229719552,1
0.00131043820468631,0.0189125015372964,1
0.0013649464892356,0.0166365471380035,1
0.00125922010353886,0.0143217285803287,1
0.00102137981761878,0.0113568644270407,1
0.000805367207489378,0.00904397512011389,1
0.000801272467518653,0.0097457005217643,1
0.00105967696167644,0.0137589782430697,1
0.00146562236147076,0.0366326558425783,1
0.00166884763492983,0.131528146440227,1
0.00146487412337827,0.0606148654588286,1
0.00101399649859766,0.0143010051229402,1
0.000747679092329676,0.00433662992100138,1
0.00133399676721311,0.00387908628274729,1
0.00305557409542694,0.00780350721239293,1
0.00530694721090438,0.0132140162569904,1
0.00729208822870725,0.0187907945054984,1
0.00823964189290305,0.0211944391399308,1
0.00775079096436822,0.0172779706691282,1
0.00616341760749116,0.0150896643537538,1
0.00407679714887469,0.0114786016242217,1
0.00208682849858488,0.00744320308332577,1
0.0007877750436894,0.00487759598595421,1
0.000330622090376441,0.00579509222628351,1
0.000308470329550735,0.0103358283680767,1
0.00030706658246229,0.0124962192132107,1
0.000235545685678902,0.0101724378459908,1
0.000182633860738465,0.00949205309682072,1
0.00019933512908642,0.014969062253707,1
0.000277391763906586,0.0120951835324006,1
0.000529244594346842,0.0164383044651709,1
0.000926160973100881,0.0236510473743119,1
0.00144581418647947,0.0339550054790819,1
0.0019763189611206,0.0796899016984163,1
0.00219730591880645,0.136230343090401,1
0.00199260630075251,0.0495588725448617,1
0.00157120525892915,0.0206800413677003,1
0.00109633070600457,0.00975976357032457,1
0.000857058973007213,0.00655271584238395,1
0.00105302119337614,0.0080851356373314,1
0.00174374866756567,0.0113465417417591,1
0.00280951688337229,0.0167505628301539,1
0.00409899344178321,0.0334896250424219,1
0.00523423204215526,0.0994568676659792,1
0.00587020231258967,0.244763011613462,1
0.00545839108363964,0.0536085667271909,1
0.00421887422265186,0.0200886014684787,1
0.00288492725076116,0.0141877721796996,1
0.00189061202930023,0.010974783272568,1
0.00121605662919138,0.00973988843021227,1
0.000811033725436242,0.00800124012035222,1
0.000642067830179417,0.00812624539962414,1
0.000620872060383743,0.00962328897551383,1
0.000604058417942827,0.0121070259039314,1
0.000451826231564059,0.0103542792726069,1
0.000282904505824751,0.00829970059734598,1
0.000227976035286641,0.00780130254097828,1
0.000383622849563278,0.00575480890134143,1
0.00105388003503438,0.0097664899497446,1
0.0019082817186252,0.0139590666831503,1
0.00268229322462022,0.0170623856578905,1
0.00324919544617981,0.0166081196213074,1
0.0033834899591358,0.0137900377243487,1
0.00308248835388367,0.0137777839552591,1
0.00250826135249183,0.013362572537906,1
0.00165407411116831,0.0105077357397944,1
0.000795139192070345,0.00668279202525342,1
0.000454497661027094,0.00637590357615026,1
0.00073560838712192,0.00905849462711601,1
0.00128437618617801,0.0126507275201156,1
0.00202435697484055,0.0156456082237131,1
0.0034674284998613,0.018905654248602,1
0.00526163463377009,0.0452707901046251,1
0.00610972223966227,0.069182035855022,1
0.00595827296168268,0.0598351017623269,1
0.00534687310403212,0.0495209235574048,1
0.00386213182837397,0.0196172765707675,1
0.00242005738209573,0.00826718593367557,1
0.00220556060913825,0.00791541246450202,1
0.00291704643924019,0.00901105907145975,1
0.00429239418363731,0.0120708187718915,1
0.00587927595333272,0.0255939913197266,1
0.00655528121581463,0.0309127464791559,1
0.00603145588800919,0.0229982265808572,1
0.00478841973558593,0.0175844305359342,1
0.00293526642111144,0.00889324402086348,1
0.00171594172198006,0.00376531492743113,1
0.0025316413244166,0.00617729308562084,1
0.00479575828383541,0.0147129884331622,1
0.00682793893440201,0.0240989034752856,1
0.00757990520427746,0.0277936187217844,1
0.00673341717303433,0.0166170494271439,1
0.00516735073336664,0.00696630783054824,1
0.00468601749357401,0.00557995868838661,1
0.00558199210776059,0.0063269599662324,1
0.00753697001614894,0.00819564810945636,1
0.0098951219114447,0.01450630964946,1
0.010693408602365,0.017902251317133,1
0.0092014504523502,0.00903214273910667,1
0.00779812265556559,0.003861330875743,1
0.0104047693619324,0.00243965046241686,1
0.0199757263893937,0.00316161060954799,1
0.0352414887989666,0.00800764823547531,1
0.0506003246846932,0.0167971975546443,1
0.0597275153313522,0.0252543594099158,1
0.0581564172648536,0.0204935642082293,1
0.046557466240121,0.0112169968249805,1
0.0310575051837235,0.00610131369327029,1
0.0180516330137871,0.00324798103925163,1
0.0114144724106046,0.00320389986496012,1
0.0105535385572238,0.00563180380256862,1
0.0118731627646606,0.0105888205290174,1
0.0120932313172524,0.0161792187284007,1
0.00993952363692865,0.0158076920339477,1
0.00613153114665599,0.00967778958103796,1
0.00287250847078112,0.00686354599597817,1
0.00134684178802246,0.00503115376917764,1
0.00167868294378831,0.0047411110280679,1
0.00383271039462003,0.00776135577579083,1
0.00733964493699314,0.010843434787247,1
0.0106010950419278,0.0155271508374633,1
0.0116445073575386,0.0124997614157366,1
0.0108809044123959,0.00604502296614866,1
0.0119014338391493,0.00361862546049676,1
0.0185892991026742,0.00343525679178913,1
0.0321102764789675,0.00618509108164306,1
0.0476009387657424,0.0107767919399985,1
0.0581289723769753,0.0151180008721413,1
0.0595935830604075,0.0173076196670121,1
0.0512510846221091,0.0160381731610283,1
0.0359028620016025,0.0107448357012267,1
0.019530231481551,0.0060143968439323,1
0.00786009937436125,0.00381816753262556,1
0.00233610562888647,0.00280901141520818,1
0.00150132983756162,0.00553867449089124,1
0.00277597014237157,0.0149622469944119,1
0.00448271516592482,0.0208814682514796,1
0.00621961138560115,0.0242158718603114,1
0.00864733041299093,0.028200374333921,1
0.0112653909529283,0.0372423539686189,1
0.0117943097309908,0.0195058139288198,1
0.0103011844802581,0.00809782066595988,1
0.00981886750412592,0.00486733715469098,1
0.0143363316503896,0.00367373814012589,1
0.0276046238913429,0.00682198820484341,1
0.0447082772146227,0.014773469505724,1
0.0557173001875693,0.0178452473082205,1
0.0564651394310341,0.0155700413767378,1
0.0489391289360082,0.014936157271888,1
0.0351243116826375,0.0123720972728482,1
0.0202995674753729,0.00812375435996594,1
0.0102104615693208,0.00672901595016171,1
0.00619947466602167,0.00484945869285769,1
0.00817837915884328,0.007633263474232,1
0.0127159930045242,0.0128990469708906,1
0.0151430545439157,0.0121709011710819,1
0.0165928092834299,0.0143664164049101,1
0.0170385639481595,0.0203758921015789,1
0.0154211184404372,0.0224545837037302,1
0.0131187536216704,0.0187389308310552,1
0.0157976685353501,0.0127656428134361,1
0.0244409495380968,0.0162850137388302,1
0.0344980589266173,0.0215076177865192,1
0.0408600865416616,0.0192569056274216,1
0.0419574958280665,0.0147236890841596,1
0.0368456247611761,0.0101847670143524,1
0.0297407442873913,0.00829033317904814,1
0.023984455752668,0.00724627262106164,1
0.0204167850539895,0.00662239148242394,1
0.0198516058937983,0.00657917132520323,1
0.0212782251119762,0.0141959337529438,1
0.0189286388067559,0.017401083883365,1
0.0125541395799248,0.0075993752730806,1
0.00780815176766175,0.00361932468609182,1
0.00842004360225166,0.00368978972380378,1
0.0136275412183384,0.0139617095509912,1
0.017383678350609,0.0238738662187788,1
0.0163154825576951,0.00949203283782849,1
0.0143065777019575,0.00713466229005062,1
0.013469573859252,0.00821107043447373,1
0.0125237032836005,0.00770045625879314,1
0.0111995598235915,0.00590910041876508,1
0.0119911960638359,0.00461203191569095,1
0.018077274936948,0.00615601696246146,1
0.0261695120402917,0.0095276430727783,1
0.0297903113900448,0.00875282608397966,1
0.0299270116053351,0.00684034273966803,1
0.0306093494574955,0.00649841512720913,1
0.0354981776341309,0.00488678858379448,1
0.0546887811721877,0.00466072192281272,1
0.0908307100362441,0.00727152430984103,1
0.133282100964436,0.0118541116714146,1
0.164855743846824,0.0226616892019839,1
0.163955843251706,0.0272770215593954,1
0.126724283885345,0.00862426353035217,1
0.0883549815773655,0.00338119296704851,1
0.0810246828214504,0.00319558183465033,1
0.107482158688344,0.00456794449937923,1
0.153929406485615,0.00963006001453318,1
0.185893551673549,0.0152121796164003,1
0.17918653486496,0.0101197983168639,1
0.151593711912114,0.00635055974670661,1
0.129749212015956,0.00485355949910654,1
0.129929274956375,0.00414336100516244,1
0.158440904127403,0.00639453394356263,1
0.191804694799243,0.0109128777653287,1
0.199498700155057,0.0132404675069572,1
0.173118043696095,0.0126579245748751,1
0.119528208207958,0.00826587164657428,1
0.0630270630938957,0.00340264763581156,1
0.0320882547249938,0.00306753209673346,1
0.0256779386965487,0.00590717511481077,1
0.0258564958791111,0.00922329141796452,1
0.0232994087098686,0.0091457631366889,1
0.0182117695406282,0.00488340114893804,1
0.0164731448150612,0.00352964113072679,1
0.0201926805816039,0.00724454807781261,1
0.024530142027673,0.0132200234557223,1
0.0249940744928227,0.0148497218028095,1
0.0208181994661815,0.012399694856953,1
0.0137480911315941,0.00617922138351975,1
0.00819694040228058,0.0019283005496671,1
0.00855128719166782,0.0018850963154157,1
0.014503525468471,0.00856600001936719,1
0.0209134804423061,0.0216051926122786,1
0.0238867188830863,0.0351935381298884,1
0.0226409918314435,0.0340381638013644,1
0.0181036248776241,0.0194959830007035,1
0.012585460239483,0.0164141211734446,1
0.00781260357704554,0.0140203452653279,1
0.00391715940613648,0.0098738972315863,1
0.00126939368582105,0.00612378836368523,1
0.000319936659555161,0.00697098073436287,1
0.000228600396902063,0.00844461586213635,1
0.000696553079746725,0.00516059138732363,1
0.0022684585338449,0.0112161634396518,1
0.00406266089405321,0.0158325633653537,1
0.00552166353829988,0.018321622421332,1
0.0063626642283454,0.016807902486074,1
0.00617398723193465,0.0118643573001436,1
0.00554961722916876,0.0121607737546771,1
0.0046829619231556,0.010813505187711,1
0.0042514258276558,0.00540982502881258,1
0.00779442820279155,0.00490321329891083,1
0.0187969795271606,0.00672843027913252,1
0.0378979194945487,0.0095839180368714,1
0.0600025376917537,0.0137800492301165,1
0.0786371193148989,0.0168288733338338,1
0.0899889632834979,0.0196236252394431,1
0.0898065189265769,0.0267772028683262,1
0.0735910833564995,0.0233903318869961,1
0.0469222387125067,0.00976679621010748,1
0.0227609165642905,0.00354406176045037,1
0.0133508247836641,0.00110049755142937,1
0.0276711944665636,0.00142431561135495,1
0.0737600353413343,0.0027430097761999,1
0.152320383242884,0.00616177061278268,1
0.248429195444462,0.0134245614913579,1
0.332810577640636,0.0242820470482229,1
0.371173771064748,0.0272227100688442,1
0.344631489089732,0.017166381055405,1
0.266710688331465,0.00841965778749149,1
0.176779708678016,0.00356642976880707,1
0.118732062141839,0.00243664810335112,1
0.108576687973555,0.00306015164933012,1
0.135938674072646,0.00569261933536699,1
0.176431447184603,0.0132440138719452,1
0.196595684116678,0.0265748590920418,1
0.177641964634823,0.0272425653497706,1
0.128700898736005,0.0133936836307727,1
0.074718711916705,0.0069887994672975,1
0.03282292215546,0.00303971004920139,1
0.0124409347290084,0.00281262837543604,1
0.00942035951205253,0.00709170082582408,1
0.0111237885103623,0.0109181189020877,1
0.011630760089962,0.0105925839920592,1
0.0110537316764262,0.00522499788683189,1
0.014226443546826,0.00369346585478825,1
0.0236519399384156,0.00657029927536745,1
0.0355260536876838,0.00970427129799353,1
0.0447566035523537,0.0125283798383731,1
0.0465835305730044,0.0116874281894211,1
0.0409206665139005,0.00940344967668032,1
0.0316921933688768,0.0065159618056961,1
0.0251364724640817,0.00460195696746151,1
0.0260632855290006,0.00462824684597905,1
0.0348608039519809,0.00801213934932842,1
0.0475394878753995,0.0209141423027923,1
0.0580821677469527,0.0580798348718959,1
0.0593122205447982,0.10433880048482,1
0.0491192641145416,0.0345789641664538,1
0.034021547454818,0.0112809670640433,1
0.0225706114412134,0.0045523790807444,1
0.019786429509049,0.00365161186565188,1
0.0263776696248823,0.00554675805463504,1
0.0375764657620782,0.00929035922617991,1
0.0457826013249044,0.0109337149706149,1
0.0478784170679431,0.0123402714827276,1
0.0427228029872248,0.0136482702860825,1
0.0317897982435401,0.0122736888112402,1
0.0190064524744839,0.00821530577899625,1
0.0100288375284737,0.00514736057566958,1
0.0089277058898951,0.00610658216149677,1
0.0147882142789859,0.00943797723853773,1
0.0243543026708464,0.0125420264127021,1
0.0346453624154322,0.0122750360261004,1
0.043641099275443,0.0190224833573805,1
0.0479277351244929,0.0413815027016656,1
0.0450767762419184,0.0625605040447911,1
0.0362691696238051,0.036366767327095,1
0.0252147658872771,0.0175134427561095,1
0.01532110683315,0.0102015790069589,1
0.00826759645090728,0.00607312027151025,1
0.00466596370476386,0.00359232389774577,1
0.00450975292922919,0.00505990552141791,1
0.00579533105562899,0.00991835218516025,1
0.00647760251906186,0.00968564891338651,1
0.00649959474813475,0.00721609202590621,1
0.00717874993865406,0.00474756365948244,1
0.0110913333839843,0.00447189885687249,1
0.019532038540235,0.00594124749199139,1
0.0315394628969225,0.00889070595552871,1
0.0444662572275969,0.014611293220391,1
0.0533320898990036,0.0265160758768133,1
0.0530967589849222,0.0378681458278245,1
0.0436233763464253,0.0204582684169047,1
0.0299408375526029,0.0105036187948973,1
0.0164670992653083,0.00433619933375251,1
0.0072710282456587,0.0022188509568311,1
0.00368160920349823,0.0026789916660838,1
0.00370338162433739,0.00493816022446036,1
0.00502766652106935,0.0155487767681214,1
0.00567079786403952,0.0215349654404471,1
0.00501400429922632,0.0138979980868081,1
0.00380199327032218,0.00944704174532323,1
0.00273372399750777,0.00644254036343746,1
0.00232660284377034,0.00614756444456873,1
0.00259125903928851,0.00906290670302354,1
0.00314872183099654,0.0162045262943494,1
0.00360693910682942,0.026667464378132,1
0.00359409624630497,0.045570859049531,1
0.00283153375782136,0.0445489201295688,1
0.0017119439077992,0.0220043857272609,1
0.000874779956257827,0.00984229854336202,1
0.000561435389472376,0.00456272439040954,1
0.00107620484827716,0.0050718229932561,1
0.00258444315006678,0.00947720411837731,1
0.00443453894835576,0.0158152333146161,1
0.00584991889909033,0.0189437043819583,1
0.00640238975882493,0.0205970930176596,1
0.00583347201864147,0.0144148428255391,1
0.00453986803499815,0.00793544234088772,1
0.00353590712632998,0.00511963008715068,1
0.00372649059078688,0.00500158562103353,1
0.00528329271057817,0.00814219052029835,1
0.0071870016982497,0.0187707471711453,1
0.00770467605742025,0.0209040275222537,1
0.00653387491039274,0.0109056671004784,1
0.00499167293563714,0.00615028471382975,1
0.00436806731418367,0.00377985369421816,1
0.00555313706143081,0.00603481185422312,1
0.00758096628788071,0.0112049893386327,1
0.00883821162513528,0.0140090302876145,1
0.00880400221447395,0.0157021028708308,1
0.00726843585543078,0.0122338767669963,1
0.00497185344558715,0.00618613627427329,1
0.00357689652620571,0.00444402487288913,1
0.0039158600325334,0.0058308096388738,1
0.00562051680082111,0.0114500610894931,1
0.00744654467161649,0.034003164731393,1
0.00775880104699986,0.059885791957816,1
0.00647781944188008,0.0293246255519791,1
0.00465536949537174,0.0169987518025098,1
0.00278985344142688,0.0104723029821804,1
0.0013658785932552,0.00751156713887593,1
0.000685229319481889,0.00748514656288745,1
0.000476040115761408,0.00803671581041357,1
0.000464453873327184,0.0127912863975879,1
0.000499292797052556,0.0281685061119785,1
0.000417976999313236,0.0346508675474388,1
0.000305915670284909,0.0249190152260926,1
0.000359325391043195,0.0186169932687698,1
0.000709609031982742,0.018325046016831,1
0.00155905246591638,0.0154461273251644,1
0.00328220283202077,0.0127377556089926,1
0.00599238496615513,0.0174880157614608,1
0.00901649735807988,0.0354481060132173,1
0.0109784136665044,0.043259936541877,1
0.0108949066842326,0.0232499643075548,1
0.00902815002851958,0.0117501550713611,1
0.00664618893837015,0.00548045019518213,1
0.00548023441016573,0.00463923301275625,1
0.00578897096839394,0.00631990189976815,1
0.00668362549743476,0.00817528266359407,1
0.00741462683981886,0.0106745674328273,1
0.00725031521947276,0.0112091674852116,1
0.00606793151609157,0.00914342006958439,1
0.00452953485147147,0.00716230281018647,1
0.0033911301375428,0.00638567983765443,1
0.00286655060140295,0.00664270193650086,1
0.00280111264089752,0.00946554171353286,1
0.0026216987255984,0.0116045951778641,1
0.00209714891981305,0.00855591586435508,1
0.00167711370981202,0.00720532236168724,1
0.00175054200824719,0.00824502561347614,1
0.00232904974560801,0.0191344132308838,1
0.00268552323728936,0.067276475560018,1
0.00235913800039523,0.0789488889630327,1
0.00168399865865902,0.0427393378620676,1
0.000991314259419262,0.0221681159417127,1
0.000512855035471711,0.021941430101221,1
0.000294589190780333,0.0167354926354486,1
0.000228830903833481,0.0156077490290616,1
0.000150174909296618,0.00541352410424527,1
0.000873738378667654,0.00327946304178446,1
0.00574210895939142,0.00395233459665486,1
0.0188415879450786,0.00532012062017669,1
0.0416725216786615,0.00881593768959107,1
0.0684618742599125,0.0186872977988889,1
0.0859791504391491,0.0201182241481238,1
0.0874422458413428,0.0138169417714453,1
0.0762850544800614,0.00976461403480272,1
0.0590709541497458,0.00654441844299066,1
0.0439762089301844,0.00450087833511256,1
0.0380041936408773,0.00421840798699136,1
0.0417739155027012,0.00638129333433291,1
0.0481998320512472,0.0111996266161762,1
0.0479842607465353,0.0181111518371035,1
0.0363037323694569,0.0104326045579235,1
0.0210175426683886,0.00219816441282727,1
0.0132910858058066,0.00196715908824642,1
0.0140498823164469,0.00489075913697707,1
0.0177425505440929,0.0115677450945295,1
0.018962111947001,0.0142155078760928,1
0.0164361336659471,0.00897380888754989,1
0.0128608379622194,0.00495630753176669,1
0.0115195986298768,0.00412969124453727,1
0.0133728928493119,0.00476060539127364,1
0.0177903330489827,0.00762206573572619,1
0.0225353978304228,0.0154813607906538,1
0.0240308388038467,0.0288606317322001,1
0.0204583177942218,0.0232217223639827,1
0.013825875712521,0.0116620587568259,1
0.00734193750989003,0.00651265187927475,1
0.00296241281804343,0.00600047017482184,1
0.000958817882174454,0.00588035811721969,1
0.000621299440272368,0.00535846518335583,1
0.00109881695826266,0.00886561692315265,1
0.00173016927074376,0.0126350964703483,1
0.00208250067746912,0.0119393527431705,1
0.00212308394378272,0.006775484498386,1
0.00263463493762314,0.00470626093271955,1
0.00442166510058378,0.00579126426966324,1
0.00736466005726551,0.00807818337674786,1
0.010839161045896,0.00964667538758509,1
0.0143779390277102,0.01427451885984,1
0.016308675125309,0.0238256755317979,1
0.0151661216733511,0.0226719876373795,1
0.0113817761511106,0.0154188365259802,1
0.00656363071697205,0.00704354258924507,1
0.00299846551370485,0.00333419770981267,1
0.0019291036020207,0.00655060086976914,1
0.00199321715983193,0.0115501646761786,1
0.00202093021611206,0.00777320886350648,1
0.00240475773076509,0.00491088351420036,1
0.00467335000286318,0.00403655980843476,1
0.0101094096292509,0.00664867199957593,1
0.0171196691166099,0.0131299494344298,1
0.022154015909351,0.0155110848929933,1
0.0237283952582733,0.0148948906947155,1
0.0213309294166251,0.0122242442587104,1
0.0160656610355975,0.00691603450073702,1
0.0113822182300007,0.00449024944100169,1
0.00953701121083631,0.00465378159264715,1
0.0103246857967456,0.00606700658866962,1
0.0129564044947732,0.0136353936583465,1
0.0148779556199113,0.038809209845206,1
0.0143315886164724,0.0580625255052788,1
0.0121426774560368,0.0502677916534983,1
0.00946646929474427,0.0414683027292753,1
0.00667958289435399,0.0264827292951247,1
0.00432792444687429,0.0134548005095863,1
0.00321183372059286,0.0042630006716219,1
0.00520430331609949,0.0022864523906024,1
0.0137417632310934,0.00219846728899813,1
0.0318679482056895,0.0039053239068444,1
0.0574780308819647,0.00967593051500772,1
0.0818500771208585,0.0198215881852147,1
0.0941979267957947,0.0241427521444947,1
0.0884002710953468,0.0152333977480527,1
0.0691218353160304,0.00781968961607669,1
0.0475833828191944,0.00464467369408616,1
0.0334459124129603,0.00325414935986867,1
0.0309452545412244,0.00356012307780022,1
0.0383667750616712,0.00617815773593509,1
0.0492554160223305,0.0142022920648591,1
0.0551969462502806,0.0342344569884125,1
0.0500150461582125,0.0402121183474696,1
0.0345160490571961,0.0122059967580259,1
0.018777314906878,0.00339335869261407,1
0.0175614441739794,0.00111859584752655,1
0.0441683294388618,0.00261898946596868,1
0.0966419936115158,0.0062449057537027,1
0.163067765294619,0.0103768176749714,1
0.228357462443776,0.0193726911328123,1
0.266232105061843,0.0255954666204846,1
0.260317412545751,0.0232612494842359,1
0.215110690251022,0.0162314946249235,1
0.146180223078375,0.00815044980248615,1
0.0804563595161383,0.00262145726235395,1
0.0494433656190893,0.00197116819812967,1
0.0572771869766655,0.00410581613354268,1
0.0857676116461171,0.01031284905357,1
0.110445453370942,0.0264892020659082,1
0.109261014662555,0.0200954450311222,1
0.0871204239872604,0.0107930077687529,1
0.0622191169533938,0.00760036904604291,1
0.0420642412760483,0.00487149052482947,1
0.033709813279213,0.00457584453646392,1
0.0368182342822636,0.00860136824755836,1
0.0407257270570041,0.0119405433725101,1
0.0399011789608323,0.0150613284566847,1
0.0314800818072714,0.0136794264924956,1
0.0188129744337081,0.00504725230963602,1
0.0141292146251851,0.00388519003507927,1
0.0202159822515097,0.00774434814158642,1
0.030936407271147,0.0149417118592488,1
0.0404898733751253,0.0403904400921568,1
0.0410267674416363,0.042348642216424,1
0.033373401166042,0.0202695553167399,1
0.0244393854827615,0.0138398082553004,1
0.0157814674530242,0.00827622518284669,1
0.0110273659883305,0.00273515200212654,1
0.0190405435377889,0.0026643509228917,1
0.0460549056450524,0.00421756708668676,1
0.0942784338281863,0.00617540825049391,1
0.158836957927055,0.0157184249110016,1
0.218021889563433,0.0316985469267947,1
0.24987272136955,0.033936151269885,1
0.243058292165048,0.0212827856863004,1
0.201393787895859,0.0121376634911178,1
0.1405064834441,0.00502434258265515,1
0.0936486132211517,0.00244584455387727,1
0.0834519893341288,0.00343496643803288,1
0.103505131512092,0.00565811499134866,1
0.134732947874506,0.0114177667477415,1
0.150382537744347,0.0184961602187525,1
0.135459377543419,0.0168251103398065,1
0.0998334254171628,0.0117673916012736,1
0.0611377569311388,0.00829510179257182,1
0.029212945413109,0.00580010635099772,1
0.0105757537307203,0.00374552940593911,1
0.00635071566232265,0.00598469842423057,1
0.00860541855333255,0.00781740338736871,1
0.0158119764980757,0.00736114279338417,1
0.0312432691250706,0.00996970890810731,1
0.0504558604719251,0.0170433322897844,1
0.0654266699803169,0.034361166338062,1
0.0699632721237883,0.0420555631330596,1
0.0620052361033444,0.0271672367843194,1
0.0448469488334041,0.0126298889850529,1
0.0291741063064428,0.00897401746049907,1
0.0176399611217028,0.00627496589348867,1
0.0113492906538461,0.00378868439993252,1
0.0161774812587022,0.00553070872456774,1
0.0322482936794702,0.011009049899016,1
0.053778057193174,0.0219840621855248,1
0.0727973555495598,0.0450909635332474,1
0.0797302875299785,0.0428440037776717,1
0.0707547587212483,0.0152692617615082,1
0.0556186861728245,0.00705547732740058,1
0.0455810534507358,0.00528902492950507,1
0.0434282501049511,0.00484575322300872,1
0.0488017881131558,0.00583245675818932,1
0.0575905082063313,0.008496601956197,1
0.0623492976191878,0.011403926790434,1
0.0588725150766242,0.0137519066182385,1
0.0452288978851589,0.00949620662860365,1
0.0303732155730683,0.00385404962728732,1
0.0303774870998787,0.00256129951395987,1
0.0514975819249875,0.00581378758818706,1
0.0864166938941903,0.017818132907796,1
0.113961756739618,0.044469564638279,1
0.115040574910226,0.0267635109225216,1
0.0954094124645596,0.012951422984677,1
0.0715488275329369,0.00723854262281683,1
0.054355664696005,0.00349220706750261,1
0.0590249500880738,0.00333564394538012,1
0.0877891053914302,0.00635457831144484,1
0.12537203462926,0.0112790759075076,1
0.152547245583321,0.0199686497388745,1
0.150307769416653,0.0251737300122562,1
0.117372228865691,0.0110774125731888,1
0.0755351971860583,0.00515101219390836,1
0.0428503574928547,0.00341399901951732,1
0.0248348821736395,0.00227956334082344,1
0.022702810456662,0.0038937967171066,1
0.0314057756053074,0.0117529726541043,1
0.039629469966862,0.0345041730465633,1
0.0393579105129493,0.0414660482718691,1
0.0307827872180399,0.0223295389699285,1
0.0194391845520491,0.011898069661164,1
0.0103821008126154,0.00706709087117261,1
0.00622263230081976,0.00819924095977334,1
0.0050843272440062,0.00913572406373856,1
0.00484174285157986,0.00933678361870725,1
0.0047950149071393,0.00998647172392742,1
0.00492413876457923,0.0078358423980918,1
0.00741637160978453,0.00421006019451264,1
0.0176833222545656,0.00419695254419706,1
0.0388731541974873,0.00648505602516795,1
0.0685338282197955,0.0114855981590733,1
0.0950674064341215,0.0303102228088566,1
0.104034477123174,0.0255691009783059,1
0.0954060130523187,0.0187481859160707,1
0.0771024601123615,0.015980888827778,1
0.0536102024638737,0.0123866973979246,1
0.0309078384338641,0.00927067046480194,1
0.0153119263927555,0.0066459301250284,1
0.00901238130229096,0.00671765966507576,1
0.00848892980045815,0.00966249247233115,1
0.00936173143427037,0.0117624744301495,1
0.00959550671963836,0.00822364437546201,1
0.00996066540262308,0.0062571403186203,1
0.0118092062097093,0.00550288093086231,1
0.0166266366258008,0.00540866501987054,1
0.0272634625504308,0.00630539794311133,1
0.0486748213711958,0.00711743439686094,1
0.0784677427056717,0.0186389728943302,1
0.104608268689684,0.0486990684949272,1
0.118770901889037,0.0878771978338439,1
0.11443303032723,0.0393295458285401,1
0.0899979213535306,0.0101765711351976,1
0.065544696698932,0.00459200319107976,1
0.0606506609938897,0.00353183239755334,1
0.0819415100313347,0.00422102417703862,1
0.125272275609131,0.00745483948721842,1
0.168391228282443,0.0132960182730052,1
0.187328723553328,0.0162617586956135,1
0.175488852020838,0.0164507263862283,1
0.134070156041476,0.0115203935314439,1
0.0794532489681218,0.0036285864355483,1
0.0462774471618841,0.00148312066200223,1
0.0492789617893236,0.00261758092019691,1
0.0779890889201207,0.00696549303071936,1
0.112651670150758,0.0267634359700141,1
0.126246917641682,0.0444060838965365,1
0.108915470182126,0.0136097223716356,1
0.0808268085102518,0.00579866390333129,1
0.0622010726072174,0.00365526913669138,1
0.0644288177409988,0.00377104810353489,1
0.0840848407332651,0.00841801114367832,1
0.0990469563880642,0.00995067941414139,1
0.100598534277274,0.00900368427634026,1
0.0920823484371159,0.00833039885782729,1
0.0784289821064782,0.006136721606125,1
0.0732622698747737,0.00500038197500246,1
0.0833755396370546,0.0070275189247333,1
0.0992251104584419,0.0111642450931133,1
0.108253130386447,0.0184436710506419,1
0.097128507987983,0.0248632124118408,1
0.0638701521268267,0.0137319365213219,1
0.0316354350191905,0.00992573923423276,1
0.012417871744903,0.0082275478664138,1
0.00371835006018214,0.00505210188352311,1
0.00109217780753855,0.0058885998734887,1
0.00105346150476042,0.01543207820894,1
0.00119869342537755,0.0135903303476583,1
0.00134283967140005,0.011823084411053,1
0.00121945854615415,0.00548706119037063,1
0.00251322178962631,0.00716823000418821,1
0.00634301911105446,0.00940869175461257,1
0.0142783289826409,0.0130327708579829,1
0.0237800363160128,0.0189261224013593,1
0.0306799540309139,0.0246362298117879,1
0.0372536533070866,0.0280106405801611,1
0.0444175362224314,0.0381983022613175,1
0.0465324355748614,0.0780256951769715,1
0.0449474465652225,0.0646005310159368,1
0.0467943389117718,0.0682672151634199,1
0.0480847439304211,0.0606280516132556,1
0.0463392828276716,0.0542242741687145,1
0.0453381342171706,0.0517554492096799,1
0.0417985997005613,0.0401074329223542,1
0.0312276422978358,0.0195099472355897,1
0.019144478923423,0.0121967853582595,1
0.0103503567251303,0.00820082475730788,1
0.00494114795057126,0.00498573000415142,1
0.00350786399664465,0.00853820645555085,1
0.00399046732684973,0.0179243600144269,1
0.00404107528196284,0.016224687011243,1
0.0037001703562942,0.014722082636724,1
0.00285416889070333,0.0123949161516601,1
0.00184099782035025,0.00725419552787922,1
0.00164974938394309,0.00827685913212328,1
0.00251226080728067,0.0116838920077024,1
0.00417769758499174,0.0187975422911145,1
0.006202708249959,0.0538519816434738,1
0.00811942309542777,0.0658105594264633,1
0.0105227688488721,0.0526755384424382,1
0.0137134402342326,0.0529163184337459,1
0.0168417954097586,0.0718322634106638,1
0.0193380922131408,0.0963718029931218,1
0.0205127309658078,0.167439284251768,1
0.0192870164309586,0.0637956476053918,1
0.0156599203129785,0.0239154559998574,1
0.0110627350066936,0.012834271434455,1
0.0067766688172197,0.00642747725473821,1
0.00410349633661759,0.00294268542774673,1
0.00425209355208095,0.00343752054072663,1
0.00702983644237374,0.00667308834173972,1
0.0110996154993596,0.014266161877561,1
0.0145610948193244,0.0288600486111664,1
0.0157946757431132,0.0487833420844312,1
0.014154442900618,0.0287808075777671,1
0.011054991140654,0.0216166373680856,1
0.00737349551073557,0.0157240376794398,1
0.00394147901739631,0.010550237667008,1
0.00154075077391231,0.00754244526549237,1
0.0004652020268211,0.00438447585938547,1
0.000557339486271318,0.00363373809554557,1
0.00202864177154086,0.00700025167365893,1
0.0047092886113106,0.0121704546929164,1
0.00808895151243572,0.0174317744136799,1
0.0114034862620818,0.0239105237554407,1
0.0134554948957905,0.0244725812124746,1
0.0135069997105548,0.0217635380660023,1
0.0114112789989024,0.0154746205198128,1
0.00794524810366908,0.00898092094407467,1
0.00452966987381009,0.00419595947428445,1
0.00270171465422874,0.00353862957788531,1
0.00252340069859701,0.00673441674961253,1
0.00284793639321827,0.0124424969515644,1
0.00284237265951222,0.0174832330800908,1
0.00228567130025216,0.0116681379125332,1
0.00160477505908287,0.00782259179557705,1
0.00115827670041253,0.00780964756749626,1
0.000957716357433514,0.00810405344899421,1
0.000913715674490616,0.00944228463779216,1
0.000952299438502424,0.00813081604731974,1
0.00120139607473418,0.00792111304121986,1
0.00163316419993966,0.0098094355738289,1
0.00208939033664362,0.0125988285186818,1
0.00239727583326063,0.0153121701672846,1
0.00234576514493848,0.0124299292374654,1
0.00204250253716285,0.0101311840257058,1
0.00170721394436098,0.0088788251838649,1
0.0014987875387511,0.0085217418675958,1
0.00145653926985892,0.00913945237527971,1
0.00154257525083753,0.0144255645300816,1
0.00149297191884652,0.0246729252761563,1
0.00120376609157888,0.0222910660467464,1
0.000930376130071444,0.0156782384558673,1
0.000929359234113981,0.0113828179908334,1
0.00147718401593498,0.0160531357961701,1
0.00244252627878823,0.0220400434324046,1
0.00330128377655726,0.0242014022524628,1
0.00368924802832811,0.0225659860251155,1
0.00356393030888112,0.0212160709230979,1
0.0029810816829469,0.0201227357987967,1
0.00203542355545349,0.0147018681996615,1
0.00104431435692443,0.00881552858111139,1
0.000394722728777529,0.00503692767714618,1
0.000315330823368336,0.00730606242824918,1
0.000662134287625382,0.0212465366284732,1
0.00106688730683628,0.0561217573903452,1
0.00121054027370574,0.0411071379965031,1
0.00108924984197703,0.0194517777100739,1
0.000919683756124693,0.0166225628752892,1
0.000754784934084923,0.0151886524777741,1
0.000579149577645017,0.0119077569148282,1
0.00050005581572372,0.00726402796391736,1
0.000851359715413874,0.00665256266027366,1
0.00180526488311129,0.0108931205121042,1
0.00291074866489447,0.0150734703875011,1
0.00370895852822792,0.0154350738424026,1
0.0039194166621519,0.0122586540116412,1
0.00362721503033396,0.00950516359811598,1
0.00314312699220924,0.00695767145300051,1
0.00295182801419944,0.00575417034950092,1
0.00341349872450265,0.00697838613286097,1
0.0042607337157956,0.0110287661520695,1
0.00477559016912243,0.0185179049505939,1
0.00437074212758949,0.019025800294348,1
0.00320970966804682,0.0127476433099801,1
0.00193621505447395,0.00694309859923906,1
0.00120188148622024,0.00756228741180978,1
0.000945701402683192,0.00849951230707404,1
0.000906068160179076,0.00988563177263574,1
0.000906114145544464,0.0117510417121031,1
0.000832471558932231,0.0111803373333004,1
0.000700458995709874,0.010049753817674,1
0.000625062188263184,0.0060467676527151,1
0.000962593721793931,0.0053919079617878,1
0.00202421040177578,0.00732378372477146,1
0.00377631704848411,0.0103942805462927,1
0.00563961632682915,0.0138108700468978,1
0.00673842835722512,0.016444379189822,1
0.00664443383227209,0.0136195192630308,1
0.00566237909780315,0.00980616078650674,1
0.00435763036446849,0.00765132704501581,1
0.003198711657596,0.00647120517643284,1
0.00256760913145608,0.00648566370930683,1
0.00241115231004556,0.00681349485555355,1
0.00274929021591016,0.00575731011149746,1
0.0039275562047662,0.00566728699678905,1
0.00615268749956094,0.00742456038827872,1
0.00881305474485248,0.0103807988502556,1
0.0108943551499002,0.0163303717295178,1
0.0108257676329868,0.0131573963213719,1
0.00903810736477209,0.0102753891456541,1
0.00667089463635246,0.0098300436977499,1
0.00443144745073762,0.0074237842501308,1
0.00303789390983657,0.00519800145695793,1
0.00464474099032373,0.00390926335120655,1
0.0125144961312075,0.0055178730904753,1
0.0263986917379853,0.00874118716376879,1
0.0428059751736784,0.0118114880624427,1
0.0588265989612081,0.015440596226894,1
0.0679317033656122,0.0220776555641866,1
0.0643392999578366,0.0199710279979229,1
0.0499045236862312,0.0120083975293398,1
0.0319411008517709,0.00735665618849945,1
0.0163676397241159,0.00356239540816422,1
0.00844094180866391,0.0032551491603255,1
0.00737526154213463,0.00693640502959485,1
0.00790397547986751,0.010630821832448,1
0.00755903967708413,0.0164122476499017,1
0.00575261468774377,0.0159323143520717,1
0.00318171266271024,0.00939666946439067,1
0.00131656947393997,0.00731352847632732,1
0.000593220510285168,0.00708859207229091,1
0.00046171965963992,0.00922916341501523,1
0.000468882270056814,0.00837333219714707,1
0.00051886851934532,0.00953487959281614,1
0.000557068529138072,0.0105008217606787,1
0.00063633465762376,0.0144595341229504,1
0.000624594382343751,0.00651630329929361,1
0.00165918272874038,0.00502957196661603,1
0.00503661271104577,0.00755882302937112,1
0.0111537170672209,0.010284408492007,1
0.0196876450674642,0.0156551474833763,1
0.0267407273235381,0.0213711485560128,1
0.0278760794068486,0.016149676981143,1
0.0243596909682685,0.00996487075873524,1
0.0199844826314101,0.00696913857001462,1
0.0165911571942187,0.0056671214442485,1
0.0152228842469231,0.00682206396811575,1
0.01491521026788,0.00705904301825386,1
0.0150905021450628,0.00586229276305183,1
0.0172782526403145,0.00550833229311857,1
0.0228531125538654,0.00537383611111906,1
0.0320768826680098,0.0067841601296275,1
0.0414121742937519,0.0100178190336406,1
0.0456467762334758,0.0116117417482809,1
0.0425077368296367,0.0108376012565598,1
0.0331447462332763,0.00698832920199697,1
0.0235769727466769,0.0033730518936099,1
0.0209274097690261,0.00348382526279775,1
0.025195842894313,0.00614103781482942,1
0.032074643153523,0.0129819587795055,1
0.0366454154780903,0.0343351970411137,1
0.0344944354399578,0.0518046906827228,1
0.026905736664545,0.0303126097199625,1
0.017503151457013,0.0152690180218156,1
0.00921055927401273,0.00535648762633775,1
0.00605061565122024,0.00237879740187898,1
0.0104959387025433,0.00413159368105124,1
0.0202400624276676,0.00856691684872401,1
0.0300871728681936,0.0145712949734887,1
0.034444638751893,0.0135704994745669,1
0.0324118770511572,0.00883559575090364,1
0.0281776143396124,0.00592921719763894,1
0.0259696657545617,0.00494354095600901,1
0.0273591247246891,0.00592255759642293,1
0.0301911685846934,0.00750308928586163,1
0.031532088762889,0.00820073251829555,1
0.0302432252782272,0.00757727422496372,1
0.0274056416108052,0.00605272064952021,1
0.0259977027508507,0.00510752580354446,1
0.0277315212473689,0.0063171679180078,1
0.0307819011718987,0.00853226034536573,1
0.0317554502815712,0.0113376356567581,1
0.0276555128315411,0.0100811363897857,1
0.0209542852088248,0.00411997963480085,1
0.0206069414437169,0.00263764302325113,1
0.0310354745317931,0.00427472918106658,1
0.0490562582541455,0.0107255133519587,1
0.0650736164764571,0.0312210690930534,1
0.0676542731576984,0.0309881995177036,1
0.0566119706453122,0.0146113853764143,1
0.04082033418135,0.00912826583008781,1
0.0256640646610368,0.00631160638401677,1
0.0146468935285074,0.00523180213930071,1
0.00914145531908783,0.0053560712297307,1
0.00757162992930083,0.00536742202149527,1
0.0081364081073785,0.0063913008658744,1
0.00962604728672125,0.00783533653372358,1
0.0107390076755769,0.00819434531398227,1
0.0111158106507216,0.00795588441696929,1
0.0115041608895094,0.0109796116353789,1
0.0111399318179079,0.0142226540554118,1
0.00881316599197164,0.0135784842254415,1
0.00509371176334326,0.00876256028144375,1
0.00240525245413657,0.0066101169236056,1
0.00155141771390336,0.0069006864770688,1
0.00176982588662413,0.00788659991307843,1
0.00399242707990928,0.0059123925708112,1
0.0131234312488077,0.00499397602780281,1
0.0314539596059449,0.010723521298811,1
0.0519155062314773,0.0202644683360195,1
0.0648362954807289,0.0208125261089956,1
0.0661572414169408,0.0166393279053818,1
0.056270926872241,0.0102375755886595,1
0.0427302932690518,0.00648851485164534,1
0.0323197555899008,0.00534148921452752,1
0.0270134336017044,0.00453372759184743,1
0.0288497992152851,0.00527505555254039,1
0.0363002513105322,0.012415409004155,1
0.0414696007455356,0.0366341782898076,1
0.0389495210937114,0.0601301145047375,1
0.0328471041852745,0.0513920160810492,1
0.0270158633693104,0.0478583048659618,1
0.0236005355784101,0.0642624367350499,1
0.0239247846017138,0.12342521834922,1
0.0270916909043319,0.139059958392904,1
0.0280908057410464,0.0879423175257158,1
0.0262928874974335,0.0733874234743105,1
0.0227505231314753,0.0566816014201329,1
0.0172511605647284,0.0253970450665681,1
0.0104162389731528,0.0106708370761574,1
0.00588474026256973,0.00924443527368722,1
0.00381745107263612,0.00768241941674016,1
0.00379734613794783,0.00888582337568161,1
0.00504845989172548,0.0209872769176758,1
0.00521708736853248,0.0149777092669468,1
0.00473919906407532,0.0158761856932648,1
0.00402871834353725,0.0136031574321651,1
0.00375272577048186,0.00796621295465273,1
0.00764944104698621,0.00626369575567551,1
0.0248397418327278,0.0060150332467466,1
0.0610888810290135,0.00882453490886966,1
0.109267218904117,0.0145775451446866,1
0.154734093738143,0.0187595538100925,1
0.186962392699754,0.021286369450124,1
0.192461277689447,0.0249706456373441,1
0.167072321111334,0.0207125383527675,1
0.123586216546264,0.0153734714646931,1
0.0764594512167568,0.0110097472025583,1
0.0361655149845673,0.00658913534278086,1
0.0132434479010221,0.00682894260000722,1
0.00597604929959028,0.0122152020161756,1
0.00465380185970413,0.0161638351520631,1
0.00417419253330837,0.00841934223969251,1
0.00499571628499814,0.00476285748164564,1
0.010112803216276,0.0047018365852954,1
0.0203389961857279,0.00881634152892887,1
0.0311059757015883,0.0124219099778936,1
0.0384733412211129,0.0148055219134181,1
0.0408357810341919,0.015142783783644,1
0.0368258926040424,0.0149260235386065,1
0.0273706081587115,0.0140934205701523,1
0.016734282432189,0.00990383036022212,1
0.00914545442943964,0.00654558410981121,1
0.00736539911037043,0.00598640427548787,1
0.0125664826532491,0.0104808788283121,1
0.0208706434036253,0.0136944678240991,1
0.0281490209808297,0.0156791857804182,1
0.0326863668544983,0.0180804974218982,1
0.0325493212051198,0.0185206215216297,1
0.0264170497031452,0.0163222943061796,1
0.0163122762839889,0.00878595759596073,1
0.00790253159982187,0.00513940162111751,1
0.00382190871327847,0.00426521619073943,1
0.00330663685680337,0.00886712519786226,1
0.00382724216967779,0.0278348167079783,1
0.00353818928151729,0.0274992246962712,1
0.00256710485146759,0.0181415222451527,1
0.00148201683914844,0.00744071940275226,1
0.00130370301041458,0.00986041642863972,1
0.00186897033742227,0.0169656892509216,1
0.00404786080936218,0.0129342383382316,1
0.00909441210901314,0.016986846016157,1
0.0163427199101751,0.0292253357544775,1
0.0233260334236778,0.0443954761600055,1
0.0276632644383499,0.0474066070148817,1
0.0258529539454727,0.0169905484600706,1
0.02080323878017,0.00648589622158873,1
0.0211021155684676,0.0042935161298195,1
0.0307870667605647,0.00589318935280684,1
0.0451554633052799,0.00779727972703235,1
0.0579733706748859,0.0116596736629464,1
0.0616165931293343,0.0109532064696192,1
0.0560890471261743,0.00979053105987562,1
0.0450102761584558,0.0096807442647451,1
0.0299746514528653,0.00680702240188291,1
0.0174198035200523,0.00492495122728464,1
0.0140047508074441,0.00396233033136061,1
0.02272998454754,0.00566629842770257,1
0.0381233351390164,0.00903404453873731,1
0.0507567504040439,0.0101943148042571,1
0.0576065240721744,0.0102220055429741,1
0.0572861187244576,0.00831546635541526,1
0.0543086505848169,0.00595214445913957,1
0.0570470033205529,0.00564160695556781,1
0.0672281441828025,0.00672542085097836,1
0.0805855751539623,0.00849655669713629,1
0.0881482075872755,0.0110076630843495,1
0.0819201641202274,0.010016140544755,1
0.0659767636625422,0.00675015620678178,1
0.0523393696868904,0.00530433092738271,1
0.0486987989625238,0.00420200598256915,1
0.0582706697089227,0.00752178097318569,1
0.0700211371828992,0.0169823251760497,1
0.0713440419989926,0.0275957339526593,1
0.0602057758483664,0.030138015530194,1
0.0401494061020287,0.0161608351215738,1
0.0206583720202149,0.0115233193608405,1
0.00990858765613098,0.0167771007844164,1
0.00606511143485606,0.0245711875402375,1
0.00564572040670678,0.0367196556166032,1
0.00624070499658115,0.0497876530992409,1
0.00650920645088799,0.0325463123662536,1
0.00539596356625844,0.009142166031328,1
0.00553809064685445,0.00394774536525168,1
0.0108781502304248,0.00464337207417276,1
0.0211230197541859,0.00977841523763189,1
0.0303926767005557,0.0134285407389456,1
0.0336940777972009,0.0110988655387506,1
0.0318472718529836,0.0078728392892313,1
0.029789086182195,0.00518112925449921,1
0.033461016354564,0.00562753041339541,1
0.0413454304667032,0.00739749738738358,1
0.0475936428158942,0.00866074090614684,1
0.0494905995385111,0.0093587421127993,1
0.0460489951146167,0.00878284232978374,1
0.0400111993040458,0.00562889893422917,1
0.0398734592967996,0.00478140298770902,1
0.0485813721353879,0.00656242246883264,1
0.0624547943530029,0.0104878679829597,1
0.0749035292363137,0.0223052290003378,1
0.0734684784050023,0.0346747860136897,1
0.0565725051345794,0.0236626451300177,1
0.0362313390529448,0.0187871554674685,1
0.0204860034828647,0.0160641423659781,1
0.00860169564824669,0.0102276075637349,1
0.00276208642938755,0.00820141805967492,1
0.00184887001939879,0.00567347571593774,1
0.00545901783818604,0.00568861943804058,1
0.0230488731607358,0.00509669422772257,1
0.0643449311528592,0.00845348293479643,1
0.123145232941749,0.0126016857751944,1
0.191792216365186,0.0163738860775602,1
0.260145387696133,0.0297439451085183,1
0.294922195453463,0.0404208894389545,1
0.278803214253757,0.0264225520690112,1
0.227752753532324,0.0196830956661448,1
0.157279922895316,0.0128804077719621,1
0.0843988821414905,0.00517199993980654,1
0.0403950505697473,0.00330458905156451,1
0.0334920589023671,0.00394767822800862,1
0.0549502612926677,0.0065449301305125,1
0.103545961981469,0.013071477844197,1
0.163578170098695,0.0363494622345351,1
0.210001131241892,0.0483904944450497,1
0.236929840357987,0.0468363456272613,1
0.238679495202184,0.0438526895757513,1
0.202889625370693,0.0185786316063552,1
0.146208893663566,0.00828280686430204,1
0.0966147885726681,0.00517175794405849,1
0.0670732904287534,0.00326099234701577,1
0.0682801594327146,0.00392013257068191,1
0.0926502574028046,0.0102922314864885,1
0.112716923227132,0.0173639774322664,1
0.114393777461045,0.0203255975430306,1
0.0979720377039277,0.0209207617345738,1
0.066259182605812,0.0132958073793601,1
0.033715680936302,0.00773377763945903,1
0.0131400804376719,0.004841032220371,1
0.00642549052525591,0.00312206089440268,1
0.0113971416442995,0.00684914342476998,1
0.022213770299255,0.0223268851361565,1
0.0290970585609297,0.0273010608610051,1
0.0278203547640642,0.0117059163031603,1
0.0245666579125891,0.00771876687250224,1
0.0236871160508902,0.00752398869630297,1
0.0235897658390713,0.00828400216384002,1
0.021015739422683,0.00659769606036287,1
0.0190276687080693,0.00538104498821036,1
0.0207435583415014,0.00638353383698166,1
0.0243590043179348,0.00769896335141145,1
0.0283376369816717,0.00825821795923121,1
0.0345306568855947,0.00687672003209618,1
0.0491016604695071,0.0113204281027687,1
0.0733264799625743,0.0196458203143823,1
0.101972801534781,0.0360898839037822,1
0.126758507269877,0.0462700884506496,1
0.144555018818286,0.0465458591557888,1
0.153410577863559,0.0354437172183278,1
0.148565375583096,0.0242569858133301,1
0.128202044957188,0.0169106610128481,1
0.0964492148141751,0.0117293106056261,1
0.0591890210617456,0.00765846481137745,1
0.0270632341964104,0.00362339737120664,1
0.00969648162968916,0.00254886388896627,1
0.005815017369402,0.00482780548006218,1
0.0069954726393227,0.0208565748901976,1
0.00720594277113669,0.05142539262052,1
0.00559695218043245,0.0359755665114972,1
0.00322404361159742,0.0140477858552022,1
0.0016149219656232,0.0077349342376974,1
0.00129762647643552,0.0117529390819837,1
0.00139378751637383,0.0110702549915456,1
0.00133735949993122,0.00625969117776442,1
0.00209012194809578,0.00389975661810353,1
0.00500242848054443,0.00565733576605248,1
0.0098908304163505,0.00835122443732125,1
0.0157882297520734,0.0113978876613267,1
0.021437680315172,0.0144739600766799,1
0.0246180568613075,0.0183309646297861,1
0.023405655784655,0.0176020430464361,1
0.0178206870913263,0.0081991818688473,1
0.0124551874337611,0.00300802007252244,1
0.0133472752421972,0.00122627159263029,1
0.0239344854562526,0.00317218838552466,1
0.0408640616562334,0.00949804878264008,1
0.0565104378228011,0.0202657491839599,1
0.064566114164709,0.0294306082180722,1
0.0637907423620552,0.0347064061314752,1
0.0555119149675996,0.0314105824593997,1
0.0415332019018956,0.0199875098679269,1
0.025501044788337,0.0101535061953077,1
0.0127393136426378,0.00757813443009977,1
0.00484976167505658,0.00542816016986129,1
0.00153798447621749,0.00623358809783962,1
0.000867441577205489,0.0121719336906834,1
0.000787934085979063,0.00618677372813755,1
0.00124652316044027,0.00517480030785675,1
0.00253703557395239,0.00821729654098749,1
0.0040466728520754,0.0116386339716438,1
0.00489974769169902,0.0111127635639281,1
0.00497301428298959,0.00763886313449047,1
0.00523240722985715,0.00636242080480609,1
0.0059771401830397,0.00829714473087532,1
0.00599493972210504,0.00809017980072015,1
0.00529064470395747,0.00559235841240126,1
0.005481066134961,0.00478241357981201,1
0.00774716209663534,0.00554040858073574,1
0.0118456745260581,0.00708519299654938,1
0.0167861139938219,0.00840382067632175,1
0.0218977839306342,0.0105230743817289,1
0.0256773885641355,0.0168603837216238,1
0.0252030921789859,0.026270062733448,1
0.019479686093123,0.0173045488182542,1
0.0116001195968614,0.00803429234219829,1
0.00512884311108894,0.0035620920635271,1
0.00206981023939625,0.00188052788632082,1
0.0024942541709167,0.00595400332456634,1
0.00430679958276553,0.0169296202805303,1
0.00577913568370648,0.0276111640905602,1
0.00625448373784706,0.0286807496519184,1
0.00547221567430895,0.0133064091535252,1
0.00428703370403772,0.00689413927413853,1
0.00381805515174445,0.00512033744921154,1
0.0046413446387383,0.00536702139700193,1
0.00691638476002338,0.0077566269392682,1
0.00985239467566465,0.0158027821863059,1
0.0119345613368309,0.0311436787028319,1
0.0121991844663939,0.0403305719856667,1
0.0104293665894414,0.0323654811623746,1
0.00699945089914846,0.011737667952722,1
0.00369640178006621,0.00397971430146079,1
0.00237351476895036,0.0020038438163675,1
0.00367119829503564,0.00360297191702993,1
0.00696718643981836,0.00899635667107003,1
0.0105724336477668,0.0186568165099228,1
0.0126496485008527,0.0234479234289459,1
0.0122307082229469,0.0158649613267608,1
0.00991651050857313,0.00916404434281726,1
0.00726603753432177,0.00605159622530374,1
0.00557316057603852,0.00470073492919192,1
0.00546125317410777,0.00497938426434223,1
0.00668585491145661,0.00876666784232977,1
0.00802376815736857,0.0175047781689913,1
0.00817355010630892,0.029096697356656,1
0.00654643272207934,0.0222009835220739,1
0.00388585099524258,0.00727256196310905,1
0.00225128458005287,0.00249065702980284,1
0.00322529912990624,0.00338243735376478,1
0.00648427769366977,0.00870359638814834,1
0.0102588970905702,0.0187004081423668,1
0.0124034652218223,0.023283396094385,1
0.0119279993762589,0.0139878798518467,1
0.00994143858598141,0.00969873871430007,1
0.00756001182644097,0.0071829384309082,1
0.00568313152577293,0.00557691806838446,1
0.00488703046307195,0.00593554635346196,1
0.00501048864552934,0.00817506458134006,1
0.00532967900067361,0.0137569965217956,1
0.00493326076549037,0.0197153374746882,1
0.00343006858710084,0.0159131581486999,1
0.0015462091944846,0.00752603168990759,1
0.000483701313891597,0.0058397358487202,1
0.000238142798319832,0.00752747943803745,1
0.000355924311001989,0.0208332141747087,1
0.000498397321192258,0.0723135901141156,1
0.000489367680769586,0.0543371069916518,1
0.000416028648932332,0.0233012505512955,1
0.000372016472669465,0.00964882098906302,1
0.000481926922341021,0.00905464409014567,1
0.000720757712486201,0.0125043353049399,1
0.0009249632718717,0.0140361926473472,1
0.00100030610543092,0.0120818022652076,1
0.00100668092188124,0.00847786880091273,1
0.00114397519134928,0.0082034316859628,1
0.00135908921057819,0.00965713729704697,1
0.00161918956766422,0.0107005258491337,1
0.00209015056658336,0.0140180456765231,1
0.00259902941791565,0.0253779761011838,1
0.00271021055018964,0.0435907629748888,1
0.00236234555818686,0.0508593019957948,1
0.00165825395730015,0.0313836644904064,1
0.000826073142502344,0.0161218878423555,1
0.000344606835202331,0.0105340619610401,1
0.000328755712988202,0.0134687030263806,1
0.00053609436831711,0.0164881719043033,1
0.000802990289818496,0.0247792042034435,1
0.00103857733815523,0.0365136366759335,1
0.00114863647887717,0.0400074562807205,1
0.0010878565881326,0.0329652851842351,1
0.000837684054483768,0.0330198651284518,1
0.000464961223035198,0.0189341446795687,1
0.00028979034597811,0.00675156825074166,1
0.000709083070589393,0.00696741715872606,1
0.0020926351752121,0.00974149070567037,1
0.00558363178817443,0.00865861224305608,1
0.0136305460598287,0.00750442016066149,1
0.0267225113026927,0.0144694728834648,1
0.0409535430046044,0.0221588338409235,1
0.0527489870060254,0.0333225371918505,1
0.0570587018766525,0.0307363577383921,1
0.0512516845589089,0.01685398734502,1
0.0393345871948738,0.011147997169783,1
0.0265989108133556,0.00804947225231758,1
0.0154213572531354,0.00572936788692578,1
0.00803424484424049,0.00416129360336125,1
0.00569622393999248,0.005936492547318,1
0.00620075017980671,0.0112602210765109,1
0.00660550149798209,0.020739847751133,1
0.00561479974731436,0.025037295536859,1
0.00463707543234583,0.0174988744211067,1
0.0048972622612556,0.0249320320341802,1
0.00589461211801032,0.0316501515813857,1
0.00711923523462627,0.0348314095617736,1
0.0081999557581646,0.0395264960949293,1
0.00774661550829787,0.0340170934227856,1
0.0059232727205704,0.0231014968675633,1
0.00387317140995766,0.011876537599032,1
0.00297962700751949,0.00484615976225792,1
0.00605908199508793,0.0038209970730831,1
0.0147343208810122,0.00818891725871033,1
0.02687824232276,0.0137429897519315,1
0.0385023572766491,0.0270284571014536,1
0.0426848132985405,0.0225680363395188,1
0.037656660589491,0.0105739845384714,1
0.0298839026396589,0.00692479563421425,1
0.0242508706829586,0.00500967688443341,1
0.0234298346843224,0.00460347891639447,1
0.0279807339377314,0.00667545229999952,1
0.0341916119682506,0.0108395220093449,1
0.0386378596638122,0.0184337969442817,1
0.038397285309231,0.0334704824867887,1
0.03051992414057,0.0300228752192482,1
0.0188585598079945,0.0164931524557602,1
0.00997084471041561,0.0151765830951197,1
0.00475422835348408,0.00970716412456088,1
0.00239087998802298,0.00596656609001987,1
0.00287876084893005,0.00712698769924202,1
0.0052819666793615,0.00844293089652128,1
0.00880307711400737,0.0108979494867741,1
0.0122873845996405,0.0156009442594139,1
0.0141081778855936,0.0231834651841989,1
0.0131715500662472,0.016152420743451,1
0.0102933372377876,0.00867103044234513,1
0.0071877869512378,0.00455021904983085,1
0.00582561515308369,0.00450448503028775,1
0.00620976662587389,0.00840961616342161,1
0.00648135408795596,0.00802034685845155,1
0.00652970469943371,0.00640086643930373,1
0.00726394311544614,0.00545523040145794,1
0.0092737765462345,0.00712827115649903,1
0.0111252981597531,0.00930365268854656,1
0.0114625411245412,0.00719830118477021,1
0.0117215044436153,0.00617954002735604,1
0.013236096357828,0.00573001840762605,1
0.0169757241305847,0.00682284625810716,1
0.0211317418425512,0.00924651313446615,1
0.0226832558114986,0.0084269235250177,1
0.0226541668108457,0.00625839328288288,1
0.025131177415433,0.00487236986839421,1
0.0344400323960292,0.00522238987162609,1
0.0494682755259334,0.00755708536472637,1
0.0632131816543188,0.0106136518036641,1
0.0696673855837278,0.0127739200938895,1
0.0662050187341255,0.0139313771786712,1
0.0517712166180715,0.0126659946617557,1
0.0313004526822751,0.00813865047674327,1
0.0147922634837765,0.00526614837691021,1
0.00668084024966032,0.0040002957317775,1
0.00552976389062677,0.00613096517969406,1
0.00809188945156434,0.0101673079408096,1
0.0118264458029272,0.00919270414381373,1
0.015612051248645,0.013534867901867,1
0.017169419840459,0.0163829582500024,1
0.0154636537462337,0.0171764348192304,1
0.0108582530093961,0.00836625684716263,1
0.00789372485548072,0.00231399538532905,1
0.0131441039456469,0.00333827579085598,1
0.0264208534482071,0.00766952172914051,1
0.0432768152087284,0.0135145849475436,1
0.0580306287876014,0.0287888566137507,1
0.0619870257566459,0.0281896516418018,1
0.0529377270434775,0.0116347326718473,1
0.0397872076257247,0.00640822527748206,1
0.0301295595312817,0.00444781288867475,1
0.0272257651981469,0.00479977495620346,1
0.02990928032523,0.00687910180668054,1
0.0339709924100674,0.0102619246415847,1
0.0356259999093408,0.0140115298947009,1
0.0327038747702084,0.0182334757931732,1
0.0244172630262761,0.0175107566381497,1
0.0161669455220286,0.0110075003340486,1
0.0127863816642644,0.0136763303799675,1
0.0115858280734508,0.0135155714254581,1
0.0107111575635711,0.0119080283009271,1
0.0103135376268549,0.00861026267294449,1
