Activity,Complexity,Tag
6.88986587443901e-07,0.062066179323001,0
1.90296027762975e-07,0.0377613047122719,0
4.38418711392607e-08,0.0260293330604706,0
3.54901448306258e-08,0.0253112051985334,0
3.91445278029114e-08,0.0245003142219849,0
3.91445278029114e-08,0.0251750924991125,0
4.09274806103727e-08,0.0272557910461463,0
3.90828617659616e-08,0.0284149410927991,0
2.53554657145297e-08,0.0226967773258733,0
1.55505658395127e-08,0.0174802711785992,0
3.13075788462052e-08,0.0239382783290813,0
6.88112538398438e-08,0.0366707143237988,0
1.00716725131258e-07,0.0482520514683541,0
1.16460332477744e-07,0.0550854914636305,0
1.14001734395876e-07,0.0583867581970385,0
9.64993044303004e-08,0.0488484280779096,0
7.31975858594029e-08,0.0392658579510863,0
5.77649898297072e-08,0.0371094037420407,0
4.7630310713611e-08,0.0336035954600348,0
4.44853428291716e-08,0.038628472012216,0
4.92684823908424e-08,0.0460316773464269,0
4.46998333924752e-08,0.038723810817167,0
3.76216448034556e-08,0.0354469100589307,0
3.76216448034556e-08,0.0321861692651456,0
3.90801806339203e-08,0.0361456766603201,0
4.63085126172524e-08,0.0445986929408133,0
4.44424447165109e-08,0.0436717775095384,0
3.89300372396077e-08,0.0360743496138869,0
3.28170561854545e-08,0.0330443977338535,0
2.53232921300341e-08,0.0264232860203714,0
1.57248394221969e-08,0.0206359508464338,0
1.62798337547451e-08,0.0200561381891365,0
2.05294280401981e-08,0.023533841841551,0
2.04623997391657e-08,0.0208535194618696,0
2.14946355750644e-08,0.0208226587270878,0
3.58118806755813e-08,0.0237935520277015,0
7.44952537673899e-08,0.0342506707417093,0
1.21983464482812e-07,0.0460173520176044,0
1.59345039478262e-07,0.0486465323813869,0
1.69018563883256e-07,0.0513557431338813,0
1.60331696069459e-07,0.0499894844943629,0
1.3317719075522e-07,0.0454614040832333,0
9.70489364987659e-08,0.0404147844458456,0
7.06746406085441e-08,0.0361431702388072,0
6.46823104962491e-08,0.0393285043447067,0
7.3733812267662e-08,0.0425666677546112,0
7.81818103241709e-08,0.0481713947979486,0
5.69472445571121e-08,0.0409628755219618,0
2.94844090581244e-08,0.0252209624396341,0
2.19209355696304e-08,0.0243480406332819,0
4.14422579623014e-08,0.0316573477819993,0
8.97240837619471e-08,0.0439850176911377,0
1.52827207485873e-07,0.0567865447788647,0
2.07254187924168e-07,0.0663120648201869,0
2.35406074357768e-07,0.0707458914794988,0
2.32660595147482e-07,0.0767949866245317,0
1.82724510878357e-07,0.0621964201579819,0
1.23270407862634e-07,0.0460205862160675,0
7.16398481434104e-08,0.0367373928475835,0
4.3327093787332e-08,0.0258297990514248,0
4.93998578608659e-08,0.0320718578083716,0
8.98206045154338e-08,0.0420482789112642,0
1.62669643209468e-07,0.0561372790609746,0
2.37097868675826e-07,0.0654783908956659,0
2.81497415279676e-07,0.0714475656251116,0
2.82462622814542e-07,0.0698814382156875,0
2.30877642340021e-07,0.0610928176503466,0
1.63594633763715e-07,0.0500652815411277,0
1.17972490949034e-07,0.039755766504727,0
1.01081359088874e-07,0.0410966686008248,0
1.01081359088874e-07,0.0400145793122769,0
1.13122323086331e-07,0.0474606921113488,0
1.14551366464342e-07,0.0533174791102744,0
9.96228232584094e-08,0.0545115718245869,0
7.13100689023311e-08,0.0459593789671519,0
3.44176920141077e-08,0.0344402751509906,0
1.38346413330837e-08,0.0215238163086838,0
6.30602256112654e-09,0.0158285211584255,0
6.16928482702048e-09,0.0183231706287574,0
5.36494521463189e-09,0.0170621479629324,0
4.48285277304574e-09,0.0132746202337454,0
2.76692826661675e-09,0.0103668959808117,0
2.76692826661675e-09,0.0103668959808117,0
2.76692826661675e-09,0.0103668959808117,0
3.69191882086363e-09,0.00912475748880318,0
4.76169050534045e-09,0.010074380345905,0
9.9228696848339e-09,0.0150387707327138,0
2.34464997011274e-08,0.023574267993202,0
4.87992842836157e-08,0.0323814855104913,0
8.50240592935565e-08,0.0408811301074659,0
1.10465321233408e-07,0.0536209917623241,0
1.22734181454375e-07,0.051971014383955,0
1.12049870269813e-07,0.0462144053738502,0
9.30674554174424e-08,0.0420221869060321,0
6.25239992030063e-08,0.0362107320937641,0
4.35013673700162e-08,0.032069563759306,0
3.67636825502411e-08,0.0318059668813608,0
3.93375693098846e-08,0.0362676357039761,0
4.20401504075103e-08,0.0424495374512364,0
4.29651409617572e-08,0.0443176091915998,0
4.76169050534045e-08,0.0387543863478552,0
5.94272916953103e-08,0.0434107324352661,0
8.57318781524584e-08,0.0523455956367385,0
9.89364534558378e-08,0.0487814225033752,0
1.12393055171099e-07,0.0540961417988393,0
1.16682866437171e-07,0.0551391207288005,0
1.12693341959724e-07,0.0511025376473992,0
1.11106111791277e-07,0.0449911803257658,0
1.2429728143445e-07,0.0471023533293201,0
1.51151499960064e-07,0.049237082823275,0
1.76410444921107e-07,0.0585061279959702,0
1.88797274951891e-07,0.0587509233521016,0
1.75989507190623e-07,0.0554959875342284,0
1.47186105670988e-07,0.044536521720131,0
1.36673386937069e-07,0.0436822682853314,0
1.5412487539386e-07,0.0422433768787123,0
2.00326142729461e-07,0.0513577554813702,0
2.79172873799873e-07,0.0615813330422634,0
3.66028146277634e-07,0.0789531676021903,0
4.22653654989791e-07,0.0885561112430087,0
4.24919211564685e-07,0.0862709234349365,0
3.74063499005396e-07,0.0808731472336405,0
3.04576599891146e-07,0.077486921310289,0
2.25215091468805e-07,0.0662506543011267,0
1.52502790508877e-07,0.0494769382542936,0
1.00813245884744e-07,0.0412120498485737,0
7.29294726552734e-08,0.0339675086263669,0
6.03281520611855e-08,0.0353651070193487,0
6.23953048650242e-08,0.0386085150635551,0
6.63446123618522e-08,0.0398439007738431,0
6.3274716174569e-08,0.0423295881582575,0
5.07404238815135e-08,0.0420210654885631,0
3.14014184676505e-08,0.0281159446159055,0
1.68375092193345e-08,0.020860141165542,0
1.43628243452189e-08,0.024466441167694,0
1.42019564227412e-08,0.0240670702012044,0
1.42019564227412e-08,0.0240670702012044,0
1.85534337257635e-08,0.0224888219283448,0
3.54043486053044e-08,0.0291859551353242,0
5.16922257561734e-08,0.0381625746051322,0
6.55268670892571e-08,0.0430943426163078,0
7.85491254138283e-08,0.0405463993227118,0
8.58096309816559e-08,0.0505161140736951,0
7.37981594366531e-08,0.0467720766641488,0
5.32070653595051e-08,0.0395613671904054,0
3.05568618746425e-08,0.032397983111762,0
1.26683488951203e-08,0.0184382728507132,0
1.09175696721545e-08,0.018709239382041,0
4.27292013421231e-08,0.0329595410296222,0
1.14859696649091e-07,0.0490843984036008,0
2.29228746134624e-07,0.0643637792330562,0
3.25360735475267e-07,0.0831362707315133,0
3.62427385946174e-07,0.0843467197754349,0
3.35677731570171e-07,0.0663277927237196,0
2.83784420910901e-07,0.0549229761926522,0
2.78387302111773e-07,0.0497084424894841,0
3.43734533354264e-07,0.0556055557146077,0
4.68425941198784e-07,0.0679955866637429,0
5.91993954718002e-07,0.0830397599816637,0
6.60416444411858e-07,0.0889028230308209,0
5.90001873611319e-07,0.0917807295919836,0
4.28916779438257e-07,0.0705101322784264,0
2.52498291121026e-07,0.0528364017054814,0
1.48923479233747e-07,0.0400171413217596,0
1.67238292207836e-07,0.0458853502629118,0
2.32231614020875e-07,0.065281808868978,0
2.80853943589765e-07,0.0721876607491633,0
3.03925084805111e-07,0.0803130769149575,0
3.32634646703301e-07,0.0761981918876993,0
3.44624669191974e-07,0.0775797126733936,0
3.73484374484476e-07,0.0808096336814199,0
3.8464860830443e-07,0.0770336827991647,0
3.40506450376544e-07,0.076110340755391,0
2.63944043805316e-07,0.059884082015945,0
2.17056406667143e-07,0.0494060610537636,0
2.2307286696781e-07,0.0469857347239904,0
2.78186217208676e-07,0.0528609813410771,0
3.92788525181802e-07,0.0646022686248351,0
5.2136489335416e-07,0.0816713739014754,0
5.87639796282938e-07,0.0974217628428657,0
5.49095842057277e-07,0.101097584470497,0
4.18999272017505e-07,0.0910806435454795,0
2.56115138244733e-07,0.0644309306989139,0
1.09757502374506e-07,0.0504183605830328,0
4.34343390689838e-08,0.0290082691832169,0
3.82999712099033e-08,0.030030019269657,0
8.5037464953763e-08,0.0416587606162861,0
1.60870603609759e-07,0.0673965545704193,0
2.26051604665689e-07,0.0756804948158143,0
2.79365915306846e-07,0.0802654792224084,0
3.04943914980803e-07,0.0839098800135352,0
2.87087575585776e-07,0.0813826245088198,0
2.31920602704085e-07,0.0766709926918575,0
1.61664218693983e-07,0.0584367002278678,0
8.52519555170666e-08,0.0389951067245493,0
6.09823482792616e-08,0.0308395271332508,0
1.15910700409278e-07,0.0479134580161016,0
2.32499727225004e-07,0.0593322288977747,0
3.9241048556398e-07,0.0817895624807923,0
5.05192304881066e-07,0.100123358439264,0
5.45891889267929e-07,0.104123746474805,0
4.96398191785618e-07,0.0864396458596065,0
3.8137762721405e-07,0.0681047167204894,0
2.53742336388187e-07,0.0504335407634455,0
2.46977840247999e-07,0.0463138882454103,0
4.42132079269801e-07,0.0657966670128039,0
8.07817040646149e-07,0.0874262790719327,0
1.20827092233402e-06,0.12229004636909,0
1.51914282025812e-06,0.142243614985403,0
1.66778478062753e-06,0.147547920373593,0
1.60735206441674e-06,0.144828497111689,0
1.35793171287912e-06,0.134420425076193,0
1.00789115696373e-06,0.117014045147517,0
6.32149269300481e-07,0.0847036309332775,0
3.22124609101424e-07,0.05629951279498,0
1.64407016772228e-07,0.0430901200867405,0
1.48513266031429e-07,0.0422373327647823,0
2.44961628952945e-07,0.0543540545625103,0
4.34643677478463e-07,0.0766887193120539,0
6.02142039494304e-07,0.0938124714290473,0
7.37246964187216e-07,0.0998177624088313,0
8.40097870423345e-07,0.104813637552443,0
7.68104112850483e-07,0.100170820206708,0
5.43564666656085e-07,0.0782507875833754,0
3.50627723832434e-07,0.0609729675603818,0
2.29590698960199e-07,0.0457126546718694,0
2.84393037884275e-07,0.0428477775082671,0
8.2025749331776e-07,0.0565165093270005,0
2.70466165608971e-06,0.065896829468535,0
7.66488730795603e-06,0.0682021025987203,0
1.75149910691892e-05,0.0823499676720733,0
3.20950595003181e-05,0.112510013395162,0
4.9441032005624e-05,0.146861950062633,0
6.75965937798554e-05,0.184872377769124,0
8.5269964680988e-05,0.268628311696459,0
9.88241167044395e-05,0.409020003059025,0
0.000107199801608995,0.616845078903589,0
0.000109670947388816,0.943927985039504,0
0.000102688837166497,0.356969320576143,0
8.50801083588797e-05,0.159244808555111,0
6.39486884225817e-05,0.0951971919923131,0
4.33892022110686e-05,0.0592420591790071,0
2.64633550532376e-05,0.04948343683601,0
1.51955196100762e-05,0.0313285586307882,0
1.40866704260975e-05,0.0225325906444871,0
2.72434545508408e-05,0.0246484037169629,0
6.46022438500999e-05,0.0272762218646891,0
0.000122897154065505,0.0365767561166556,0
0.000174304107372485,0.042905788920842,0
0.000205658101976589,0.0490065036132299,0
0.000215999818108914,0.0563782875718991,0
0.000191695449994193,0.0469798225149565,0
0.000135811791749939,0.0346936106986767,0
7.59245974321889e-05,0.0235980868652827,0
3.58043520568093e-05,0.0120139391659187,0
3.20516251612491e-05,0.011446666378945,0
5.42685791572948e-05,0.0293191154041447,0
6.61793607884869e-05,0.0330844382776842,0
6.25440326216189e-05,0.0178018959610806,0
6.73285234738385e-05,0.00711164362934505,0
0.000146590143640849,0.00609869214166786,0
0.000326315754708376,0.0104359032425398,0
0.000532405880896439,0.0150450282080768,0
0.000690705206488031,0.0168326923907553,0
0.000734453868071876,0.0151835040055158,0
0.000644216511073075,0.0088827449223644,0
0.000543329383913801,0.00509643345825618,0
0.00057804714822597,0.00469119184190468,0
0.000795802351742697,0.00574104057738239,0
0.00115356391642193,0.00969050078298603,0
0.0014627923956934,0.0189524088094973,0
0.00152154380617469,0.0213506393145527,0
0.00130137374724535,0.0168538261580457,0
0.00089673018116749,0.00995852952239566,0
0.000499897382791957,0.00539829156909711,0
0.00030621611481553,0.00452377372427245,0
0.000358663698582829,0.0076816062553067,0
0.000534022989600354,0.0168749895180292,0
0.000664087021421673,0.0333541025752604,0
0.000642761618901055,0.027532941721866,0
0.000500381026838622,0.0143923040104394,0
0.000353661263869237,0.00881985817582918,0
0.000302155980044643,0.00704692574495721,0
0.000366198601928292,0.00894996344449927,0
0.000487868440990573,0.0133045714862524,0
0.000578999325459116,0.0191607231710661,0
0.000576686205601809,0.0233712833076702,0
0.000466149595748555,0.0200325847512371,0
0.0002977680929685,0.012821810214299,0
0.000157794875960286,0.00822668613413382,0
0.000109963198824714,0.00772875508467042,0
0.000161325538094526,0.0150058763590602,0
0.00025086803414558,0.0441850051587252,0
0.000314413008429912,0.143637039145109,0
0.000322934504019402,0.128482772201482,0
0.00027663019541719,0.0531083532819039,0
0.000204216693217604,0.0279943318014308,0
0.000135248893440133,0.0192606649256546,0
8.66385083144865e-05,0.0139715839469881,0
7.15652483254933e-05,0.0130801893974867,0
9.74546373558586e-05,0.0190772888013164,0
0.000153647033316932,0.0390664019836891,0
0.000204534986489018,0.076721130359005,0
0.000214742997247576,0.104318685498703,0
0.000175353864406273,0.0481064562663035,0
0.000118974590860789,0.0227344109908979,0
8.31799150095166e-05,0.0127910355784331,0
8.88866911537535e-05,0.0127891845941496,0
0.000119211045257775,0.0165921802098184,0
0.000152537712253714,0.0218654977971007,0
0.000173793330269561,0.0286843491402685,0
0.000163504593306372,0.0249335874682929,0
0.000129617894130779,0.0163118961595178,0
0.000104825484912846,0.0121495408560892,0
0.00011410588297002,0.0124281107315069,0
0.000159665788666626,0.0186391695309565,0
0.000214951117441149,0.0388587930394333,0
0.000244068986256776,0.0734888161578136,0
0.000236624144817713,0.0854070885463218,0
0.000199025579198869,0.0792015714592414,0
0.00013805221807421,0.0615098516817906,0
7.90341448812307e-05,0.0543401449970439,0
4.10111346111932e-05,0.0617543254599228,0
2.06109371353855e-05,0.079856734724394,0
1.22795767057363e-05,0.178523999531379,0
1.09927941938371e-05,0.331213651121176,0
1.1440583461714e-05,0.336513674991842,0
1.15599286922682e-05,0.302337203219503,0
1.05377524637884e-05,0.154371173504198,0
7.99996178481691e-06,0.0574094992773711,0
6.45423554036935e-06,0.0373063450299665,0
7.93784531768418e-06,0.0360183611208872,0
1.47946608774501e-05,0.033317113462107,0
3.54488580783219e-05,0.0301954243212508,0
7.92450856257116e-05,0.039261423512957,0
0.000148877685498482,0.050664174785766,0
0.000243266984591528,0.0666108556950793,0
0.000339758996342676,0.103398756120325,0
0.000390327345169779,0.0813080978275905,0
0.00037132557254407,0.0391308293873344,0
0.000302808117153311,0.0206868556860283,0
0.000220762245925565,0.0122524315970839,0
0.00016733897407825,0.00900205758561775,0
0.000169299549202315,0.0106384281322659,0
0.000211292702046274,0.0144272338191857,0
0.000256680084939419,0.0218948206568198,0
0.000268565041906789,0.0314013034332944,0
0.00022255926931398,0.023441403753387,0
0.000154504805209772,0.011023337862304,0
0.000150226394117139,0.00825688763899286,0
0.000263604548141719,0.0105673410835204,0
0.00050894642864642,0.0177867167361981,0
0.000818832892575542,0.0328337680566076,0
0.00104594894687861,0.0496151066057027,0
0.00110741954002711,0.0517090866053632,0
0.00101078924620981,0.0383117199558741,0
0.000775816113010669,0.0205090912148235,0
0.000491004397590222,0.0111403001035989,0
0.000293919756904347,0.00748160895006394,0
0.000256680964350728,0.00708829753305109,0
0.00038263776195459,0.0112557115254213,0
0.000599121883668652,0.0259630542417247,0
0.000751773072154882,0.0550417619515517,0
0.000767177985496251,0.0520908147410644,0
0.000656331128448839,0.031001701102931,0
0.000458324253412456,0.0164975525433207,0
0.000272527612963825,0.0111515052621448,0
0.000168274488075759,0.00997066796297066,0
0.000140736052696603,0.0106506460534359,0
0.000165582009483665,0.0168226028531554,0
0.000195394106499877,0.0344580700468824,0
0.000191232817979336,0.0605371603700161,0
0.000156263080877925,0.0572624597646991,0
9.74396310598234e-05,0.025463358796528,0
4.3827929252646e-05,0.0107953671251711,0
3.45699803140533e-05,0.00982468161474482,0
7.8216557795426e-05,0.0139788224834891,0
0.000175041887881948,0.0205162382513167,0
0.000303211689191563,0.032594386571132,0
0.000408261973620411,0.0455209048723237,0
0.000462556581207563,0.0448783417115866,0
0.000448613654313595,0.0388949059706293,0
0.000352205615617981,0.0259067113371922,0
0.000224561873863924,0.0157207042404604,0
0.000138457884076586,0.0126613311934643,0
9.91288943892338e-05,0.0122397700326754,0
8.94636922180965e-05,0.0150268185225817,0
9.18612275177238e-05,0.022878669537586,0
8.56578145609497e-05,0.0285970018583205,0
6.69768232971896e-05,0.0259310992804057,0
4.26411958639997e-05,0.0176340731001211,0
2.9778561416639e-05,0.0101302430037485,0
4.54829947428696e-05,0.0122874157831943,0
8.51388117449239e-05,0.0183481761681681,0
0.000137186212424872,0.0224769773375668,0
0.000171371632607978,0.0198377930584785,0
0.000170737641400965,0.0128507650708925,0
0.0001649349852938,0.00934460703398586,0
0.000186815642216773,0.00869265658014869,0
0.000252584626253888,0.00990724064029307,0
0.000339020580404918,0.0133832887193885,0
0.000391583241040562,0.0158641508414599,0
0.000381636208993772,0.0136193482078223,0
0.000329896460172167,0.0110585417689426,0
0.000265341709895047,0.00881229638597478,0
0.000229757401025999,0.00870830432568246,0
0.000233479319033272,0.0108036847962005,0
0.00023916656581172,0.0118507880713748,0
0.000234269502268483,0.0107689162765874,0
0.000234140129604094,0.00919661595726089,0
0.000276935139332171,0.00925538522910272,0
0.000382208019386484,0.0125190251258862,0
0.000509831320189857,0.0201870268513237,0
0.00059418895730323,0.0317274867088632,0
0.000578460865667867,0.0461839725684265,0
0.000451333402699682,0.0412819260015749,0
0.000278452188188305,0.0271714446906233,0
0.000133145982378259,0.018850809162989,0
4.55974120527319e-05,0.01305887533887,0
1.55115071079351e-05,0.0139004469745539,0
1.93144382009686e-05,0.0369534911421404,0
3.59154796176569e-05,0.0787744998178011,0
5.69739915303561e-05,0.139660414018179,0
7.80535047503347e-05,0.193703617090153,0
0.000100071837803629,0.224821622952223,0
0.000123236947334759,0.30674615742063,0
0.00013729477950462,0.555899545891671,0
0.000135428604358597,0.340751128249397,0
0.000118422277660282,0.137135129216579,0
8.93730699551007e-05,0.0605098489313893,0
5.73694611875792e-05,0.0335157142686276,0
3.63054368674031e-05,0.0255006775150175,0
3.01736744833006e-05,0.023974136424462,0
3.529304140861e-05,0.0295038764883636,0
4.08786866883532e-05,0.0321057787802553,0
4.0571898154528e-05,0.0202612053619247,0
4.5163521773357e-05,0.0146153239006169,0
7.29493586116237e-05,0.0133507649519679,0
0.000151621655231429,0.0172039650055587,0
0.000267893565792707,0.0262327439087896,0
0.000362138896138531,0.0345828726748287,0
0.000398718451945836,0.0383552726065675,0
0.00036731455611218,0.0285770370837082,0
0.000276759686051388,0.0166418953476728,0
0.000184900710684579,0.0111270520334139,0
0.000143820963223317,0.0106765799475427,0
0.000152902013750957,0.0127271969954574,0
0.000183942648366603,0.0198707158315525,0
0.000198026803890846,0.0297668099525699,0
0.000168504794636974,0.0219847818047278,0
0.000125789602209767,0.0154696672638093,0
9.53751727936863e-05,0.0123106594914736,0
9.03540023293893e-05,0.0132898620153657,0
0.000106614907291923,0.0206756233581364,0
0.000111256247142194,0.0197983346087289,0
0.000100107142950349,0.0183435475158051,0
8.21656293526344e-05,0.01647990400632,0
6.63005345510932e-05,0.0141633565479789,0
5.51265333671132e-05,0.0124099284089127,0
5.48347189557386e-05,0.00837185074164645,0
8.82041526888689e-05,0.00811403161859785,0
0.00017447689828915,0.00955170653580155,0
0.000353245795648118,0.0120595977292705,0
0.00063439792670012,0.017597906542173,0
0.000947324429730112,0.0300099882607908,0
0.00131275575601535,0.0410082835632119,0
0.00172124567411965,0.0638056605868219,0
0.00200026338812716,0.165148559482369,0
0.00213092256423335,0.190417784831036,0
0.00237771527767616,0.108708984894924,0
0.00271033438721928,0.121171689580952,0
0.00296718352021504,0.131007796337556,0
0.00331514684495124,0.0962503445080995,0
0.00378078470643274,0.122631117886734,0
0.0039366070199276,0.0917516076434558,0
0.00373773715819656,0.0678030529352238,0
0.00343720001886713,0.0574748413997204,0
0.00289622712480254,0.0395629436848351,0
0.0021019663167383,0.0221956799898131,0
0.00137279037774066,0.0173126630958426,0
0.000791835254934775,0.00948345477842458,0
0.000370760818890892,0.00556592440926156,0
0.000279100375989476,0.00595291794888725,0
0.000494357850302192,0.0147708453628163,0
0.000688085941568589,0.0161261979149485,0
0.000697331643096017,0.00534216339759645,0
0.00100122112246762,0.00241537463198295,0
0.00253725198592179,0.00253424062040691,0
0.00667737414869481,0.00316897480407543,0
0.0137860700656746,0.00568334852834852,0
0.0218315031957156,0.0105571880980228,0
0.0273609239675793,0.0135553138744335,0
0.0288631386027324,0.0155169334227751,0
0.0256843941385726,0.0120934197917434,0
0.0188198344291922,0.00702545485727812,0
0.0113410177599737,0.00444323265407366,0
0.00586797060714813,0.00350598588215428,0
0.00279477872946174,0.00248765858224567,0
0.00220000888077157,0.00456166909322942,0
0.00284581390627534,0.0140631397944101,0
0.00356288284499335,0.0234463366380205,0
0.00459915689472736,0.0197479778202766,0
0.00597278874844031,0.0220922511580094,0
0.00744222197573963,0.0241138585960064,0
0.00901643417567314,0.0283896138380946,0
0.00991453277177979,0.0206400185356054,0
0.00944861880195842,0.019936468543477,0
0.00776660893478202,0.0158218526778116,0
0.00536973381565953,0.00954589456076612,0
0.00296069494473548,0.00490237173707932,0
0.00139676481378977,0.00382842482988341,0
0.00101144018485245,0.00513662929591354,0
0.00150584119065598,0.0106798389168751,0
0.00237631135114311,0.0234748576344236,0
0.00324569016487623,0.0531550214993156,0
0.00385638483594642,0.0546482648473577,0
0.00480051189506635,0.0575357852675015,0
0.00555355995811441,0.0830105783681411,0
0.00559542892360335,0.0464764050669563,0
0.00508158703204952,0.0390813319128557,0
0.00452366876414244,0.0383213150138098,0
0.00341404554538681,0.0201877980369405,0
0.00219259488843778,0.0122199168738751,0
0.00124418873989881,0.0087741823495455,0
0.000889304021856491,0.00486861056982161,0
0.00171170688464313,0.00417729256394589,0
0.00394865958786453,0.0113791440125121,0
0.00594987121464187,0.0178011356015352,0
0.00689685634979329,0.015815755545959,0
0.00668633068745045,0.00970521473859396,0
0.00549279994270967,0.00480649390429315,0
0.00479037829644646,0.00443983808011189,0
0.00478963695271252,0.00491000306275925,0
0.0047274270105923,0.00467170926392313,0
0.00460603319407367,0.00432960761853206,0
0.00469677545113396,0.00407368100510728,0
0.00527413276553476,0.00356760709005919,0
0.00656911642064269,0.00420606259298996,0
0.00831764963516734,0.00483475204965903,0
0.0103320981395269,0.00670261606896772,0
0.0113468817577009,0.0120451822460124,0
0.0100253464793106,0.0127890720978455,0
0.00719007832063484,0.00960321359459567,0
0.00408660093576657,0.00641109727658089,0
0.001526318004161,0.00325226315003276,0
0.00034703834490649,0.0026310847163943,0
0.000250389851564883,0.00586042436705194,0
0.000574659484269153,0.0127501061723057,0
0.00101242806135873,0.0217904590478694,0
0.00134093488275049,0.0271103910407085,0
0.00153391157067553,0.0266999871109142,0
0.00158852923054346,0.0177700462653611,0
0.00138905584062766,0.0117169550715866,0
0.00104195601468233,0.00680256361944542,0
0.000926882296668047,0.00371652405936839,0
0.00151813465026343,0.00372954887589068,0
0.00285740613724644,0.00587658399605455,0
0.00458223558136381,0.0114328494671585,0
0.00617455269380616,0.0227553037652078,0
0.0070171620154673,0.0347086071723449,0
0.00660676883143632,0.0223866655513118,0
0.00517505586097694,0.0100837580571132,0
0.00350262795218406,0.00558052779100497,0
0.00208949461279162,0.00295949049889004,0
0.00147539980781949,0.00239012989112714,0
0.00173805002577903,0.00480203731488718,0
0.00224980618964624,0.0086458958798183,0
0.00249048167512175,0.0115105708571858,0
0.00222281557657142,0.0100577961966099,0
0.00161159239539099,0.00459481104515041,0
0.00127156729401208,0.00235473027611995,0
0.00171388543043989,0.00321478886105599,0
0.00279152970416164,0.00646572480125087,0
0.00387597804485138,0.0123933468891757,0
0.00437054685734711,0.0183043791072261,0
0.00409226807405471,0.0173577609694919,0
0.00315966434081243,0.00982424135903613,0
0.00202879039442579,0.00517340409649956,0
0.00122584463019491,0.00307566829551987,0
0.00105737408970089,0.00292429273775254,0
0.00157607374208337,0.00640611466744037,0
0.00230853368711085,0.0203088426364104,0
0.00245286408418994,0.0138906177157573,0
0.00205442146174624,0.00518224972832735,0
0.00192719711070948,0.00322944767436588,0
0.0026104924484448,0.00312614368976813,0
0.00423724529155763,0.0053430737184229,0
0.00593774280284176,0.00831000170941045,0
0.00671438283577211,0.00840028749403549,0
0.00647916329045159,0.00787512117494882,0
0.0053588729224376,0.00592237838299592,0
0.00393805849901853,0.00326893294215806,0
0.00330596598123997,0.00274980203165562,0
0.00382769211155745,0.0041794949794778,0
0.0049735220291308,0.00811026909846372,0
0.00574111552574628,0.0179937606070498,0
0.00515739910505107,0.0194351903099263,0
0.00361699055622817,0.0114402135519437,0
0.00210762429091712,0.0078119611196976,0
0.000996186878803489,0.00518260617480019,0
0.000366954758916766,0.00413680981275598,0
0.00022183444403454,0.00806905627621587,0
0.00024389980682497,0.0144506307675166,0
0.00025470411207404,0.0198404125369707,0
0.000215624896647655,0.0336947346669281,0
0.000120077546916541,0.0258744088286352,0
8.73374070470871e-05,0.0306768793059694,0
8.92698356469827e-05,0.0330839003805558,0
9.67773914456235e-05,0.0354501982573593,0
9.58266003577432e-05,0.0300614510265002,0
9.545072709461e-05,0.0312735683922138,0
8.09009500932836e-05,0.0236547658370599,0
6.25284820557794e-05,0.0202533128132826,0
3.60051500787781e-05,0.0147078991529795,0
1.82949511479263e-05,0.00706425181785002,0
6.02545817979724e-05,0.00506577771091307,0
0.000256636328864505,0.00909005170547239,0
0.000648318533169843,0.0113855619294338,0
0.00133150852654612,0.0157267871243902,0
0.00199788968541025,0.019846357567762,0
0.00223138625752821,0.0171150510481698,0
0.00211420182367668,0.0122678517944251,0
0.00180880428528467,0.00711281693344568,0
0.00151453502941308,0.0050272640781069,0
0.00140800260446728,0.00480045725245835,0
0.00167037556120017,0.00609426704659778,0
0.00236869509152699,0.00968174184396696,0
0.00312164812721211,0.0182116001193918,0
0.00345506299674509,0.0544134891345603,0
0.00319141139741718,0.0532985465315068,0
0.00255490217843643,0.0311183808585259,0
0.00165383334918273,0.0153611461206775,0
0.000900499807238307,0.00967169912900582,0
0.000558082396086122,0.00691504924122283,0
0.000487746371729865,0.00646722116105387,0
0.000544778085351938,0.00843107294179704,0
0.000889580714683153,0.00991131420434594,0
0.00171387978129468,0.0115761296008331,0
0.00291731182601302,0.0171854673926941,0
0.00451513456803047,0.0206596763725572,0
0.00684548055124063,0.0242529936929314,0
0.00911844318231811,0.0365606886026989,0
0.0100934604028801,0.0302576514329508,0
0.0101571412247627,0.0263574904640735,0
0.00917735153554457,0.0204014108429231,0
0.00680170919387406,0.00989177661609982,0
0.00421294095829762,0.00524108766564703,0
0.00273402035222868,0.00390579378618606,0
0.00252662119013277,0.00382559580695416,0
0.00355830239633287,0.00679753344630074,0
0.00490579109991114,0.0209504066793734,0
0.00512876688040661,0.014210865909076,0
0.00436734831776336,0.0068001987399638,0
0.00348568936428677,0.00420212039801802,0
0.0036788603592131,0.00218915074594772,0
0.00700393213027745,0.0028676100086598,0
0.0130958087474073,0.00776390869152435,0
0.0185276047748116,0.0119244006131197,0
0.021158057991234,0.0143377740813757,0
0.0198450540642746,0.0116621836229914,0
0.0151790467348145,0.00613245253191729,0
0.0102121826026951,0.00399740094661754,0
0.00733507687190541,0.00359162365889607,0
0.00611002745474942,0.00348631860199445,0
0.00616182592036273,0.00476796117169029,0
0.00681883131866524,0.0111344772642362,0
0.00664882150004933,0.0152837944440813,0
0.00570488073670816,0.0151284472639499,0
0.00457009403469782,0.0123337947792811,0
0.00393702606746,0.0118597441059469,0
0.00399053093419872,0.0169119004571127,0
0.00421499328980354,0.015210227365592,0
0.00413530361081934,0.0102903424656389,0
0.00360933538802386,0.0074755519458919,0
0.00272933291031296,0.00618477859092176,0
0.00179813231803203,0.00485873408680595,0
0.00115605753008826,0.00439478879893311,0
0.00113673074795537,0.00456888256267002,0
0.00166878608960534,0.0109045239756693,0
0.00223779471810124,0.0232160247127694,0
0.00290694663388854,0.022879794174251,0
0.00351680033840152,0.0273724823533045,0
0.00315617143706072,0.00932731155722174,0
0.00264038774903165,0.00574185922324733,0
0.00272121436742022,0.00473330871650635,0
0.0036661673439032,0.00464381882146757,0
0.00561237234826284,0.00607274578603827,0
0.00775009344828877,0.00861768822586622,0
0.0093281154644624,0.0105278264844286,0
0.0101453601455752,0.0136744663021519,0
0.00912287672639179,0.0183194905615249,0
0.00592984310467076,0.00958553406658623,0
0.00288030107446404,0.0060159615875655,0
0.00120914194706253,0.00376342907896792,0
0.000754121408681551,0.00277636593548458,0
0.00140170756382299,0.00912462250351443,0
0.00269906879320251,0.0149426310896401,0
0.00451139574280454,0.0204550095337051,0
0.00633556024964059,0.030849778680488,0
0.00735764942980635,0.0400755169329651,0
0.00722288321788648,0.0270290863299872,0
0.00606006234990708,0.0122612555086363,0
0.00426159577514346,0.00524710080579673,0
0.00309375586283747,0.0034566616917943,0
0.0032045956175661,0.00424828084450214,0
0.00417237437146567,0.00564504554682489,0
0.0051748258118044,0.0099059839117562,0
0.00516683518840248,0.00686287760928858,0
0.00464799518411991,0.00453438928670827,0
0.0044776003066825,0.00410234756132648,0
0.00503807126163818,0.00421476099770419,0
0.00613416246915875,0.00612114101661424,0
0.00673234476887145,0.00660082426514512,0
0.00649972356491592,0.00470455345633582,0
0.0063253700174686,0.00395184398125143,0
0.00692671074166746,0.00362983320193764,0
0.00881069347606175,0.00384201000635483,0
0.0116255855191897,0.00668846366330289,0
0.0134551625693776,0.0102031546680225,0
0.0130899198446446,0.0106771347149165,0
0.0104448041498355,0.00919425370840002,0
0.00628028530220933,0.00465829755695286,0
0.00289791529423007,0.00231182329975939,0
0.00165729790800649,0.00262947222777115,0
0.00189866297259962,0.00583209344143511,0
0.00239742214781175,0.0177696397011186,0
0.00248271786744713,0.0475326614554481,0
0.00190034516846497,0.0148682744404247,0
0.00123164383032287,0.00460097940718833,0
0.00112235012357453,0.00523346680771529,0
0.00134471775629473,0.00676257883375105,0
0.00148407730239567,0.00672663845623235,0
0.00150404675992225,0.00469798700399207,0
0.00193193259314912,0.00303902676815818,0
0.00372382787682858,0.00430491347380071,0
0.00607741729884246,0.00684492606276641,0
0.00756656419026596,0.00709668542387111,0
0.00826702355620512,0.00742447246121826,0
0.00796287368528967,0.00735857313389389,0
0.00668607276254808,0.00493306459549226,0
0.00563027850577233,0.00451588516015346,0
0.00528160057623202,0.00440663800500672,0
0.00584300994617007,0.00563541366306908,0
0.00653094851931601,0.00978073037325935,0
0.00588817912781317,0.0102041345083264,0
0.00422130821372304,0.00550217000455278,0
0.00324685107628219,0.00359206289860444,0
0.00386312190678696,0.00366164374875326,0
0.0059105917937237,0.00634386972216032,0
0.00838162241088018,0.0158343112876127,0
0.0104094550191446,0.0277587923615174,0
0.0111166930510068,0.0376607401101516,0
0.00949944922876143,0.0212881320951696,0
0.00673828153252219,0.0137266249970459,0
0.00423591504253308,0.00996116553534846,0
0.00217672245805897,0.0063966745997777,0
0.000880640139387684,0.00539188437472176,0
0.000432650824205753,0.00578195337914054,0
0.000330237781686684,0.00461399399755401,0
0.000522513383075369,0.00444661132247095,0
0.00122907697885371,0.00566510089317801,0
0.00258562355457312,0.00618934914605127,0
0.00456312571889986,0.0135456607267917,0
0.00593436199990183,0.0156898551115297,0
0.00587123776226308,0.0105002051755666,0
0.00496935875925368,0.00664981255787137,0
0.00434755098891383,0.00381349854510695,0
0.005049559341354,0.00476721412854465,0
0.00619684143779374,0.00602257291894819,0
0.00708294266510993,0.00712399079933428,0
0.00729875111473826,0.00752408483275904,0
0.0068031744218101,0.00528405351315509,0
0.00646101354137162,0.00423806124486718,0
0.00724747194150324,0.00386445975450854,0
0.00979004651075341,0.00555372268452687,0
0.0127230787791321,0.00821339060186609,0
0.0142088256573046,0.0153753819708824,0
0.0125317052070828,0.0124423976130433,0
0.00895055581217327,0.00661699920548052,0
0.00554646761314821,0.00368034082563653,0
0.00353368289063915,0.00266729176095863,0
0.00331522431894271,0.00538807606670895,0
0.00350249060047072,0.00568375516351317,0
0.00365935969226168,0.00303327083491805,0
0.0059362123885424,0.00218758263912248,0
0.0115412127202747,0.00436651576147911,0
0.0178011551154377,0.00636687693431553,0
0.0222984976805176,0.00753190573592299,0
0.02357027041091,0.00704793730316182,0
0.02135564009184,0.00582264526433858,0
0.0170456050172875,0.0046079822648667,0
0.0127516339855775,0.00324359848993998,0
0.0112913262271204,0.00277273950295682,0
0.0134278738278254,0.00501183070179152,0
0.0156036787220659,0.0114038791847401,0
0.0138805345410289,0.00631743114578162,0
0.0112860828846495,0.00224403079267273,0
0.0139163857378248,0.00206664063846689,0
0.0228195279256949,0.00397838155916852,0
0.0328816451282085,0.00795798505740208,0
0.0368892658554271,0.00693782050635434,0
0.035175728411796,0.0054434555128439,0
0.0303000660961744,0.00476726902677153,0
0.0242947156961869,0.00357428544794042,0
0.0208509230551491,0.00309420508345158,0
0.0219790555869216,0.00367227681119111,0
0.027751291698641,0.00714780996794955,0
0.0331725367180646,0.0187612026435751,0
0.0320141355139383,0.0359902956647546,0
0.0235057343802968,0.0156439208848369,0
0.0136491299892145,0.00656300720888388,0
0.00749886249611008,0.0033757082029326,0
0.00618638890779302,0.00276679489188727,0
0.00899271232371137,0.00356430081748643,0
0.0161538001078535,0.00521777607183397,0
0.0256463322706559,0.007189452800668,0
0.0350500465937754,0.016115433427117,0
0.0389621585876077,0.023161936095689,0
0.0355510033240105,0.0189900719655653,0
0.0261611796752026,0.00817506782144912,0
0.0159552001208303,0.00365213679961283,0
0.0101596492495138,0.00466149273906913,0
0.00764211945639719,0.0044684022604128,0
0.00655119376076549,0.00471001488288063,0
0.0064555617811015,0.00569056527945571,0
0.00643950336327412,0.0070407187585388,0
0.00555026928947145,0.00641132814593357,0
0.00428453438263974,0.0052769436775863,0
0.00315857559475649,0.00442574069251113,0
0.00252528555739508,0.00426808151122164,0
0.00249458217701665,0.00646637679606509,0
0.00231853216471925,0.00515437596979083,0
0.00252379795809329,0.00616048529012848,0
0.00247269901323521,0.00453434804240829,0
0.00264992580924025,0.00424302201327595,0
0.00320754710691905,0.00443703751421351,0
0.00377919211400021,0.00527969731132279,0
0.00426282406607875,0.00600650919518533,0
0.00425221355037249,0.00532479250634127,0
0.00423742114432709,0.00591153264796986,0
0.00452474951506262,0.00597611900221777,0
0.00540530021188541,0.00710852793861528,0
0.00670851598263935,0.00611813746474773,0
0.0107167223843845,0.00776438279979607,0
0.0166414915914482,0.0111361909643902,0
0.0213394492529011,0.0112838221100053,0
0.0234942231865417,0.0108096212094466,0
0.0225211467436247,0.00865402979446075,0
0.0181374633741922,0.00556244534606471,0
0.0129987477377709,0.0025764749475734,0
0.012433233501055,0.00145005145607889,0
0.0191199313400461,0.00332335883773486,0
0.0292563131224508,0.00786019114959316,0
0.036423546903107,0.0182857893720294,0
0.0360636689385906,0.0130260969254019,0
0.029588570373008,0.00715894315242942,0
0.0204500654593229,0.00445027896056085,0
0.0121717309577526,0.00380078220477086,0
0.0066193911292075,0.0029936366228495,0
0.00411671952907322,0.00305802066189793,0
0.00352915173727238,0.00439372986597795,0
0.00348268231115341,0.00604428432820572,0
0.00296518783834802,0.00781753289759759,0
0.00209866243279551,0.00381957956879304,0
0.00235414749696714,0.0039661437479166,0
0.00427910711451081,0.00572633517561713,0
0.00835615388987087,0.00723588632195756,0
0.0147767224980958,0.00993584475759782,0
0.0207905345883415,0.0142159962491445,0
0.0248422297990341,0.0170087287355665,0
0.0266764896742283,0.0239433616093161,0
0.0238886829927003,0.0283902855648003,0
0.0156346940709252,0.00775597071647787,0
0.00886318381852285,0.00338206391560455,1
0.00738299362136065,0.00196685746782441,1
0.0123680957600646,0.0026746896810704,1
0.0225208888535771,0.00862838271383559,1
0.0296840793879132,0.0109751252035952,1
0.0307613527806396,0.00884822366204221,1
0.0280624104537544,0.00774973816147328,1
0.0222775674232372,0.00660431594187917,1
0.0145929541447609,0.00535002167074219,1
0.00826614001863337,0.00372880826464242,1
0.00733833887656571,0.00232083582053208,1
0.0161883926096767,0.00296157650796668,1
0.0363484544110906,0.00465439114703704,1
0.0653381530366438,0.00486088471450987,1
0.101216743400931,0.00664521359178088,1
0.135030217179283,0.0126079831677718,1
0.15335286422011,0.018729926471333,1
0.149115101327969,0.0248479383482437,1
0.124857975652633,0.0245996535728913,1
0.0866374470580774,0.0117263437749112,1
0.0482912450588936,0.00404569660053746,1
0.0276722252622054,0.00234624347151553,1
0.0295491327250824,0.00253044195356434,1
0.0553628244858389,0.00373516655856993,1
0.10176188391635,0.00910781723853485,1
0.144752071906392,0.0145165364401838,1
0.169914534145806,0.0171689126721486,1
0.172136589179057,0.0173176417068776,1
0.142509980011955,0.011464885344547,1
0.0923151719274563,0.00505887906472538,1
0.0519915964153856,0.00331795339873721,1
0.031700591420186,0.00260206140198908,1
0.0280098868840239,0.00324914152064639,1
0.0324970012815946,0.0078341248786834,1
0.0340750114659325,0.0109396880932176,1
0.0296082307201404,0.00967331593260891,1
0.0216008893660439,0.00530322399968155,1
0.0171659614743269,0.00278359888776744,1
0.0221761883914634,0.0043140216250888,1
0.0335901544751318,0.00784012600602241,1
0.0438678908608007,0.0123753513867081,1
0.046906656659892,0.0164577597136325,1
0.0391799053187472,0.0112532549716441,1
0.0281321267049468,0.00826971652230714,1
0.0186914497592796,0.00586458208405595,1
0.0115525045304006,0.00370839766226461,1
0.0111397392791432,0.00434726913814121,1
0.0179109159611838,0.0112209986559877,1
0.0301848552248505,0.0167080317423926,1
0.0455127225987171,0.0287643707490165,1
0.059461708628564,0.048690681942451,1
0.0731126881350512,0.0410421603029251,1
0.0980540097216071,0.0282292707913475,1
0.128823158869589,0.0372839366696805,1
0.155594150016112,0.0581859964587699,1
0.164381485737944,0.039732912447815,1
0.145520069527359,0.0123500626243432,1
0.106273479711822,0.00403546600895276,1
0.0798395603782848,0.00241048083584682,1
0.0813453487372339,0.00312789151755932,1
0.0956907347556732,0.00453745252894309,1
0.103597578454575,0.00452022592545599,1
0.104277364244091,0.00436531957832146,1
0.100154969522609,0.0044830964855502,1
0.089416472420872,0.00473291084996583,1
0.0693759818399509,0.0037866228222347,1
0.0525878825836639,0.00272632677554093,1
0.0521865359279044,0.00333914602004253,1
0.0586866676764057,0.0046425922764582,1
0.0581413844791829,0.00464150308177701,1
0.0505500763545663,0.00338487432011933,1
0.0477538585784229,0.00386463653526883,1
0.0478125385501409,0.00524995061063859,1
0.041378751180743,0.00517922857876042,1
0.0292313188186279,0.00319734998284495,1
0.0265162108822562,0.00261200210044258,1
0.0397568291262705,0.00469148523130419,1
0.0540192038487755,0.00574490024838604,1
0.0623863107850577,0.00565560916326394,1
0.0652549182603104,0.00515210841050026,1
0.062802338419015,0.00638964749666522,1
0.0499925285788903,0.00685049750322738,1
0.0322208967596499,0.00413003706596584,1
0.0245584498180779,0.00270679992891671,1
0.0379325702301809,0.00345062899373053,1
0.069869342376162,0.00617933571862832,1
0.0993331941975447,0.00729450743271109,1
0.110432781835256,0.00591374015136915,1
0.107829448591167,0.00444985241286605,1
0.101648866350455,0.00406325491714536,1
0.0923985305613654,0.00412985443073434,1
0.0787644072998483,0.00344933349258745,1
0.0699196650126432,0.00320635915170001,1
0.0699046054800503,0.00326897432043486,1
0.0782241249581523,0.00354767016443566,1
0.0922270206681403,0.00341002225022329,1
0.113321185631253,0.00343858778659015,1
0.141102886447987,0.0049524208069832,1
0.161785044381303,0.00890062578931057,1
0.154930317895276,0.0134724711819717,1
0.116375187834537,0.00858971630609563,1
0.0671716154359236,0.00383116560937426,1
0.0285804397587794,0.00213796869151424,1
0.00767483553310658,0.00139811073483914,1
0.00158586086069069,0.0013811143388488,1
0.0027646669060135,0.00480472377499179,1
0.00616850963667564,0.010395470883291,1
0.00953694524644196,0.016087470919668,1
0.0118711346377956,0.0179061732584051,1
0.0125365917391394,0.0133186563389295,1
0.0112523189411044,0.00914578562399066,1
0.00888213821286426,0.00796547179251652,1
0.00613303429169389,0.00641889740622243,1
0.00338242589617666,0.00436444207744664,0
0.00144254491549867,0.00265546523001294,0
0.00085563925874788,0.00385180616854968,0
0.000834318628642296,0.00493359724691442,0
0.000852445212741425,0.00458626045647848,0
0.00101666660938017,0.00408459232942424,0
0.00191941921368599,0.00449112486384304,0
0.00372319229571026,0.00758045844431789,0
0.0053388919494489,0.00927653382419348,0
0.00602456193097847,0.00831254808060232,0
0.00593148149888195,0.00708040808443491,0
0.00523612996027579,0.00637798111352782,0
0.00403251133825983,0.00475272930124806,0
0.00312389974190039,0.00402588097582429,0
0.00288370332377916,0.00453463298364773,0
0.00291345009501318,0.00560356449855527,0
0.00283104513977115,0.0092470071290042,0
0.00213557608982875,0.00797203182488653,0
0.00120616149344015,0.00393680261910746,0
0.000794145908150604,0.00325031976804271,0
0.00109166385686192,0.00583671273049177,0
0.00184736861343272,0.0166761846015862,0
0.00276276168017929,0.027478868499585,0
0.00403312634705199,0.0245042002967845,0
0.00563368788421755,0.0322766491691169,0
0.00709928914376383,0.0375995504194575,0
0.00805572891570039,0.0391940100402488,0
0.00757421832891556,0.015175750126256,0
0.0058126341009252,0.00438206005968243,0
0.00503105687326721,0.00238015835849446,0
0.00687133684169595,0.00260667990037761,0
0.0113784497066419,0.00485252800537043,0
0.0160043941026051,0.00811661321063254,0
0.0176759465038167,0.00768548224973528,0
0.016430685160958,0.00710674842208561,0
0.0136114156442707,0.00752541326792741,0
0.00960452901100499,0.00594241807935871,0
0.00678594164938071,0.00331587729820283,0
0.0105249748319513,0.00280587592106634,0
0.023860959816599,0.00499804765050997,0
0.0400649480914372,0.00822717063726915,0
0.0499570563547463,0.0076023438402945,0
0.0518542313500045,0.00581907149825651,0
0.0481079820694561,0.0043917973884893,0
0.0430214645535524,0.0033816318677303,0
0.0411835637895235,0.00316410127548106,0
0.0442480539995472,0.00339662174396505,0
0.0526260489031227,0.00456853518196668,0
0.0623822993289201,0.00965304149045485,0
0.0622291430500121,0.0188234852065254,0
0.0475969959749715,0.0109280815103905,0
0.0280361137712745,0.00583456124703392,0
0.0122019681214426,0.00311047144022114,0
0.00396857033664281,0.00205694906487531,0
0.00287602138715255,0.00498137794719037,0
0.00406216522435541,0.00875112276135864,0
0.0048822475995339,0.00938550452316966,0
0.00508607682359229,0.00927898924870933,0
0.00448119153558956,0.00823195460165651,0
0.00342884387137176,0.00463243145800826,0
0.00311002039269052,0.00414980792422228,0
0.00356904730110157,0.00529149274305496,0
0.00409559482269155,0.00630166321656479,0
0.00432015273920458,0.0107273167908391,0
0.00371349684232631,0.0110862016360606,0
0.00260910686085491,0.00827282879679904,0
0.00160475599128945,0.00623891467365142,0
0.000833717526882034,0.00488435727030262,0
0.000377667348000967,0.00266295093421127,0
0.000496270140919326,0.00276167989093789,0
0.00148616998225767,0.00466326531178852,0
0.00328862208124973,0.00786617665107154,0
0.00483150995062405,0.0108616697201606,0
0.00501440446672288,0.00577660052788649,0
0.004824705862207,0.00432463964235828,0
0.00509449131788314,0.00424950531850529,0
0.00569674151692512,0.00460743916489518,0
0.00614959576496391,0.00486523286598269,0
0.00625615479210183,0.00466923860816544,0
0.00624013543568716,0.00492496231774184,0
0.0060012931501147,0.0063047093040889,0
0.00475125011550561,0.00588720482701815,0
0.00305670500959655,0.00311745215455488,0
0.00256667032384302,0.00534841340751688,0
0.00258768554083552,0.00740538781054488,0
0.00239169234074328,0.00877782441513319,0
0.00182127208550311,0.00760799707786874,0
0.00119106769866085,0.00513218304279761,0
0.00111319368229502,0.00814581419080163,0
0.00125205342516649,0.0156242967268822,0
0.00129647637269079,0.0171222873383435,0
0.00125726002272276,0.0184022337932097,0
0.000989660201756495,0.0195588407148935,0
0.000487624669784246,0.0129551453455536,0
0.000361741316430391,0.0171128711768325,0
0.000456229471542932,0.0192330323327251,0
0.000663895816490148,0.0208420615473217,0
0.00104068105864387,0.0250383681295239,0
0.00156696089601085,0.0336105166632987,0
0.00179383805608677,0.0460492853152288,0
0.00171128904362015,0.0334649146602169,0
0.00154118065318475,0.0342051052509115,0
0.00136705421102698,0.0297323082097016,0
0.00126478759049096,0.0207028514573876,0
0.00164738720261773,0.0154238694221598,0
0.00235859129905201,0.0189783307893201,0
0.00285869531132813,0.0185539961365622,0
0.00282480083686961,0.0112674294815702,0
0.00255102092879533,0.00673608222783648,0
0.00230107091694183,0.0046338805603089,0
0.00235683149245746,0.00392144350319632,0
0.00308597178580461,0.0040506965127727,0
0.00463704816489342,0.00562637516836765,0
0.00708520217573207,0.00878707416670707,0
0.00967542456885035,0.025472622417742,0
0.0107203359256724,0.0522794787716738,0
0.00914727245139968,0.0142421115701371,0
0.00644909349642923,0.00573235996876622,0
0.00430546692424461,0.00311234718927188,0
0.00388896745394619,0.00301012887453135,0
0.0048421303650698,0.00462658490248417,0
0.00610814268595269,0.00613099942038203,0
0.00719663946095309,0.00838580152283304,0
0.00803850080575962,0.0131712009176878,0
0.00812748980891206,0.0230887902520572,0
0.00694275872452893,0.0205283636237077,0
0.0054097097839575,0.0178322891607962,0
0.00395904684838685,0.0131936258790685,0
0.00274007505619678,0.00676406570984689,0
0.0022088919243357,0.00410069681066493,0
0.00259070653317437,0.0037460199291421,0
0.00374682244491282,0.00424610115651442,0
0.00562746396864405,0.0048016316229368,0
0.00833851127959764,0.00734266474747302,0
0.0109727701618678,0.014824397419866,0
0.0123714994384231,0.0301235731867676,0
0.0118179003535836,0.0533617193013976,0
0.00975710054573941,0.0464773841205444,0
0.0072127688483456,0.0296005992900628,0
0.00510686905619517,0.0290333963859588,0
0.00348192810066679,0.0230550058329851,0
0.00218297245300383,0.014833613687637,0
0.00119580064743071,0.00410213433677734,0
0.00134606801728884,0.00218078374531307,0
0.00332608490919672,0.00302203329960226,0
0.00713413971795166,0.00504569585149691,0
0.0119840853496633,0.00925912476962146,0
0.0158215642768602,0.0154027512128233,0
0.0170275006088315,0.0139560909528521,0
0.0157946788285086,0.012404039227787,0
0.0126636553723971,0.010351357115075,0
0.00819366754761567,0.00599532040257321,0
0.00401429383965431,0.0030754081044732,0
0.0016739313428605,0.0018419366144726,0
0.00145314424820318,0.00251317268893148,0
0.00295310231393604,0.00652767510667548,0
0.00543717202960744,0.02065984572903,0
0.00716776085636083,0.0256613594570471,0
0.00728958165388156,0.0135461447196196,0
0.00643728516889673,0.00862229819254979,0
0.00519977944017311,0.00528131370515192,0
0.00433215316448557,0.00405288548631378,0
0.00421364895143011,0.00430617652802784,0
0.00467977482184123,0.00505122511440527,0
0.00553492821388398,0.00699750991496122,0
0.0062121964445433,0.0126021743052671,0
0.00561853781515784,0.0187881434355399,0
0.00378412697614296,0.0101172490657976,0
0.00198815208194947,0.00484175007331694,0
0.00110118071735947,0.00222449685905297,0
0.00182468424428225,0.00303095236780647,0
0.00403816469552927,0.00928240523403222,0
0.00611005707857734,0.0159459753192465,0
0.00687146144730757,0.0120784800293043,0
0.0063615533100036,0.00728043493211572,0
0.00532335064692059,0.00394896400079538,0
0.00496651719899556,0.00309948177314662,0
0.00566413988433692,0.00372009485123208,0
0.00696221469969036,0.00480228375832167,0
0.00829449870346245,0.00649096635536299,0
0.0090684309110009,0.0108846379642724,0
0.00822817929374178,0.0136057044779017,0
0.0058523632897867,0.00980133577775358,0
0.0032935087125082,0.00714912540003099,0
0.0013306905533773,0.00482263836206889,0
0.000313535956516563,0.00326117463361976,0
8.08704951144265e-05,0.00428624613034261,0
0.000107643550410886,0.0054758683068673,0
0.00027319549367984,0.00586093674140481,0
0.000635640532199375,0.0100404036561563,0
0.0009529880074749,0.0123485234631564,0
0.00117516392048622,0.0137278128053745,0
0.00142215747216798,0.0147913386983647,0
0.00169860673138936,0.026431868485917,0
0.00182335123905396,0.0322611559934277,0
0.00210923220601927,0.0248398560502096,0
0.00260821920506434,0.0296424087202453,0
0.00282487343120076,0.0232352561460022,0
0.00257453212153149,0.0119659272676988,0
0.00225141197324841,0.0105112599804966,0
0.00184417270403949,0.00986753603669064,0
0.00131276426860958,0.00820907480788861,0
0.000916286848923862,0.00543184015698746,0
0.00147094657619323,0.00354627998903709,0
0.00367085535690004,0.00563278522946775,0
0.00677037187323012,0.0084824318628865,0
0.00994784447537781,0.0105202067647983,0
0.0119679769260423,0.010978075878012,0
0.0115208774035131,0.00684785972799169,0
0.00988596073050626,0.0035039003110637,0
0.00989095371691054,0.00275606463763816,0
0.0126065700280908,0.00323738817380633,0
0.0173512002757619,0.00468436861883594,0
0.0213619223273976,0.0080625134700699,0
0.0212548045737913,0.00615058175102766,0
0.0184800862110003,0.00393897542606344,0
0.0161938528530486,0.00310111239168803,0
0.0165924104236663,0.00271178255769401,0
0.0202184412423604,0.00499919711018364,0
0.0229119776134353,0.00627263876479583,0
0.0225156234614763,0.00656868270603015,0
0.0193665433344648,0.00630071423690457,0
0.0142365831492149,0.00486130581775097,0
0.00910063952180543,0.00380098484989481,0
0.00614044657346544,0.00325599302079871,0
0.00574763357222923,0.00439382410450994,0
0.00594886306609623,0.00541639540917642,0
0.00534022365432815,0.0057435811475755,0
0.00379926431518774,0.00346480397034732,0
0.00341301552148484,0.00320447568647762,0
0.00455891300626676,0.00470113016128902,0
0.0056158622196542,0.00555345884720644,0
0.00584661251626566,0.00513934783092215,0
0.00565757887271301,0.00341546151346744,0
0.00681154089166383,0.00341653636019351,0
0.0092446845767259,0.00472128715287496,0
0.0111719702800814,0.0052639375086071,0
0.0121608532323837,0.00519192118334112,0
0.012348725956487,0.00486199650629608,0
0.0120352021508608,0.00478235851217275,0
0.011201756758881,0.00445339480582567,0
0.0103554206851315,0.00411951448059298,0
0.0104175738087015,0.004190248651302,0
0.0113622246028355,0.00658993391096141,0
0.0110034570479219,0.0100939814907058,0
0.00826779149945005,0.00626137242400878,0
0.0053494062983111,0.00366129105153812,0
0.00437730945256468,0.00323938346363181,0
0.00553209170487863,0.00652414231145355,0
0.00734915531393727,0.0194381659099671,0
0.00889806165982354,0.0351228100877882,0
0.00953819274232606,0.0447329792555683,0
0.00925844524830709,0.0496516055204924,0
0.010269572234039,0.0234392316520496,0
0.0139068677727008,0.0210814706377049,0
0.0196650550528106,0.0210345724439827,0
0.0303357483789705,0.0178842645302024,0
0.0444368444349313,0.0251582542107989,0
0.0535664150337642,0.0278156245563564,0
0.0545334540257977,0.0227997170036659,0
0.0490012732644372,0.0144717664457607,0
0.0371571995845778,0.00782259842973957,0
0.0234766527871977,0.00477426697827882,0
0.0142333166590207,0.00433464755405621,0
0.00951252592479097,0.00387415931495054,0
0.00780464607729905,0.00429662392443552,0
0.00768407423956051,0.00679625365204291,0
0.00706473873571367,0.00650113931588105,0
0.00604981399079243,0.00604568426681426,0
0.00582159267734119,0.00534765166795532,0
0.00704174728578599,0.00714320498221542,0
0.00856756449469866,0.0156645924165918,0
0.00883490860001535,0.0273940444610382,0
0.00947712586599693,0.021361076303114,0
0.0101488816945416,0.0254489771688362,0
0.0110614435528809,0.0215526864654246,0
0.0157763359708933,0.0208217539912436,0
0.023489061130632,0.0250470161249421,0
0.0292031877914016,0.0284716902407922,0
0.0332056951547495,0.0303937657369988,0
0.0348050274384534,0.0282563191004959,0
0.0295638112554066,0.0173710041649722,0
0.019694530472033,0.0067943723780417,0
0.0131547179505526,0.00420592108433571,0
0.0115077726306689,0.00307274646760985,0
0.0149725349845262,0.00424984905378404,0
0.0223728707926337,0.00908103426770888,0
0.0303128464091435,0.0168491730324439,0
0.0358796519504759,0.0261687542651324,0
0.0403569527023188,0.0503541778443944,0
0.0431428329234468,0.0597546459583053,0
0.0432148577821514,0.0476677065711134,0
0.0361497009453449,0.0151379844584001,0
0.0267784791193339,0.0069296886067508,0
0.0203860054422546,0.00326748034066936,0
0.0233834715847534,0.00296362601625518,0
0.034673349442896,0.00543072725950822,0
0.0445974407051106,0.00623158797112343,0
0.0498928940873453,0.00630980147050554,0
0.0501590419680659,0.00722246520138546,0
0.0430927609728115,0.00815994840847988,0
0.0293911155966815,0.00585637764574957,0
0.0163054682324655,0.00412277220025082,0
0.00751796768536089,0.00260300584665382,0
0.00481556195521979,0.00322931318213932,0
0.00514602947506769,0.00670770880451683,0
0.00449800610236201,0.00439483973761591,0
0.00392047472350683,0.00459993923792707,0
0.00394654936267445,0.00498021510312514,0
0.00458884444315126,0.00461960862681994,0
0.00773376257918562,0.00263039977911749,0
0.0152941678874169,0.00566102901191055,0
0.0243268068439155,0.0107389603597972,0
0.03127555461417,0.0184818875449724,0
0.0331765985258619,0.0236498419203225,0
0.0291303486273168,0.0169544172776428,0
0.0237574307904036,0.0181792587569191,0
0.0196054510745138,0.0149298129233698,0
0.0157880161161841,0.0135736366574581,0
0.0121521040845537,0.0119066642805391,0
0.0105257171328494,0.0147732171289622,0
0.0100612924487619,0.0127231495919481,0
0.00901303208722594,0.0109895260241421,0
0.00808555445055039,0.0106302768049118,0
0.00794502790151149,0.00800845489877595,0
0.00838753261255579,0.00806435266853401,0
0.00933793407832781,0.00776393351833967,0
0.0127150061827991,0.0106227390288445,0
0.016930727625167,0.0119600548204167,0
0.0199835277643491,0.0127245673229646,0
0.0210488372514942,0.012310620378858,0
0.0202155221759372,0.0143837411962941,0
0.0155404466466153,0.0148496730391825,0
0.00794279623176447,0.00464341510417667,0
0.00379747198646153,0.00143395819322714,0
0.00765545772634981,0.00200755246403914,0
0.0199969783817777,0.00348988405280503,0
0.039351919975296,0.00775649945672517,0
0.057417311793507,0.0139010123720649,0
0.0650065690505157,0.0116228624500396,0
0.0624272046978949,0.00850644669642991,1
0.0521503161263944,0.00619365058145353,1
0.0371787732036217,0.00343658787583499,1
0.0256498590665978,0.00224794183452418,1
0.0226677910273649,0.0027712846665653,1
0.0261488652142879,0.00437784368544382,1
0.0319403391052809,0.0100980542322266,1
0.0333296506454713,0.0262298341734199,1
0.0264441234003506,0.0139466645088441,1
0.016178234628842,0.00376855079067061,1
0.0128144831846481,0.00114041591158632,1
0.030743971044514,0.000995417966694979,1
0.0831255249643533,0.00180105884941581,1
0.167011368819681,0.00685692195701779,1
0.24684080323521,0.0112719317685259,1
0.295547266944728,0.0129203644520754,1
0.303023089400754,0.0129104825910046,1
0.264783359098875,0.00977762988634783,1
0.193161841587118,0.00691989274789708,1
0.11552934605429,0.00455801203247764,1
0.0539308610976469,0.0024229067648773,1
0.0279954197421932,0.00169477564733219,1
0.0377606626794949,0.00514385171167231,1
0.0623229199973148,0.0160132598609318,1
0.0850377232861974,0.0305574225645059,1
0.0975911588620278,0.0385896051892224,1
0.095270914445953,0.0281737634206641,1
0.0851346564326467,0.0213583622902932,1
0.0713461370590128,0.0148501059093695,1
0.0496300264429828,0.00901149999091789,1
0.0254698759462033,0.00274400671047893,1
0.014173943311702,0.0011113044124657,1
0.0245178990257948,0.0015269384677276,1
0.0562907811764631,0.00358533562103562,1
0.100608884037719,0.00820394609658392,1
0.140443804134879,0.0151563151619873,1
0.156861622116871,0.0131540266191665,1
0.143732960640817,0.00735358267910459,1
0.114359079205391,0.00379014453828035,1
0.0909158752670573,0.00179530853209021,1
0.101070877342577,0.00121274064421855,1
0.159313453107263,0.00193919588678297,1
0.251351236019949,0.00458159359943959,1
0.340486665501553,0.00999868560206128,1
0.389386413411435,0.021913340456856,1
0.371917862710256,0.0217793572751295,1
0.295326346029408,0.00839664551755439,1
0.196685250143835,0.00362132239215875,1
0.107795915712944,0.00110173183824364,1
0.0572507108385589,0.000189351892513859,1
0.056731991257322,0.00172461828533767,1
0.0860814763349927,0.00424918268015251,1
0.12135689626065,0.00898861152034636,1
0.1435646561187,0.0154795486077756,1
0.138404495061563,0.0142811804315366,1
0.107737231202069,0.00753653093798018,1
0.0712115297282966,0.00521234294385907,1
0.0401718362141276,0.003142291194267,1
0.0230973206385161,0.00179606562343946,1
0.0248802965117564,0.00400704842975395,1
0.036620046735272,0.00919899914738436,1
0.0516500743924088,0.0166904225048022,1
0.0665421020197064,0.0429865747113766,1
0.0738866546825288,0.0847373136873736,1
0.0729570328614447,0.0500389612276256,1
0.0673684199841073,0.023484406323932,1
0.0551318092343969,0.0107236515564811,1
0.0387119270837012,0.0058894546349086,1
0.0248235180712726,0.00382715239048382,1
0.0162643039864468,0.00314062453775822,1
0.0116187153462302,0.00239703286145631,1
0.011938537997027,0.0040696558583041,1
0.0154089296557182,0.0110698034971944,1
0.0167199026948657,0.0216251276557516,1
0.0135040487223393,0.0155740175743218,1
0.00810247668354223,0.00733263482167407,1
0.00447459896167925,0.00293150989066688,1
0.00624407982330669,0.00267343045322718,1
0.0133776407036186,0.00676971530757465,1
0.0211268554618223,0.0101170345530554,1
0.0265338827034631,0.0111927485415803,1
0.0279345720805821,0.0109070393214746,1
0.0240215423593822,0.00666467776522463,1
0.0183636937647858,0.00397667880315594,1
0.0153505688754508,0.00341602227807473,1
0.0152507213438348,0.00301017554966289,1
0.0187947313866971,0.00503875926797988,1
0.0220084400969998,0.0102885648075169,1
0.0202755071430971,0.0065198747060449,1
0.0162931993722445,0.0038159261060931,1
0.0140695676376306,0.00259348919341224,1
0.0164299507452692,0.00261653868131157,1
0.0230806670549548,0.00540736414488833,1
0.0289518876445672,0.00905724421448289,1
0.0299722822581243,0.00928108813859682,1
0.0261446486864039,0.00877014728369825,1
0.0182538456401483,0.00553783848362862,1
0.0100913724847086,0.00196016404371788,1
0.00675223916274427,0.00197181715106295,1
0.00789409883049842,0.00401940922335099,1
0.0108208855224378,0.0096961502190775,1
0.012872988081125,0.032223144713944,1
0.0116787911045644,0.0219122669746698,1
0.00830224992322213,0.0078319400684041,1
0.00542714277260321,0.00349993970802098,1
0.00478098444628696,0.00243631314417424,1
0.00661350934753153,0.00280055470628951,1
0.0105762416156752,0.00528828928580977,1
0.0152656766635065,0.0107585240599114,1
0.0183831683201923,0.0155257149026988,1
0.018630836613607,0.0199227684715838,1
0.0157511958939213,0.0164809328616383,1
0.0110823694131047,0.0101874463420264,1
0.00619849013291424,0.00477548502443955,1
0.00268529002666116,0.0027488006115504,1
0.00131543281273595,0.0021725817139868,1
0.00169177039431613,0.00358983952260322,1
0.00306355153497154,0.0100750666263935,1
0.00434234208826513,0.0218592235173891,1
0.00494797543087531,0.0244631756443512,1
0.00524928912792691,0.0289624828457201,1
0.00533515884575875,0.0378684971013913,1
0.00524395001810063,0.0370200680661379,1
0.00525726020587625,0.0349616257796602,1
0.00540322169108172,0.0373630839511007,1
0.00513156508944075,0.0235767452183445,1
0.00440043927839815,0.0136250042217638,1
0.00368214909744099,0.0136138036611377,1
0.00301978147527287,0.01215707245855,1
0.00231673464532141,0.00936669007893806,1
0.00219511990352257,0.00626512413659496,1
0.00308461265562571,0.00910592776776587,1
0.00401536682869724,0.0109313885708185,1
0.00496575923224296,0.0138568139048452,1
0.00690974197762904,0.013748195712332,1
0.00941138711440471,0.0185029296332026,1
0.0114472393639631,0.0317060686747519,1
0.0133296876489543,0.0417371670677061,1
0.0130974833958859,0.0218705624892302,1
0.00956414769039709,0.00573369564524686,1
0.00809043508411648,0.0041075868006646,1
0.0105664287582003,0.00452245150881075,1
0.0160843900607081,0.00551941711178812,1
0.0226578142320713,0.00791045598947617,1
0.0261667442709147,0.00848731150504363,1
0.0265850888292556,0.00895377839837071,1
0.0245812678845587,0.00971678744008727,1
0.0179285426026346,0.00928681219452375,1
0.00836705502956587,0.00443813598778137,1
0.00301898507449246,0.00367255949222842,1
0.00174567303916677,0.00393645892652485,1
0.00232901369384413,0.00558438200304799,1
0.00427402064507565,0.00824037130046244,1
0.00687022218517997,0.00831868652105756,1
0.00896395369709682,0.0200480003285239,1
0.00921407476517457,0.0207785215825394,1
0.00775518659374272,0.00950067970216052,1
0.00577202853043336,0.00347167330501041,1
0.00548925510006807,0.00242293422835021,1
0.00801676953615172,0.00352518415139724,1
0.0127050389457413,0.0050178582323676,1
0.019040072824815,0.0106696936339119,1
0.023181074752807,0.0187305782256577,1
0.0228536054008209,0.0180684984133175,1
0.0191730738973687,0.0147592423771242,1
0.0129584987122614,0.00763159701811176,1
0.00706446549618508,0.00271430135507392,1
0.00566749025910931,0.00238033562843983,1
0.00952063224976499,0.00369302991330303,1
0.0176402016514422,0.00639837183424616,1
0.0272748548968556,0.0152901011110361,1
0.0333977315723488,0.0266819727404284,1
0.0347186542254733,0.0238116821262176,1
0.0317690531509284,0.0185086929949407,1
0.024825469656561,0.0131861128783472,1
0.0159892718610149,0.00745639638234978,1
0.00871537548913338,0.00578002789074481,1
0.00366736320386532,0.00300667580904648,1
0.00147230788613249,0.00202183359079453,1
0.00202548715395469,0.00520531635914913,1
0.0039526281110347,0.012646904906832,1
0.0057035453157799,0.0238844905434469,1
0.00597580627407543,0.0130185253483825,1
0.0052496164056718,0.00860900886360016,1
0.00432034292530593,0.00746236136896216,1
0.00327915442756853,0.00677272468257818,1
0.00209456585607792,0.00443576196125281,1
0.00196070198718994,0.00276649204605424,1
0.00537773959013861,0.00265775827932833,1
0.0145187479170276,0.00419971543320041,1
0.0278741323505298,0.00665957177325339,1
0.0413989071673068,0.00888463208383496,1
0.0491077863825512,0.0114228841271582,1
0.04607676758848,0.00629417967505339,1
0.038053076208592,0.00345873496551422,1
0.0340979230261687,0.00246345901525508,1
0.0393847633467925,0.00261507987016278,1
0.052825451234996,0.00395293820138898,1
0.0672505834077849,0.00677334759466547,1
0.0743016309507731,0.0103748402157699,1
0.0694464241443813,0.0119150767169825,1
0.0528213218841204,0.010005432260691,1
0.030110557152258,0.00442956579659287,1
0.0126516860670157,0.00299666464939404,1
0.00368841801313466,0.00243639450365127,1
0.000636523203765482,0.00227271023207737,1
0.000206250372087907,0.00593767105034896,1
0.000196942513876366,0.0067249020622985,1
0.00027704180280817,0.00459887970613863,1
0.000559951831488707,0.007015724827109,1
0.000929533400030479,0.00923536734024267,1
0.00156773988283865,0.0105271413557523,1
0.00241238499610215,0.018131336207888,1
0.0027247583628241,0.0209921623755308,1
0.002535118598432,0.0185781077051426,1
0.00214765675602947,0.0174749439534507,1
0.001474400616936,0.0135834598866521,1
0.000675347843023414,0.00731546723663417,1
0.000329395302971008,0.00599257759119211,1
0.000406915412588519,0.00534569597956028,1
0.000952558254182265,0.00637165150375818,1
0.00222509973215929,0.0141432978947327,1
0.00358113787676632,0.0198926961682107,1
0.00458490148457511,0.0199884604822082,1
0.00493118661101384,0.0166595003701353,1
0.00447448446929769,0.0114636570955503,1
0.00347055162575332,0.0045525054155704,1
0.00315596726081238,0.00307077311018666,1
0.00416392047257721,0.0033098646381749,1
0.00642342664403942,0.00499869121798305,1
0.00902828355669945,0.0104902083690032,1
0.00986434195851769,0.0105798706737891,1
0.00858846863775295,0.00529196472175461,1
0.00719596878917862,0.00359558630593465,1
0.00696722603844346,0.0034401365416952,1
0.0079788757671706,0.00382346221153093,1
0.00960945440070825,0.00584948346207484,1
0.0103712140998679,0.00662058823269035,1
0.00969569017349768,0.0065064673283618,1
0.00784242172900809,0.00607434471113065,1
0.00513611730041857,0.00372214889612492,1
0.00311203746999122,0.00242654527150703,1
0.00272823839446087,0.00432575821842449,1
0.00284618896715547,0.00750707202490949,1
0.00255310631329705,0.00899988819193811,1
0.00171918240359501,0.00685398310662127,1
0.000787339371860008,0.00366162385693043,1
0.000341712509364944,0.00436369491217185,1
0.000326659918222857,0.00374154232760256,1
0.000920535652275362,0.0026042503388218,1
0.00266165554743036,0.00407978075935818,1
0.00545599077475435,0.00662523450054865,1
0.00839645133662512,0.0108292379089291,1
0.00978719631993125,0.0107653835442663,1
0.0092386641054517,0.00785423262158701,1
0.00773872085833563,0.00640455688263855,1
0.00589066980295878,0.00538479327720922,1
0.00390548909095634,0.00398864374862213,1
0.00245981124049383,0.00316058864411451,1
0.00216198079779971,0.00459021271218068,1
0.00259776783063153,0.0085625786819289,1
0.00280428881473863,0.015232675292185,1
0.00233436497869101,0.0137740614478829,1
0.00164360310647729,0.0107871462370966,1
0.00116523172046188,0.00725103553384104,1
0.000962065462604473,0.00784076163359743,1
0.000895049808471929,0.00739645652342567,1
0.000809516277786753,0.0072110701214235,1
0.000575019493273998,0.00582373200575246,1
0.000340389137444077,0.00452975624280041,1
0.000294116498373537,0.00437437077866942,1
0.000395259148140876,0.00588327856903773,1
0.000435419331659142,0.00764035919923197,1
0.000300490533211156,0.00453148318127337,1
0.000276338233543553,0.00416536925778501,1
0.000538476567092641,0.00374532137591286,1
0.00124228888973435,0.00589399089913268,1
0.00207532865056653,0.00847689034013104,1
0.00265745764537066,0.00927939436645821,1
0.00299267100755241,0.00866421047040933,1
0.00301796255239794,0.00973962782019265,1
0.00252452722600852,0.00983871966396794,1
0.00168877587815619,0.00761720067568638,1
0.000878645878520652,0.00528214656970752,1
0.000481502296724553,0.00320161428557669,1
0.000973409002491952,0.00509644328486432,1
0.00251508096776101,0.00758459997445959,1
0.00544283632589562,0.00886672521652972,1
0.00927932667949186,0.014971517754793,1
0.0121342641885415,0.0172209806334181,1
0.012743272272052,0.0115607100873271,1
0.0116117749678281,0.00746427636345152,1
0.0094164781632134,0.0060536804766502,1
0.00671137506409536,0.00491424276688823,1
0.00424144212116451,0.00380133689699635,1
0.00264226586057752,0.00289120640120746,1
0.00218220904087205,0.00290728508650777,1
0.00259240327954331,0.00482407933819955,1
0.00292353745751102,0.00546435954226361,1
0.00325400392635516,0.00492879419308913,1
0.00385428772685428,0.00730339086589834,1
0.00408695398723377,0.0108110232781501,1
0.00344740311779179,0.0118826148905756,1
0.00219686554301541,0.00727541865603789,1
0.00127694614893974,0.00363629125383537,1
0.00129891410084085,0.0066484162057228,1
0.00162694950951032,0.0131404071935119,1
0.00180979604675128,0.0154880218188231,1
0.00173358237770579,0.0132911565081583,1
0.00141094910691463,0.0103725590121153,1
0.000956830005342907,0.00894190906729149,1
0.000642484497093267,0.00600240092188572,1
0.000598115622639969,0.00422370711879177,1
0.0010728991499313,0.00484553274948524,1
0.00234073391133435,0.00662378310729907,1
0.00452842116452525,0.00913431370282222,1
0.00643239047279309,0.0121604122330004,1
0.00703310460302823,0.00943872932959564,1
0.00651731451245584,0.00519277131161538,1
0.00687753631338862,0.00222865038645092,1
0.0143407077942555,0.00127840480047768,1
0.0346112508508706,0.00265679692518648,1
0.0652343683886384,0.00478234291644487,1
0.0975089237833118,0.0109849996715893,1
0.115556958604203,0.0138035154114629,1
0.110863697712324,0.0097144732227947,1
0.0896462676607145,0.00665058496959627,1
0.0627321855052526,0.00477942243896106,1
0.0374127961489876,0.00326135364331566,1
0.0198731511161957,0.00213106872780717,1
0.0136379917730999,0.00272209484697874,1
0.0150536616430392,0.00536263049079113,1
0.018603866119747,0.0123512169194724,1
0.0203117382857956,0.0167456580526649,1
0.0202595165605915,0.0150311087864446,1
0.0196321211823832,0.0148649511777068,1
0.0175185236349272,0.00717935417512131,1
0.0152836066080194,0.00307655619181285,1
0.0184041993880374,0.00191207277259513,1
0.0315329600740209,0.00272488866252999,1
0.0518700530104669,0.00464647214608283,1
0.0703619149759266,0.00653660766476465,1
0.0784528880586796,0.00701877024554471,1
0.0733378212911248,0.00600069917664671,1
0.0587354305509162,0.0049847971810459,1
0.0405890571770583,0.00348285822002232,1
0.0263430893927347,0.00256476880695948,1
0.020324445138428,0.00267133529961563,1
0.0216998696506464,0.0052400989000342,1
0.0242271739690931,0.0117102448110288,1
0.0236610105766874,0.0148261282335337,1
0.0209413001983291,0.0123905969431263,1
0.0187315192776368,0.0127096589558255,1
0.0190273512474055,0.01828045541624,1
0.0207413792416794,0.0171282609590236,1
0.0213617586737789,0.015420975349275,1
0.0195691580915047,0.0157998053877091,1
0.0145387965778758,0.00959420060687026,1
0.00826882984826701,0.00309358558582891,1
0.00565525180292569,0.000865175210579205,1
0.0114635808744794,0.00152702718983798,1
0.0282810262818884,0.00293535042640646,1
0.0537657320922329,0.00616234543772756,1
0.0803158177989309,0.0128748998021289,1
0.0977207981596356,0.0165269990850743,1
0.100752271432399,0.0158380669857304,1
0.0860495359312319,0.00800820657315397,1
0.0614437387825217,0.00314628073976807,1
0.0428120252001165,0.00221955410258263,1
0.037758254114018,0.00214479658706446,1
0.045709523495199,0.00330092873224372,1
0.0591078931674288,0.00666381592375936,1
0.0667955163544441,0.0110312201350037,1
0.0628182074497183,0.0130823823900359,1
0.0499785810484926,0.0124299739700293,1
0.0316601503693185,0.00788569536396031,1
0.0151911545260281,0.00547415934883401,1
0.00535803062067663,0.00460771521214303,1
0.0017662389118348,0.00306334048240427,1
0.00155213636196019,0.00258877818363237,1
0.00483543417613063,0.00329352037337619,1
0.0144982824205809,0.00460808357347155,1
0.0298721430059367,0.00730109118437231,1
0.047644926639502,0.00899990758689951,1
0.0658026429070946,0.0152269528675041,1
0.0760863789691776,0.0237844515201029,1
0.0689902722540751,0.0108534447145267,1
0.0519261651360158,0.00563943793715244,1
0.0361839203622823,0.0029624402756607,1
0.0327139367370331,0.00237316831625383,1
0.0441666020795006,0.00391163002013434,1
0.0616490478815405,0.00738787290372375,1
0.0739028172971907,0.0100039839434603,1
0.076284066931601,0.0124017542418444,1
0.0637503063713765,0.0104132712957098,1
0.0409804731637199,0.00488593891114995,1
0.0220719256681227,0.00299196343172338,1
0.0129713234569507,0.00225566826984969,1
0.0137160935784439,0.00312824134529277,1
0.0209687430138151,0.01280771581832,1
0.0268378095470908,0.0396067611037541,1
0.0274476143826101,0.0280245146833581,1
0.0231065197634177,0.01571773583212,1
0.0158329522538301,0.00599719955009878,1
0.0101306335881327,0.00307826211757815,1
0.00841726164810136,0.00243232507773913,1
0.0104653578367584,0.00375227701078326,1
0.0147524627145258,0.0054966435189129,1
0.0205173644259972,0.0115730015260449,1
0.0252175792145458,0.0256634953080361,1
0.0267770761151102,0.0690137844841744,1
0.024591013295476,0.0449836959693096,1
0.0196596281734458,0.0206483133287099,1
0.0131537516571593,0.010857272913864,1
0.00778954535447456,0.00821451165527863,1
0.00450763302064873,0.00715249518972192,1
0.00263195969625606,0.00561237280551681,1
0.00135007863691318,0.00423321424425358,1
0.00113459581881466,0.0040657674763653,1
0.00207182440830743,0.00814027391939803,1
0.00337787396403657,0.0217840407011862,1
0.00516938053987381,0.0177697117677652,1
0.00884353579655443,0.0172559912661401,1
0.0138504289967919,0.0206297236228807,1
0.0209080551396302,0.0199781469992497,1
0.033735560523618,0.016935719186274,1
0.0483579695876657,0.0334045068461875,1
0.0553169470992539,0.033918460479429,1
0.0547122319103113,0.0253601963771492,1
0.0480048999852908,0.0162517386503204,1
0.0354695601498166,0.00847937786271907,1
0.0228122158002918,0.00627435720269914,1
0.0145691002336405,0.0050826055391348,1
0.00908770456382126,0.0041983387379927,1
0.00611856713913868,0.00340788242038808,1
0.00624802666416204,0.00491315864152701,1
0.00742638720990374,0.00440068608889876,1
0.00933193616341747,0.00595147545976254,1
0.0101850784597651,0.0055959752657263,1
0.0101448278443442,0.0038730543809056,1
0.011083404338116,0.0043604814084102,1
0.0125653644041613,0.00464324300060105,1
0.0137349834540239,0.00532549822636881,1
0.0134637399209909,0.00434023526816769,1
0.0134358676417745,0.00449588692494072,1
0.0136174724046671,0.00509821972885634,1
0.013028632300424,0.00526413760844443,1
0.0112492040421158,0.00472164201432514,1
0.00947774157992681,0.00378731140545556,1
0.00974688832828468,0.00449852540969191,1
0.0110149840603561,0.00519945975623131,1
0.011576525878217,0.00553572155187524,1
0.0110569859563717,0.00482780741374793,1
0.010923623775549,0.00467286928925008,1
0.0135010014763555,0.00308295433620881,1
0.0235919928756803,0.00379599268413158,1
0.0385735560683027,0.00604018242306513,1
0.0525635667108116,0.00715085110783986,1
0.0646287619002467,0.0113201973755947,1
0.0660843886595485,0.0117863873216314,1
0.0554478413033948,0.0087816823171713,1
0.0390988303524599,0.00675764417029736,1
0.0230673001612365,0.00430890740096881,1
0.0134582928446584,0.00313493142570907,1
0.0135643068646806,0.00719437684295524,1
0.0145011253937956,0.00951953918548798,1
0.0137851104214887,0.00389429994353646,1
0.0178532764054355,0.00381609417263642,1
0.0268149288734957,0.00425896679408906,1
0.0395461722814991,0.00787830974268117,1
0.0456325570420292,0.00777236066153693,1
0.0440738491208716,0.00366946012893424,1
0.050677534114234,0.00289791773255415,1
0.0736170430687731,0.0031815593221146,1
0.115354816951679,0.00385186674656556,1
0.171056066050531,0.00521807017558679,1
0.225652179708639,0.00953042938294269,1
0.256330389919757,0.0154225158944027,1
0.244256206961741,0.0177757552057344,1
0.185186797061114,0.00997551588162696,1
0.106859481014692,0.00178831976793492,1
0.0516448542739036,0.000340388892290589,1
0.035679715558549,0.00138955024227957,1
0.0459938092529469,0.0041597710694477,1
0.0617189918814942,0.0071160242246005,1
0.0699653768339624,0.00890602478434716,1
0.0650198986872232,0.00590700159023625,1
0.0560042591481456,0.0028343774814553,1
0.0608327185683991,0.00252554591889272,1
0.0855718045743329,0.00313749519364434,1
0.125291002358145,0.00501346122421868,1
0.159463456760973,0.00934960310930816,1
0.162632560003007,0.00951848617300852,1
0.135549382399519,0.00591658371874126,1
0.0974984014098215,0.00378992435114449,1
0.0636706443080523,0.00247597330966024,1
0.0459666716923872,0.0023845652927505,1
0.0441348957063934,0.00384109872427257,1
0.0462580693620029,0.00565466965440656,1
0.042950465520097,0.00645874377906912,1
0.0325843078422175,0.00404452223751514,1
0.022721683752027,0.00214023168933455,1
0.0208977008087716,0.00260188682121465,1
0.0258213600665079,0.00550287714889726,1
0.0303689317448211,0.0145712641405022,1
0.0278150209524928,0.0156150363090224,1
0.019719029005049,0.00879035642023359,1
0.0118232771815754,0.00714254319367939,1
0.00577541895863732,0.00497481411746247,1
0.00218827187403251,0.00366780138248612,1
0.00134580623959972,0.0048128770279509,1
0.00231345873094807,0.00668462679336997,1
0.00378231164598497,0.00946338720676937,1
0.00488217768365365,0.00993728167805184,1
0.00560388973981248,0.0106896477160193,1
0.00573870027620726,0.0172418605931946,1
0.00440949431926386,0.00788650374211831,1
0.00307327161723443,0.00378971429493782,1
0.0035470742148326,0.00332749232849254,1
0.00822175354522935,0.00351679901867377,1
0.0196494206613778,0.00569923316411599,1
0.0347291993430068,0.0128255218287858,1
0.0475869052020737,0.0183826998532283,1
0.0549638814220563,0.0216385729133388,1
0.0518540306940825,0.0109779493767278,1
0.0401597072875501,0.00468247928864327,1
0.0303085675771132,0.00285187602024124,1
0.0290268460773003,0.00250834426545889,1
0.036857346034717,0.00310188584052089,1
0.050355537395131,0.00543505499017874,1
0.061941610256364,0.0100747074072978,1
0.0634195155284535,0.0121249909999285,1
0.0521680002110992,0.00772118942844164,1
0.0337746179816578,0.00238258508348852,1
0.0231754063436623,0.000213413669580684,1
0.0316555794681692,0.00152509894533543,1
0.0518150521712511,0.00704180802919464,1
0.0653880796431111,0.00979315474117362,1
0.0653482185425532,0.00787985513328864,1
0.0554957794107479,0.00490749445758345,1
0.0443235868514146,0.00340282369259607,1
0.0374806260307475,0.0038200060633643,1
0.0339854031883068,0.00394756167852109,1
0.0322410838741567,0.00376359125134457,1
0.0325315647333521,0.00396839909087026,1
0.0344472978033756,0.0037862723326215,1
0.0406256331884091,0.00290869149691064,1
0.054439594070647,0.00400375881769183,1
0.0722872194460357,0.00583595630686621,1
0.0874082873332043,0.0110276740673125,1
0.0880712199530087,0.0206766539300585,1
0.0672439433456638,0.00782444641688411,1
0.0405712548973286,0.00218919551265384,1
0.027724301975702,0.000837170191953895,1
0.0379636417273075,0.00157650145397165,1
0.0663693486791066,0.00458134147201048,1
0.0953391901704789,0.0100894222625938,1
0.107470787648788,0.00981523457317763,1
0.101069510997472,0.00774194079692415,1
0.0816045289483094,0.00690022275573447,1
0.0547122289503415,0.00502192539050385,1
0.0294737949282521,0.00347015731872482,1
0.0139214429185735,0.00231697257772808,1
0.00995708090823177,0.00245703606464259,1
0.0139188995994003,0.00426907589695153,1
0.0198901717789071,0.00557023704565616,1
0.0248891802202413,0.00525314768566436,1
0.0279950671947788,0.00621358795340558,1
0.0272628908277251,0.00788904287358369,1
0.0214600621629013,0.00554277244671594,1
0.0137890039212221,0.00317427814838908,1
0.00846289204880273,0.00158590317964987,1
0.00808806807350514,0.00259933288878501,1
0.0108312898912637,0.00842901053357177,1
0.012970681004091,0.0247979342481092,1
0.013133597630503,0.0707324714361883,1
0.0120222051916982,0.0768724390450942,1
0.0103635952422348,0.0513945906073727,1
0.00795528533089583,0.0201605366823601,1
0.00560048352242194,0.0124386782170089,1
0.00369935860032539,0.00507208571484366,1
0.00322727766485622,0.00221285237601797,1
0.00553414916539014,0.00316060832157534,1
0.00996120935020367,0.0055347309735967,1
0.0152248515297495,0.0077739654540006,1
0.0200020026087325,0.0133188520002347,1
0.0215646617168605,0.0174807164998839,1
0.0190485553903672,0.0135391066636919,1
0.0145321551001171,0.0115209104337023,1
0.00915960012493311,0.00810550139667909,1
0.00417954514490634,0.00497458052634799,1
0.00146034124043408,0.00504311120765588,1
0.000917224494421343,0.00604329651656757,1
0.00132502379849105,0.00876798873592872,1
0.00194610316960245,0.0124845987889428,1
0.00239121640763236,0.0109964447154957,1
0.00244223300151979,0.00935474855712634,1
0.00210877242404777,0.00600125403950239,1
0.0018396825585873,0.00454308438979939,1
0.00183315046297245,0.00538251309529468,1
0.00172718420195527,0.00460435030765211,1
0.0016592040883237,0.00360176793577365,1
0.00189451930179773,0.00420947475032714,1
0.00218558386756866,0.00492695979145497,1
0.00227064720008435,0.00478298207026194,1
0.00218908462167497,0.00406788189468792,1
0.00222254289739943,0.00362677664771666,1
0.00247610497591821,0.0047259080550768,1
0.0024843145137513,0.00521273953724321,1
0.00209429892257189,0.0037879626203791,1
0.00186222593772824,0.00364959096920305,1
0.00192074737947094,0.00479954358625582,1
0.00189023551771648,0.00545970346240055,1
0.00158861579089142,0.00461927740298089,1
0.00137951851504923,0.00300760082205027,1
0.00180261837475787,0.00368595866444653,1
0.00281917440620926,0.00514643102083025,1
0.00444646116727566,0.00569164572316174,1
0.00655090074520696,0.0081561594414046,1
0.00798319355604952,0.0117814170244671,1
0.00787287741300289,0.0118281081545772,1
0.00646693445685087,0.00913242086170536,1
0.00443193526575516,0.00455075329149842,1
0.00333911515729478,0.0029895779812613,1
0.00399956795785711,0.00496033654193666,1
0.00570008055587124,0.00800120091691567,1
0.00758246341319725,0.0153789585071872,1
0.00819637216637364,0.0226981665288676,1
0.00687108580998405,0.0176342954852202,1
0.00474329713787868,0.0113347145906534,1
0.00283756848148988,0.00625140895954337,1
0.00149876875041406,0.00407979746319387,1
0.00110577971677255,0.00628794969951851,1
0.00110668164154784,0.00781496428192457,1
0.00111159197401355,0.00707271124910426,1
0.00116045432656617,0.00575465716088737,1
0.00139980060597749,0.00530524713026054,1
0.00189730007811134,0.0067495817057002,1
0.00245862465724858,0.00835761204972859,1
0.00279984943652163,0.00892281337550259,1
0.00272121597341831,0.00905589331762555,1
0.0021599960522703,0.00801737160213337,1
0.00143676316417803,0.00546541527350211,1
0.00101011006452224,0.00462491754625715,1
0.000940705411814485,0.00515543999418723,1
0.00115661406607173,0.0118429050443401,1
0.00135486803691817,0.0269770153023751,1
0.00162907277304552,0.0259667793225849,1
0.00193991172521911,0.0308340168966947,1
0.00221946308906699,0.0324045031181015,1
0.00249163492653346,0.0366533842417494,1
0.00266896536437869,0.0255419517073232,1
0.00234533848750207,0.0136219880345973,1
0.00182348260111832,0.00973676685585179,1
0.00141600422051057,0.00692955877105366,1
0.00124971468173026,0.00593094669745873,1
0.00128202285905428,0.00741379207929329,1
0.00134358432381106,0.0087198776129839,1
0.00132704968331051,0.00943949984269841,1
0.00126779994958463,0.00627236550886397,1
0.00180092559378322,0.00440782144048093,1
0.00338894712516334,0.0068044001792567,1
0.00522120745229808,0.0107049373412748,1
0.00670207659788936,0.0145490047043537,1
0.00711015958717809,0.0149419446381649,1
0.00602252877761005,0.00791444590616551,1
0.00454768442527782,0.00523124423514079,1
0.00379477026600729,0.00527068386328677,1
0.00331218664996256,0.00482841015021997,1
0.00306132331316032,0.00500588273973056,1
0.00304416932311483,0.00633986311341809,1
0.00293702900242017,0.00544875776389652,1
0.0028083711063847,0.0059340581176815,1
0.00236862184299962,0.00482480214670838,1
0.00193831700933,0.00467227694188185,1
0.00198725612001183,0.00686407607285726,1
0.00222929800957747,0.00843665271903542,1
0.00290053437415141,0.00680976399266089,1
0.00524957636296476,0.00654379622132932,1
0.00944819295507517,0.0103455289554291,1
0.0130416847375708,0.0119889768716867,1
0.0144891016024489,0.00911404752475639,1
0.0141249183753024,0.00722864897164879,1
0.0122030028024709,0.00678776199707874,1
0.00904492364612319,0.00456975502903851,1
0.00653650737740553,0.00371538286126856,1
0.00541992585151784,0.00366258840649566,1
0.00555635647803537,0.00537042827244119,1
0.00679979000470418,0.0127742118246129,1
0.00710522233614668,0.0319789447372101,1
0.00528740878496364,0.0165786651523829,1
0.00317783464076949,0.0102177866969279,1
0.00194313884298929,0.00469848392514782,1
0.00273710811547988,0.00259498033567026,1
0.00681059953816073,0.00529616603025544,1
0.0126930911886181,0.00807726881200769,1
0.0193732835180996,0.010662916288891,1
0.0250604848459973,0.0126545617726701,1
0.0268610738370584,0.0177838522687991,1
0.02460073465932,0.0204784210922153,1
0.020037261940268,0.0182942381405577,1
0.0134638454691159,0.0127986603928412,1
0.00654380347500121,0.00716000378544254,1
0.00234451340665221,0.0049918888403613,1
0.00139259167198448,0.0028052441303561,1
0.00269140052230592,0.00559962071174127,1
0.00472611248640717,0.0110158297736313,1
0.00551334631550437,0.00773538387887602,1
0.00546099149354344,0.00430564016284777,1
0.00598246418985471,0.00437969337389984,1
0.00694936770160506,0.00468649331741208,1
0.00798402835600303,0.00629684626707726,1
0.00780320948385321,0.00383867168948273,1
0.00906731776128113,0.00310789280077086,1
0.0137287595277259,0.0039593797140076,1
0.020990178374923,0.00494130726753299,1
0.0300939629396846,0.00656245389606231,1
0.036722961315713,0.00776377681268577,1
0.0379285867007147,0.00856760021465061,1
0.033082918289673,0.00653791816010335,1
0.0254234750953986,0.0044286699690188,1
0.0195409037080743,0.0018564952334542,1
0.0225897069496659,0.00253456044490417,1
0.0336456903932315,0.00557785907782402,1
0.0475396136792048,0.0117431504675503,1
0.0590347152798465,0.0351677125787737,1
0.0632580490164362,0.17724817474615,1
0.0601968454345895,0.0675119697714867,1
0.0511278158268037,0.0231933169357689,1
0.0365639318642439,0.00600650225577153,1
0.02381181440085,0.00287306929971474,1
0.0186378152169086,0.00241422519451839,1
0.0206413929507558,0.00336071966034415,1
0.0256614509731519,0.00521417756144145,1
0.0288539361183724,0.00587195277825231,1
0.0284711494731555,0.00557238243792815,1
0.025501484093357,0.00480144404037517,1
0.0214789240474628,0.00416574409746657,1
0.018093133974046,0.00303313702698911,1
0.0177691312641232,0.00401287911117772,1
0.0187390631279199,0.00595495636593325,1
0.017645853027355,0.00677867683094255,1
0.0139343962959348,0.00471115542697416,1
0.0100126827821796,0.00355294621423609,1
0.00765700044972637,0.00414261297883077,1
0.00719702084394257,0.00283072321163817,1
0.0102388037745425,0.00256354610632167,1
0.0193012765693571,0.00286703528863865,1
0.035132293828744,0.00532685247822916,1
0.0488130293107915,0.008035272659781,1
0.0518172020932821,0.00549419004142216,1
0.049632413226943,0.0038641829222499,1
0.0507147470874861,0.00301748801149859,1
0.0627798146577172,0.00282005743798659,1
0.0878181417571573,0.00404603567275736,1
0.114464875504086,0.00632032374860866,1
0.126976132810991,0.00744168303548948,1
0.117876720354844,0.00694724584349393,1
0.0893101448612255,0.00439343275256611,1
0.058866541937477,0.00168580765547344,1
0.0483578991462836,0.00197521188787802,1
0.0550916505308635,0.00372792009495779,1
0.0642477738495617,0.00660654382606023,1
0.0654753051584747,0.0119061374912251,1
0.0540126856548303,0.0115319081745186,1
0.0342242439322283,0.00656245854896163,1
0.0162671591239576,0.00472823197419881,1
0.00589958555097155,0.00377682734508611,1
0.00188995276821254,0.00303024278710597,1
0.00114402368449637,0.00545589246063412,1
0.00192335013934154,0.00843008824050992,1
0.00294905734364798,0.0112381853424338,1
0.00303596701093259,0.00599380483860467,1
0.0035674720850858,0.00402982332184135,1
0.00749382197055358,0.0037589835947938,1
0.0197280771393186,0.004416501219186,1
0.0406884110157447,0.00719084620624762,1
0.063155014975476,0.0120029576429044,1
0.080140613286985,0.0148971393731465,1
0.0878785382780855,0.0160407325555468,1
0.0803386244732817,0.0156515107581733,1
0.0598377978917379,0.0093370514226091,1
0.0375286155193151,0.00595536623657406,1
0.0188010961126442,0.00324703810773946,1
0.0075779116848232,0.00105565392424056,1
0.00910792972627288,0.00196070665153469,1
0.0244261373889267,0.00310128623337067,1
0.0543917760940961,0.00619636146122434,1
0.0914471272959684,0.0115508322152075,1
0.125256811985911,0.0155973603563966,1
0.152207455642437,0.0184497589726548,1
0.168188061776365,0.0245591861735277,1
0.168444315807974,0.0316294131312675,1
0.154814500458045,0.035353215549514,1
0.126444555472286,0.0249421751020154,1
0.0847115785877133,0.00814078636326958,1
0.0463921758411671,0.00392215839237514,1
0.026519126224587,0.00250216213898979,1
0.0246658124689659,0.00253219016235948,1
0.0349327529145177,0.00455847421009612,1
0.0484780969366099,0.0069286910024529,1
0.0640736491903567,0.0099897507630391,1
0.0845035561187215,0.0141434835047949,1
0.102740669467996,0.0316519776256699,1
0.110952320226175,0.0489840080343635,1
0.11056886619089,0.0424431242524033,1
0.102751586179706,0.0263898176859017,1
0.0869643710436762,0.0146860260090247,1
0.0695459007628283,0.0102630417735935,1
0.0525579421247701,0.00724911147968655,1
0.0333763084264785,0.00521555023973899,1
0.0160724077384306,0.00268165333474615,1
0.00797274398333744,0.00224923350001968,1
0.00809676834697914,0.00415175002394561,1
0.0113131772468098,0.0152784823983773,1
0.0128134906697834,0.0356757624990431,1
0.0114265026710105,0.0248274807690947,1
0.00820684931452877,0.00817021883636634,1
0.00592509952521236,0.00525141690733569,1
0.00559116294223886,0.00491186148671266,1
0.0061016811684577,0.00473094648925536,1
0.0074919361266229,0.00497057720115235,1
0.00971482820125373,0.00775171077364203,1
0.01115732782707,0.0106808017323093,1
0.010976793734041,0.0127078880953814,1
0.00844722041644589,0.00952093263528549,1
0.00477646744929737,0.00264275683008802,1
0.004412855024438,0.00238966455814945,1
0.00792053129622941,0.00555826010646308,1
0.012443942368728,0.00868404018139218,1
0.0170521585914512,0.0136667993160352,1
0.0214961651930675,0.0243854465476563,1
0.0259672917482495,0.0261668009654161,1
0.0333993273901832,0.0210491164163155,1
0.0417053550820741,0.039959270675469,1
0.0438800961460187,0.0259586076160723,1
0.0394538382551138,0.0139625284558611,1
0.0324299280018911,0.0074523023961078,1
0.025419207121953,0.00378195652561538,1
0.0223497314621871,0.0033392786554221,1
0.0236394315953794,0.00391624436756959,1
0.0271509388750786,0.00460243073378425,1
0.0314263233959368,0.00613541697234565,1
0.0328460250449946,0.00973832419176736,1
0.027150485954124,0.0065446207888989,1
0.0187711458086336,0.00477838417408949,1
0.0121449369494092,0.00377182845310502,1
0.0105761261983031,0.00342406562227933,1
0.0169618225473442,0.00875813641780571,1
0.0250629775373542,0.0232539024203923,1
0.0307633589779065,0.0364539442071312,1
0.0334592558390796,0.0439496928934325,1
0.0282763176241749,0.0116454468922518,1
0.0201441486071036,0.00367147692883697,1
0.0228463660225735,0.00288260586027069,1
0.0415050725881743,0.00368045496202893,1
0.0738611698602367,0.00478466636459339,1
0.113893926980037,0.00771150254367094,1
0.148111103668057,0.0120467780790719,1
0.164200534903156,0.015029406732479,1
0.154013542758585,0.0162471699397142,1
0.116552818427795,0.0102537738527516,1
0.0684743009645559,0.00318466328216751,1
0.0329105718189039,0.00138365718342781,1
0.0187626016440727,0.00102190343708739,1
0.0250034101404229,0.00243518858255846,1
0.0452172961689376,0.00518039930507435,1
0.0746026289230777,0.0137435655952879,1
0.0962050357964514,0.0247269447956602,1
0.093990742822777,0.0108926784579519,1
0.0775776434294118,0.0068604758801148,1
0.0590387417101065,0.00442355411203791,1
0.0484909794945495,0.00287462293055908,1
0.0554740580345172,0.00409489185321562,1
0.0710500838180979,0.00625894917646203,1
0.0834857998731496,0.00812323344457208,1
0.0898720886209964,0.0123766386590861,1
0.0800022072854946,0.018501261707005,1
0.0530937053728313,0.0105834795411501,1
0.029080528775484,0.00904795629488674,1
0.015656017851361,0.00778605276934342,1
0.00904196742993446,0.00834447787395644,1
0.00863204664260123,0.019093819241539,1
0.0118329955157402,0.0219418012391763,1
0.014680308343738,0.0388426475170889,1
0.0144346733002125,0.0298624325922714,1
0.0120425340817862,0.0141917697129211,1
0.00888250679344824,0.00851549192443119,1
0.00541235159719741,0.00385600856484086,1
0.00360069116093405,0.00199361302684848,1
0.00487039653475666,0.00374222893471908,1
0.00754642356926986,0.00672729437812066,1
0.00976695993962317,0.0118731102852727,1
0.00990076696851187,0.0110633473676462,1
0.00811786656377624,0.00379053338673196,1
0.00801281351510026,0.00177679686429782,1
0.0127758302906653,0.00243939860031819,1
0.0220091729120528,0.00406990087148644,1
0.0325781969873011,0.00786782763785364,1
0.038250444151095,0.0101418541187187,1
0.0355649232575161,0.00574088299744241,1
0.0296703831037179,0.00288334452894235,1
0.0289624543613004,0.00182397244119482,1
0.0396295018438935,0.00223047462867184,1
0.0583211787459986,0.00567066931434306,1
0.0705059230821664,0.00734069821095665,1
0.0693355832072734,0.00566865254959654,1
0.0600493706353448,0.00400343300034733,1
0.050657414652732,0.00280958571245697,1
0.0486619754683849,0.0029372520970067,1
0.0528007906758085,0.00432817677049272,1
0.0552555088405578,0.00451158567598309,1
0.0542074108912764,0.00443048108307982,1
0.0501785596092643,0.00388118829475385,1
0.0475081900743695,0.0028243481229088,1
0.0521743010322642,0.00384227372710735,1
0.0586233825574388,0.00516329216833884,1
0.0599221862439,0.00610653658003032,1
0.0535352096248167,0.00655956393034446,1
0.0391794948615618,0.00470855996351,1
0.0246140367205844,0.00282200514580167,1
0.0180520293242303,0.00376357739958495,1
0.0166984385920223,0.00381043380386346,1
0.0187901869939003,0.00338380423568959,1
0.0267837820687323,0.00306645005645168,1
0.0468405127168578,0.00251222811013463,1
0.0786513677030911,0.00743436281975474,1
0.0999786980782976,0.010001456151629,1
0.0989541527881405,0.00623973919372118,1
0.0865691538230781,0.00365458175619945,1
0.0802483825154604,0.00250002945756384,1
0.0928578742213969,0.00261516088685453,1
0.123566302466328,0.00399216575990903,1
0.156270592766433,0.00604081505146349,1
0.171460499000281,0.00759384017295946,1
0.155941262239612,0.00734139988573124,1
0.112851425365709,0.00353124194569198,1
0.0722174942479056,0.00121406114916081,1
0.0611224015012499,0.00123629824799182,1
0.0772818425393258,0.00388154522424325,1
0.0947171419052761,0.00862130604838339,1
0.0923517206904621,0.00704862783858605,1
0.0740796935298191,0.003886187591136,1
0.0559713897777117,0.002201913493952,1
0.0510423505577403,0.00203382459892584,1
0.0603546742081021,0.00347279463800823,1
0.0723697565274647,0.00570194864880795,1
0.0752122795935046,0.00662772113086086,1
0.0657900234191498,0.00610693559408877,1
0.0478389820192378,0.00322313953619965,1
0.0348763463014688,0.00170079442969511,1
0.0360057680823947,0.00274325046517592,1
0.0458045303608842,0.00546634776222967,1
0.0554113142039359,0.0121803055836451,1
0.054970830766164,0.0178588315816537,1
0.0417804176714249,0.009670391559336,1
0.0247147556362005,0.00386045396822463,1
0.0139255877476244,0.00217911148709541,1
0.0129517571853794,0.00208133336804433,1
0.0203505976054965,0.00639551642892458,1
0.0274971480262787,0.0120619831884198,1
0.0281922546434728,0.00801724250555184,1
0.0248220525028328,0.00473250097678163,1
0.0213839163828003,0.00306472894967567,1
0.0213266039385667,0.00392945533543868,1
0.0224227950262992,0.00474517223898534,1
0.0220041935699294,0.00347589054826266,1
0.0236668027897852,0.00317003765117652,1
0.0291510800840186,0.00352477728565226,1
0.0379538874820601,0.00381532313150255,1
0.0486200381447534,0.00468291685049872,1
0.0578132652663692,0.00593750506017803,1
0.0625849306955731,0.00867792254765646,1
0.0589609227641928,0.0130508714285562,1
0.0426349804771072,0.00990177968508147,1
0.0209619392524962,0.00356042529435908,1
0.00740719117317484,0.00171774534082691,1
0.0056095062181107,0.00184672071861276,1
0.0129599155832999,0.005410803950401,1
0.0231755054383025,0.0142306039330054,1
0.0289795237455432,0.0134349313299363,1
0.0307320629145224,0.0119922546285968,1
0.029757081036643,0.0108425187652802,1
0.0249430780497788,0.0106084761957199,1
0.0167801829485029,0.00709505282742362,1
0.00875491789693122,0.00434923833332064,1
0.00378373302132534,0.0018503583401585,1
0.0049879486644186,0.00216925632533756,1
0.0133462936075672,0.00549492912930767,1
0.0268589662769136,0.00707284544993882,1
0.0427625752292166,0.0108214864993883,1
0.0570079490998949,0.0140769100030676,1
0.0662239628275882,0.0163056838755445,1
0.0682232764139652,0.0175194933171248,1
0.0611194288363161,0.0158201296511686,1
0.0458533214945264,0.00896121859117479,1
0.0280615464321428,0.00441566154358467,1
0.0133959508621474,0.00236281818278472,1
0.00458843924098473,0.00170453272599359,1
0.00139164038488717,0.00222298458900632,1
0.000905534522781676,0.00468096551772477,1
0.00100553635086544,0.00891707931542899,1
0.000998895468318019,0.00966710739682083,1
0.000845025726768077,0.00666082764814622,1
0.0006829326368739,0.00749562214852912,1
0.00050894822768602,0.00467937990398188,1
0.000476866780293075,0.00330023546806327,1
0.000931884819858996,0.00320792535841567,1
0.00260050128764574,0.00391206670188561,1
0.00547897795631982,0.00744535036564407,1
0.00819847853073359,0.00993310893177066,1
0.0100891673715745,0.0118784275450567,1
0.0104858822966609,0.0123400206460335,1
0.00885212783809019,0.00775245745979255,1
0.00632482158654729,0.00502712003965602,1
0.00445788801529793,0.00395242204315779,1
0.00372701174257667,0.0038777097758636,1
0.00380517547134636,0.00580256751240608,1
0.00385672137164024,0.00617344080862907,1
0.00377819704937893,0.00363010560017614,1
0.00504866360999372,0.00262930447770487,1
0.00982218341736263,0.00292005856938174,1
0.0180237283051892,0.00597545260669609,1
0.0256898455556579,0.0108859809744364,1
0.0292996140081724,0.0128113110239993,1
0.0275104485217619,0.00902797518517229,1
0.0215281872212122,0.00486142551582615,1
0.0152652213134462,0.00273997832218258,1
0.0127185743191159,0.00230654790492677,1
0.0150499248769227,0.00296931369001748,1
0.0207708043950383,0.00530539023909214,1
0.026524384696686,0.0137563223163223,1
0.0286566050280292,0.0271465897270744,1
0.0262835655025331,0.0301165403585102,1
0.0201637733139478,0.0176591793474078,1
0.0129131535840092,0.00883574048223484,1
0.00757435995971564,0.00956460478285797,1
0.00424550778979193,0.00847557574903241,1
0.00208979106288029,0.00809977056699222,1
0.000906724001649533,0.00542739764593645,1
0.000561433811137741,0.00261176103323489,1
0.00125731787887108,0.00340480316299301,1
0.00309245833434835,0.00697574365840358,1
0.00581137564457332,0.0119452166145086,1
0.00837264696746252,0.0208590148078984,1
0.00929317674001531,0.0158719582720412,1
0.0086776362257484,0.0116342384337297,1
0.00709292065886953,0.0082738806015185,1
0.0050563974077574,0.00504332038632432,1
0.00341128418583144,0.0047389378960095,1
0.00247589432473599,0.00432096284995919,1
0.00211490784081485,0.00463036868420184,1
0.00212274308725271,0.00525111417326207,1
0.002385563701878,0.00473966373638893,1
0.0031452067759854,0.00578659219317283,1
0.0038763924084461,0.00692900815705736,1
0.00411550791477923,0.00691574175479173,1
0.00407069199909389,0.00696604312662535,1
0.00371780836808078,0.0062146502864156,1
0.00331348003610268,0.00544335939823932,1
0.00315719792186839,0.00580977410719871,1
0.00311222707160579,0.0058832361989908,1
0.0031230345513152,0.00643100091497719,1
0.00294736892487516,0.00832090859081684,1
0.00219954354349449,0.0062417602567293,1
0.0015238272298135,0.00525623189934711,1
0.00132150121996991,0.00550695949878058,1
0.00127025997402875,0.00558940725972035,1
0.00124906873535547,0.00838004801124698,1
0.000930512348367057,0.00703607241252428,1
0.000571432288746139,0.00393643433455784,1
0.000923872500736601,0.00226853339816924,1
0.00320614614839917,0.00244934699878752,1
0.00871127149104229,0.00450885232194644,1
0.0160493428844699,0.00709542728409417,1
0.0224728494959536,0.0104910857539951,1
0.0250375685857366,0.0094187322405339,1
0.0233652186228144,0.00696170982054195,1
0.018807648370372,0.0049944262685388,1
0.0137246185192881,0.00358175714257396,1
0.0102617804326647,0.00300723235081321,1
0.00912904283675847,0.00348291482816372,1
0.00945175147149018,0.00545678780044661,1
0.00924648092446903,0.00682048720350577,1
0.00766500400422813,0.00484456938903877,1
0.00667039618350262,0.00186702081516856,1
0.00944700305795071,0.00282669481535068,1
0.0153453118216706,0.00567940907841295,1
0.0215764776454023,0.0132082768022337,1
0.0242916346679393,0.0176574915978178,1
0.0214740022048972,0.00863263034589723,1
0.0159376822475442,0.00520988634817961,1
0.0110657847963029,0.00497282546914805,1
0.00739749151041358,0.00421002868248019,1
0.00500005802945669,0.00304990544304866,1
0.0050243393264302,0.00276334771008992,1
0.00817854694151595,0.00321411372299338,1
0.0138121264651009,0.00514550113843516,1
0.0190398542240763,0.00605071061298621,1
0.0221729603326159,0.00609985002309461,1
0.0226322623144499,0.00717751459730431,1
0.019786346120306,0.00739254207495066,1
0.0142070507881102,0.00468024302573671,1
0.00932943304513806,0.00285648613368541,1
0.00752882890836206,0.00378570651225758,1
0.00769507179276372,0.00566110509678035,1
0.00763043443948954,0.00787513785394336,1
0.00690436973973526,0.00360421712393489,1
0.0119430576349316,0.00168556202952444,1
0.0318539784775346,0.00321157113604616,1
0.0619223944650543,0.00728071086394999,1
0.0898045117603484,0.0105918780074096,1
0.105657417556505,0.01308070722139,1
0.101443498459573,0.00993861196466658,1
0.0812308648307329,0.00561013549312606,1
0.0586131709834558,0.00428011363464873,1
0.0402576338336377,0.00312616455427836,1
0.0300358234144766,0.00251184485320025,1
0.031154029556238,0.00414528223241506,1
0.0377735396338685,0.0108669860539626,1
0.0392765531793416,0.0174443965676767,1
0.0324340697503213,0.017557182021574,1
0.0197640815038257,0.0080126709111758,1
0.00852920821971589,0.00378220229623461,1
0.00368427163170827,0.00367632248235254,1
0.00336799643765682,0.00704997232852904,1
0.00330360059271352,0.00501642812035536,1
0.0039354251098955,0.00290022111963168,1
0.00796097779515723,0.00326960098873421,1
0.0183054140002853,0.00437144240678438,1
0.0332745034405762,0.00797756555978414,1
0.0449356724616142,0.00916669199731203,1
0.0508027660919207,0.00939186798603706,1
0.049574004229197,0.00838911526478713,1
0.0404835996313535,0.00662976583651151,1
0.0271652069374929,0.00421649751118976,1
0.0174968388400621,0.00312410004280981,1
0.0158080408264797,0.00357265999238494,1
0.0207299704564437,0.0070921628523383,1
0.0252054737425114,0.0252875932601089,1
0.0235596080957328,0.0295426868550051,1
0.0182273388990164,0.0208755164218959,1
0.011141746428212,0.00780471559426146,1
0.00593131653418971,0.00467343070551971,1
0.00418535054381158,0.00630853955275875,1
0.00373183731641516,0.00565409783925294,1
0.00341749063114855,0.00537971732695211,1
0.00353714236603656,0.00471361664813469,1
0.00620621182268562,0.00336477592364574,1
0.0132913274514754,0.00537877016078283,1
0.0230555676990163,0.00740978449782648,1
0.0353338528417823,0.00955615470269468,1
0.0460723587215457,0.0160183166080489,1
0.0473985964642344,0.0178575635519013,1
0.0397178239717545,0.0110989359718115,1
0.0288316050768457,0.00720707249314185,1
0.0177513595010384,0.00394366861797151,1
0.0110507481632587,0.00208506479011933,1
0.0126546305076725,0.00422153677183664,1
0.0177193691451066,0.00870517462187045,1
0.0208897899678159,0.0132729079797287,1
0.0196592490479695,0.0160211062819941,1
0.0142629657968314,0.00733368767608059,1
0.00877309670948251,0.00506021727394703,1
0.00471699683050827,0.00450186849161108,1
0.00238501130288127,0.00344607260235381,1
0.00145819210933695,0.00391750312269963,1
0.00135278474638058,0.00607174098875087,1
0.00125897836024802,0.0103216087098585,1
0.0011139209876216,0.00452228191223856,1
0.00215716914439878,0.00577959333197946,1
0.00356858424010558,0.00841106808118889,1
0.00457779410382043,0.00986517670867632,1
0.00510524691768755,0.00918370803373378,1
0.00517867879963264,0.00445475464148585,1
0.00721229270074412,0.00351419680535476,1
0.0131539365614305,0.004511532121738,1
0.0227798426671819,0.00606901338464219,1
0.0350493571782068,0.00738215280915898,1
0.0487930508661103,0.0126231767443199,1
0.059446578086189,0.0283362358902659,1
0.0627432080224763,0.0354364910912796,1
0.0593938096540314,0.0515777465622418,1
0.0484748702692699,0.0304538613117637,1
0.0340740194175848,0.0119596854161976,1
0.0216362441539235,0.00680986492905894,1
0.0130373944946425,0.00379972859421936,1
0.00892189443289899,0.00250604908752292,1
0.00967334699984853,0.00259392417692053,1
0.0154860457401861,0.00410276297680482,1
0.0256215463122417,0.00775360956387357,1
0.0364102668780669,0.0138176993297031,1
0.0470745017056864,0.0305112736716996,1
0.0595281993840712,0.0404677878038667,1
0.0707309540120376,0.0592301944503374,1
0.0747734468911947,0.0570076177300737,1
0.0772835307516515,0.058447725788172,1
0.0787541392263698,0.0553921831051349,1
0.0723088357379771,0.034830712709397,1
0.060277670570312,0.030335664096828,1
0.0480716504432909,0.0271606977478583,1
0.0308247493194108,0.0099679822759527,1
0.0161823071611675,0.00377767877127152,1
0.0177286882318991,0.00393425012147171,1
0.0339876615379988,0.00538975054939284,1
0.0602312750174242,0.00802597990345966,1
0.0830190271823146,0.0143988124619644,1
0.0856218646046551,0.00885869661474573,1
0.075836175241799,0.00540079602749209,1
0.0665508440732611,0.00405530372695222,1
0.0603139648831626,0.0030093872556374,1
0.0626297842758013,0.0036420006971165,1
0.0690097337550496,0.00489890925643021,1
0.0704711677820056,0.00493694510788787,1
0.066411717892893,0.00466941274172797,1
0.0578087621442379,0.0036427336861227,1
0.0529300170147348,0.00214668324017652,1
0.0629987704185393,0.00299681734077895,1
0.082649185994395,0.00620928445438417,1
0.0976152830580693,0.0137921121974263,1
0.094084378410074,0.0214925373121453,1
0.0681933542966957,0.0071138608458265,1
0.0381318922004836,0.00233233691721238,1
0.0207906038473444,0.00156880353056114,1
0.0185796575699292,0.00184209808662237,1
0.0273950082661863,0.00524791697780093,1
0.0373059500208685,0.00947882357515429,1
0.0429866342701718,0.0130892390895305,1
0.0443500419593057,0.018096502817072,1
0.0404754133282107,0.0247807741818047,1
0.0315900596363705,0.0191642446346046,1
0.0227484797819439,0.0171351514359068,1
0.0157111292926358,0.0124876093444268,1
0.00957318358798003,0.00635649450420069,1
0.00683888891036428,0.00268502135324342,1
0.0110957959003449,0.00343091338297332,1
0.0190401862125701,0.00508634650529125,1
0.0274403230413426,0.00639748877244985,1
0.0345801863139628,0.00831021201125908,1
0.0373085969121724,0.00939897011705409,1
0.0344942257245227,0.0117791831306643,1
0.0275193649078841,0.0113872974490606,1
0.0179514342608277,0.00883866354335441,1
0.00847927631801274,0.00519587188511382,1
0.00344301753917033,0.00555783045856245,1
0.0027418209450349,0.00850376807563705,1
0.00273814084464408,0.00765842397198165,1
0.0027779791341306,0.00483136503487094,1
0.00411221518434573,0.00376812963126795,1
0.00706556131506734,0.00574667918291743,1
0.0100832377799519,0.00560126019660206,1
0.0125725320058228,0.0099066912149838,1
0.0125955790892403,0.00422638121592588,1
0.0179409402027728,0.00203941594320318,1
0.0397373922595371,0.00267748528252883,1
0.0799984611434593,0.00396967268569758,1
0.13382625526512,0.00652241223304599,1
0.182558824618416,0.0101771538481858,1
0.205103606272934,0.0127696733253381,1
0.194820414424352,0.0117083641431441,1
0.156907609899068,0.00905568268883702,1
0.0994597854984518,0.00467919281628544,1
0.0465604609545691,0.00168670881516739,1
0.0184485123850179,0.00151259179568838,1
0.0101280741499936,0.0023172727599685,1
0.00954592926680102,0.00587115454354641,1
0.00907540697258934,0.0115517631758618,1
0.00640766318291017,0.00791581866582471,1
0.00361919472292271,0.00568585810876105,1
0.00205884502664646,0.00350079047782479,1
0.00249161332733373,0.00369717754927973,1
0.00530794153760757,0.00461760133998015,1
0.0101196850889213,0.00694846097442845,1
0.0153211232462865,0.00901617656167943,1
0.0193212429140894,0.0108510085505999,1
0.0202774976584227,0.0136252600034755,1
0.0169107878826268,0.00624689759171393,1
0.0121467314847071,0.00282052612355914,1
0.00986064054580826,0.00181845491563191,1
0.0119403308083569,0.00270285298658309,1
0.0166724139881408,0.00568653186363591,1
0.0201807196449544,0.00881631729325249,1
0.0203996588685541,0.00999771845911036,1
0.0174217644403247,0.00843583503223315,1
0.0122985291777061,0.00555970954119078,1
0.00688241634101887,0.00257761823971354,1
0.00404310415849461,0.00199945584542712,1
0.00426329197456146,0.00409419276912586,1
0.00555638953103117,0.0122736810945209,1
0.00581260703489724,0.0309057711062335,1
0.0048940862855245,0.0351095207402989,1
0.0054567429717108,0.00883063224333497,1
0.0115410799720651,0.00479670243523764,1
0.0278869638838455,0.00436384835622586,1
0.0568383013815669,0.00682182402455045,1
0.0892522335781071,0.0131867707385522,1
0.10763147910988,0.0124484022105567,1
0.105822274040934,0.00772397123025198,1
0.0911143049700222,0.00486336772596961,1
0.072805086641774,0.00355968045292306,1
0.0579569760457901,0.00288449670193755,1
0.0513079882190335,0.00309701670188639,1
0.0510151096985253,0.00372390302576676,1
0.0520481003910634,0.00507175319255196,1
0.047836735144791,0.00531933226291834,1
0.0375013010040406,0.00367447452262388,1
0.0282528219391065,0.00278285719113924,1
0.0249923967256426,0.0032957917269785,1
0.0263648343897387,0.00577998245191306,1
0.0262416833485557,0.00951886571003504,1
0.0207717489471319,0.0103107210536274,1
0.0125001944922675,0.00657168337903788,1
0.00607036010619845,0.00500247834415629,1
0.00239954913007709,0.00320152327360355,1
0.00131103826304668,0.00304605975223808,1
0.00223719924939939,0.00315053387783073,1
0.00553686952507433,0.00397187162049302,1
0.01159008921848,0.0054359663240582,1
0.0200375545295265,0.00742234132312037,1
0.0288098051380839,0.00956942681133481,1
0.0348337694554549,0.0102164945808489,1
0.0349922059665297,0.0118009506337936,1
0.0279146952642109,0.00582461171320837,1
0.018786303020229,0.00238955950709622,1
0.0140569638718441,0.00218300253704609,1
0.0145845706336319,0.00440772152896505,1
0.0157312372467191,0.00511010359567089,1
0.0162038135588688,0.00291413464232371,1
0.0221828634477199,0.00200060571782702,1
0.0411654241080944,0.00237981588339558,1
0.0728716722101536,0.00454350666543175,1
0.10395299656775,0.00670806331036873,1
0.121629971100707,0.00785001320468912,1
0.119938522490496,0.00796662724959903,1
0.0985161578028557,0.00592477419971663,1
0.0668023680329549,0.00388508924927648,1
0.0385968466333643,0.0024488656532608,1
0.0236783701264453,0.00225161517163313,1
0.0205223289414603,0.00369579671343011,1
0.0207105715330909,0.00727143254940297,1
0.0171382907224004,0.00673328157791784,1
0.011006967665913,0.00336585825338367,1
0.00744727504095069,0.00243414879503043,1
0.00816158836041703,0.00369735400256771,1
0.0114741561467049,0.0128895464722384,1
0.014027338199301,0.0595236440003337,1
0.0146400610985001,0.0961297227870185,1
0.0127881744156249,0.0232170345425553,1
0.00893773885081023,0.00657254351295931,1
0.00592412972757943,0.00301695372399678,1
0.005769626289747,0.00189097166599982,1
0.00964843317020384,0.00317685343740309,1
0.015604613699837,0.00754564881288597,1
0.0192632201923988,0.00830662675481567,1
0.0194757999906494,0.00677657291932624,1
0.0172529177906279,0.00474270906984264,1
0.0146932484307278,0.00285169970497196,1
0.0152492656500043,0.00237785650815117,1
0.020477728567342,0.00349153793991995,1
0.028403498814348,0.00576554404408364,1
0.0350064058745676,0.0113292418780629,1
0.0354450994127189,0.0196628559399877,1
0.0285041174100466,0.0101723704388271,1
0.0186343602645809,0.00513942852587009,1
0.00979945310165237,0.00293273761956099,1
0.00398542040696576,0.00201757668739982,1
0.00156230556333245,0.00197486897916452,1
0.00142328130351781,0.00388462010674652,1
0.0024521710651799,0.0106315956120198,1
0.00361898836155176,0.0323680705647131,1
0.0042176402454547,0.0508086657278683,1
0.00393256362614518,0.0195237234847816,1
0.00300262893571982,0.0067672454723488,1
0.002319047304024,0.00468855224034593,1
0.00213305064576283,0.00524760794368502,1
0.00202910425846708,0.00526985971770393,1
0.00182266841907021,0.00359948520073633,1
0.00215926217548908,0.00272284040858189,1
0.00408166747853701,0.00297115796971749,1
0.00788915831116706,0.00442890580058557,1
0.0127362118995854,0.00650311375577087,1
0.0166153516264984,0.00815582339553698,1
0.0178993553085859,0.00927308150377239,1
0.0158514477456113,0.00607866642731282,1
0.0123348589270788,0.00393756543983747,1
0.00986907372758945,0.00317279155579791,1
0.00936192752896536,0.00366419456529065,1
0.0102239790233202,0.00508671164563489,1
0.0107858761984218,0.00667038183542587,1
0.00991798605644332,0.00585365586618295,1
0.00807633262986605,0.00491802455561084,1
0.00628453172471558,0.0040064522005406,1
0.00531096821394635,0.00361861860046498,1
0.00523876604929879,0.00534941865617418,1
0.00517602933980415,0.00637150732240783,1
0.00453735199658689,0.0052969226225309,1
0.00387324907873334,0.00432085928552244,1
0.00382208291521386,0.00410696944077269,1
0.00462098711151324,0.00647851652886818,1
0.00543704588770716,0.015864967361658,1
0.00496256595840253,0.0128301752194041,1
0.00372118096675666,0.0085810556870088,1
0.00249181456238023,0.00504560246187142,1
0.00204311322968662,0.00411899556082244,1
0.0024568651911578,0.00835521023483705,1
0.00285112585355291,0.00965232565003464,1
0.0027943889572101,0.00720896622316726,1
0.00266913907224251,0.00455880355444417,1
0.00310658329670226,0.00404260850549499,1
0.00427534434945689,0.00473203190639224,1
0.00585191735318106,0.00708683219102748,1
0.00691084278609803,0.00844237492284259,1
0.0069971797287239,0.0101365511236144,1
0.00586795508071248,0.00929323448760768,1
0.00390079843168217,0.00571903370935731,1
0.00217162928311257,0.0042873253451992,1
0.00110666138023301,0.00332102141613529,1
0.000809122687603091,0.00498385428144427,1
0.000807984249445905,0.00693536352357719,1
0.000821058843467922,0.00753750255783838,1
0.000768436894959449,0.00685689339286081,1
0.000699947594136256,0.00576980486486971,1
0.0007114013258695,0.00429026372842515,1
0.00103252024234223,0.0037156352795083,1
0.00176680143210499,0.00586188475604678,1
0.0024186567216222,0.00695969639110712,1
0.00269558235634129,0.0066137321811043,1
0.00271879892215855,0.00578197872259526,1
0.0025636777595472,0.00584058753165451,1
0.00221144258176734,0.00516210151682455,1
0.00182646335770863,0.00443571392036769,1
0.00160118836975002,0.00445177358871937,1
0.0015344441078461,0.00464920317949491,1
0.00154837207134214,0.00636218509225684,1
0.00158617562559233,0.00458164092843899,1
0.00270664470714367,0.00322255958820833,1
0.00586984195151673,0.0055755344478151,1
0.0100944116658472,0.0119398834495013,1
0.0138882408518269,0.0246776056376456,1
0.0155990978471054,0.0278361513455541,1
0.0141849896749141,0.017945576074906,1
0.0110742896688737,0.0119458284065967,1
0.00766570127819471,0.00967449614263263,1
0.00466298653820618,0.00772145893262435,1
0.00234555845829927,0.00446118647610192,1
0.00181055550421329,0.00440740435095493,1
0.00300235654074782,0.00616129265128141,1
0.00570035976628089,0.00897010706019702,1
0.00829160374577859,0.0105403590929591,1
0.00959053948603615,0.0101425579626461,1
0.00945938047184577,0.00945686863454788,1
0.0080217024008511,0.00668622130857807,1
0.00611573380459366,0.00545404912537136,1
0.00448396356873158,0.00463653618777971,1
0.00373897902906563,0.00520782060678201,1
0.0036860155043351,0.00598443173539586,1
0.00364895629936787,0.00820916772176716,1
0.00296892592626264,0.00881535133942509,1
0.0018593768032721,0.00620658693333046,1
0.00108937470632506,0.00468123140400984,1
0.000629063715302077,0.00360817269153874,1
0.000621656326596499,0.0052714822172316,1
0.000707366820039796,0.00762662227788949,1
0.00067686293733429,0.00738632439535925,1
0.000819100276511756,0.00869719004806707,1
0.000950635542004887,0.00964050032459998,1
0.00108256461217224,0.0107826294852023,1
0.00163802951288607,0.00749752941863123,1
0.00305939151462645,0.0122216366548912,1
0.00442965851277286,0.0197503152274631,1
0.00592598440603127,0.0199370874449136,1
0.00788234069643887,0.0262019353659316,1
0.00852153011442697,0.0158917957627598,1
0.00784030056479928,0.0148895801978233,1
0.00698779541535107,0.0144555217406572,1
0.00545676002371058,0.0130625212959206,1
0.00297968675427453,0.0088081738523403,1
0.00125595157666397,0.00609074594662028,1
0.000915112598886,0.00577813744140994,1
0.000763734556674107,0.00456887980261211,1
0.0007029611972752,0.00547642872773066,1
0.000698114169018117,0.00482259689862937,1
0.001306759404205,0.00468247294375993,1
0.00355038829780168,0.00654815820503334,1
0.0064890264459636,0.0110406205853649,1
0.00814233230118513,0.0101436278008204,1
0.00848121361822956,0.00703921506657224,1
0.00809241522077991,0.00550401686608449,1
0.0076086767741367,0.00406816078337617,1
0.00826923105286566,0.0047397685671194,1
0.00920565275298947,0.00518193999086009,1
0.00934659467372873,0.00445855443548578,1
0.00929141062471707,0.00526940946173294,1
0.00830510545754045,0.00651761269513262,1
0.00607422636294917,0.0049533495488038,1
0.00567262489240046,0.00237717426123478,1
0.0132642008701514,0.00240894273618512,1
0.0337154119584276,0.00392967674454424,1
0.0617911314846067,0.00782324649476325,1
0.0811021237874305,0.00828501713960868,1
0.0842081391211646,0.00606587916122599,1
0.0772592603105816,0.00458190645010221,1
0.0672174668021221,0.00441750834278352,1
0.0549396886131647,0.00418907809228918,1
0.042017621297354,0.0032073758547264,1
0.0361225702484832,0.00266196797563728,1
0.0420269938780931,0.00321041809317757,1
0.053511091984143,0.00471459668486743,1
0.0586399435883221,0.00440090875730613,1
0.0590198577571472,0.00395943281956669,1
0.0590864935404488,0.00408200133390503,1
0.0584696845692075,0.00423696047033606,1
0.0550751202793761,0.00409691048052917,1
0.0500305614235527,0.00356754638251325,1
0.0479479874104521,0.00380467543535053,1
0.0480661393227573,0.0049432660720393,1
0.0441157460746979,0.00612129195924913,1
0.0329874615300313,0.0043286762125235,1
0.0218151209427169,0.00336227048374503,1
0.0153791122715096,0.0027420122651422,1
0.0149778068649665,0.0031075655376367,1
0.0187943603367905,0.00409327595048167,1
0.0243534512558155,0.00365382434155693,1
0.0331412314235429,0.00443647841427436,1
0.0441339788021334,0.00705205482695237,1
0.0541129946736177,0.0173673157476867,1
0.0560436597240584,0.0334287608775083,1
0.0473896363139939,0.0228027899960384,1
0.0325166742488155,0.0149438782313575,1
0.0184747375456194,0.00989900720473962,1
0.00937581791639585,0.00652412987143831,1
0.00509956676786561,0.00613161949903163,1
0.00337430602344243,0.00634943931824005,1
0.00274239331310308,0.00560786482703637,1
0.002503610428011,0.00515839678590534,1
0.00300012251428573,0.00544901804575946,1
0.00397252169520565,0.00660422172331429,1
0.00450995118907767,0.00626897491547447,1
0.00448727030539886,0.00442863882070109,1
0.00503769383063733,0.00313393468375287,1
0.0086284035445137,0.00323068345471259,1
0.0159863563980332,0.00453723177511929,1
0.0242312161107869,0.0067079116498309,1
0.0310380782018235,0.0085974141336574,1
0.0364664743044542,0.012166257122399,1
0.0380240875488917,0.0219860188882863,1
0.0356683674660993,0.0238405474377206,1
0.0333070222771258,0.0206029199721347,1
0.0314860656670244,0.0224940784685364,1
0.0267843124180991,0.0138276444474907,1
0.0210507331764813,0.00656859842641653,1
0.0185983143344838,0.00283082117017678,1
0.024414045840011,0.0025784668437313,1
0.0390079328256808,0.00377705951672981,1
0.0575803412741288,0.00534462614021994,1
0.0737252027156529,0.00668155707776749,1
0.0805391291928108,0.00778532241620457,1
0.0748759772439651,0.00904307480539107,1
0.0564741888371044,0.00691236796953588,1
0.0329435315542121,0.00418675378591106,1
0.0136737765126758,0.00236650601182265,1
0.00519612878665549,0.0022990613990192,1
0.00395841684670431,0.00406964132658139,1
0.00466162405393109,0.00602271740626026,1
0.00476722015785864,0.00637719428506606,1
0.00421549290267264,0.00363726169066647,1
0.00988337618088449,0.00168690020918586,1
0.0387518719535486,0.0020351036546844,1
0.101535072521762,0.00386125366646479,1
0.183965174339835,0.00670317864444548,1
0.257729015648312,0.00964956192248254,1
0.290899177459832,0.00995277883103958,1
0.27286136519216,0.00718770729545462,1
0.2195422246096,0.00536111483992324,1
0.152865047589315,0.0038611365914881,1
0.0939305939633777,0.00210626580034745,1
0.0677085870165731,0.00201033175883671,1
0.0722159454008235,0.00446325486464109,1
0.0799949285482289,0.00954702619098074,1
0.070670785247914,0.0114172318764382,1
0.0455120385668616,0.0056636701021591,1
0.0205330502495859,0.00245649181196419,1
0.00796403682739749,0.00295394243938091,1
0.00488349567722365,0.00397901523906941,1
0.0047627621993966,0.00327715262887362,1
0.00626460773650729,0.0039775898244048,1
0.00839585872064777,0.00512044640048898,1
0.0100633385814905,0.00558920000139705,1
0.0122822401449873,0.0067704355879017,1
0.0156238703274689,0.0102512144539696,1
0.0182883335912276,0.0166783996166202,1
0.0189380331755119,0.0270086739952905,1
