Activity,Complexity,Tag
2.30390910092174e-07,0.305070744185302,0
1.65428168035115e-07,0.261211843839078,0
1.94448342252521e-07,0.259359767429382,0
2.03243026308372e-07,0.260492474050957,0
1.95733933649756e-07,0.259740433322043,0
1.67971372677771e-07,0.252154880143817,0
1.74397177498423e-07,0.26150229609727,0
1.81976543040024e-07,0.258639055468515,0
2.01425475737013e-07,0.265481567044014,0
2.0526194471486e-07,0.270229125868269,0
2.35059050686487e-07,0.287577774359817,0
1.80989166926506e-07,0.262835666035037,0
1.57166098160286e-07,0.273113718839078,0
1.78329464628303e-07,0.285042764378137,0
1.8573937052798e-07,0.290322164015802,0
2.91395351888235e-07,0.34993956266761,0
3.63767625555314e-07,0.385745544152689,0
3.43453054455542e-07,0.373407950056233,0
3.38591031819226e-07,0.385848446206094,0
3.34915788110863e-07,0.379710554758302,0
3.02232815316169e-07,0.363322944136493,0
2.74159313212151e-07,0.349755581390726,0
2.27669824290324e-07,0.318547978020737,0
1.51674801039189e-07,0.264715836578794,0
1.79651174977378e-07,0.279441890264833,0
2.03433165453811e-07,0.279279056103046,0
4.36071310642862e-07,0.382194318118117,0
9.58525866804729e-07,0.566178413488569,0
3.85799877388881e-06,0.886219242359286,0
5.51004594499141e-06,0.84327646739441,0
2.16208733472801e-05,0.588085213926804,0
0.00018875856868389,0.176527482881782,0
0.00121198453353446,0.251482342524901,0
0.00170948981077079,0.221424495979675,0
0.00209337958763999,0.203440765356461,0
0.00339028183863181,0.168975685758612,0
0.00323745451365402,0.0987701612190077,0
0.00281287534443071,0.0873325793220309,0
0.00257072218379414,0.0741525596358414,0
0.00237708152119111,0.0706592336241322,0
0.00235814020910905,0.0700240846245146,0
0.00264081514920297,0.0877225121303507,0
0.00282173080143021,0.108018338234548,0
0.00294916095675948,0.114426430347249,0
0.00283316384953095,0.137761911736114,0
0.001077970312957,0.131740523649485,0
0.000483519890608873,0.30695830347498,0
0.000100967533680636,0.230124913056472,0
5.03635047665521e-05,0.746671123550538,0
3.10764848155728e-05,0.657654434329728,0
3.1448742079114e-05,0.431473444575682,0
0.000120424254596795,0.618748509804274,1
0.000166833862900874,0.469090058609329,1
0.000166632521733882,0.471997072560369,1
0.000148051933553891,0.428012007782087,1
0.000122692388156636,0.395717499005199,1
9.89984058106935e-05,0.345516416894043,1
8.75514611771595e-05,0.313561446476877,1
9.35394398301146e-05,0.320187811624468,1
7.60120377103351e-05,0.28942937816112,1
9.65973980192529e-05,0.310494021429073,1
0.000163438887287205,0.51907132901342,1
0.000226013163531346,0.825274959643238,1
0.000271130764084183,0.722529973219513,1
0.000223810517280515,0.432871082921434,1
0.000192363224638095,0.378830394292254,1
0.000192036084343306,0.37435716806134,1
0.000212538801496096,0.385586335143153,1
0.000220884841290312,0.386900730437542,1
0.0002385489692694,0.420489873205106,1
0.000258990119984475,0.568929279659843,1
0.000226428304751549,0.568370041834197,1
0.00015901263512622,0.522018023170003,1
4.83543174232672e-05,0.261826018551927,1
1.82197295336457e-05,0.203799139826613,1
1.96583170679796e-05,0.206703429505747,1
2.33075610260802e-05,0.235547023444499,1
2.31141080135964e-05,0.266747521552807,1
2.03866337423203e-05,0.236523588724091,1
3.02333435604492e-05,0.212619099025912,1
2.71640709692884e-05,0.158964828696571,1
3.70171503552171e-05,0.150940130246484,1
4.83305834354392e-05,0.134344227652718,1
6.35263859440837e-05,0.170373188706864,1
6.90214470155373e-05,0.189827180457669,1
6.83681759787343e-05,0.186925769213029,1
6.53553089323616e-05,0.183744072168034,1
6.42178569832164e-05,0.182334275660055,1
6.43630285950484e-05,0.190790000028564,1
5.22922058914266e-05,0.216683228500569,1
5.22283942772077e-05,0.270987484437486,1
2.3579537856306e-05,0.243817734485087,1
2.1306975794823e-05,0.470250230298211,1
1.72229340466353e-05,0.341436606474867,1
1.80487188353858e-05,0.260573957925822,1
1.84733429647505e-05,0.265608570640112,1
2.12502783976752e-05,0.223111358974225,1
4.03107391353471e-05,0.216357930271386,1
4.4199994183433e-05,0.197547532544462,1
6.84260119650167e-05,0.239631808436388,1
8.61008745714493e-05,0.272432287363969,1
9.57004147291976e-05,0.177445535817687,1
0.000108659786105468,0.170367076704625,1
0.000116739451062746,0.171258500616606,1
0.000115872847460512,0.185244489684109,1
0.00012296160862426,0.191846110637504,1
0.000126686174726382,0.207629743103178,1
0.00011740369767586,0.230236589320846,1
0.000118534507574335,0.240254442169423,1
8.90644732153463e-05,0.2147545898258,1
6.21019158670091e-05,0.159767786040215,1
6.34490787548697e-05,0.254432640222156,1
5.57432810680904e-05,0.265261014225417,1
6.20131872289308e-05,0.331231702157347,1
7.59910370662953e-05,0.364924053508972,1
6.09880829987672e-05,0.242685327591912,1
5.90507471050926e-05,0.22359213672831,1
7.69581749638036e-05,0.175136888970817,1
8.08750896432059e-05,0.149477977661996,1
0.000107782340735476,0.160001407105412,1
0.000179898338555552,0.181620672221225,1
0.000193984611591279,0.128283722845484,1
0.000233170506724555,0.141474692585438,1
0.000237685752520694,0.141705402751282,1
0.000220692667599874,0.132235652557504,1
0.000212731804986702,0.139863383741173,1
0.000216137050453536,0.154064953821101,1
0.000222299751354556,0.196688514974957,1
0.000228027543769323,0.22329434738244,1
0.00018576003047486,0.206937914749578,1
5.71604885222451e-05,0.124489848651669,1
4.3903219914893e-05,0.208445536962973,1
3.86526501806113e-05,0.184012546456815,1
3.90488680643675e-05,0.179657757448058,1
3.48906784123829e-05,0.191976985033522,1
3.36868257938931e-05,0.190040159159408,1
3.35090614130735e-05,0.184856990881632,1
2.84741596245333e-05,0.145640536223445,1
2.9237168645689e-05,0.147708006073554,1
2.3716397617739e-05,0.146663811580919,1
2.77276038152374e-05,0.192963172371368,1
2.8666545350062e-05,0.235480229015746,1
2.50524582322398e-05,0.252972206337956,1
2.53345154314912e-05,0.277755916151398,1
3.44347650713314e-05,0.206177738606212,1
0.000100297640065904,0.312140755541197,1
0.000108399915206316,0.247083389960843,1
0.000109378779973048,0.267144828389689,1
0.000122339581603668,0.302501105997339,1
0.000142271089229657,0.161552532711166,1
0.000281532289074302,0.209676268079189,1
0.00033956147272938,0.213970160054545,1
0.000335495749091265,0.166264322608647,1
0.000337186774880755,0.164352202489049,1
0.000339938267880715,0.159597252614202,1
0.000423213093946971,0.151516241171225,1
0.000723866424598423,0.143909158428848,1
0.00197356294972487,0.192648191454015,1
0.00223534680466564,0.135353554119602,1
0.00235474596186305,0.127551087759391,1
0.00257430006699637,0.0950355255074046,1
0.00259648419425023,0.0905409423989429,1
0.00241892245282131,0.0887993080319176,1
0.00194681859763186,0.072344337830002,1
0.00160498090855751,0.0575483649663691,1
0.00168482543168087,0.0444996076104887,1
0.00166127266395652,0.0410423525962451,1
0.0015402919769757,0.0419449321528272,1
0.00172400880550545,0.050434225311322,1
0.00173473631386103,0.0510294144583042,1
0.00232070023785846,0.0660480849421552,1
0.00217959328602686,0.0423661173519132,1
0.00148360589647572,0.0314169468142135,1
0.00114482248276744,0.0245815431618944,1
0.00151322005116047,0.0255656090129965,1
0.00161936210378298,0.0243058695818833,1
0.0016622770295454,0.0265062172395546,1
0.00166590042403053,0.0249975946202751,1
0.00182604541636867,0.0269547962267754,1
0.00188390536589134,0.0271111345589926,1
0.00159598223429962,0.02753645711902,1
0.00138529885072728,0.0293902310424947,1
0.0015330176637734,0.0322160334010083,1
0.00158299406133429,0.037581897303049,1
0.00257684616489807,0.0374480788399969,1
0.00581816518145091,0.0734067165699678,1
0.00543907145520391,0.0559263736494766,1
0.00524106038305304,0.0552649636478603,1
0.00455089699136492,0.0489639535370266,1
0.00414843631994997,0.0469073791929013,1
0.00432488033645966,0.0405952899960632,1
0.00639973466463311,0.0466766405214359,1
0.00610543424364599,0.0358141844371431,1
0.00651131120993272,0.0294481960991671,1
0.00666393905124951,0.0267634870055801,1
0.00662502269622723,0.028461405704996,1
0.00672923780464051,0.0335570995309874,1
0.00585991094123373,0.0297990552436841,1
0.00582230191354476,0.0314272084394586,1
0.0059228634196776,0.0309774229781873,1
0.00613704073627656,0.0381250381083131,1
0.00403488697920965,0.0309022886573396,1
0.00382867112960808,0.0368766525297978,1
0.00234481461036918,0.0274632569352597,1
0.00217365250960391,0.035546430394379,1
0.00237923303891345,0.0354630948860218,1
0.00261420024153829,0.0232213919033025,1
0.00323281312101499,0.0293720373538503,1
0.0034624467505892,0.0290521392368425,1
0.00365148029949709,0.0294706136814711,1
0.00366911562541926,0.0277168415139107,1
0.00369290103690315,0.022145062073243,1
0.00470740211270653,0.0259466378457073,1
0.00516677734562501,0.0360718630238708,1
0.00485985244790236,0.0246808947911254,1
0.00633525974701105,0.0263602209957032,1
0.00667327280785441,0.0283733058507405,1
0.00959385281855965,0.0329836213344142,1
0.00997176752228325,0.0338073385177944,1
0.00988917180212946,0.0355040766824675,1
0.0101820114359013,0.0385892390083029,1
0.010165863664332,0.0433187826729787,1
0.00735471508642296,0.0375709357786977,1
0.00466445247803498,0.0136186950536948,1
0.0121809022264438,0.031154390586458,1
0.0140668020603634,0.0227544102523786,1
0.0397184990826233,0.0357643266282865,1
0.0659619183046616,0.0563951946800375,1
0.0701294061356157,0.0303868645871755,1
0.0667190649913361,0.0292241536355947,1
0.064678574201661,0.019237702917096,1
0.061591455812802,0.0184420328787797,1
0.0524010806826109,0.0160027326252049,1
0.0418132171130444,0.0128490334259006,1
0.041692151596588,0.0135170095069119,1
0.0368701863689395,0.0115647301136903,1
0.0426920161307736,0.0156753872050898,1
0.0393978064662358,0.00977116399076775,1
0.0371462933051158,0.0161320297530537,1
0.0230066974701225,0.00774569777547709,1
0.0263366298304393,0.0152831639052115,1
0.0271876615561754,0.0137740804551708,1
0.0284615161304211,0.0120840311046582,1
0.0274732748477658,0.01063507591993,1
0.0249934873061469,0.00822338313631973,1
0.0198908607724025,0.00656299208463074,1
0.0163004797322837,0.00711090532966206,1
0.0154757479999956,0.0115441743983721,1
0.0263126204819219,0.0208703658170446,1
0.0326895488741921,0.0286103089976799,1
0.0348082252800258,0.0353993962197151,1
0.0527777804906739,0.0555782646780234,1
0.0550795482587627,0.0728183633115897,1
0.0464483322549422,0.0397840211653624,1
0.0477675687991338,0.0443039065978932,1
0.0385475535503459,0.0410338059016561,1
0.0333773193192587,0.0354062551473675,1
0.0281095117557928,0.0308353750609791,1
0.0274653845198512,0.0381181497123142,1
0.0278125489800103,0.041200977686573,1
0.0277203880435574,0.0433769564069204,1
0.0286195338273791,0.043446944965144,1
0.0281999871393196,0.0325404937690174,1
0.0286266094753048,0.0538530621377711,1
0.0218693238672881,0.0546728610655199,1
0.0179330695798638,0.043444431285915,1
0.0170246824467811,0.043570467644311,1
0.0167539297233907,0.0441571910284106,1
0.0172514701002945,0.0406734372124295,1
0.0173369572444435,0.0374438331465621,1
0.017871267486106,0.0399822019979517,1
0.0120311311539236,0.0170963172739045,1
0.0106096400063972,0.0194985363699308,1
0.0089905904239036,0.0153107645805909,1
0.010887786495943,0.0132727066058793,1
0.0118197778165695,0.0120273357910525,1
0.0121729420960348,0.0119477569870947,1
0.0124126724430452,0.0117763022970703,1
0.0119983107045381,0.0109846630910422,1
0.0120977401603766,0.0126734696694243,1
0.0108892402866553,0.0114446805174403,1
0.00980376853966111,0.0174151479348638,1
0.00877082062181709,0.019345222715978,1
0.00868690180793966,0.0272335731373994,1
0.0080544438222301,0.0392236661721307,1
0.00769520331091521,0.0639038545739403,1
0.00575708252808825,0.0525146490264259,1
0.00610766777225565,0.0349141551623376,1
0.0059482003329022,0.0239014307125853,1
0.0061350913847492,0.0219639505540526,1
0.00672631305660793,0.0235083151135663,1
0.00794447427459855,0.0294668808932643,1
0.0109690077870496,0.0424884825748399,1
0.0113189199883291,0.0350281299128019,1
0.00963298080275514,0.0328067158354498,1
0.00773191600218024,0.026866963944421,1
0.00914202351766565,0.0226873057777972,1
0.0163868690832156,0.0483881658772648,1
0.0193865845193015,0.0724705281120869,1
0.0252079068453263,0.0968593213018895,1
0.0275792925850383,0.109867094016274,1
0.0273573563904907,0.116748425248228,1
0.0191486478310179,0.0813975243282024,1
0.0132544866564378,0.0757395548894248,1
0.00855506658309179,0.0553803468154961,1
0.004266683299146,0.0177688179868391,1
0.0086978597364935,0.0541814431673485,1
0.0151100609726355,0.0612500286207776,1
0.0271858957722028,0.100227210235552,1
0.0302943404150197,0.0838452695575757,1
0.0319412006123178,0.0781877338006848,1
0.041469826145757,0.0676125369277203,1
0.0477298278836536,0.0540303360119447,1
0.0441274926611846,0.0509720871267369,1
0.0387622638139629,0.0454942552433432,1
0.0304552432409823,0.0262718138725054,1
0.0282413915678025,0.0239952329777181,1
0.0355400786921876,0.0275594440860548,1
0.0603783442675669,0.0419299806430637,1
0.0824442004410676,0.0526844814762208,1
0.101722516070965,0.0658727696791621,1
0.103092528446298,0.0806107148603033,1
0.0878494238539104,0.0626882921104121,1
0.0738998114944804,0.0557709232946513,1
0.0522003941110797,0.0415931547987175,1
0.0238234191993084,0.0249640287844198,1
0.0185948796496586,0.0189942223240148,1
0.0174348084312165,0.03240423643655,1
0.018337993537594,0.0340586679480137,1
0.015052167787782,0.0258113283196654,1
0.010347576978814,0.0179920558209197,1
0.00811060353740845,0.017385725995294,1
0.00825890010144169,0.0237811265849756,1
0.00547149278081432,0.0162571295631532,1
0.00527053020780982,0.0255705460098418,1
0.00341278960189355,0.0232073096834558,1
0.00362329934556994,0.0270373028018707,1
0.00375802446834048,0.0263285716242738,1
0.00477298008964336,0.0212863851707633,1
0.00639515728291754,0.0230132927567695,1
0.00690172373863221,0.0202029007741967,1
0.00868105654087977,0.0235705091737115,1
0.00790044966197441,0.0229608757195019,1
0.0100232612620394,0.0294454854797706,1
0.0128164673721214,0.0328034502055548,1
0.0127039668388137,0.0288147597178479,1
0.0127035576287746,0.0259117514067031,1
0.0139346357953097,0.0246778881426572,1
0.0096717191848237,0.0235738917961897,1
0.00456442528676178,0.0114693066479835,1
0.00459842009240152,0.00963680967576211,1
0.00595766561863524,0.011722122467725,1
0.0057999224039088,0.010597817931212,1
0.00670508057905203,0.012764625909842,1
0.00572795225329339,0.0102949574951046,1
0.00617595102434424,0.0116921728989493,1
0.00563405871738887,0.012059801063677,1
0.00391304045769826,0.0083814220484123,1
0.00435828078659382,0.0116610760621802,1
0.00399699439968924,0.0123502245559506,1
0.010681671910408,0.033201027090574,1
0.0128853912447243,0.0361217093728051,1
0.0109208354561817,0.0353543469370408,1
0.0122919857193241,0.0452067852875378,1
0.0178793272362335,0.0528567632562567,1
0.0197444145821785,0.0516066228397186,1
0.0232681973119198,0.0514475621724298,1
0.0219852430102619,0.0397989689873324,1
0.0346297480855159,0.0487624486722084,1
0.0329802019650577,0.0415154154839912,1
0.0317505528809712,0.0413031894618204,1
0.0272355065471586,0.0417373643651972,1
0.026528947902364,0.0325265273261772,1
0.0363541813954716,0.036849692521266,1
0.0398799570794267,0.0249130965969618,1
0.0444219519552179,0.0284113740560485,1
0.0568478638142831,0.035668939545939,1
0.0598249676135869,0.0392185158909407,1
0.0546199774191691,0.0362264596148677,1
0.0529075017444792,0.0342659586120595,1
0.0536187144441319,0.0328997026051987,1
0.0532552544018625,0.0246914726458292,1
0.072079121242997,0.0292481498217175,1
0.0509801646527567,0.0165975424580934,1
0.0482632618906795,0.0217495846266809,1
0.0488213336099674,0.0205103723028162,1
0.0447410725588851,0.0184257525159423,1
0.0455267206142644,0.0171753649435056,1
0.0500621709549416,0.0118840468106199,1
0.0552959870053938,0.0105761839501578,1
0.0544234291059914,0.00962714258708078,1
0.0736449971442524,0.0163269464650997,1
0.0583810267130169,0.0149206204037055,1
0.051945202446467,0.0141964376815148,1
0.0531233908533935,0.0137035062964039,1
0.056825188257717,0.0147094214598666,1
0.0556750641371346,0.0147666118647518,1
0.0532993625223455,0.0152626117607862,1
0.0457978115486891,0.0258583281973281,1
0.0202175188854541,0.0151035020925948,1
0.023518303129711,0.0222471092614096,1
0.0275022953139292,0.0321972963524052,1
0.025903665503474,0.0385867380400004,1
0.0229871815933811,0.0305527123193266,1
0.0179143825354711,0.0231491390548404,1
0.0255042880700524,0.0379668301982674,1
0.0233304802152695,0.0313671434221854,1
0.0159138862246754,0.0153353283573145,1
0.0146108468190809,0.0165637417504536,1
0.0145813379424386,0.0162503934862948,1
0.0164417704252469,0.0179505921841526,1
0.01894390196811,0.0206117086428796,1
0.0190834411208807,0.0213873941843591,1
0.0146355705537731,0.0214139085490102,1
0.00714105198701341,0.0176490354743308,1
0.00772422796537981,0.0256784523945447,1
0.00772818998280496,0.0219066612875744,1
0.00620053681224427,0.0310515075917032,1
0.00734698013465985,0.050024823517112,1
0.00896853229003386,0.0525322559242065,1
0.00891567335944787,0.0346220282835541,1
0.0188872800831518,0.03861679449868,1
0.0260619227892298,0.0256633530404822,1
0.0253063425509919,0.0216620802851629,1
0.0379194089810046,0.0234781764415395,1
0.0374000415613435,0.0185189665223177,1
0.0315896030320632,0.0173679539915494,1
0.0299616886399138,0.015958498729205,1
0.0286964709660478,0.0149517863010852,1
0.0274928880861362,0.013663045587094,1
0.0223693886782083,0.0105645832820597,1
0.024190809189678,0.0148377204605174,1
0.0229696671809839,0.0202218833811661,1
0.0167143585228821,0.016061791041961,1
0.0181643777496396,0.0294098528379843,1
0.0167949784586116,0.0231252107960591,1
0.0253681073704593,0.00853848145042162,1
0.0445329030846783,0.00979875817594035,1
0.0445497027400734,0.0085868438189521,1
0.0484856314415342,0.0104785391400034,1
0.0515145501928893,0.00779944061533989,1
0.0705248209243027,0.0121386329141356,1
0.0769403662423966,0.0126041434777434,1
0.0765784317772564,0.0108122031757607,1
0.0789222104409726,0.01056523662368,1
0.0787303877211965,0.0113332234429404,1
0.0902003067860787,0.0199934525087624,1
0.0803895423613956,0.0227228304744635,1
0.0703172088284035,0.0220566692276096,1
0.0593924371261367,0.00950496278943404,1
0.061172898196856,0.00588709641989163,1
0.0695377735573434,0.009830189633035,1
0.0725460890872872,0.0104518083751596,1
0.0726647895799726,0.0110001313600946,1
0.0652988377016102,0.00980149749034503,1
0.0719816615303606,0.01191200700431,1
0.0677257301218277,0.0117828106053003,1
0.0687536954565592,0.0126842269527708,1
0.0658046133330615,0.0109320001151675,1
0.065849309750704,0.0194217133060073,1
0.0692173875814062,0.031006982979547,1
0.0577607774654563,0.0111921176847704,1
0.0523325722744273,0.0104660518280611,1
0.0675279445838044,0.0179657728524481,1
0.0733157911998701,0.0175500041493178,1
0.0645840671975239,0.016363103999642,1
0.0647731290835273,0.0158181903237982,1
0.0668967853237839,0.0167340011027882,1
0.074532934901324,0.0197689476640677,1
0.0820398319719501,0.0241556531176466,1
0.0400811962247898,0.0165083221821967,1
0.0212803227081162,0.0163839850481341,1
0.0339850822875564,0.0212798000281977,1
0.0405824021662715,0.0248724050751894,1
0.044261654774834,0.0331510045655826,1
0.0379409511816604,0.0225235601238208,1
0.0333918003090895,0.0221329317921105,1
0.0326208529127368,0.0200891711504651,1
0.0365254909701044,0.0172316671010586,1
0.0412177796857845,0.0148807384104043,1
0.0341554746436774,0.0146649504560895,1
0.0236266297396331,0.0132351464807511,1
0.020701995086135,0.0171484038138019,1
0.0198583072169001,0.0167081705768418,1
0.0162976434974855,0.0138455928437016,1
0.0144819097381311,0.0129829217984284,1
0.0171423675056646,0.013393367620699,1
0.0554548621977089,0.0275756920423734,1
0.0772547252131535,0.0197965261950003,1
0.0775002652208617,0.0216139000311386,1
0.0746357272082435,0.0190051781404845,1
0.0722486927875159,0.0191673647397663,1
0.0696985327849272,0.0190487201237671,1
0.0619078406297861,0.015863492176716,1
0.0616896531393741,0.0163622449880072,1
0.0624310811975014,0.0170191710042724,1
0.0707680008950881,0.0200178004556114,1
0.0448863533809532,0.0168336520514424,1
0.0189822714494511,0.0146112702916985,1
0.0184474557989448,0.0158450526297694,1
0.0262902799919826,0.0219575599729864,1
0.0338251359246567,0.0193141128725235,1
0.103580878203851,0.0381287168362007,1
0.114278965641232,0.029521567067682,1
0.158955660808251,0.0259454607697965,1
0.222464788270782,0.0350234069793988,1
0.281193246099606,0.0434591461988801,1
0.282654757666905,0.0249860128753756,1
0.248797856000598,0.0229656823881496,1
0.188954485320672,0.0174218929621646,1
0.16959510020781,0.015302898124657,1
0.139008856716609,0.012942942609528,1
0.141696405004948,0.0132369949781991,1
0.117127889153247,0.0113769518324465,1
0.109877392406012,0.0162497439553087,1
0.108991924367891,0.0157632656258119,1
0.081981096003101,0.0134696734553531,1
0.0478906365904585,0.0166586786783699,1
0.0701333462224741,0.0214645905812464,1
0.0923176151314973,0.00967630717284336,1
0.1074772538717,0.00477953857906654,1
0.14615524232112,0.00782209152769801,1
0.153176260457953,0.00629035818824298,1
0.150934151426256,0.00500716757472565,1
0.170870337020189,0.00797367401381129,1
0.16748217927152,0.00754085735805728,1
0.170453749199658,0.00785809173923479,1
0.177641017599942,0.00884477484724776,1
0.187686699732403,0.00982093438044771,1
0.13577096347924,0.012484009691801,1
0.0549961691220057,0.00871994920824955,1
0.0564360112284815,0.0142353867641702,1
0.0519722218268802,0.0187459598993671,1
0.0491814984523268,0.0302913823234137,1
0.0553877969755824,0.0305117342377817,1
0.0630664901288059,0.0336915197020553,1
0.0680897445659597,0.0361477032297621,1
0.0756650865439091,0.0387419942425106,1
0.0871157358987076,0.0423918655449,1
0.0836609728929393,0.071373576368587,1
0.049893451886649,0.0382933929062794,1
0.020001066608252,0.0109981584605029,1
0.0147610837516898,0.0302349940975945,1
0.0152333510238954,0.0241959150670223,1
0.0189807363663004,0.0300888563330924,1
0.0219677715782009,0.0184285235446879,1
0.024196987656408,0.0168545557242436,1
0.0265871347036041,0.0174685248238122,1
0.0248887303676991,0.0154505682016505,1
0.0249895231669672,0.0148184880034939,1
0.0254443162395205,0.0175875036195023,1
0.0160157284267775,0.0119593300566976,1
0.0133993127607395,0.00879472391062985,1
0.0127329482186568,0.00930903017990422,1
0.0120880772822682,0.0062990432881188,1
0.0248941980568744,0.0158067084404657,1
0.0288919985441721,0.015559649253864,1
0.0264340559200743,0.0136811547243753,1
0.0279445329221159,0.0156878189129734,1
0.0281042100195397,0.0135263559538679,1
0.0421169679168604,0.0186436615549822,1
0.043565339520644,0.0147801029469725,1
0.0395471935924264,0.0134487884813229,1
0.0378322546141104,0.0120287088992944,1
0.0358409106353602,0.010182921281379,1
0.0314123610548029,0.0109442134647094,1
0.0430284374188357,0.0167956398120171,1
0.0481052221241998,0.0191905546013269,1
0.0377136967074439,0.0147578704263397,1
0.0315344585961052,0.0104141360105734,1
0.0323600994880744,0.0129082185411726,1
0.0359817113457343,0.00758717901879026,1
0.113577182708722,0.0239162601331931,1
0.173615893034344,0.035224565412851,1
0.217043509310593,0.0319606354181148,1
0.187236153386503,0.028446930891406,1
0.183147315837251,0.0327708967571693,1
0.181786520354812,0.0337278960999654,1
0.178838519053987,0.0319891522825375,1
0.159369840070351,0.027060270357829,1
0.14929694093441,0.025217921933757,1
0.137373637574771,0.0113007877662163,1
0.156745584691401,0.0145055602547759,1
0.138632867825617,0.0116565587121508,1
0.122865799950646,0.012951270483351,1
0.13422874152004,0.0142941524936674,1
0.125476173933079,0.01290796904798,1
0.119093367875424,0.0102555031484381,1
0.12563309544867,0.0115328501014143,1
0.128855337472859,0.0147359554408652,1
0.0893175970762356,0.00944830459668249,1
0.077142169618188,0.0246711342713737,1
0.0800569504299657,0.0349935614819433,1
0.101427451875721,0.0449639830426206,1
0.0908012127028387,0.0359985733934572,1
0.0599131413888648,0.0259600920465413,1
0.0508462275788917,0.014205314537124,1
0.0475032523101453,0.0156743831643467,1
0.0507866172167241,0.0142147402986447,1
0.0796329501995378,0.0247845711210208,1
0.0801624080553062,0.0189035910169978,1
0.0684432602046934,0.0148478004543137,1
0.0792488401452522,0.0186815912312053,1
0.0889402127878348,0.0224612590408925,1
0.0840923941481962,0.0250715994321507,1
0.0910273677795097,0.0278446713835996,1
0.0697201467264301,0.0266504025709803,1
0.0303922472624074,0.0129931723133437,1
0.0186552998029373,0.00941850479502857,1
0.0173906982679541,0.0129817747840565,1
0.0161096195185706,0.0223686992787908,1
0.00971554061178142,0.0167267700031897,1
0.0125105612570638,0.0114312571395323,1
0.0154350480988044,0.00697508743707802,1
0.0223224579283562,0.0118798782727348,1
0.0251340457152461,0.0124973956330247,1
0.0276731573242195,0.0216051740490221,1
0.0257208375193058,0.0169818611242411,1
0.024379017780603,0.0157186496392113,1
0.0242575332319047,0.014432379807013,1
0.0228765483792854,0.011683597870618,1
0.0231486425755188,0.0107930488808812,1
0.0166441950784503,0.0137369010694248,1
0.00763720092527666,0.0117842378966085,1
0.00702723705969016,0.0126441146472022,1
0.00771147300481357,0.0160592949048913,1
0.00789838648755895,0.0100680115359204,1
0.0123871400318766,0.0192724208189006,1
0.0132195671018592,0.0203812683738093,1
0.0192159970491641,0.0221369186663129,1
0.0249465085682436,0.0217802556170939,1
0.0244174701177903,0.0253472877607291,1
0.0273860873960053,0.027770094930246,1
0.0263659916555065,0.0223027118460581,1
0.0233458141594816,0.0185320781674835,1
0.0150275247098908,0.0108099753650732,1
0.0104905239308298,0.00949453714362219,1
0.0106839960406012,0.0100875383005015,1
0.00960707425810251,0.00863165648669064,1
0.00885421592377008,0.0128390382588506,1
0.00758349911562545,0.0109164741899515,1
0.0154624359471727,0.0189854724138006,1
0.0156284261915991,0.0155636341224766,1
0.0183039080251017,0.0124886279049974,1
0.0607577741479393,0.0306552587052903,1
0.077949873166075,0.026928661961017,1
0.0861489890021403,0.0287382422570615,1
0.081248496672826,0.0250741446656362,1
0.0987278919207843,0.0154027821725361,1
0.333259111707231,0.0326559418452845,1
0.506270814819067,0.0368740970659369,1
0.533336176506988,0.0317531186595811,1
0.462780016897017,0.0199804942259967,1
0.466707525284083,0.0217364714500419,1
0.474652773443718,0.0171602121758613,1
0.506321133579096,0.0153043552254352,1
0.541869936410348,0.0160392493118939,1
0.504519072781927,0.0146287186081734,1
0.526326004779292,0.018741749601129,1
0.505381934778896,0.0195198425933691,1
0.474438929189238,0.0191915869003575,1
0.479063139942939,0.0236882275460608,1
0.474345971761121,0.0320052979960447,1
0.371558277627308,0.0288981529644966,1
0.341489096791977,0.0384192278502528,1
0.383281530556712,0.0779190123738436,1
0.365811289691158,0.0715544487155726,1
0.30954973463908,0.0794446069464202,1
0.138811552414867,0.0482151720532492,1
0.0489075421126524,0.0280659705297529,1
0.0414283628922274,0.0258885866969463,1
0.0293839003895391,0.0197920657638427,1
0.0342796508005278,0.013465821414367,1
0.0474325774232268,0.00976319337442115,1
0.0469961634953183,0.00869105468892094,1
0.0706492965039889,0.0166595237178393,1
0.0791390194873323,0.0122991579835625,1
0.0957596045118099,0.00853213827136642,1
0.127162668741636,0.0129093722744164,1
0.155225057829433,0.0177517186226622,1
0.146414997370138,0.0168355792423077,1
0.156584981322148,0.0175898675936031,1
0.165528204433072,0.0212358415263903,1
0.157115375359439,0.0273071333787408,1
0.11916130377567,0.0224237284912154,1
0.117902861453208,0.0201909531592824,1
0.0496613957468104,0.0124255268231739,1
0.0126429124151255,0.0261768198280457,1
0.00924434543605949,0.0182931326272399,1
0.00766405639713787,0.0154058389541947,1
0.0203454330911622,0.0332978769763169,1
0.027539417343334,0.0294812170469699,1
0.0242191786156645,0.0290500060305457,1
0.0265860945018392,0.0312307791037038,1
0.023610028286612,0.0251132045923732,1
0.0230403120573577,0.0249578457174951,1
0.0243267914342517,0.0259282993496827,1
0.0225414183415059,0.0237857603781306,1
0.0199955109599781,0.0178045722806176,1
0.0254569470861046,0.0171979398529527,1
0.0244910520805617,0.0109944676993761,1
0.0238572095560542,0.00440500991255087,1
0.0417384354035185,0.0116072178336964,1
0.0435516220599098,0.00783387368887334,1
0.044089263134419,0.00706221989256189,1
0.0438591432833988,0.00713225734683132,1
0.0411976071103552,0.00620944572425662,1
0.0399834867339749,0.00558848157690744,1
0.0410133207210446,0.00670282643936614,1
0.0341847969384232,0.00537678367654339,1
0.035372232529225,0.0102526047263014,1
0.0345173832305244,0.0126567159876945,1
0.0168777513409141,0.00519345944101077,1
0.0175687417377624,0.0122124990925793,1
0.0281664198069021,0.0237546249462613,1
0.0350051922597644,0.0303911482599627,1
0.0503052175194426,0.0400038069319225,1
0.0617508717286578,0.0447291280610458,1
0.0553395976189426,0.0377812013622981,1
0.0530509868636374,0.0340306214109945,1
0.0361762049594436,0.02324400013737,1
0.0245406640293834,0.0216853840811725,1
0.0266846039783118,0.0192159698587518,1
0.0384187270330634,0.0117555589518232,1
0.105934000124486,0.0316511156117388,1
0.154188119055146,0.0449868639298181,1
0.204930336981731,0.0588328031035997,1
0.253776939200523,0.0605189673915821,1
0.243267545840314,0.0443679780966602,1
0.217705697079823,0.0427264291526747,1
0.223588152917689,0.0388796703322099,1
0.224657266206496,0.0400386505813051,1
0.193948440893051,0.0221265544118271,1
0.20004946391395,0.0310203166313351,1
0.211188374967774,0.0329684600131674,1
0.243774645138527,0.0352326624538456,1
0.257573976052576,0.0280500772891943,1
0.236704508410243,0.0251459842730317,1
0.234221158187945,0.0281210817207757,1
0.235705338703633,0.0278386050124523,1
0.196255952302102,0.0265515145354244,1
0.120732232029875,0.0119717852709184,1
0.109024473955081,0.021892973366196,1
0.10945068206592,0.0199825565871316,1
0.103014538392929,0.0178555291456251,1
0.113286526980892,0.0129036159680502,1
0.120663431188435,0.0115186757797418,1
0.129112253801421,0.0133207186923101,1
0.163227464721049,0.0220585626568733,1
0.152706068745408,0.0216884068579165,1
0.126491926402183,0.0152678824611253,1
0.128585383305434,0.0153073398005735,1
0.163507311178444,0.0216228213680584,1
0.149341854274898,0.0217469081588912,1
0.0731471974500238,0.00887948357050093,1
0.0685755122006994,0.0122268508050683,1
0.0857197482015005,0.0213127919199231,1
0.0700922007716481,0.0186667827501568,1
0.0697482409986157,0.0169205853530431,1
0.0691502689440286,0.0154500368862561,1
0.0705531882648408,0.0197457588014613,1
0.0674414205306102,0.019568702615566,1
0.0585246968094919,0.0136071510901369,1
0.0557732640776521,0.01269422944196,1
0.0523451601231771,0.0115897157461403,1
0.047758867888392,0.0165403541573336,1
0.0214403886306415,0.00535937107560382,1
0.0203182886805057,0.00837298402951569,1
0.0268078044935909,0.0130458130111298,1
0.0252435304926463,0.0107735163860546,1
0.0234454884929242,0.00775762538054364,1
0.0309195126749674,0.0219426949325755,1
0.0283141993574279,0.0251685366178989,1
0.0279065182234836,0.0243776095670289,1
0.0270810583008439,0.0312863861058385,1
0.0235349841672867,0.0181160719143651,1
0.0208086061132169,0.00997494361654857,1
0.0244759319317241,0.013149801248961,1
0.0272660737704734,0.00966917646489817,1
0.0278515481707608,0.00962474470189387,1
0.0329593863246284,0.0153203725678572,1
0.0287933973146138,0.0155925264610505,1
0.0281949196300712,0.014799662642269,1
0.0285395070778744,0.0134123378440016,1
0.0334991650088177,0.00820712737738321,1
0.0380137868783226,0.00727926821232747,1
0.0350486835182369,0.00666068935974565,1
0.038977258351229,0.0093684715448476,1
0.0463764612247429,0.0149065686038024,1
0.0438174067917765,0.0111184590292908,1
0.0440987483529477,0.0099795447718032,1
0.0475876605128949,0.0107056871499904,1
0.0443043924594725,0.00477412199623926,1
0.0687795550682833,0.0126454872068475,1
0.0786042244512032,0.0200577865660024,1
0.109702194908147,0.0206391180566551,1
0.25084874127422,0.0443231926091039,1
0.444606544003984,0.0585460912831784,1
0.800332720708537,0.0863865077194509,1
1,0.0587874081953862,1
0.941896971474265,0.0314586489424063,1
0.781931117872635,0.0305460022670668,1
0.620471817820373,0.0260076394548024,1
0.578511625495449,0.0227126309601218,1
0.492382821055084,0.0193623287934815,1
0.430715876853673,0.015922682232444,1
0.506942476979094,0.0206856322142104,1
0.492502885310778,0.0225150894307678,1
0.342041600402981,0.0153488593762435,1
0.162992149243021,0.00466722309007047,1
0.151158957138936,0.0117319193868015,1
0.15184217036134,0.00915304345140665,1
0.161659325134104,0.0102037939497031,1
0.158518568659999,0.0122156414796458,1
0.116463599863626,0.00847840148384591,1
0.0903185143831721,0.00783455888880741,1
0.0957269337704269,0.00722805824685695,1
0.0855506316858762,0.00828620361215005,1
0.0734201162708415,0.0185420709020062,1
0.0639221234513947,0.0117755318010361,1
0.0617169062785558,0.00554457226699232,1
0.0733379324211778,0.0100741557697119,1
0.0615582861972983,0.00660859302004557,1
0.0952168049498399,0.0111697810644809,1
0.17968669448328,0.0228295681361144,1
0.229698424016922,0.0307916904714915,1
0.225935116836723,0.0344878821578225,1
0.230375314101597,0.0302789693348536,1
0.218132441846516,0.0251558902489277,1
0.172195133094786,0.0272359597825779,1
0.11599044441788,0.0219187131309293,1
0.104061276402696,0.0163594821782571,1
0.0520678413636033,0.00664535463268496,1
0.0458812458589229,0.00960151377774579,1
0.0489909428437704,0.0121935763486788,1
0.0476658809531502,0.0115440774564731,1
0.0464479197480662,0.00986716599968262,1
0.0503528780820049,0.015018933526239,1
0.0445880097388092,0.0121286747508554,1
0.0450272375616635,0.0132544998900174,1
0.0333011143304583,0.0123900402680188,1
0.0241457564220823,0.0225873790965169,1
0.0225488492424353,0.0192723938021763,1
0.0239489779460305,0.0183742972215824,1
0.0189951419517371,0.0109846257237875,1
0.036153926095922,0.0139382229797115,1
0.0377966154192659,0.0057944694917215,1
0.0355235697191227,0.00377634430841533,1
0.0377420599163856,0.00597687191062427,1
0.0368512987127769,0.00478953319228289,1
0.0398307352385844,0.00591191427779259,1
0.0425280793479461,0.00600146824770397,1
0.0416676468303277,0.00621687384512963,1
0.044649078476831,0.00748509080872086,1
0.0423714259894668,0.00556338677485313,1
0.0276296682930512,0.00376716620404401,1
0.0291609197922931,0.00892550032192728,1
0.0368500659643419,0.007382606913607,1
0.0386876248884552,0.00892288441508329,1
0.0377407164081555,0.00866561572013175,1
0.0374868147348085,0.0090192881289476,1
0.0467824924330834,0.0115874424781493,1
0.0686130590676722,0.0140090396884986,1
0.0689802149151587,0.0136950264773576,1
0.0725815339961376,0.0114474059945924,1
0.102534030997229,0.0162321420882219,1
0.102913093483016,0.014458434096144,1
0.099658731649079,0.0159799573264661,1
0.160629150570396,0.0160975573035064,1
0.184824044976063,0.00958876135770317,1
0.17566641054667,0.0088384371354484,1
0.179996387537565,0.00880694964060066,1
0.209610999755393,0.00733819517968787,1
0.280137450406291,0.0125138308737703,1
0.276274911746182,0.0110947771666571,1
0.276394482995868,0.0105417581979074,1
0.256304925141536,0.00933063196565534,1
0.245105706062913,0.00998042565432262,1
0.238921429548306,0.00923069861387081,1
0.233752894259889,0.0134030368166436,1
0.189114511900863,0.00991281901926302,1
0.120209127123446,0.00438051702382209,1
0.11191054317893,0.0105949678016523,1
0.11128766536052,0.0068065547201279,1
0.16700144781864,0.0141843510139993,1
0.174125283297786,0.00710631616270476,1
0.220610600094875,0.0141326879562997,1
0.180385718563414,0.00881848056496941,1
0.182028067834593,0.0132121490899441,1
0.177512812508571,0.0125263714443139,1
0.180408851985242,0.0126792687754262,1
0.182499013838018,0.0133723681643636,1
0.190206031589304,0.0137783770142046,1
0.177402582459175,0.0181429485742889,1
0.120197248371223,0.0110803310220793,1
0.11914506472159,0.0273910381582823,1
0.0655744370377575,0.0157248697923955,1
0.0625772062328837,0.0178900400165724,1
0.065835324803212,0.0232028391468373,1
0.0459611799640648,0.0150072467957193,1
0.0544512639102007,0.015769066104914,1
0.0961008468094385,0.0259903107575934,1
0.141611105985986,0.0361040227709781,1
0.157027490609791,0.0440288819404547,1
0.132741757889604,0.038595018531167,1
0.125930964215023,0.0373641214619646,1
0.107737240683774,0.0270908861954996,1
0.0718733548947803,0.0176287839019382,1
0.0810467764837528,0.0221002013833836,1
0.0467930848932395,0.0134871554770354,1
0.0304169245124765,0.00986193885152932,1
0.0299143951531363,0.0115820136144597,1
0.0315890553284883,0.012440441777994,1
0.0327072955303268,0.0114025050691266,1
0.0336487244774293,0.012468664948752,1
0.0339694153130403,0.0119846819730414,1
0.0212882327275032,0.0130988139378486,1
0.0110644040475476,0.0188303196663216,1
0.0108137475735975,0.0190938697481381,1
0.012415350862072,0.0151017820849835,1
0.0133147426569405,0.0141862802859972,1
0.012549444579901,0.0188309192504278,1
0.00965154039899333,0.0132112547721254,1
0.00955200269821196,0.0125771675111687,1
0.0142762272461434,0.0167146424343011,1
0.0180785173142519,0.0191120935453667,1
0.0165129878469873,0.0160135669119948,1
0.0209796826954393,0.0210334622110744,1
0.0204758455687883,0.0127104704717235,1
0.0192352696918072,0.0134502074332084,1
0.0188677923874273,0.0151185394189402,1
0.0205371692834977,0.0148802294116843,1
0.0399278911767999,0.000203718358817352,1
0.115705975944727,0.0126843488790193,1
0.117163055871778,0.0103091062201192,1
0.118052651279605,0.0104205517223027,1
0.115287434989349,0.00985636159728141,1
0.117112625841236,0.0101794091368794,1
0.111058861743243,0.0110690118524405,1
0.104486338405295,0.0103097584444898,1
0.101630166263179,0.00974432724916767,1
0.0897032632562363,0.00686984555726493,1
0.138655501408312,0.0217332445847247,1
0.122397104488793,0.018925614332801,1
0.148570353486516,0.0254182516056761,1
0.178101140675946,0.0214403753712842,1
0.172112253687495,0.0190738785316909,1
0.205136371913187,0.0202384238291704,1
0.228844645642523,0.022713693300195,1
0.220655640098819,0.0211480467856285,1
0.181886877535379,0.0167665289003454,1
0.122859615246472,0.0102461633146924,1
0.151477206194915,0.0176903457273983,1
0.160219465159695,0.0210418106798563,1
0.140389118359268,0.0190085453153046,1
0.146069741658845,0.020300756016759,1
0.0938335580351068,0.0124957543733854,1
0.0988054555641942,0.017097021846461,1
0.099556989799461,0.0135838832578376,1
0.100461256813483,0.0166847438627104,1
0.154543005250806,0.0135690348504845,1
0.278576910165032,0.0299588992386666,1
0.372598377701907,0.0399265389240653,1
0.448629979382397,0.0478340269105741,1
0.548232233336087,0.0581098462527601,1
0.536185104038312,0.0984051812690302,1
0.410270053529734,0.0796068353535022,1
0.256514089392031,0.0414364358854029,1
0.193023396930044,0.0328810943535227,1
0.122388699625449,0.0176853874479745,1
0.111471794853595,0.0473259556094254,1
0.11255837450892,0.0348409308438256,1
0.111713012761228,0.030970299307906,1
0.104999841560825,0.0299498752060827,1
0.0851479351518106,0.023984385068156,1
0.0720610677524363,0.0179662179295916,1
0.0614689990213631,0.0132406385644185,1
0.0632549899384181,0.0226230398260918,1
0.0962863293461472,0.011896626631158,1
0.151483467894027,0.013280638490438,1
0.164299185685143,0.0115924339401016,1
0.158934268240271,0.0116673591542588,1
0.166615873403983,0.0125467803526241,1
0.200975944071283,0.0155782621252706,1
0.225901199426979,0.015623527196297,1
0.222838366398778,0.015524146153434,1
0.23974525613152,0.0155574072480713,1
0.248111440263069,0.0133065429863833,1
0.188418436363852,0.0204533532270904,1
0.0757673855527816,0.0101639277173149,1
0.0725526366395502,0.0142816790785792,1
0.0618137484092355,0.0130861943930944,1
0.0656071730772461,0.0151339060974453,1
0.065654754608641,0.0150819958160784,1
0.0688843633180065,0.0184995095405141,1
0.0396459153862974,0.00972677626740047,1
0.0312158079073936,0.00826733318539687,1
0.0221421688593775,0.00327071906144914,1
0.0213174973808933,0.00588325137183959,1
0.0212634775396604,0.00590985762758154,1
0.026092462865503,0.00643713365960951,1
0.0310143056626023,0.00872759678215621,1
0.0310490454528769,0.00792073686400006,1
0.0247295580485346,0.00617660116414099,1
0.0226616065412544,0.0133679189454135,1
0.0192567072348058,0.00970719967319423,1
0.0175639588314444,0.0150861244479954,1
0.0154864259711151,0.0178424239941825,1
0.0158790612052774,0.0112055253856991,1
0.0341785713135359,0.0246959738240725,1
0.0337165854236451,0.0156113493899662,1
0.0283983066378439,0.0118694297239542,1
0.0292415163126488,0.013774718027201,1
0.029280043593854,0.0133661760932231,1
0.0303065320206211,0.014204811303884,1
0.0285029787546762,0.0149618419241257,1
0.0259956335126978,0.011055317972064,1
0.0267604861906606,0.00773106925660482,1
0.0262530172191868,0.00859377937384861,1
0.0196211485678939,0.000457358614996441,1
0.0332927162744141,0.0148172468669326,1
0.0310575569995336,0.0111876580145041,1
0.0314724235765606,0.0105281861829543,1
0.0455557425173257,0.0134437383446511,1
0.0611114489552209,0.0129223333501865,1
0.0574922999002005,0.0114635126615359,1
0.0592497191112899,0.0124914495400629,1
0.0597516054366026,0.0114532339628085,1
0.0488837845031235,0.00936541356442827,1
0.0465469559820224,0.0139247525273243,1
0.0471346312530241,0.0153260285653695,1
0.0567856481479531,0.0209860090914823,1
0.0590052473424491,0.0204997601077689,1
0.0475080988577757,0.0224548446905349,1
0.0297663755046853,0.0206353834000243,1
0.029401020938896,0.0249622978930076,1
0.0205035718731634,0.0156183700530376,1
0.0264268567178231,0.0320009860193643,1
0.0240559578530668,0.0252007819280701,1
0.0236164317767512,0.0253181317516699,1
0.0233774921788655,0.0169880996653057,1
0.0257017811763158,0.0186240318583139,1
0.0255183313176499,0.0159439056113661,1
0.0254428871514577,0.0154080516082884,1
0.0308114213330432,0.0181043875030093,1
0.0337289919112775,0.0101273592501943,1
0.0400274195274513,0.014516087353995,1
0.0376839233013998,0.0143753127532893,1
0.037595694238206,0.0158340899807766,1
0.0378288213711223,0.0144789958325677,1
0.041146718755298,0.0201348037406037,1
0.0363148726548238,0.0111289939078208,1
0.0411546993055471,0.0119280564802929,1
0.0464107465420367,0.0121249813184168,1
0.0449961343322612,0.000614537645085227,1
0.0734794821502807,0.00958713515827016,1
0.0717110510804572,0.00597783118564846,1
0.0866472148880233,0.00866627964088877,1
0.0916116479849747,0.00493819549211418,1
0.0992346961208907,0.00648467035411648,1
0.0929742356864352,0.00557225736764752,1
0.10220106785402,0.0081805842168191,1
0.0994801726834143,0.00638995846618033,1
0.09449910703072,0.00613038758526955,1
0.0860301147484763,0.0120333710531984,1
0.0651929230561542,0.00867517838360502,1
0.0651277422997296,0.0125479674197483,1
0.0616377483063404,0.0115494963216179,1
0.0598943328096265,0.0212158399047524,1
0.0544605452193739,0.0211209017490204,1
0.0749337738362928,0.0330399143007907,1
0.0517423920802869,0.0255938411626895,1
0.0373064614631765,0.0358743958885922,1
0.035739347227213,0.0317006817924274,1
0.0220378124917086,0.0200975652509931,1
0.022231427899585,0.0193240507426207,1
0.0201954687793489,0.0188143900399747,1
0.0234839070605758,0.0226321544007418,1
0.0215565760278542,0.0192148956166882,1
0.0185308483461259,0.0209870813266028,1
0.0177879804563255,0.0226543513853358,1
0.0173938524344923,0.0247486734827571,1
0.0176664415374695,0.0225078850816014,1
0.0124374502390125,0.0324885708067228,1
0.0023684432828194,0.0100112759375893,1
0.00467366134494237,0.0249255131787189,1
0.00532099074801194,0.012408300089958,1
0.00485807226088953,0.0111305910085242,1
0.00427765061553943,0.0104882968495258,1
0.00431435734858099,0.0101400624016563,1
0.00575118550097964,0.013271115637465,1
0.0066071510337102,0.00978482306066698,1
0.00925366062237666,0.0161886103997449,1
0.0105651668326973,0.0183507691620502,1
0.0116087659023098,0.0210211647534768,1
0.01094051971826,0.0254083036088793,1
0.0118378055047241,0.0433474349931784,1
0.0127731268681653,0.0549742743196912,1
0.0120007045924046,0.0547632320548469,1
0.0111476897752679,0.0646501054427508,1
0.00333977119872989,0.0380993434726071,1
0.00124947886886048,0.139681239452494,1
0.00123945308474131,0.176440356409092,1
0.000841000095212449,0.161664400282001,1
0.000230867344892933,0.0929074351132211,1
0.000162189207204623,0.166567629924998,1
0.000134656244022949,0.183165116600802,1
7.52102718374137e-05,0.159672427526418,1
7.58464503756238e-05,0.202965649975024,1
7.44290319156752e-05,0.196885719469102,1
7.77464892407647e-05,0.132770070237894,1
0.000147349599599633,0.139336271521636,1
0.000150156312301178,0.117767275587476,1
0.0001589365195817,0.125925754906165,1
0.000159398924228262,0.128391799872146,1
0.000176944350266444,0.1312066867526,1
0.00020943257641003,0.141951098699092,1
0.000199732351398992,0.125304346960974,1
0.000203752265351774,0.123432518970113,1
0.000195661170898405,0.113483244262077,1
0.000202674940322326,0.15123479923946,1
0.000119922603901886,0.147447128141153,1
0.000114388908277812,0.184892310539029,1
0.000103185388068785,0.168980669416181,1
9.69997072800217e-05,0.166399945719893,1
8.79654808384074e-05,0.193690207942863,1
5.20709505496948e-05,0.16381254578629,1
5.73762319809247e-05,0.216251291671658,1
6.20028863097252e-05,0.243160591376496,1
6.64532015527177e-05,0.280505457906305,1
6.50113809979045e-05,0.342242433035337,1
3.48879786610914e-05,0.404330714022533,1
2.98469814719247e-05,0.685744073124988,1
1.62230812681391e-05,0.708364200525622,1
6.02174931149114e-06,0.480417259877347,1
1.15632102294939e-05,0.515971848800219,1
9.08941017396265e-05,0.363358386278602,1
0.000284068340573763,0.332967485770165,1
0.00028425641214314,0.220791787324141,1
0.000280714464303673,0.215325398315717,1
0.000292417955395632,0.220087521326184,1
0.000297846070551284,0.229231315489372,1
0.000300270801569725,0.238738956568738,1
0.000299830148579399,0.237632537026484,1
0.000299329417888465,0.229971910710089,1
0.000298650608039111,0.224303707832318,1
0.000253336888314995,0.321488611566238,1
4.45209962214301e-05,0.220675914943987,0
1.93495228614147e-05,0.412496101048394,0
3.81360979851857e-05,0.401902835746881,0
5.38306351915985e-05,0.361525397481704,0
5.05996680652973e-05,0.341577883316116,0
4.42645326681645e-05,0.305566009053539,0
4.17040091752456e-05,0.296081529374279,0
4.51799211842099e-05,0.344148343337485,0
4.41462349600878e-05,0.386495829322223,0
4.61833705120141e-05,0.433724311719736,0
4.53668179519278e-05,0.413836612824364,0
4.42407484319501e-05,0.404640714041442,0
3.02568511030351e-05,0.594708773224173,0
9.87117404507653e-06,0.579676324382436,0
6.92779976847204e-06,0.523275431349793,0
6.74918172651867e-06,0.557049177008191,0
6.36570279121724e-06,0.556952191662467,0
6.58151081486256e-06,0.557668817221919,0
6.77482908307007e-06,0.567603429179936,0
7.32658640213991e-06,0.594990899043518,0
8.01464635248917e-06,0.698817641898337,0
3.1081218924719e-06,0.668927890455054,0
5.42237823094414e-07,0.479081253658972,0
2.86183368423208e-07,0.349888941474685,0
2.97665077922178e-07,0.348495165492474,0
9.91438653448438e-07,0.561252532633196,0
2.35791769475049e-06,0.777818932001249,0
2.48157410783756e-06,0.71213235211349,0
2.45503088899363e-06,0.708650636393975,0
2.25210834820353e-06,0.66913546321139,0
2.05443540698892e-06,0.617565610000202,0
1.80192959254981e-06,0.545710734209153,0
1.77338354975462e-06,0.550244004680619,0
1.92607501507294e-06,0.568540541167162,0
2.30202427178464e-06,0.649329213051615,0
2.22878177466649e-06,0.681002766686111,0
1.28970923846222e-06,0.544550714778912,0
1.18521580077466e-06,0.578471961380631,0
1.21114434243041e-06,0.549340036046863,0
1.14614295496633e-06,0.56437757021619,0
3.85111025348047e-07,0.35595652276451,0
2.32105624580443e-07,0.306642143197186,0
3.3171345938333e-07,0.354061317636678,0
3.15072541260883e-07,0.362121115529485,0
1.99939171511547e-07,0.290326604225904,0
1.68702828238743e-07,0.276577903115778,0
1.34755130695156e-07,0.247613628210109,0
1.03763572857622e-07,0.220787327712025,0
7.52598247936005e-08,0.208304954781233,0
7.73708184555575e-08,0.214520445849884,0
7.89391856881843e-08,0.210738726837361,0
1.57685144341264e-07,0.277031888019663,0
1.64370425466199e-07,0.26619230861868,0
2.21262733952492e-07,0.305000572440596,0
2.72865300297647e-07,0.34115541177114,0
3.21280135211867e-07,0.372178025179075,0
3.28485959676405e-07,0.376272495853774,0
3.36667182985458e-07,0.380641936390304,0
3.13579125531945e-07,0.368184991608601,0
2.93247711397636e-07,0.356612131456951,0
3.08219671942307e-07,0.351348014773462,0
1.20600525187596e-07,0.230754321057537,0
6.09324846096231e-08,0.200336752189691,0
6.17285051363192e-08,0.203858904748614,0
1.08646930004351e-07,0.238317613042757,0
1.39976471401592e-07,0.257449095767056,0
1.33880790057864e-07,0.255336578598022,0
1.42399154774896e-07,0.251713004213979,0
1.45478903639966e-07,0.249664858478784,0
1.46473765546612e-07,0.244192290593981,0
1.58714440896297e-07,0.274257875656637,0
1.81400979120933e-07,0.305523455762037,0
1.90863395923758e-07,0.298831143602822,0
2.13437834396309e-07,0.296959993151047,0
2.48392838977616e-07,0.345341978908924,0
2.07991919896048e-07,0.29817118491585,0
2.16456854764633e-07,0.30017067744285,0
1.56078786708516e-07,0.275827427020139,0
1.28700621213629e-07,0.259300579771973,0
1.21987736226537e-07,0.252041852761212,0
1.2949972962999e-07,0.258245504648265,0
1.19191792493414e-07,0.243792134525763,0
2.07627829632809e-07,0.294624983655081,0
2.02462164512759e-07,0.285241056488692,0
1.36290092575952e-07,0.235587054898195,0
8.89625691135015e-08,0.205115283983746,0
9.0780868264173e-08,0.206685867525279,0
1.25791922721522e-07,0.232980896316456,0
1.65328887703761e-07,0.26367348735656,0
1.61860719747787e-07,0.267100933886932,0
1.5970855422363e-07,0.26557200420526,0
1.65042181826978e-07,0.269346353717864,0
1.31526040257192e-07,0.256566233155885,0
1.43132107494493e-07,0.272702835909841,0
1.55189100195311e-07,0.278379982333024,0
1.39519463731158e-07,0.274961107706552,0
1.73881406351938e-07,0.308378121542637,0
1.53870477735901e-07,0.301515923394946,0
1.01225795414983e-07,0.243881486804315,0
2.99365007969021e-07,0.343578858604589,0
3.23693180626519e-07,0.333311218651869,0
3.26475649932014e-07,0.344614688193681,0
3.28466777331516e-07,0.352425890938309,0
2.80172182969406e-07,0.341606116891463,0
2.42581992062389e-07,0.313125903365111,0
2.6448944636728e-07,0.303404243797567,0
2.70358308179245e-07,0.309357207309713,0
2.77241962822058e-07,0.312984471297796,0
2.76217906322215e-07,0.313894215447666,0
9.01520616414623e-08,0.211767476209544,0
5.2223887174738e-08,0.193300220671447,0
6.65313900069276e-08,0.195965450408907,0
1.24408267434316e-07,0.239259713308651,0
1.66211462713495e-07,0.25180044139598,0
3.16114470091817e-07,0.325107241940396,0
3.45709553221415e-07,0.340865378440918,0
3.68185647086754e-07,0.33050139948388,0
4.49961199790951e-07,0.358658028972142,0
4.58922162026647e-07,0.358897522414626,0
4.59655769753144e-07,0.359175979191917,0
4.63048705488185e-07,0.357781939847694,0
4.31709432559878e-07,0.354212166759543,0
3.36884551703398e-07,0.324831651386884,0
3.55063800313547e-07,0.345820746964883,0
2.1622638590872e-07,0.289152560108213,0
1.89073917076627e-07,0.281956656403349,0
2.89846822007396e-07,0.349455279390956,0
3.23675121150599e-07,0.350170835538206,0
3.79010103949129e-07,0.373661768547578,0
4.85371995601308e-07,0.43895143838567,0
5.84750390844837e-07,0.475705462785953,0
5.92162823199694e-07,0.456303981011404,0
5.80583143383168e-07,0.454202221732601,0
5.66903511449548e-07,0.477475493704453,0
5.84985912611112e-07,0.474603492388512,0
5.43232029994161e-07,0.473297674216666,0
3.06615747192324e-07,0.353635521548529,0
1.37185299861588e-07,0.26776768932117,0
1.27256611719333e-07,0.270909831605273,0
9.8057807763422e-08,0.228275384683817,0
6.53243994375312e-08,0.191271489823604,0
7.44548213151513e-08,0.201373539008868,0
1.47437093549708e-07,0.266127179901927,0
2.22706743446788e-07,0.304678976198657,0
2.52899286440375e-07,0.330062353886964,0
2.82712861156882e-07,0.346659976493544,0
2.69613471763059e-07,0.360640467592266,0
2.1702502646301e-07,0.322239637358116,0
2.50071808803702e-07,0.347892919748722,0
2.34016747565896e-07,0.341079457566105,0
1.55563670568929e-07,0.291768706853403,0
1.43017481287228e-07,0.305412457559176,0
1.37308815448191e-07,0.290969254742487,0
1.30807871979022e-07,0.277134358466367,0
1.08337298886114e-07,0.250401185435009,0
1.51487375493759e-07,0.283894247783352,0
1.54655643862562e-07,0.277973633553314,0
1.51311459355263e-07,0.28291947912901,0
1.17038036238216e-07,0.255970713077736,0
1.13568090406374e-07,0.26570334470811,0
9.24299884901628e-08,0.252839535466701,0
9.76041686998958e-08,0.248580278401042,0
1.12244976471087e-07,0.258751494959498,0
7.89652923917162e-08,0.225322386206567,0
8.49426982040306e-08,0.232642839647212,0
4.46164499089093e-08,0.201781125406804,0
9.16889885429538e-08,0.241111926231589,0
9.22855126828018e-08,0.238584859198353,0
8.50640616251101e-08,0.234509424243617,0
8.18054023042923e-08,0.234546421005482,0
7.59634893475858e-08,0.226723322518668,0
8.20330639877827e-08,0.226830645527513,0
1.04968691978736e-07,0.250612293785463,0
9.90002691181756e-08,0.259862775055412,0
1.3633416518299e-07,0.267519915490646,0
1.80772546787878e-07,0.29725951355069,0
2.33431358543325e-07,0.334291434061523,0
3.51450127253658e-07,0.383772734403162,0
3.53639347453797e-07,0.368646982819164,0
4.52337190529622e-07,0.391385141254209,0
4.65531649496164e-07,0.373037526489633,0
4.81036224221856e-07,0.383690592591136,0
3.98705974246912e-07,0.340534873180715,0
4.16577556759522e-07,0.345093280558113,0
4.14290646959068e-07,0.369131485662825,0
3.99759318912366e-07,0.365304792532796,0
3.5349702381196e-07,0.354193562772098,0
2.18483726826319e-07,0.283322722654777,0
2.12849170339245e-07,0.269694527394908,0
2.61925562221109e-07,0.302041848441062,0
2.71540782776149e-07,0.307122025865814,0
1.86770538531293e-07,0.256845313136161,0
1.35576322201244e-07,0.228019376864602,0
1.75569452702191e-07,0.258356566713027,0
1.89776084471987e-07,0.271482443665126,0
2.09618582742655e-07,0.286636133518765,0
2.69665123735638e-07,0.323317092731359,0
3.29416724479397e-07,0.368186113971594,0
3.22940858417205e-07,0.382162209563199,0
2.01810900510666e-07,0.326747158574424,0
1.55965657659876e-07,0.293989886290803,0
1.33807710002456e-07,0.287968371761193,0
1.52082776764639e-07,0.31333565479395,0
1.83911620563485e-07,0.329982270634717,0
2.87912493063248e-07,0.371331196713412,0
2.96648881505119e-07,0.354480761127967,0
2.88922794418219e-07,0.334531890006509,0
3.9098737295314e-07,0.373957925184587,0
3.94039050093982e-07,0.356179434157304,0
3.12528120176843e-07,0.319729800439685,0
2.38786227084673e-07,0.289388537714896,0
2.43540454299952e-07,0.28933088616193,0
3.00497702041627e-07,0.303204546241148,0
4.09004179852423e-07,0.35389159264626,0
4.24705630937369e-07,0.379678463169316,0
4.03725198538905e-07,0.37420046316629,0
3.86680141159986e-07,0.380285193243169,0
2.64753039857782e-07,0.325068556730722,0
3.2019357233941e-07,0.368133238269003,0
3.05877647989952e-07,0.360352416215699,0
2.92257995973766e-07,0.340706584056098,0
2.7313600529162e-07,0.341187687467746,0
2.61179977225609e-07,0.355071353233632,0
2.55592300517996e-07,0.351583090968709,0
2.53372294993619e-07,0.33772056177128,0
3.26482293573413e-07,0.393431889965047,0
3.56553192428679e-07,0.432462183832685,0
3.13049037806103e-07,0.390670289449005,0
2.62654678471728e-07,0.375039348178117,0
2.78255539211522e-07,0.35864894571758,0
2.72854071607956e-07,0.357924180423637,0
2.76270681163764e-07,0.353648406725853,0
2.77490865443548e-07,0.355973213960364,0
2.76502740750717e-07,0.351262324854178,0
2.8865218299666e-07,0.363564886639833,0
2.14980001352989e-07,0.3066684746845,0
1.69517188958602e-07,0.26371835386352,0
1.82912735043033e-07,0.272618946923991,0
1.50905355078096e-07,0.248271103066933,0
1.42747244155325e-07,0.242621082756051,0
1.56265089384976e-07,0.257409015181309,0
1.55259747367952e-07,0.259763974321016,0
2.11955740929477e-07,0.286571368439737,0
2.09538578328606e-07,0.289652037713826,0
2.01106955239438e-07,0.281376005535127,0
1.65566187345904e-07,0.269763116824566,0
1.38709407342348e-07,0.262736128850156,0
1.63358720525016e-07,0.29190452374768,0
1.56250211371135e-07,0.284541339840453,0
1.50725602470621e-07,0.298492530238082,0
1.28142461763559e-07,0.287197595789891,0
1.42628687906668e-07,0.304760649094288,0
8.05148515691103e-08,0.256884163182548,0
1.1543242718478e-07,0.284729607752014,0
1.43092339218503e-07,0.310582456586122,0
1.4015014180215e-07,0.307929006459834,0
1.55088416277746e-07,0.299484684545645,0
1.41046565529169e-07,0.294213496345409,0
1.32369034135764e-07,0.264667224490197,0
1.53001751443454e-07,0.277043903856992,0
1.4644195092582e-07,0.265063550437006,0
1.78473940435664e-07,0.282137348210733,0
1.85756213562516e-07,0.27759582281679,0
1.80169940441114e-07,0.286482433214107,0
1.94377227217809e-07,0.299826381304791,0
2.38247998558805e-07,0.324191690818145,0
2.35811372895802e-07,0.339307196817709,0
1.67129220950927e-07,0.284686258805108,0
1.20818361767607e-07,0.254222649484856,0
1.08274137506601e-07,0.238809369484814,0
1.25713321893683e-07,0.248920269755672,0
1.81073475671604e-07,0.268290355592365,0
2.27978987546491e-07,0.280738083965926,0
3.26789211091642e-07,0.317690892721442,0
3.44481228141606e-07,0.320345851879596,0
3.41292280269288e-07,0.324121696808989,0
3.43127703171738e-07,0.319494320022779,0
3.28807100201576e-07,0.313175679659062,0
3.25445979087325e-07,0.306646697416096,0
4.13860681716307e-07,0.344005623169579,0
4.24666704813106e-07,0.349630954114789,0
2.47620211554444e-07,0.295133343338278,0
1.05520862794304e-07,0.220205465751717,0
8.98220317369533e-08,0.218113678579471,0
8.98908074613125e-08,0.218261611614606,0
1.14812509941408e-07,0.240158355282078,0
1.36699471887612e-07,0.261149060948919,0
1.34362126555962e-07,0.263707576102585,0
1.15976644345149e-07,0.265833032541413,0
9.52057205818422e-08,0.264346526219159,0
1.02687770812785e-07,0.267540500080599,0
6.48545723463663e-08,0.22681029284585,0
4.69220741921814e-08,0.206407403072955,0
4.66977811155984e-08,0.2078643335682,0
4.71548823584467e-08,0.215750072676256,0
4.66521177775206e-08,0.201777843239499,0
3.49563145951041e-08,0.195872767688347,0
4.59828878719215e-08,0.218119635832677,0
4.5908497802717e-08,0.214080260757946,0
5.69268367070943e-08,0.21767787813722,0
6.02636289936803e-08,0.218029043064882,0
5.87421415405146e-08,0.212579410505696,0
6.7584734672382e-08,0.219463016564527,0
6.63232849579827e-08,0.214834012729004,0
9.00252710203652e-08,0.236064844744542,0
9.17866781432678e-08,0.241651726285872,0
7.73288980140434e-08,0.214478909505161,0
4.85655800733255e-08,0.179579536971915,0
4.49607963927746e-08,0.179823972293402,0
4.34190972981646e-08,0.179685871594746,0
6.7304766009413e-08,0.204327108696278,0
6.88928770214135e-08,0.200700357293645,0
8.51313401908436e-08,0.211387076162673,0
2.61442822136799e-07,0.332128496315772,0
2.40414387089905e-07,0.301830537642312,0
2.60388822464446e-07,0.308462046763783,0
2.4672940217227e-07,0.303879924515915,0
2.36098827351898e-07,0.296402490390663,0
2.45102832898077e-07,0.290137473507046,0
2.72237242254249e-07,0.294018046253007,0
2.85767813332218e-07,0.291935182997699,0
3.44276772416811e-07,0.328556421161689,0
4.09724313151289e-07,0.346653449775044,0
2.47292333815458e-07,0.279133976480276,0
2.2393488138177e-07,0.281050742676635,0
2.39254837734454e-07,0.289647983994633,0
2.39075646561465e-07,0.28423604291917,0
2.46238802005176e-07,0.290753676727995,0
2.40734872608176e-07,0.297506356785318,0
1.71860242207511e-07,0.269298904535437,0
1.48601882960348e-07,0.266703023744816,0
1.37631453131986e-07,0.250114696347614,0
1.12185464415723e-07,0.250012722377403,0
9.08977402093762e-08,0.240332121321525,0
1.06363295238391e-07,0.255117210354055,0
1.27765271362347e-07,0.251056901950319,0
1.46688982099027e-07,0.271838168287436,0
1.40283763209476e-07,0.260437180118045,0
1.49806814936634e-07,0.261401193047052,0
1.65235783151738e-07,0.27287203266357,0
1.18368261676974e-07,0.244713263766117,0
1.17500751825909e-07,0.265328693366343,0
1.55454377989267e-07,0.284284157503032,0
1.69523926172416e-07,0.269575175427759,0
1.85925766776854e-07,0.290232616327156,0
1.69487245786091e-07,0.294974930353553,0
1.54882463394326e-07,0.285361455666325,0
1.51614914694169e-07,0.286563093828882,0
1.4838638569069e-07,0.280250833971257,0
1.63734413767603e-07,0.288422870763801,0
1.78926830919878e-07,0.29605336194139,0
1.9798612808458e-07,0.291703844446604,0
1.91014234655277e-07,0.283349103354884,0
1.9426821535539e-07,0.299409164805993,0
2.39432344603991e-07,0.302819088562187,0
2.40237067365198e-07,0.311263242971587,0
2.35538609308718e-07,0.315278579010592,0
2.46856660655438e-07,0.3304445780992,0
2.77701122658016e-07,0.360550057810722,0
4.86893857344131e-07,0.446268266148677,0
6.96067877547427e-07,0.491661499194581,0
6.97643637000766e-07,0.487585761175,0
6.62491849632621e-07,0.484453246862693,0
6.16542554257358e-07,0.454564065811485,0
4.44821454229604e-07,0.403174752251278,0
4.34428646913444e-07,0.402489868207304,0
4.43482245839094e-07,0.385640125594374,0
5.01800317198935e-07,0.38544420133213,0
5.08097366377794e-07,0.382981262528135,0
5.00780845747383e-07,0.368639890720841,0
5.76275069438288e-07,0.386207795820295,0
5.91341631693607e-07,0.383089360125066,0
6.89831931154971e-07,0.413225005423504,0
7.91110501411502e-07,0.470284355052087,0
8.09402879070292e-07,0.457040897701368,0
8.21997726007323e-07,0.44948602553463,0
7.99231183368637e-07,0.447689605610154,0
7.72607866538244e-07,0.444107753653237,0
7.57110777605681e-07,0.442012572240526,0
6.09242128082171e-07,0.429939495084924,0
2.79412374966964e-07,0.324489090455752,0
3.89857018190886e-07,0.388351234908469,0
3.94049530204361e-07,0.369601216175581,0
3.97163900862646e-07,0.355365215338549,0
4.02435396383036e-07,0.37681789405019,0
3.86812639698343e-07,0.37328568849335,0
4.1855006324862e-07,0.399576345674602,0
4.34598200127783e-07,0.419942735169311,0
4.32696808673396e-07,0.416757446374582,0
4.73143297520626e-07,0.443831903861405,0
4.71999374758331e-07,0.419164263786461,0
2.68661372449653e-07,0.3252923274173,0
1.55808923866269e-07,0.262970509305904,0
2.07991919896048e-07,0.312864515489846,0
2.57338361764987e-07,0.34845219915182,0
2.81788365705635e-07,0.352914403348041,0
2.30756310369211e-07,0.302721454988348,0
2.03303567660291e-07,0.298465347668208,0
2.1443943351677e-07,0.312837675143335,0
1.85158005119214e-07,0.290195081636114,0
1.17051229948603e-07,0.249329542131767,0
1.53979676743149e-07,0.28190403501144,0
2.76242609439536e-07,0.366688271966751,0
2.81652124270714e-07,0.36795601369356,0
2.72321925289004e-07,0.333370988355934,0
2.42166811261055e-07,0.306123031508756,0
2.35513906191397e-07,0.318838676124435,0
3.0813311745927e-07,0.336498721979912,0
5.00230265662855e-07,0.428599647897852,0
6.06385830141957e-07,0.476451941341096,0
7.37623480218912e-07,0.522222124029641,0
7.28049525098487e-07,0.544166273965726,0
5.04400881731431e-07,0.428686921958191,0
3.40372650583573e-07,0.351733712163362,0
3.01438572665341e-07,0.347550692293762,0
2.85407746682785e-07,0.344967948200894,0
2.08682858601717e-07,0.283034560549866,0
2.77769243375477e-07,0.357795136345707,0
3.63567380589153e-07,0.388105792779446,0
4.16108665392498e-07,0.404189519145033,0
3.02631901662279e-07,0.336339555940659,0
2.23827085960734e-07,0.292186308321817,0
2.14869866621601e-07,0.299180933872962,0
2.11950407301873e-07,0.300855301098363,0
2.08001651427114e-07,0.302178932027888,0
2.11940675770808e-07,0.297346033855969,0
1.61255212656187e-07,0.272863160364564,0
1.60150683880223e-07,0.269036217281557,0
1.66021791430126e-07,0.265298368388689,0
1.1243726778205e-07,0.221200462335201,0
1.11053144632774e-07,0.225969630207599,0
1.03583820250148e-07,0.222700973141168,0
9.42625106477764e-08,0.22486194736688,0
1.25507462582677e-07,0.250186394669386,0
9.76453405620968e-08,0.228088349182971,0
8.70312344866047e-08,0.22693763428408,0
8.57317007996697e-08,0.233486763977654,0
8.5802815834381e-08,0.231904436734523,0
6.29232377194695e-08,0.212872393722087,0
8.1490998992937e-08,0.234886216453699,0
8.61606367458758e-08,0.235559835532228,0
9.64780246962761e-08,0.239020102587341,0
1.05905258271402e-07,0.238262191959312,0
9.11170739480119e-08,0.216692430017447,0
8.26408168173222e-08,0.214144671480485,0
7.10356853041624e-08,0.202882723744601,0
8.04804169207235e-08,0.20448957328642,0
1.12369240637004e-07,0.233634682140082,0
1.06873919902101e-07,0.227695406838404,0
1.01274546642726e-07,0.22103693497547,0
1.07223880730812e-07,0.230715789331607,0
1.10208747167991e-07,0.234298448207941,0
1.58965682828139e-07,0.268083835538475,0
1.34977739468285e-07,0.253203397259029,0
1.29777078265364e-07,0.246205438357658,0
1.91742508754169e-07,0.284493786161707,0
2.05963737820564e-07,0.300526104677039,0
1.92375058273444e-07,0.284807706733661,0
1.79932266509316e-07,0.289512742780178,0
2.07769685412575e-07,0.295025264131759,0
2.39024368878541e-07,0.292451023679807,0
2.25275119068836e-07,0.284670507429986,0
1.65229326655166e-07,0.249357517787897,0
1.6931806686141e-07,0.248253146136413,0
2.35884827240865e-07,0.29163242612408,0
1.67477778193426e-07,0.248779360171874,0
1.4677085796136e-07,0.240688078891554,0
1.40315577830268e-07,0.235855694732673,0
1.3660000441143e-07,0.235577409772149,0
1.76958067327343e-07,0.266994509111005,0
1.45325444880852e-07,0.255321661938735,0
1.73120849770183e-07,0.263073828370872,0
4.51701646693096e-07,0.409086987990196,0
5.4508616737943e-07,0.416686294056638,0
5.40841722676133e-07,0.422619461895274,0
7.25060354330259e-07,0.479968309238115,0
8.01957415653261e-07,0.481338425345702,0
9.12002317524173e-07,0.479750840232109,0
1.06950789640279e-06,0.494476200598294,0
1.06724718687828e-06,0.497239518781326,0
1.11355355458573e-06,0.517922370652876,0
1.13981643047703e-06,0.539299695127818,0
8.71938352705757e-07,0.474519145674128,0
8.31702214645409e-07,0.502841744870633,0
8.12212952237944e-07,0.49953938627086,0
5.86329893194741e-07,0.429881328424042,0
4.1745339455544e-07,0.379961453154986,0
3.3182340696989e-07,0.389442777423017,0
1.85798789010929e-07,0.331448693179592,0
1.8324613355445e-07,0.345413363460044,0
1.30361999425865e-07,0.285121146111683,0
7.029346891557e-08,0.232827737658786,0
6.48583152429298e-08,0.242865210492178,0
2.59696199455323e-08,0.188946064004966,0
5.95195411568061e-08,0.231849734650426,0
6.945758654047e-08,0.232115932698175,0
7.23277331979701e-08,0.224528610202626,0
9.1621616404806e-08,0.234402630909241,0
8.75014358674264e-08,0.224305450516013,0
1.02741668523303e-07,0.245284588691709,0
1.05133472999956e-07,0.240985664415013,0
1.65735459843e-07,0.286647571820467,0
1.69217850805916e-07,0.281905430498537,0
1.66726485280667e-07,0.280216413301635,0
1.07431985779757e-07,0.245892413509529,0
1.04137862513997e-07,0.249506477529717,0
1.0443804281841e-07,0.257013544655978,0
2.26966159736339e-07,0.332470657418294,0
3.31939436763366e-07,0.367983374237981,0
2.78639092536893e-07,0.324630866085469,0
3.43724414456414e-07,0.381145332220317,0
4.01781231636106e-07,0.405040007928022,0
4.06115131567276e-07,0.398102452494617,0
4.66544196589074e-07,0.417631587957509,0
5.26374772450328e-07,0.422832975978826,0
5.12096277066508e-07,0.412968996142607,0
5.20991645039924e-07,0.411350971943062,0
4.51280196540018e-07,0.400598681110829,0
4.20459782647861e-07,0.397259042153865,0
5.13672785099161e-07,0.450218936491267,0
4.60585130969922e-07,0.403192449433396,0
3.43073056881907e-07,0.351032853419708,0
3.38712582385134e-07,0.361334607603888,0
3.70246485934756e-07,0.365161391200697,0
3.45013374460557e-07,0.348711294579932,0
3.03653338134527e-07,0.343849738371918,0
2.31689695199796e-07,0.288355837197021,0
2.58345575230293e-07,0.319053990717984,0
2.76037779425084e-07,0.318626754876054,0
2.88458955961556e-07,0.322598006520293,0
3.53379964721929e-07,0.380766020911137,0
4.31691840946028e-07,0.407472794950025,0
4.31456319179754e-07,0.40743483935633,0
4.80577812965211e-07,0.453585339799192,0
4.47672137824972e-07,0.435578413816642,0
4.44268721979552e-07,0.433986908495426,0
3.57949292846958e-07,0.412780534335283,0
2.50928932116801e-07,0.317511010915175,0
4.62075552381609e-07,0.436346843247726,0
5.41961316610766e-07,0.468374742933407,0
5.08226122019586e-07,0.454730076914013,0
4.10300719222107e-07,0.417786741757839,0
4.70116417069521e-07,0.41266363775247,0
7.6649992720827e-07,0.506530843944934,0
8.44829395046218e-07,0.514867397238629,0
8.48774314452e-07,0.51176011395002,0
8.68655832419346e-07,0.513260957500701,0
8.39112494834741e-07,0.545087092197731,0
6.06927052985078e-07,0.471630709169607,0
5.23265828992062e-07,0.445296658708311,0
4.46341912386216e-07,0.392391880061417,0
5.07170625188609e-07,0.395628984562134,0
4.90351264472484e-07,0.407813246828962,0
2.18242216425544e-07,0.288226281298868,0
1.5108716627868e-07,0.256770245784536,0
1.58288592839756e-07,0.257557676689013,0
2.49070209683241e-07,0.29897897772762,0
5.44666962964289e-07,0.434240503831765,0
5.87335983791078e-07,0.421605243694641,0
5.73953631417034e-07,0.423769981095141,0
5.57506314619347e-07,0.440990185980844,0
5.07475016251655e-07,0.437475470040218,0
5.16284578321347e-07,0.437545163531314,0
5.02918694692185e-07,0.423475677124688,0
4.33405619710157e-07,0.385042820390831,0
3.28021372640429e-07,0.343677497100403,0
3.39351120538911e-07,0.368389033134712,0
2.26659990797424e-07,0.311670207661131,0
2.34128660173152e-07,0.342815802282739,0
2.45366239243751e-07,0.340569098891912,0
2.62008373807582e-07,0.342937020851882,0
2.23815857271043e-07,0.320115404481047,0
1.28343174591791e-07,0.264240422921813,0
1.29385852002038e-07,0.272745892153609,0
1.4164907830352e-07,0.278760964543009,0
8.68643948722756e-08,0.226679675877124,0
9.120456415519e-08,0.232348106875791,0
1.02630223778117e-07,0.228194390459028,0
1.04671973853645e-07,0.216703984425706,0
1.46358110042792e-07,0.253068308159225,0
1.84201040040277e-07,0.265317592620516,0
2.80179668762534e-07,0.327358844051926,0
3.2664174096703e-07,0.315372715840574,0
3.70697598543103e-07,0.320345604440169,0
3.97038607400174e-07,0.328082479773513,0
3.97235015897357e-07,0.324513626182821,0
4.088758920727e-07,0.334078415479646,0
4.22617188227208e-07,0.326031021483882,0
5.4401944185876e-07,0.357827208396592,0
5.44558886826011e-07,0.341307809594792,0
5.24608780279135e-07,0.34455732244124,0
4.90021421712802e-07,0.331118919590459,0
4.44178424599952e-07,0.333432444710568,0
4.16507190304124e-07,0.330068385006205,0
3.77367720936954e-07,0.321428013674825,0
3.90430429944453e-07,0.332434603708326,0
3.76985664770209e-07,0.328825528086249,0
3.31715330831612e-07,0.332529686788321,0
1.7478269584449e-07,0.273657013680126,0
1.35067568985816e-07,0.269605499519436,0
1.6060684939893e-07,0.291630347273614,0
1.40973859763418e-07,0.278930131763911,0
1.6186829911333e-07,0.27215911080345,0
3.06776691744566e-07,0.37964631722311,0
3.51470619612344e-07,0.40536364549459,0
3.60795672111279e-07,0.398127486058261,0
4.53051428766399e-07,0.430218714194524,0
6.03334340145943e-07,0.482456689848055,0
6.07932488574514e-07,0.476105717989587,0
6.18338863890717e-07,0.48271259596207,0
6.06423259107595e-07,0.471059296323342,0
5.63806732405113e-07,0.45668492493893,0
5.2915125312132e-07,0.490147987205291,0
3.51781280027136e-07,0.384014706232148,0
2.84947838267513e-07,0.327986708086259,0
1.64392882845581e-07,0.260239114389671,0
1.62177088079839e-07,0.267759316096934,0
1.14484632202423e-07,0.23399527009607,0
1.20152126179258e-07,0.233313138225775,0
2.42845866270134e-07,0.307579462536938,0
3.30434792344738e-07,0.351609027596275,0
3.4139109273857e-07,0.340504084440105,0
3.74254098857982e-07,0.337154036440723,0
3.54624477829377e-07,0.347011112569278,0
2.46468896571433e-07,0.304028181341668,0
2.3668356136757e-07,0.293889646474185,0
2.44584441723997e-07,0.301218647871656,0
2.2130998802161e-07,0.285868029319573,0
2.10105627158014e-07,0.272025731038627,0
1.75374073501563e-07,0.247565451465924,0
1.66246365223951e-07,0.24403053149061,0
2.05048506038312e-07,0.274861932330305,0
1.10545607858729e-07,0.22306829776128,0
1.77789458226567e-07,0.26122028624539,0
2.33543177578167e-07,0.296647613113014,0
3.45480207234471e-07,0.362991388589773,0
4.74317724889919e-07,0.400090583575439,0
4.40070221331576e-07,0.390135329807264,0
4.34203324540307e-07,0.40245834702057,0
4.76094103599076e-07,0.445399454871168,0
3.75928670780605e-07,0.38416304879988,0
2.82293656741742e-07,0.331685209759772,0
4.05506910875666e-07,0.389483604021599,0
4.38744206651452e-07,0.427049430869745,0
4.89620183201169e-07,0.446105864388961,0
4.94101272539708e-07,0.471001336159183,0
3.68967257461681e-07,0.424707715882231,0
4.09951600545123e-07,0.422408566551636,0
3.65286118691228e-07,0.400799014502777,0
2.45857026555673e-07,0.334005451810695,0
1.23308885141128e-07,0.256485444928365,0
1.15272979791164e-07,0.256333761416939,0
8.69077189000013e-08,0.239893481727281,0
9.8632061668716e-08,0.242740749617171,0
1.49070212892888e-07,0.28142726708798,0
1.6787031447055e-07,0.276195190397043,0
1.60103804100762e-07,0.267648736466238,0
1.49627436618816e-07,0.279380360266507,0
1.51154538416828e-07,0.286442809033295,0
1.4262073425147e-07,0.279374359242279,0
9.62612174128207e-08,0.245573391093161,0
1.17584218419281e-07,0.258146791576195,0
1.09004002336533e-07,0.232173870655838,0
1.23996080950233e-07,0.238892696784409,0
1.04510561439333e-07,0.231674693822124,0
1.0524716348308e-07,0.22438178063656,0
2.82173229044803e-07,0.349005810924133,0
3.38993299627416e-07,0.382720875148651,0
3.04577365723704e-07,0.359247687759634,0
4.09670883302841e-07,0.370758911773356,0
7.47621786237252e-07,0.471537913605831,0
7.51540598939502e-07,0.471848305638439,0
7.5345368694565e-07,0.480342010304437,0
7.58771875100675e-07,0.48656819293748,0
7.61968308766117e-07,0.463768419471665,0
7.54793924632716e-07,0.477185956263792,0
5.80682330142107e-07,0.423078098612432,0
4.46191354371938e-07,0.371847491132442,0
3.89546825638165e-07,0.357344276221391,0
3.2321549345257e-07,0.367459636091641,0
4.7994788347353e-08,0.177909062196074,0
2.44310087405874e-08,0.154404798067793,0
2.12400958475735e-08,0.152160577203667,0
1.6755076467642e-08,0.150159491289371,0
0,0.134820142577947,0
5.95906561915174e-08,0.232595368668921,0
6.54812268035524e-08,0.223855119305706,0
8.5974334069415e-08,0.232178931568204,0
8.88357784924045e-08,0.224282165974737,0
8.84296742152371e-08,0.209299504055883,0
1.67543933890191e-07,0.268113702907406,0
1.67970624098459e-07,0.261274993714247,0
1.48021453275724e-07,0.248823205031215,0
1.77730601178102e-07,0.261056623465461,0
2.1486846303539e-07,0.290557172786124,0
1.85190661891733e-07,0.270548410230979,0
1.80790044829314e-07,0.27412481800598,0
1.30511715288415e-07,0.236296356635682,0
1.03928260306427e-07,0.225719256192404,0
7.71941537377484e-08,0.206406109259744,0
6.1017354789206e-08,0.185716648187423,0
7.44640849841466e-08,0.201266037995497,0
7.94242650828464e-08,0.204729930015351,0
1.1338422061268e-07,0.235877121896273,0
1.10333104906322e-07,0.225466681407513,0
9.40940803024074e-08,0.206309204255641,0
1.55211838291936e-07,0.243702293582354,0
1.59217205477223e-07,0.240489917229295,0
1.5396554730862e-07,0.230553216492688,0
1.69256776930178e-07,0.244677890738056,0
1.64104211948102e-07,0.243655141436601,0
1.55872178818197e-07,0.227697534314699,0
1.59104170000997e-07,0.226778285527639,0
1.24198197364676e-07,0.208777642181433,0
1.25138132264248e-07,0.21235931245494,0
1.27548089789235e-07,0.216101201203537,0
6.69151304771264e-08,0.179355299498287,0
1.10639180272823e-07,0.214233972625394,0
1.21262362872482e-07,0.214464481053827,0
1.04865855895647e-07,0.207319989251726,0
1.00542342502442e-07,0.217307946106238,0
8.99132648406946e-08,0.218452893428748,0
8.76038976608592e-08,0.213645213585796,0
1.0967547798007e-07,0.224851694251506,0
1.05289083924594e-07,0.222519467203792,0
1.21974916805806e-07,0.240582966884174,0
1.65430413773053e-07,0.272642135812548,0
1.71732983724344e-07,0.287364809231051,0
1.68375324789415e-07,0.294141048323328,0
1.4867599231231e-07,0.273490289289416,0
1.41863920566279e-07,0.268058912022658,0
1.46856944582326e-07,0.271968848371609,0
1.55301667809466e-07,0.280241742279692,0
1.64829304584915e-07,0.293148767005157,0
1.90641348585113e-07,0.304249693611755,0
4.49996476591064e-07,0.405211491166871,0
5.59742695316189e-07,0.418603493667792,0
5.45285289476621e-07,0.424247703989755,0
5.43547836891727e-07,0.423833864656435,0
5.55987727911018e-07,0.436312794751638,0
5.53146962991543e-07,0.435420147903925,0
5.28294878387533e-07,0.417995120798244,0
5.07457424637807e-07,0.393269616012723,0
4.90661176307963e-07,0.370625304249519,0
5.12889116131125e-07,0.380440683790549,0
3.16987407142899e-07,0.327845443227652,0
1.52127410806161e-07,0.252246962478489,0
1.79358761183335e-07,0.267500811701567,0
1.78303732214427e-07,0.269587265270557,0
1.73214890046347e-07,0.26478764674893,0
1.76287808125189e-07,0.261391698398412,0
2.08010634378867e-07,0.274823088695119,0
2.18852027848193e-07,0.308515224143446,0
1.5399137329491e-07,0.270753715612968,0
1.56836255400605e-07,0.279743413066054,0
1.50370027297065e-07,0.285816082878567,0
1.75683704619799e-07,0.301560334982874,0
2.01035840204727e-07,0.30397637173787,0
1.94763119853532e-07,0.293163547804006,0
1.75707191295737e-07,0.280018739661971,0
1.63584697905052e-07,0.263986567664547,0
2.47930965541649e-07,0.334775431311104,0
1.89826613575598e-07,0.289650992201699,0
2.12492846586376e-07,0.319980240208683,0
2.05019030727873e-07,0.299583016014876,0
2.45313838691858e-07,0.317996816028709,0
2.21010182006853e-07,0.306832929170697,0
2.01950978414564e-07,0.312453414996649,0
2.00705342438147e-07,0.303870641125426,0
1.90611873274673e-07,0.29691435991748,0
1.60288703191011e-07,0.293964107236834,0
9.39892791986222e-08,0.243310085144648,0
1.00591468019841e-07,0.253682166777623,0
6.00726476965146e-08,0.207896173241721,0
4.59889700788373e-08,0.203602190507746,0
2.60437292974947e-08,0.17347503059912,0
9.17133173706182e-08,0.261641289896087,0
1.50266723351905e-07,0.335314187270208,0
1.62918462316704e-07,0.32477197867943,0
1.59212994718589e-07,0.305187591653773,0
1.87380256381529e-07,0.31013411171642,0
2.35639199653869e-07,0.343097618645153,0
2.57652765076342e-07,0.372100532150871,0
2.64586013098625e-07,0.358705735525973,0
2.74224813902016e-07,0.349926283569798,0
2.8710636671583e-07,0.357689562194418,0
2.52697918605246e-07,0.341552282351344,0
1.68116597064446e-07,0.281760330370072,0
1.51594048045826e-07,0.272278062553033,0
1.39291147040769e-07,0.266023447280317,0
1.53329254892782e-07,0.289482039932447,0
1.6353229735316e-07,0.296485904686485,0
1.78210159800333e-07,0.29612922733606,0
1.61555299388186e-07,0.302852820338969,0
1.43869458117552e-07,0.29233408290524,0
1.31561972064204e-07,0.274610602533568,0
1.45184337680399e-07,0.270664897924342,0
1.30658436833714e-07,0.256071376087624,0
7.08911159243876e-08,0.208010795450889,0
1.03537876194828e-07,0.231671177476384,0
1.0747867841439e-07,0.222045299166943,0
1.13264447922639e-07,0.2181739263419,0
9.18334643503146e-08,0.200993304144227,0
1.03832816444051e-07,0.208603051259139,0
1.42798241121006e-07,0.233230400983079,0
1.66101889416591e-07,0.243828379650256,0
1.40858297832012e-07,0.22720044269453,0
1.44413581705508e-07,0.227516061669228,0
1.38139083478446e-07,0.225444680051882,0
1.14665039816796e-07,0.217008143243607,0
1.16752827520058e-07,0.223313025122444,0
1.26303202392131e-07,0.225719971346083,0
1.44135858780477e-07,0.236215019884461,0
1.87932333624682e-07,0.26487756083003,0
1.69199510612753e-07,0.261832740363421,0
1.45555633019523e-07,0.251168527583578,0
1.42534647630504e-07,0.257629623671031,0
1.20125177323999e-07,0.238565745006749,0
1.75389793667131e-07,0.280004236353851,0
1.96376214700096e-07,0.287413224034677,0
1.58390025336634e-07,0.277395563558265,0
2.28515718913733e-07,0.339091511286046,0
2.33606526102509e-07,0.317666361541161,0
1.8708634542886e-07,0.298043196183021,0
2.37674586805238e-07,0.325718408798886,0
2.29403253261413e-07,0.309792025251178,0
2.24447190348933e-07,0.299250006796773,0
2.66212675945232e-07,0.316283031343671,0
2.53998575161149e-07,0.307210363831035,0
2.62622208844037e-07,0.314410429877542,0
2.78154761721544e-07,0.323080017676711,0
1.99871331511329e-07,0.275093287649797,0
1.9426868321746e-07,0.287052179340785,0
2.26860703625656e-07,0.294067543513459,0
1.58793883875862e-07,0.254374524515244,0
1.59053547324973e-07,0.259365434337609,0
1.8141370496925e-07,0.28446986551599,0
1.58980935131636e-07,0.281930751356115,0
1.76177392676559e-07,0.292227325803529,0
1.62772489350718e-07,0.284097978564584,0
1.53658536217979e-07,0.270505187892457,0
1.48792022105786e-07,0.273470219524543,0
1.76475233670619e-07,0.287408598759985,0
1.38094168719681e-07,0.249784068620327,0
1.49095945306763e-07,0.257910204189045,0
1.38675814845688e-07,0.250222310209505,0
1.51598165232047e-07,0.25713860568545,0
1.25684127300486e-07,0.243897072259082,0
9.74062630440869e-08,0.214739179848256,0
1.2481062881492e-07,0.236867915380136,0
1.43174682942905e-07,0.256746213430789,0
2.30238199912372e-07,0.311189696423783,0
1.95097641233918e-07,0.299972404222302,0
2.03988517731458e-07,0.307802093541066,0
1.82484921965796e-07,0.30249882253013,0
1.7154181528235e-07,0.304070070504338,0
1.42949360569768e-07,0.295922921277714,0
1.12852074293728e-07,0.257597433551934,0
1.09294451109881e-07,0.278690630110029,0
1.41389414854409e-07,0.314417256526829,0
1.58195394715318e-07,0.342606278471241,0
6.27128869325861e-08,0.241032332951272,0
4.22542143151104e-08,0.226029160276955,0
5.72467607908809e-08,0.241973884222092,0
8.18136366767327e-08,0.260734811645802,0
1.44275094532649e-07,0.301521198918183,0
1.96459026286569e-07,0.320692120899396,0
2.11637594721558e-07,0.333348465339192,0
2.54141834527127e-07,0.338188460301412,0
3.3189311841839e-07,0.377889221411611,0
3.22261054828813e-07,0.356801019787733,0
3.20942806659059e-07,0.360091817292304,0
2.94752262243852e-07,0.334999576795638,0
2.95949989144252e-07,0.350705670281456,0
2.86799449197602e-07,0.349349671697506,0
2.24661751894452e-07,0.323525972067707,0
1.69770957345624e-07,0.293903628312479,0
1.60718106999288e-07,0.269444096850829,0
1.87508544161252e-07,0.315621698577729,0
1.19579463005004e-07,0.250022986309039,0
1.0991455549808e-07,0.254819787167863,0
9.96590189133958e-08,0.245643118205357,0
1.15295437170546e-07,0.24787965940582,0
1.13652305579058e-07,0.239001548504903,0
1.0332331464931e-07,0.232935192071823,0
1.03197272607526e-07,0.235773460792279,0
7.41823384453098e-08,0.220183865423816,0
5.50257259699497e-08,0.215361800872258,0
2.75940370542011e-08,0.175964520209215,0
1.765262306363e-08,0.16639133049637,0
4.61176321482168e-08,0.197403952862634,0
6.23113677037097e-08,0.207709493005038,0
1.075989189665e-07,0.272168205598744,0
1.00631517013073e-07,0.261226608571943,0
1.57024990959832e-07,0.307619311102534,0
1.44514733485143e-07,0.29709511508312,0
1.43266851770788e-07,0.285635795533134,0
1.47400413163383e-07,0.295177949924836,0
1.52885347360322e-07,0.291471840067837,0
1.54769895780171e-07,0.289127958970604,0
1.39495415620736e-07,0.284752551048677,0
1.23800046742706e-07,0.283645964097786,0
6.78938043561335e-08,0.220326959481842,0
6.81445784259053e-08,0.230613896792855,0
3.11902120726555e-08,0.193381356075546,0
3.74211055547496e-08,0.189309419244031,0
5.62301900841656e-08,0.213029529574674,0
6.05555749256531e-08,0.218042414873851,0
6.77927461489126e-08,0.227055073397573,0
8.00901263815383e-08,0.240278200235522,0
1.29166611835816e-07,0.279779705731484,0
1.26192412653844e-07,0.269389036273959,0
1.1554237477134e-07,0.27162365371729,0
1.09724416352642e-07,0.274218982372811,0
1.18822649319813e-07,0.283042567836655,0
1.18800940519743e-07,0.292389563707061,0
8.59824748694411e-08,0.250118301960748,0
6.1092961299794e-08,0.223951345894275,0
9.82314781639804e-08,0.277147143422883,0
9.2080401951108e-08,0.265294206937033,0
2.70424276731181e-08,0.194363018490423,0
6.94168825403392e-08,0.257946201927686,0
7.61540963550953e-08,0.25173214629841,0
7.67345260397192e-08,0.256983134420039,0
8.37277539794361e-08,0.270083276575969,0
9.4033913240145e-08,0.286996188896591,0
1.09869640739315e-07,0.281745765561035,0
1.99470841579007e-07,0.346835164485491,0
1.68092642526437e-07,0.312326092954187,0
1.70284950616241e-07,0.307275991875723,0
1.7590041833084e-07,0.301468604759323,0
1.61813559251085e-07,0.294834897294007,0
1.67084399764576e-07,0.296892461376924,0
2.59924609718126e-07,0.341426551677112,0
2.7860175714367e-07,0.352356062951696,0
2.65451090066922e-07,0.334823103119282,0
2.59805304890156e-07,0.335353342824481,0
2.62427110360652e-07,0.347163765100524,0
3.41678453622253e-07,0.387643582007683,0
3.33908948935214e-07,0.38796170134145,0
3.25986734068373e-07,0.393390102574326,0
2.96812820374612e-07,0.373991120469118,0
3.08325502342646e-07,0.389524306734399,0
2.11886029480977e-07,0.331596595580162,0
1.92354940204414e-07,0.307321499363549,0
1.93442251656184e-07,0.314228870549048,0
1.76848774747682e-07,0.319218747076744,0
1.18987804630689e-07,0.271814388837437,0
3.82163775021334e-08,0.184473760676888,0
6.01684658485469e-08,0.208149285853564,0
6.04683654357175e-08,0.199748298783851,0
1.16517773615854e-07,0.241860776029928,0
1.17400816487657e-07,0.23130444480484,0
1.09742382256148e-07,0.232794274087316,0
1.05493539649389e-07,0.217747990785214,0
2.48488563557234e-07,0.317452517647577,0
3.30089790853974e-07,0.351608560678308,0
2.97673218722204e-07,0.341130798410034,0
2.4865671318536e-07,0.316247026032085,0
2.53358165559091e-07,0.329616413409761,0
2.7402260391516e-07,0.354122926289576,0
2.82307224741785e-07,0.363293777687627,0
2.86078193029767e-07,0.379677850555793,0
2.79726871850734e-07,0.357292461019261,0
4.26885493896097e-07,0.472337721482768,0
3.96258119894217e-07,0.452120725920513,0
2.88391583823409e-07,0.39884084783653,0
2.22267420962618e-07,0.349053320242726,0
1.32500409805151e-07,0.29127476970262,0
1.25445049782476e-07,0.276481771870837,0
1.59695828375313e-07,0.301366313035028,0
2.26248740037482e-07,0.346251829487138,0
3.54695592864089e-07,0.422514051156478,0
3.5573424666053e-07,0.441184467210915,0
2.9050931469918e-07,0.398542458360038,0
2.311931063982e-07,0.369764705938853,0
1.98213976912899e-07,0.327494382898325,0
1.76921106223776e-07,0.302098392138649,0
1.78672313953542e-07,0.299549353986968,0
1.9495026468172e-07,0.307255092772903,0
2.4547936829239e-07,0.328869944465499,0
2.71727459742266e-07,0.320574632146999,0
2.45529523106345e-07,0.283891308367545,0
3.05937534334972e-07,0.302608529014534,0
3.72829084563747e-07,0.324665584710081,0
5.40721949986093e-07,0.377443255098334,0
5.35395153168973e-07,0.36999387817744,0
5.52275242381845e-07,0.373366034089199,0
6.98517229058746e-07,0.411268885490942,0
7.99423474679599e-07,0.435716328089304,0
7.39632947811577e-07,0.420070482960414,0
7.09467447245664e-07,0.441466810891327,0
6.48570520153395e-07,0.45058891162533,0
5.82019573511923e-07,0.452467310674025,0
5.20916787108649e-07,0.448797424045527,0
3.21938885007088e-07,0.351124957680002,0
3.10979683868418e-07,0.337097343843375,0
3.55118165886136e-07,0.366543012831927,0
2.49869692389259e-07,0.304182358047032,0
1.5092921604369e-07,0.243366472146056,0
1.45583704743751e-07,0.249740721141478,0
1.44938055086504e-07,0.245299946297963,0
1.54466253296437e-07,0.262002418761527,0
1.76759413092222e-07,0.277670277511614,0
1.96522187666083e-07,0.291529899527919,0
1.90430717080988e-07,0.300603694758628,0
1.70955958397708e-07,0.298906744518173,0
1.48498579015188e-07,0.273903231492609,0
1.4063858980372e-07,0.27438656926633,0
1.58737646854992e-07,0.292247613819509,0
1.92290468811103e-07,0.326210453178763,0
1.73551282875015e-07,0.312002092931397,0
1.7445790599517e-07,0.312703427683938,0
1.72995837024954e-07,0.299306737545891,0
1.46782835230364e-07,0.282751027653884,0
1.451697403838e-07,0.272383275455262,0
1.64657505632639e-07,0.293017925989733,0
8.2530027079035e-08,0.227328686325157,0
6.37239368668704e-08,0.221724502454785,0
7.00377355078515e-08,0.236744729761973,0
3.42699609377258e-08,0.182124317452548,0
5.6465992567682e-08,0.205329570847962,0
5.78962469171063e-08,0.205430652685018,0
5.80328626416835e-08,0.2085944595263,0
5.74548658398256e-08,0.202065588517143,0
9.93993554642855e-08,0.241916870044565,0
9.85136925648875e-08,0.239232416870615,0
8.94895689496779e-08,0.235540748652111,0
1.02753365075065e-07,0.2388504117611,0
9.5143588498884e-08,0.238540474010769,0
9.43441057928661e-08,0.230776224909897,0
9.22525751930407e-08,0.231924079982945,0
1.27707630755265e-07,0.260003633642815,0
1.23408446189723e-07,0.256410186020545,0
1.07701006470276e-07,0.252795976797305,0
7.78641322226599e-08,0.241839693169965,0
8.93579125630481e-08,0.264293548375768,0
9.51982347887148e-08,0.272977534303013,0
8.77989961442448e-08,0.260668720735798,0
5.00416849056557e-08,0.208907515921505,0
2.72707443635071e-08,0.187523447803668,0
6.69199026702452e-08,0.241218344979656,0
8.02857862994086e-08,0.252088611272933,0
9.10564390236793e-08,0.268639519291156,0
8.75657201159088e-08,0.247820420389403,0
1.07201704068672e-07,0.263746057651416,0
1.54818085573429e-07,0.311004519221525,0
1.63494868387523e-07,0.320182775026505,0
1.59147119739066e-07,0.314337801927233,0
1.80501841793905e-07,0.317413129335375,0
2.17279543429346e-07,0.33533029105799,0
1.92938832068359e-07,0.30304774709029,0
1.79331063748763e-07,0.308493305692007,0
1.69231980240444e-07,0.291200320599792,0
1.3751542333851e-07,0.279034376256918,0
1.47979813551452e-07,0.280281772489644,0
1.4220152983633e-07,0.275419204024646,0
1.69704427359203e-07,0.285894178228466,0
2.13117442450452e-07,0.289923774817082,0
3.3624460996341e-07,0.370219756810073,0
4.2465332395789e-07,0.424703658489153,0
4.35934320628629e-07,0.420487423255823,0
4.12864603368279e-07,0.401251284679407,0
3.89575645941706e-07,0.382034857110118,0
3.59584938645319e-07,0.354092767084728,0
3.54412255594212e-07,0.351238372478244,0
3.64987809835098e-07,0.356178762862694,0
3.11353505662723e-07,0.328748336558339,0
2.9038954200914e-07,0.330884272801335,0
3.12528775183742e-07,0.332766013440835,0
1.81985245274535e-07,0.261972444737789,0
1.47163862100554e-07,0.250925618113275,0
1.47358960583939e-07,0.251066218746459,0
1.39104002212581e-07,0.256391199678096,0
1.32325616535624e-07,0.263976401749761,0
1.06524707652703e-07,0.248321501884739,0
1.18375841042515e-07,0.258896703283195,0
1.84679662938367e-07,0.307916642135595,0
1.93393126138785e-07,0.327690834310356,0
1.14949499955641e-07,0.273246829165443,0
9.49681402224579e-08,0.263682615043897,0
7.60735305065604e-08,0.251638754054755,0
7.96202992903732e-08,0.247588303993722,0
7.79098891331517e-08,0.245425655240766,0
5.80478342279382e-08,0.218579874799385,0
4.91977553029432e-08,0.21846179948385,0
5.62755727050012e-08,0.219969349102114,0
1.76454179877449e-08,0.180881891545183,0
2.208823620892e-08,0.189981126218269,0
5.68976421138969e-08,0.228547237836767,0
1.61299285263225e-07,0.306878756216448,0
1.74680234051057e-07,0.285807316123917,0
1.68431842527527e-07,0.284800626243541,0
1.63150241186415e-07,0.268206482897169,0
1.59642679244107e-07,0.258365767094254,0
1.79576317046103e-07,0.259621767885505,0
1.80961188774692e-07,0.257962901042654,0
1.79190330837966e-07,0.254409849014399,0
1.41773061752194e-07,0.235645281381787,0
1.3178177366491e-07,0.230051988078261,0
4.33775511463069e-08,0.159234030666255,0
4.55267223532141e-08,0.166592559610314,0
6.9304127781356e-08,0.198873926237344,0
7.78728344571708e-08,0.212307772949348,0
7.05083111783296e-08,0.213414567114537,0
6.33604080381158e-08,0.201745331510403,0
7.04124930262976e-08,0.20110754845078,0
9.06016770911831e-08,0.218908082440639,0
8.7270779866685e-08,0.221228340383746,0
1.02736428468114e-07,0.235651482203827,0
8.81313653591061e-08,0.209008737612363,0
8.31316041292442e-08,0.20954459387935,0
1.42328039740184e-07,0.248454821517695,0
2.35246195514675e-07,0.319371445498205,0
2.62632688954416e-07,0.320938270742986,0
2.5847807376865e-07,0.325350886549692,0
2.5314397830323e-07,0.329608680486628,0
2.0724043983846e-07,0.315680023556408,0
1.98857474404622e-07,0.309956729612012,0
1.93263621917679e-07,0.306081973889081,0
2.52995478882064e-07,0.3808151520252,0
2.83161353737634e-07,0.393693038642127,0
2.52233050852027e-07,0.376024108885382,0
1.55559179093053e-07,0.287094536396923,0
9.84657834888713e-08,0.241307544685608,0
9.2334638200201e-08,0.225945822030476,0
1.43419561950589e-07,0.273607144332647,0
2.47215230146245e-07,0.329743164618778,0
3.06240708956636e-07,0.364477570261229,0
3.05982449093737e-07,0.362229093754301,0
2.56188169650945e-07,0.331656536034979,0
2.36071972069053e-07,0.319297063554003,0
2.41006606898705e-07,0.33794436020522,0
1.96626988769868e-07,0.316493798727157,0
2.08459781966517e-07,0.312690050478096,0
2.41974519950092e-07,0.338558884219888,0
2.11073165919744e-07,0.318644738161061,0
1.5502815564307e-07,0.275037005764637,0
1.24022374798594e-07,0.241677189193589,0
1.3213238950052e-07,0.253955411500379,0
1.38708658763035e-07,0.25911506582994,0
1.5006956627541e-07,0.264690106982632,0
1.64514526983903e-07,0.252745558972154,0
2.12701980931875e-07,0.282728151087116,0
1.70282237016233e-07,0.256222330277963,0
2.48757303530512e-07,0.313571209309874,0
2.69680843901205e-07,0.308950805322949,0
2.62204127297866e-07,0.317326175186148,0
2.45392907381767e-07,0.328817222399689,0
2.14694044055519e-07,0.302593148846544,0
2.11830634611833e-07,0.304094010002174,0
2.06237998566274e-07,0.311385175731134,0
1.83847991321901e-07,0.31633106564999,0
1.10465509872265e-07,0.248491717115849,0
1.11857118814668e-07,0.272433161285279,0
2.83516928911191e-08,0.183276439894154,0
1.05900579650697e-08,0.17383660506856,0
5.26017325828487e-09,0.156802340468462,0
1.04605537439639e-08,0.153341359628327,0
6.40521888955108e-09,0.15305489341765,0
1.3198108290693e-08,0.151593142727753,0
7.29864829931906e-09,0.137669923325928,0
8.42666375122024e-09,0.143860878071897,0
1.21599223563218e-08,0.145346230358407,0
3.034506602856e-08,0.164296927074701,0
5.2735541135003e-08,0.181768626956024,0
5.85688454296127e-08,0.18780142273565,0
5.89475329894505e-08,0.183619024091676,0
7.46699442951529e-08,0.200247364473333,0
7.65310060390652e-08,0.198474452834941,0
1.08974433453679e-07,0.232325716042063,0
1.15891306303496e-07,0.240871231740243,0
1.15076758438809e-07,0.246207462495059,0
1.17023064651961e-07,0.252879145324509,0
1.16586736485041e-07,0.241636601633667,0
1.53922878287794e-07,0.271014926052942,0
1.29929039865853e-07,0.246323974883132,0
1.55642271396768e-07,0.268968346128563,0
1.54781405187105e-07,0.271969499611362,0
1.70950718342519e-07,0.270460649470453,0
1.5123847287227e-07,0.245134438259108,0
3.48603280127267e-07,0.336365265012346,0
4.94764139521149e-07,0.359715776411373,0
4.40893658575602e-07,0.330076832599785,0
4.39780240420299e-07,0.331376338787925,0
4.61198872433964e-07,0.343817894314172,0
4.31660400614893e-07,0.337858127104656,0
4.32073148533461e-07,0.343069655896221,0
4.3623010302958e-07,0.35018116211704,0
4.44213701400066e-07,0.360450452552958,0
3.5915478625773e-07,0.33773893433784,0
2.46574165537289e-07,0.301984776822527,0
7.43016432732795e-08,0.203537707655207,0
1.11876675449214e-07,0.246533344763729,0
1.81947348446827e-07,0.304173227957988,0
1.72656730596278e-07,0.287806825989748,0
1.97308663806541e-07,0.317241420764691,0
2.05849953765026e-07,0.318762255746146,0
2.24334903452021e-07,0.323063254431819,0
2.26017803319499e-07,0.336720195079238,0
2.43113764091684e-07,0.362427092303266,0
2.3944123398333e-07,0.36732658940854,0
2.73335875968125e-07,0.387900257508821,0
2.02897931245194e-07,0.345777691116424,0
1.04520386542812e-08,0.15518139482864,0
5.32539323090826e-09,0.151351251585257,0
2.04825335830698e-08,0.163960165597878,0
2.82337916493608e-08,0.17669246722428,0
9.36591557216993e-08,0.246664783308417,0
1.53570297431488e-07,0.291339357932695,0
3.08251860852755e-07,0.390288803143704,0
3.55742761750213e-07,0.392606147455946,0
3.20915951376214e-07,0.380820454989282,0
3.60157882536816e-07,0.402021257841084,0
3.91900639714696e-07,0.42344546523782,0
3.55426954852646e-07,0.387909732550174,0
3.09705134016046e-07,0.34634077494546,0
3.39954194747746e-07,0.344795431789259,0
3.83200744514321e-07,0.37249596141385,0
3.9027996550259e-07,0.357989996659303,0
2.39594692742444e-07,0.279939302893182,0
1.58790047406884e-07,0.239229357636161,0
1.79093109099722e-07,0.237025478408499,0
2.00006824366937e-07,0.253246312526939,0
2.00912324618122e-07,0.2537601444179,0
1.60646991964577e-07,0.245069651853514,0
1.49580369694527e-07,0.250016216673633,0
1.45506601074538e-07,0.261660813641033,0
9.61728850539157e-08,0.214171516802294,0
1.0174502874079e-07,0.227605199486074,0
1.20259266593396e-07,0.235984106434446,0
1.9402866997531e-07,0.292353522437057,0
2.46557696792408e-07,0.348649424448369,0
2.41622687673099e-07,0.334077394676111,0
2.45701602775863e-07,0.329311040948883,0
2.69964555460738e-07,0.34741457555816,0
2.73539489541193e-07,0.337847248300328,0
2.65869826619992e-07,0.322645627168067,0
3.84149849510475e-07,0.357866059198684,0
6.23762601728838e-07,0.445124459977301,0
6.88713085799651e-07,0.478700944842976,0
6.22103749971783e-07,0.453094788296502,0
5.36338363103041e-07,0.424715601081819,0
5.45307746856004e-07,0.436393885540246,0
5.40880368083155e-07,0.438988654700027,0
4.75365829500184e-07,0.406177691932342,0
5.73158359469651e-07,0.443038686544624,0
6.09999690346675e-07,0.460954473985799,0
5.53047308370532e-07,0.486619817437737,0
2.25603090380234e-07,0.333085866833522,0
8.39250982007599e-08,0.2273073287893,0
5.83082462563614e-08,0.20050224293413,0
1.0243325384645e-07,0.241374573507304,0
1.04884851095708e-07,0.235852395841157,0
2.19583764126406e-07,0.305667441887776,0
2.34797047927024e-07,0.301694990422955,0
2.07133392996737e-07,0.282722464345157,0
1.96688372273513e-07,0.281499257217155,0
1.93793335353864e-07,0.288953700286282,0
2.14555931172317e-07,0.292939560332731,0
2.28100257395157e-07,0.304077857863445,0
2.30283208243552e-07,0.299195624413593,0
1.86446310116458e-07,0.262648234071325,0
1.71863236524762e-07,0.252236343911173,0
1.25959323770336e-07,0.225796963629539,0
1.38778744501191e-07,0.235682855047645,0
1.61398846311821e-07,0.25551851377023,0
1.81287195065394e-07,0.261199786305269,0
1.96617350811216e-07,0.251106278386482,0
1.95383598531388e-07,0.262012806455101,0
2.06006687558633e-07,0.261158593510763,0
2.16095290956574e-07,0.266626572239609,0
1.33845138968094e-07,0.211376821433437,0
1.08174108595935e-07,0.199144153034994,0
1.17450222722299e-07,0.210975455619359,0
1.01175640601029e-07,0.21097451806499,0
1.03165083697078e-07,0.21258660731757,0
1.68641351162684e-07,0.269824027688082,0
2.46604482999454e-07,0.337253808412456,0
3.56256380731174e-07,0.333594386922837,0
1.47985521468712e-06,0.613169007885407,0
3.70427876059478e-06,0.827130653593761,0
3.94686711558133e-06,0.580878053852585,0
8.60499845590374e-06,0.662022840567212,0
1.11033883687057e-05,0.664333205134467,0
2.00317290151107e-05,0.863841785387861,0
3.13333022597085e-05,1,0
3.68833796998906e-05,0.757693618162925,0
3.32285523694134e-05,0.651033275357403,0
4.04576894651987e-05,0.677867651845129,0
5.36392439536869e-05,0.657594497852773,0
4.82237404880062e-05,0.488366626566916,0
3.37392350480202e-05,0.384356047590554,0
3.90516886176455e-05,0.380181663663041,0
3.44022205857096e-05,0.22664043748561,0
4.60488129126852e-05,0.243720430305939,0
5.2453624294373e-05,0.270184910301154,0
6.65530662437973e-05,0.321705190023754,1
6.89662182374287e-05,0.297959483869027,1
6.51053464161376e-05,0.305026805273742,1
5.19239403334982e-05,0.284267460686563,1
5.09095185172725e-05,0.308345666291761,1
5.20629347624139e-05,0.343924612544818,1
4.37935478990922e-05,0.307540892118621,1
6.30156172724283e-05,0.634650995273866,1
9.3021042386683e-05,0.904344801483415,1
0.000210497251571962,0.745216823343769,1
0.000235911219808122,0.340290143275182,1
0.000207518603676706,0.318542155665436,1
0.00019576417737686,0.293820629224495,1
0.000174221850398274,0.247895357244405,1
0.000193833258492199,0.249240849601481,1
0.000216843132170122,0.252793462433648,1
0.000253211050167501,0.290470962123019,1
0.000267154085546051,0.199003202721978,1
0.000287546850901522,0.168547767377077,1
0.000203021953619992,0.159840336558805,1
0.000146055749033268,0.121423448978082,1
0.000230413776850868,0.14374043780217,1
0.000261568005183822,0.14869003411472,1
0.000290335215362676,0.133534009554431,1
0.000266345587605797,0.126850320653576,1
0.00028150027561213,0.087557131225822,1
0.000492648798016971,0.106341536282637,1
0.000486162653680098,0.0963349631377599,1
0.000625473415370309,0.110430490379301,1
0.00057705728354243,0.102491011889432,1
0.000625967391536532,0.110248391694615,1
0.000734350316331758,0.0839820855331515,1
0.00174075887818825,0.0967017200438633,1
0.00176206889321508,0.0524245429254893,1
0.0014870427674535,0.0435098601342113,1
0.00130250563289341,0.0439019124479269,1
0.00135812611177098,0.0454108359457754,1
0.00141533632701339,0.0482034728369916,1
0.00146252876550238,0.0435956645984619,1
0.00150843111943396,0.0444965150693202,1
0.00153229841688601,0.0459510064359998,1
0.00172545981945638,0.0467983168365125,1
0.0021457435165061,0.0658724540235665,1
0.00246540955751802,0.126571525621843,1
0.00201377397444644,0.114356411615222,1
0.00189578447621653,0.102716476617119,1
0.00168515945478816,0.0830596103582843,1
0.00118738719121916,0.0519928642802492,1
0.00132742337604395,0.0704108779707561,1
0.00157346491888513,0.079274467435616,1
0.00174481427405188,0.0858079266194808,1
0.00196471852182511,0.151399756009794,1
0.00134839233496729,0.0750025167229689,1
0.00184753894233899,0.0530355297336188,1
0.00254985594913486,0.058326838430449,1
0.00307523822322415,0.0639583783869868,1
0.00523350041919007,0.0816490316271697,1
0.00568621000285038,0.0715247318398595,1
0.00555779088750734,0.0574649698819893,1
0.0103071551369406,0.0561339037942405,1
0.0103005313006093,0.0379571118969944,1
0.00807383294942864,0.0323126153481667,1
0.00515866045671925,0.0228574688717247,1
0.00478843956246546,0.0230518146062339,1
0.00434666841248224,0.0220468306296971,1
0.00373166641807535,0.0194383617510436,1
0.00378248348442747,0.0213327880217028,1
0.00329681707707393,0.0207288622733366,1
0.00335116362077632,0.0220522795647113,1
0.00202191497097467,0.026692824778486,1
0.0014577020541944,0.0421268248167935,1
0.0014654622434669,0.0375125810213208,1
0.00177248186725793,0.0308755936466223,1
0.00227141753162294,0.0407626157668287,1
0.00881185028950647,0.0449846369629231,1
0.0128234187049777,0.0242046306347429,1
0.0131715044612536,0.0235710394809791,1
0.0134591766689661,0.0219364748493074,1
0.0124881346354016,0.0237625310450676,1
0.0106806314857536,0.0208627784716374,1
0.0102083011640811,0.0195947605480074,1
0.0106502084257143,0.0190334105427561,1
0.0106140514231198,0.0181094595873167,1
0.0104558067079757,0.0179438227707707,1
0.00771085817042373,0.0218480220925823,1
0.00663670404219095,0.0365778795999149,1
0.00840693835695437,0.0450459496036086,1
0.00824544099526568,0.0480824571883075,1
0.00872929506590278,0.0483078318519524,1
0.00863840766057939,0.0445016469726228,1
0.00896728277716518,0.0378591232986252,1
0.0072407557204406,0.043994947982835,1
0.00570739135047421,0.0354713215503957,1
0.00440856436732503,0.0271385944993934,1
0.00432074780352147,0.0249816968562192,1
0.00510657338588835,0.0333949184177671,1
0.00482937357229236,0.0339993019522446,1
0.00455824963094718,0.0368262248879466,1
0.00444271637012897,0.0351329223261652,1
0.00298303810846935,0.0294454604228117,1
0.00256811836078947,0.0440835644906575,1
0.00278443018720163,0.0276758610756111,1
0.00370447969425391,0.0310201181471965,1
0.00337990579649794,0.0259690208861769,1
0.00339185690190639,0.0297407924453319,1
0.00317931851446822,0.0291875717219087,1
0.00322501223092382,0.0294208280869299,1
0.00322372456156399,0.0259529108161992,1
0.00312566240754908,0.0252063882616659,1
0.00316043517788891,0.0262658584488185,1
0.00287788236149194,0.023641155303324,1
0.0027048302155825,0.0373751981739113,1
0.0016242890866349,0.0350326298490218,1
0.00172167122212558,0.0471144943946109,1
0.00164198390851797,0.0462384993969209,1
0.00167701839350781,0.0405288646980097,1
0.0023559010703653,0.0458761029903808,1
0.00483897142131587,0.075874375924876,1
0.00623629009955896,0.0348057597822326,1
0.00632917851287377,0.0374454648064518,1
0.00632277062670256,0.0358427545706978,1
0.00641096510478352,0.0363813034847515,1
0.0062900511910774,0.0344178613306685,1
0.0054524262433905,0.0293003409113847,1
0.00478005776556393,0.0210175596974548,1
0.00497274566682872,0.020287122569416,1
0.00491743187958557,0.0207226076819076,1
0.00368242329203527,0.0197547031402353,1
0.00146622972515588,0.0148256434958564,1
0.00165283165789353,0.0213877287791341,1
0.0019492442421042,0.0170531569551109,1
0.00342806566539181,0.0300925509042991,1
0.00547604902199508,0.0484236734674358,1
0.00916892442015034,0.0696953521625107,1
0.0142202115201959,0.0969819708396241,1
0.0136106821076787,0.0859892907061124,1
0.0218444380711633,0.0751852154299568,1
0.0312280685815075,0.102867888840465,1
0.0671211903751062,0.0498519257609795,1
0.123425898621345,0.0692437758442594,1
0.136206235060895,0.0714466349149755,1
0.133220566571137,0.0429016104810614,1
0.123456843522105,0.0364988252100396,1
0.122349854091083,0.0159873027942143,1
0.140679661774749,0.0170141701823028,1
0.111619894501314,0.00999600051145024,1
0.106026172209156,0.00938896085243733,1
0.0994085663298997,0.00684100528850208,1
0.101903749452535,0.0102768717143856,1
0.106611571895988,0.00578177665757415,1
0.129971259985374,0.0082798393788743,1
0.134998864843511,0.0102992588259996,1
0.128760633271316,0.0094219290374328,1
0.118181267589454,0.0193318466247956,1
0.0795104764162843,0.0122101831638085,1
0.0929290965661922,0.0195258727156705,1
0.104206549755439,0.0178478734793566,1
0.103483183356464,0.0203983747987956,1
0.0814496889542234,0.0146661199443964,1
0.0733335848025014,0.0333749613434434,1
0.0536081374790997,0.0262913073052442,1
0.0451395674060684,0.0224223061596356,1
0.0397794786346251,0.0219670221711518,1
0.0427310467438893,0.0232054544060514,1
0.0468672578445002,0.016820610149657,1
0.0406195514140202,0.0116343369557189,1
0.0345198630173991,0.0132794922606803,1
0.0306069966362057,0.0124196673115885,1
0.0309539370495707,0.0119346021082939,1
0.0287991932987675,0.0106666165214607,1
0.0261612168607566,0.0078659076599989,1
0.025312376547061,0.00881238989640379,1
0.0314075135737876,0.00525413728408521,1
0.0454197468525965,0.0123626801850079,1
0.0546291797045671,0.0212620494804999,1
0.0559852981686354,0.0273247383977377,1
0.0545995321041073,0.0269326932223739,1
0.0636434496123326,0.0324695496760302,1
0.0833035361051873,0.0440037727095049,1
0.097731344196964,0.047420276196227,1
0.0873727521749596,0.0509320680877782,1
0.0454591126578196,0.0282801585635254,1
0.0251203155672154,0.0405353002907183,1
0.0233527608419761,0.0370359028005549,1
0.0215209580910715,0.029015199006322,1
0.0162029798093353,0.0273991090330314,1
0.0170834074219944,0.0300514246991595,1
0.0169067672410244,0.0262971840714419,1
0.01526279215935,0.0254335810189109,1
0.0130353732411624,0.020795601115761,1
0.0144647513233869,0.0233395894020484,1
0.0143296813709246,0.0233208971461408,1
0.0139526707702289,0.0201664532672465,1
0.0152608486211024,0.021652374244156,1
0.0151245839098567,0.0227699325255179,1
0.0118666117282367,0.0183550691480887,1
0.00795697381616038,0.0125869359107429,1
0.00770326530724854,0.0131547099095764,1
0.00728939982788742,0.013453600081958,1
0.00722795834452836,0.0159139715366891,1
0.00590736873368463,0.0121799398667379,1
0.0128604645852455,0.0204942813540775,1
0.0187169167682588,0.0138154437563576,1
0.020606936879189,0.0145462460784748,1
0.0208221301192543,0.0138121815452841,1
0.0200854024751276,0.0109482740565044,1
0.0208390625334125,0.0115954844293334,1
0.0208459697002765,0.0124996757997097,1
0.0207932168474963,0.010418754606061,1
0.020795997199726,0.0105848701740611,1
0.0230994354634423,0.010814921753529,1
0.0212848520017517,0.0106555621824777,1
0.0320948848621416,0.0273138129064809,1
0.0281996607759566,0.0144982066058316,1
0.0277799177182324,0.0152643783192283,1
0.0267541363516686,0.016857132634105,1
0.021687088180968,0.00790923425919504,1
0.0254103528779548,0.0113826132752949,1
0.0267396675329888,0.00788188941776212,1
0.0345152975755236,0.0105325044958822,1
0.036666689289784,0.012401994373061,1
0.0457507242691248,0.0185308612433912,1
0.0455322887058915,0.0113361614509124,1
0.0481477601824794,0.0147176165639567,1
0.0439137816945259,0.0137591190954231,1
0.047163444680864,0.00911291650303105,1
0.0645958226123227,0.0167581442480031,1
0.052471251036804,0.0124334788505871,1
0.0651587076891058,0.0201839028249252,1
0.0795814325969446,0.0222001838615727,1
0.0850238775124699,0.0248700282743083,1
0.0898681687494458,0.0191324570278535,1
0.0966232492607373,0.0259406763394941,1
0.0858434723497867,0.0114485991591885,1
0.08400430083172,0.00994750708865736,1
0.0703199269826752,0.010197766109089,1
0.0776499461314951,0.0109121024306916,1
0.101477390113984,0.015803908518444,1
0.101439520012055,0.0168912261094498,1
0.091486232541504,0.0146628822217473,1
0.083443661371231,0.0133891577281336,1
0.0768546658921922,0.0158884239112089,1
0.0635088950005836,0.0126117312338907,1
0.048829776396152,0.0379873464341967,1
0.0240298625556376,0.0227240866449012,1
0.0185582860480986,0.0164384679149945,1
0.0164419442619256,0.0252538484645458,1
0.0158719931100492,0.02278342249419,1
0.0146963825441558,0.00951395997648785,1
0.0141186715527806,0.00864805193622948,1
0.0158745008053643,0.00356237629123257,1
0.0294553592363422,0.0116608445113288,1
0.0350836252069958,0.0135008988937439,1
0.0454169279035239,0.0102619244851021,1
0.0690266297047545,0.0163576329487581,1
0.0747653015113447,0.0114057560280757,1
0.0776667348537021,0.0116746580926532,1
0.0730066574234124,0.0115689976156308,1
0.0834704319142428,0.0120055360366406,1
0.0960607987192737,0.0110791368141988,1
0.10490908891634,0.0118130692817835,1
0.110716360316963,0.0121149246627198,1
0.107470995996332,0.0116258997487067,1
0.112788077080497,0.0188495484789246,1
0.0835975029662506,0.0124890774832454,1
0.0820584532356842,0.0170921310726706,1
0.0969959226306046,0.0201820521489829,1
0.115925083168409,0.0213598410918477,1
0.0794761060521462,0.0212593322510676,1
0.0251398252681775,0.00884332434959088,1
0.0224357699110652,0.0132518752634903,1
0.0239950172179256,0.0196542095323338,1
0.020351692102874,0.0184439252642843,1
0.0206096980999771,0.0148918970248034,1
0.0213499110085819,0.0155879753508928,1
0.020273672863427,0.0149390575985464,1
0.0202294922401369,0.0123199583644052,1
0.0181953687422997,0.00683833071527821,1
0.0210445180387481,0.0114988335944412,1
0.0172381424264928,0.00628071204670145,1
0.0175513725924209,0.009818094380702,1
0.0171568923577517,0.00779463899707614,1
0.0156357765793612,0.00622284250621413,1
0.0211660861778361,0.00853408407296228,1
0.0249862545035389,0.0049784322835803,1
0.0255746243786648,0.00517085554841963,1
0.0239410495164583,0.00723298638730184,1
0.0230977632984829,0.00862416684902221,1
0.020600898812252,0.00786943818887979,1
0.0205068932498626,0.00923753686214556,1
0.0203330807876654,0.00721698317906417,1
0.0227869622967535,0.0100189902932561,1
0.0239280082455458,0.00853239515212299,1
0.0357971248317948,0.0182964740015176,1
0.0361926401529057,0.0380679838406451,1
0.0356388975585488,0.0425045483236595,1
0.0387076622637233,0.0442364006651704,1
0.0353933086341768,0.0313957786516495,1
0.0495250175195005,0.0385006703063406,1
0.0793323364357945,0.0406774056321082,1
0.116783327637448,0.0475443074595438,1
0.127452849551287,0.0496019636114048,1
0.107950117280562,0.0402508308014959,1
0.106687618963748,0.0397716973209088,1
0.0947021027933278,0.0295576695599395,1
0.105249741142957,0.0274950160322103,1
0.0915877918934742,0.0220258741535326,1
0.0677261366715096,0.0165631182462108,1
0.0911907515395449,0.0209455808223918,1
0.107916175077591,0.033536200997921,1
0.0942879204314542,0.0219497811106725,1
0.0869270497045431,0.017142358296456,1
0.0905876320151807,0.017546899746956,1
0.0880141019262918,0.015538771962839,1
0.104062176247898,0.0226919101279379,1
0.0735879499434776,0.0166988726119334,1
0.0443682727652006,0.00986047499064502,1
0.0383262461149797,0.0105237028167183,1
0.0392666282570056,0.0107382490954171,1
0.0420950753002396,0.00638541433654657,1
0.0441631470038122,0.00488138943148843,1
0.0404208038535161,0.00405260011951032,1
0.0414722480445256,0.00522730554591204,1
0.0387685078988161,0.00517581939012742,1
0.0472103549457497,0,1
0.104714087859055,0.00953160589493026,1
0.10517682852977,0.00954931887964673,1
0.105335969600614,0.00898446376626949,1
0.0983684180577409,0.00810055822727294,1
0.0949235726562754,0.0103232584405829,1
0.0949803499215957,0.01091099015229,1
0.114984196533801,0.0152260067650474,1
0.129637534883682,0.0177453164740259,1
0.147515159325991,0.0206957878334646,1
0.152618689320108,0.0505760087336406,1
0.0896021377926259,0.0435377971635856,1
0.0885866686393644,0.0409509372204179,1
0.0805302656958983,0.0406546665095938,1
0.0541982909770304,0.0354428554976198,1
0.0365205952298651,0.0188271226993419,1
0.0173043769542731,0.0250162227105806,1
0.0163159945723711,0.0285863380121991,1
0.0117887598170392,0.0197290205290004,1
0.0165186518634389,0.0226205619087209,1
0.0189850836292145,0.0123703567051187,1
0.0224379937889903,0.0157637829709862,1
0.0227255714088409,0.0132881105897666,1
0.0251173452663538,0.0206562316746151,1
0.0365794632030966,0.0234825392799878,1
0.0617077482633897,0.0443459637757895,1
0.0765818986857277,0.0454509010466187,1
0.0779452519067573,0.0506847355104153,1
0.0731440145960549,0.0422231824581555,1
0.0725165632653357,0.0479389653603316,1
0.0714038942537747,0.0591004749436082,1
0.060074294652598,0.0531802455104999,1
0.0555553374511297,0.0583107186043044,1
0.0604650087393621,0.0332770489590524,1
0.0631138180363831,0.0401246915996663,1
0.0504635744669309,0.0322414779764203,1
0.0472349046946087,0.0319151127872529,1
0.0457239582894526,0.0258800463837288,1
0.0496959172266543,0.0267452311177676,1
0.0515106859193365,0.0190023950515439,1
0.0490959094982098,0.0183030622711161,1
0.0360751400644147,0.0127029426835979,1
0.0318847424423103,0.00467125871864488,1
0.056716951298402,0.0174621382471228,1
0.0600784686372735,0.00945326271797547,1
0.0651751093137451,0.00802542695381196,1
0.0670131392637993,0.00688739919704116,1
0.0709572315915282,0.00516661086641903,1
0.148516690878092,0.00603224812247501,1
0.311891331678149,0.0178930656551679,1
0.295282620339323,0.0124495518954312,1
0.273574311071463,0.0109679692548253,1
0.274375322159349,0.0128968417299095,1
0.271617113753561,0.0114277216280213,1
0.264213543781278,0.0153230795162556,1
0.310519029429484,0.0144404636449685,1
0.459331368682232,0.0243614258362015,1
0.408037724482958,0.0121729401399408,1
0.411809592126851,0.0217335091367088,1
0.369657268969152,0.016956457602976,1
0.357959614394671,0.0180752270706462,1
0.38475441137023,0.0164250165646444,1
0.355689778093962,0.0149255982569823,1
0.395989089016656,0.0184511807638005,1
0.436603228182408,0.0177905226408231,1
0.395005697289891,0.0236455328536563,1
0.205155911981018,0.011481278456112,1
0.130942603047758,0.00998142731345225,1
0.149436854469006,0.0132289525146855,1
0.13186347450706,0.0172305877901734,1
0.0804578802724063,0.00775566899378543,1
0.0769930185565772,0.0105989277981753,1
0.0776956835924929,0.0120831218369257,1
0.0736207960147679,0.0134071191501823,1
0.0681826498791075,0.0202990371701874,1
0.0607387195720644,0.0183008399772474,1
0.0449131123894806,0.00551995711761816,1
0.142747508063219,0.0160520080120691,1
0.187268473078249,0.0180436108824265,1
0.183946353969033,0.0175177909656843,1
0.216860631780954,0.0238984974750806,1
0.332275684828023,0.0371498065192798,1
0.367830381618332,0.0289155407500562,1
0.336611733153375,0.0265288203064201,1
0.324357063551731,0.0228894242992779,1
0.266638180721172,0.0186647376896381,1
0.182865444105542,0.0120329245823945,1
0.204546498345087,0.0086392420669302,1
0.310047949117362,0.0162754208573074,1
0.354352909971891,0.0184413584921332,1
0.403146315151056,0.0210328617761057,1
0.366463965921905,0.0202245745985432,1
0.292212556534919,0.0179833956960682,1
0.278853627568386,0.0162590508924197,1
0.336403041296008,0.0215164778516312,1
0.351107756841391,0.0217876982019935,1
0.177117891038517,0.0114894410002284,1
0.0601090351816268,0.0287659994652159,1
0.0643254166585673,0.0225793147797174,1
0.0452054614838138,0.0162103248910369,1
0.0334328020671221,0.015517485389829,1
0.0320896262294595,0.0148710280933524,1
0.0172011847827658,0.00521287361772552,1
0.0118763975664858,0.0089457736470433,1
0.0095428012893067,0.00726249726742477,1
0.00896185615542526,0.0106038782191312,1
0.0116112410588472,0.0159132358082212,1
0.0104728551122527,0.0187926673551842,1
0.014102088638794,0.0301464399027854,1
0.0183001718883027,0.0364439233335214,1
0.0190080883502338,0.0386376617361141,1
0.0194763279906339,0.0538370066455882,1
0.0181332122032553,0.0344600968854356,1
0.0167384204469319,0.0162842113303442,1
0.018706155218914,0.0105914132406692,1
0.0149380589090828,0.00577381297380055,1
0.0192126791431593,0.00660656266780556,1
0.0341561320999276,0.0121910468085167,1
0.0408975395097978,0.00792878351965234,1
0.0497727490306693,0.00936262277339594,1
0.0511274802803299,0.00962324591924388,1
0.0557396472701307,0.00915082681506105,1
0.0728702610759917,0.0109767628445447,1
0.0775314015854722,0.00993962132170859,1
0.0793924487208592,0.00950384409068265,1
0.0844387227504026,0.00994157601351185,1
0.0843578299467528,0.00984368053182743,1
0.0726626456667868,0.00844899662978385,1
0.0676343961507667,0.0127141758352553,1
0.0589354682533517,0.0106976327330709,1
0.0564578871057459,0.0100798245704395,1
0.0499432802773538,0.00955572720157185,1
0.0377214514762536,0.0116955055062018,1
0.0269113236900183,0.0124607371557938,1
0.0224527246276469,0.0159529670440586,1
0.0163654705782539,0.0107463633011255,1
0.0186250960746716,0.0132351111993286,1
0.0586598012834378,0.0255710727676623,1
0.0583035357757469,0.0163278561196103,1
0.0592221579669043,0.0125425385238178,1
0.139953363739502,0.0155416408227152,1
0.301860868701814,0.028723364255619,1
0.304691482465761,0.0231533317368534,1
0.294974828656281,0.0169288036677355,1
0.301753987593679,0.0160234337282364,1
0.295696272831401,0.0163564921136371,1
0.307220454065272,0.00795585393644154,1
0.489150584255644,0.0157397432078057,1
0.491041121708614,0.0102453803619783,1
0.460779539777362,0.0113271791410174,1
0.458289701614511,0.0168021565718992,1
0.409033173292253,0.013309823795857,1
0.518323576126382,0.0205560973806642,1
0.46114887026394,0.0169034566732672,1
0.32772241382245,0.0109162796538552,1
0.231272908128319,0.00525274828914544,1
0.198894099406558,0.00983029856722561,1
0.26884356053185,0.015343365659865,1
0.366001481994711,0.0267365493216492,1
0.382839345639994,0.0262678362134366,1
0.379400440519579,0.024272849492899,1
0.368428713747896,0.0295533324273843,1
0.220874424379397,0.0223077135505748,1
0.1295580431469,0.0188166245725927,1
0.125295391552673,0.0144267080764945,1
0.117507359433696,0.012711446670581,1
0.0994328489095856,0.0106648419123396,1
0.0825249144335419,0.0138855315218739,1
0.052155752729456,0.00559921839834532,1
0.0847668842552189,0.0116909684252727,1
0.116896413546491,0.00884394148994441,1
0.126712159263268,0.00400324855010543,1
0.138799198436424,0.00434892065406377,1
0.161878886962143,0.00538260901526048,1
0.179847523862851,0.00766690861115515,1
0.178788770453602,0.00803904424120028,1
0.204603940629555,0.0114877048351369,1
0.22508921573015,0.013473655259222,1
0.222779032592126,0.0158177533889845,1
0.126170505072935,0.00666761216330476,1
0.123329808171716,0.0103570874764789,1
0.107163920917879,0.0229367845203111,1
0.0204994730876778,0.000659975166080045,1
0.0155030535555429,0.00720282531421064,1
0.01718613255805,0.0108110990891342,1
0.0187980915904624,0.00339190985266199,1
0.049867598500859,0.0180152715754411,1
0.0534440919858065,0.0169213511189195,1
0.0570048844239018,0.0177375763810517,1
0.0756308495789439,0.0205468177627109,1
0.0734584364089222,0.0197063774125726,1
0.0645937914299414,0.0168685588749835,1
0.0627812818777614,0.0160388658018816,1
0.0594676996445994,0.0154516135599496,1
0.0439042953332909,0.00985359015959001,1
0.0473180887393389,0.00994405570748507,1
0.0518030656841806,0.0114584009711532,1
0.0515576833312993,0.012052133911241,1
0.0473603165668882,0.0116574353301861,1
0.0333084684562512,0.00788829336501777,1
0.0408608448533056,0.0149691664508929,1
0.0379280202608831,0.0161546148860896,1
0.0355661868136226,0.0145181104985331,1
0.0347375167131205,0.0136130193248075,1
0.0209607537802985,0.00516002262158745,1
0.0184136068303103,0.0199244949217849,1
0.022042149705694,0.0172566267832564,1
0.0307891656895161,0.0141159655400396,1
