Activity,Complexity,Tag
1.49292469118235e-06,0.144200996325991,0
1.23066807413427e-06,0.144361332458405,0
1.16491016268231e-06,0.140527728654031,0
8.68967106902641e-07,0.118353147969906,0
6.27708253357839e-07,0.0999713993986932,0
8.16407789652743e-07,0.113259376696134,0
5.99148116347071e-07,0.101483639529632,0
6.98241746985014e-07,0.108409822980316,0
8.2381737444729e-07,0.113779080765635,0
8.7835185977027e-07,0.115031392053004,0
8.73182686391367e-07,0.11253551543245,0
8.96280493358114e-07,0.111398080039239,0
8.93918545466271e-07,0.113924941833053,0
5.48503866714995e-07,0.0909435843293148,0
5.77925977810804e-07,0.0967947658901682,0
5.3584270413955e-07,0.0999643947678945,0
3.16006591095029e-07,0.0794553939310971,0
2.80842616059942e-07,0.0815675310324878,0
5.41935688294132e-07,0.105580874853442,0
5.44934166785495e-07,0.0989862150261769,0
8.57648855610909e-07,0.119402641972089,0
9.82164845268612e-07,0.121989116830893,0
9.02803396102679e-07,0.111589289432951,0
9.18715325525026e-07,0.113217953672712,0
9.16072508172254e-07,0.11472933816232,0
7.75037173824343e-07,0.100642704907541,0
5.3964706295771e-07,0.0835843241681021,0
4.79843103273821e-07,0.0796798910014648,0
6.37557382409803e-07,0.0896299786074534,0
6.99364022819628e-07,0.094191345912954,0
6.84009959178691e-07,0.0947597285973508,0
8.2524602904718e-07,0.103822775946672,0
7.76487731701263e-07,0.103186433484656,0
7.3975687101918e-07,0.103212908370294,0
7.30981803881053e-07,0.104652614705917,0
7.03723309174718e-07,0.103758623170596,0
8.91925480813176e-07,0.113816042881844,0
1.06624284460703e-06,0.120886285921467,0
9.12805580980713e-07,0.107740503738446,0
9.51531776777533e-07,0.113142076634972,0
9.34930027685332e-07,0.111434187447372,0
8.26154080147923e-07,0.107530250571025,0
8.79444352490387e-07,0.111641433715212,0
9.06589324114559e-07,0.11113634168326,0
9.54002573271687e-07,0.110383567684087,0
3.5943810495703e-06,0.123096105761588,0
2.45195967590808e-05,0.257852345774224,1
8.2428380740276e-05,0.377637921702338,1
0.000148535762716823,0.551960946753287,1
0.000169521377380524,0.348160732261343,1
0.000186072731706761,0.26929111976942,1
0.000283980474051333,0.250024289528542,1
0.000504990370489751,0.283757606003883,1
0.000659756939057383,0.185364878686315,1
0.000565170030540251,0.135194748486378,1
0.000445795956033857,0.0891063806809257,1
0.000374835667838365,0.0688152289961118,1
0.000444238167191771,0.0718234213525255,1
0.000547555137355668,0.0784045469906725,1
0.000646502923153718,0.0902552354757974,1
0.000754286982527093,0.106035428687724,1
0.000803723283392691,0.125835065802404,1
0.00061970989779222,0.0710248748741143,1
0.000426161668854512,0.0494747633383887,1
0.000350266033977807,0.0356740040561393,1
0.000653371076035343,0.0537533863066339,1
0.00100878369256582,0.0546597821284668,1
0.000979950683461365,0.0443553015656517,1
0.000919062700814185,0.0401217262944753,1
0.000914711276667095,0.0355009650874635,1
0.000823523236809187,0.0334502846130395,1
0.000608000405892383,0.0280568928881122,1
0.000508651845684229,0.027915162986075,1
0.000577982557714954,0.0287985575224402,1
0.000741787030741715,0.0381300369088758,1
0.000700571169578921,0.0336464593081562,1
0.000571202499679984,0.0348054175818105,1
0.000594230956197178,0.0409715558228512,1
0.000551972995210439,0.0367161010097017,1
0.000522612847550449,0.0358939726876768,1
0.00053463025625299,0.0353410292605331,1
0.000537911725617798,0.0368924222596174,1
0.000395193816787435,0.0302927683795651,1
0.000369585396774922,0.0356666980315878,1
0.000348673782599777,0.036486123606764,1
0.000292810192536779,0.0431832099474482,1
0.000242885687793241,0.0412634005433778,1
0.000244496779595544,0.0469626154171112,1
0.000198145096799821,0.03814970483718,1
0.000566438063601648,0.0582672544959044,1
0.000580338582105927,0.0432276424131593,1
0.000533918125691463,0.0354103098469929,1
0.000569877054389909,0.0346571125219729,1
0.000557409261556803,0.0323562839937422,1
0.000510482074831616,0.0295776014375547,1
0.000448390775159709,0.0233176302696054,1
0.000971720877703613,0.0194059814068897,1
0.00107138442827094,0.0136285221591364,1
0.00100490275775426,0.0144437770798065,1
0.000999193961352578,0.0151003776077803,1
0.000934743255236746,0.0144271226287229,1
0.00159364277876184,0.011583445456734,1
0.00243644650953393,0.0135690940613924,1
0.00469052291106684,0.0150514607362903,1
0.0054774804472517,0.010603410975863,1
0.0048320048211798,0.00929982605596855,1
0.00502856318182003,0.0108401854453374,1
0.0057097748461722,0.0127912247670825,1
0.00532419183315319,0.0116824735012278,1
0.00780772915797691,0.0126427953263626,1
0.00796653095551866,0.0122522880855456,1
0.00931812209456187,0.0148563726628968,1
0.0103683963730809,0.0155900844610544,1
0.0100975535229224,0.0143293748020016,1
0.011111461304711,0.0148519990706102,1
0.0148999054602132,0.0106208564770611,1
0.0267690619294106,0.0076030024000276,1
0.0264220460859831,0.00651309667443167,1
0.0257866066253195,0.0042453026643234,1
0.0394663407296672,0.00593344407345628,1
0.043133063445145,0.00554231268787726,1
0.0424187449704846,0.00532531327905963,1
0.0503114895609448,0.00397883643169944,1
0.0769377670346949,0.00687466866213444,1
0.101641806438864,0.00994124907805204,1
0.103517226928923,0.0077322539514119,1
0.10228136472877,0.00910786516235595,1
0.0803653735951207,0.00787396501859528,1
0.0751643934793248,0.00640637805912294,1
0.105968700090978,0.00738604492477717,1
0.100336856770051,0.00803264697883836,1
0.0777061082382332,0.00632378228668216,1
0.0773171677327802,0.00815537463502672,1
0.101778363648624,0.00423981169880052,1
0.167465645688769,0.00404852731480106,1
0.169064661721488,0.0047020128861072,1
0.16030587284389,0.00448882395849364,1
0.163118052091475,0.00468362163603711,1
0.178427771302251,0.00605273686309026,1
0.162542714961476,0.00545893708230209,1
0.163916729897575,0.00519257798642256,1
0.174521963958016,0.00556671701892561,1
0.184605038624835,0.00584900930124748,1
0.141142076253369,0.00836261246465519,1
0.0205868774633712,0.00338988423185452,1
0.0200021928341056,0.00448481586060635,1
0.0199354246138336,0.00344437066101977,1
0.0432893965415616,0.00659724623681904,1
0.0451460664509844,0.00599150226026403,1
0.0428611208383918,0.00635630149861575,1
0.0457996268932704,0.00688644307805293,1
0.0427752951791168,0.0045957400638644,1
0.0409520097327532,0.00445276231078705,1
0.0430683404260032,0.00556960638215514,1
0.0509765317660916,0.00744976322399341,1
0.0507506202391938,0.00664278410187151,1
0.0506921994120217,0.00727692636681147,1
0.03231760877328,0.00565137386772308,1
0.025961408428833,0.00528399364564866,1
0.0256994152136495,0.00538688094098194,1
0.0167859449427836,0.00397844475674989,1
0.0140006511963286,0.00617418437174029,1
0.01679359817656,0.00556075125899334,1
0.0176213655622104,0.00493252095960721,1
0.0134931654326324,0.00394727763850493,1
0.012979748523154,0.00465273605972933,1
0.0123921037140782,0.00484336409051257,1
0.0163136066886011,0.00554380520480622,1
0.0193416090173586,0.00500834136938367,1
0.0197215523190486,0.00380587082249112,1
0.0329116562040558,0.00575408650493565,1
0.0400290341803133,0.00646637016436744,1
0.0358672615207973,0.00734033985492165,1
0.0319581879656346,0.00687108645102749,1
0.0304812691917712,0.00687420606137206,1
0.0310915619547041,0.00820221214582701,1
0.0237340910869561,0.00669997522773899,1
0.0250192275572816,0.00757784647653867,1
0.0220666875333754,0.0103010032405644,1
0.00712617292409194,0.00806342784197446,1
0.00725675417797158,0.0137896884733495,1
0.00709299395009865,0.0161374116383813,1
0.00728025090438127,0.0209475565990088,1
0.00694872659690696,0.0386398350666361,1
0.0024504849313375,0.0252969119107349,1
0.000873834263473754,0.0257710658223881,1
0.000650380878051149,0.019756750744736,1
0.00220029670367058,0.0158097919094713,1
0.00780402128843633,0.0338244934535549,1
0.0121481280740779,0.0216279329009888,1
0.0126235935484712,0.0177893097785288,1
0.0144337247788089,0.0193760767503553,1
0.0193039976887465,0.0103305322725078,1
0.0463684651484198,0.0190841803296466,1
0.119364056089451,0.0195549147787504,1
0.177525229512479,0.0132433864272347,1
0.162949428397066,0.0136253692885633,1
0.170204707748196,0.0140684070623304,1
0.166547904990824,0.0113764918224906,1
0.14719324737798,0.0107730509978059,1
0.114615437104289,0.00867851826450164,1
0.0806789059702728,0.00650793999894915,1
0.0488416597732094,0.0043713423417343,1
0.0429164374769161,0.0038121325814238,1
0.0417455300153462,0.00520281967130449,1
0.0413342012744106,0.0101464713703987,1
0.0542958943023331,0.0122996570224642,1
0.0600249311912278,0.00954544115627897,1
0.0564274602034953,0.0114379002393462,1
0.0376763234153874,0.00678309447930285,1
0.0381568093755682,0.00615195236295535,1
0.0401637649363029,0.00680932064536912,1
0.0414727917453437,0.00539030078758416,1
0.0608039881634347,0.00714584720550397,1
0.0662118830839441,0.00731165596492601,1
0.0663545315165146,0.00663283110615209,1
0.0612243510319832,0.0061006814246623,1
0.0594356501377749,0.00738423112553091,1
0.0568148108932414,0.00663347863753252,1
0.0588447374388319,0.00873114678254231,1
0.0651743353901508,0.0109143778833107,1
0.0662984027600376,0.00955165955841648,1
0.114926669357956,0.0182354752230268,1
0.1294938921623,0.0223502788830039,1
0.133629884019006,0.0230221356900326,1
0.152376005869133,0.0289996080648412,1
0.144978715575235,0.028277937272842,1
0.127069582662977,0.0274901948192756,1
0.0970005266047647,0.0246212632836195,1
0.0742502688756558,0.0208130506295543,1
0.0475193805370538,0.0144689249681415,1
0.00776740479331123,0.00556004759163002,1
0.00509447986264801,0.0134340299969831,1
0.00679118797350514,0.0150730221036138,1
0.00694990875736943,0.0133880880197812,1
0.00704177492308483,0.0145933683326091,1
0.00733432663037491,0.0139631732897567,1
0.00725086526023837,0.0134096929319696,1
0.00801170310945052,0.0116401459838447,1
0.00923897260875001,0.0100377216078623,1
0.009589832414391,0.0112217779522868,1
0.0106125928825214,0.0121812390264041,1
0.010436835769183,0.00960366160193639,1
0.0091965982987577,0.00651564583439099,1
0.0112812891088036,0.00851563691752534,1
0.012402085913418,0.00816726757109281,1
0.0174149550795155,0.011361539534956,1
0.0241832697857621,0.0150571588500064,1
0.0230718295199234,0.0114138218706271,1
0.0166779008563865,0.00912091129545667,1
0.0163501371103917,0.0087814390226318,1
0.0163250386552964,0.00850227815291394,1
0.0140569776722182,0.00887474761846286,1
0.00968796388468698,0.00563088926027078,1
0.0218690070849482,0.00956794875134244,1
0.0206519372297711,0.00682679719076266,1
0.0210842268202433,0.00654893647202842,1
0.0209858841942098,0.00649654093769071,1
0.0202925532671774,0.00751539356866368,1
0.0186355996236276,0.00500880735569154,1
0.0256678671314867,0.00641463383447646,1
0.0255256521623646,0.00594974945636221,1
0.029840552532102,0.00568387131644008,1
0.0475594591266507,0.0102584825814896,1
0.0456307611835428,0.0108023255790716,1
0.0477790030517159,0.0136162569893285,1
0.052663247937195,0.0152176452194097,1
0.0481727022439041,0.011967309284363,1
0.0350976432341374,0.00713867012325195,1
0.0572002670207101,0.0123219653494351,1
0.0971549274716781,0.013164997530521,1
0.179735194911614,0.0226790508495999,1
0.298057414591272,0.0320945402806483,1
0.367335111797788,0.037075329160494,1
0.362408204969684,0.0281266985795796,1
0.312020757037402,0.0257945482865817,1
0.300040450589245,0.0183239337483263,1
0.249248301573196,0.014125284419144,1
0.168008228715728,0.0108000060688248,1
0.123557475814442,0.00815525425679898,1
0.0825644727886725,0.00671847709753523,1
0.0783487075626937,0.00533603260921582,1
0.0924094434515388,0.00624623395930304,1
0.112312129940372,0.0076668181056056,1
0.105351531884044,0.00809899110083188,1
0.0682855003451743,0.00550046850802901,1
0.0610526590622867,0.00901107035119723,1
0.10343069416629,0.0106540070963156,1
0.166527975366268,0.0112411840461698,1
0.166428639341145,0.0103419921261302,1
0.167057984975046,0.0099642136444601,1
0.167770150172465,0.00996276122370737,1
0.172471065089312,0.00886140159526404,1
0.195343509147887,0.00913835671049717,1
0.193836378396701,0.00859541600025528,1
0.224190867989291,0.00915290418681591,1
0.241930813765371,0.00905835297466877,1
0.272162075571612,0.0112976068745036,1
0.332141928360276,0.0157024234848917,1
0.329110632779793,0.0180053948228795,1
0.281069755313197,0.0175045406769816,1
0.124379707993572,0.0103027889482223,1
0.0689748734401983,0.0117552694521431,1
0.0616788835919324,0.0107390712387548,1
0.0297490876344218,0.00602702229473846,1
0.016534582389216,0.00715772724810386,1
0.0130178952501275,0.0077529995741113,1
0.00495087667731698,0.00462352597763704,1
0.0046780039573873,0.00554092707877172,1
0.0039550564946869,0.00486010592376904,1
0.00418508975301051,0.00523103205165519,1
0.00415482996123501,0.00533922639072899,1
0.00411870058924812,0.00618359085129115,1
0.00432838628565175,0.00336308771045663,1
0.0136882280305044,0.00983889353847581,1
0.0169569397430589,0.0130940501725389,1
0.0182119318315783,0.0123854477505377,1
0.0371053168474654,0.0156247378151734,1
0.0527074517973331,0.0189162486125967,1
0.0625356655864899,0.0225322257693582,1
0.0592201965648865,0.0187203478340442,1
0.0490443472401141,0.0159853478802829,1
0.0341130053988416,0.0119291556097676,1
0.0231909052414793,0.00885644691931827,1
0.0253616832327225,0.010076725688821,1
0.0224851583733483,0.00911098582452736,1
0.0188970711951734,0.00633787312889767,1
0.0317029822414433,0.0122561251040144,1
0.0295266206833808,0.00633822212715039,1
0.025729644333358,0.00443208441505101,1
0.0226006070822456,0.00391686898550725,1
0.0232178909382158,0.00276050745410279,1
0.0664835889980092,0.00597529720972197,1
0.0897964919072153,0.00628862546721684,1
0.0877886468148678,0.00598710165392593,1
0.09402935702304,0.00617406449583604,1
0.110096790648211,0.00742089390165044,1
0.115456994434691,0.00793736161177154,1
0.117831445547384,0.00878054854162424,1
0.107604135383419,0.00950905978587409,1
0.0873976278098276,0.00713462559482427,1
0.0658471479080998,0.00501407056088204,1
0.100912429250361,0.0084569311152328,1
0.100253828762394,0.010481653796767,1
0.0686731693488348,0.00818843133195642,1
0.0484061470888111,0.00590286987436914,1
0.0468972138833023,0.00620885663692766,1
0.0577431079013267,0.00759509525788549,1
0.0589544613085127,0.00431403601872109,1
0.0656644257712981,0.00451467190229271,1
0.0712299414434164,0.00499404965093114,1
0.0618542917289055,0.00511525054175815,1
0.0584939954396993,0.00458745339034636,1
0.072445574674406,0.00557394273922528,1
0.0935488035143548,0.00698434282737824,1
0.113208753550568,0.00268528674979357,1
0.280028763586721,0.00582810883863458,1
0.286485405902565,0.00430546156122154,1
0.284256086045038,0.00481616150189981,1
0.264396970648165,0.00409050635681249,1
0.28160728055282,0.00445778618424753,1
0.305293222445319,0.00502404634332349,1
0.307540575528722,0.00513123503950828,1
0.379649489198023,0.00551584106895113,1
0.466448150523093,0.00656057834441755,1
0.547057724830279,0.0124177916493342,1
0.363470359399753,0.0119871112021016,1
0.341881083134279,0.0170063916718787,1
0.260773413782371,0.0180127781849288,1
0.187515019858265,0.0171769140863327,1
0.162730170831304,0.0156826411297816,1
0.130494531329383,0.0128021832457971,1
0.0265408426791214,0.00371978226276979,1
0.00901622753363689,0.00845947315605641,1
0.00692498061000267,0.00593017348258932,1
0.00570178096034422,0.0066972715403624,1
0.00585560133899709,0.00639322801159103,1
0.00584155115139418,0.00661973457242036,1
0.00580200507253227,0.0071497141621902,1
0.00556419555773856,0.00670945473285027,1
0.00540926793010112,0.00550776793559959,1
0.00559556717801975,0.0077568876261986,1
0.00464889665728419,0.00687387695879185,1
0.0063841067658676,0.00938782449446034,1
0.00775974859831861,0.0140213520731069,1
0.00943120417561174,0.0183592074185318,1
0.0119991386080827,0.0204520447579244,1
0.0286943252963089,0.0226650501457729,1
0.0435890511977845,0.0279360396809657,1
0.0532193014797939,0.0196539196026078,1
0.0503227980497857,0.017693746681416,1
0.0494347804207746,0.0151675852668273,1
0.0374626222959143,0.00685617092824776,1
0.0369866545426507,0.00649860908269635,1
0.0353471393812889,0.00497247076894398,1
0.0369554381798755,0.00472321432751643,1
0.0426684623621031,0.00405382423359909,1
0.0486716672194784,0.00426879321801259,1
0.0456065131868847,0.00398344405871859,1
0.0420878045484157,0.00387087613434257,1
0.0551330349690097,0.00439711784910608,1
0.0599482484379173,0.00441366264957819,1
0.0643049317317048,0.00707259858721025,1
0.058888439289884,0.00589474194477708,1
0.0576317129522436,0.00698739040000763,1
0.0559877537202803,0.0077920614604828,1
0.0480746214170564,0.00856919556801425,1
0.0443483996094675,0.0102333141371717,1
0.139455441619218,0.00914051071732027,1
0.298203847745838,0.0156328415891575,1
0.383948358271622,0.019248118859647,1
0.45303235772688,0.0230988592697047,1
0.430209838051645,0.017090279933168,1
0.401493588772765,0.0146695741914476,1
0.337377502699993,0.0112933578045439,1
0.243767788532432,0.00894572054231313,1
0.162522862444335,0.00609138015846746,1
0.166971907547217,0.00550143337679057,1
0.190225238860859,0.00893743723098539,1
0.158174763993201,0.00665393218455317,1
0.14467400255952,0.00547386625710081,1
0.117705701689799,0.00417060956681611,1
0.130898535617419,0.00405441959969725,1
0.170864053712594,0.00694644533184094,1
0.166781497325053,0.00699809319579715,1
0.178979191356445,0.00584887076081713,1
0.236090449069753,0.00750958590023461,1
0.223899308596611,0.00521414836638241,1
0.204580917690636,0.0065296896540398,1
0.20788520958256,0.00638193349491469,1
0.315447119245147,0.00867674907462657,1
0.382714075930266,0.00986902184729044,1
0.446705250330281,0.0149150510375069,1
0.386682931176425,0.0127502669023204,1
0.366783801725958,0.0123931288562118,1
0.401769664951135,0.0143163774348552,1
0.448265421079086,0.0155060691417131,1
0.413112906670731,0.0275812339786116,1
0.211622959750495,0.0160564685214754,1
0.064875524000878,0.0102075963514751,1
0.0502525022835093,0.0132891210309674,1
0.0206502929112318,0.00774236075689473,1
0.0120133010800306,0.010903486430362,1
0.00701999781013328,0.0080959330813668,1
0.00538069809634935,0.0136173440686951,1
0.00546532735522713,0.0134044528432669,1
0.00577122351491482,0.0141055046717918,1
0.00579583663212255,0.0149189090734649,1
0.00446218717327401,0.0111245026940144,1
0.00393272265999949,0.0048723384105056,1
0.00620783518635494,0.00711688003904892,1
0.00746931719448902,0.00753632655498427,1
0.0139448544411773,0.0118563434701578,1
0.0207250358868226,0.0149595157010824,1
0.0210439390196262,0.0149812027230301,1
0.0210085483006653,0.0151577490182118,1
0.0197685706061774,0.0121056624247294,1
0.0189844645514515,0.00873489233970254,1
0.0164182030100777,0.00705450113240406,1
0.0123834089356725,0.00579489734967288,1
0.0128872668411636,0.00460821136511611,1
0.0140096231772662,0.00503811008732356,1
0.0141262181411449,0.00516832873753482,1
0.0127071184252897,0.00453493558540303,1
0.0173973108370081,0.00497423741068111,1
0.0287479523342068,0.00695503946610031,1
0.026791103464866,0.0071887278739994,1
0.0350954037443956,0.00826334100158538,1
0.0803433714189191,0.0107947466966746,1
0.230651044615245,0.0178513008961117,1
0.255031124422154,0.0155103949979053,1
0.246774954163701,0.016193442562558,1
0.253640225126325,0.0173714285222751,1
0.216704671380805,0.012630015749476,1
0.241906965181381,0.0068438287259064,1
0.425327908768994,0.0109321397871175,1
0.385234266718138,0.00973860513366314,1
0.353203204845245,0.00897471174579358,1
0.381264980818428,0.00926366832566315,1
0.399840907634921,0.0105240285932903,1
0.332644260402821,0.00898393485995017,1
0.276630448761874,0.00735527680397415,1
0.255684769554262,0.00535649054627722,1
0.251228746419239,0.00463944179461324,1
0.211674032600647,0.00623666318834437,1
0.210177712865198,0.00551932452748043,1
0.239425893863312,0.00556485792799803,1
0.215719393302037,0.00544980687941945,1
0.153731827703597,0.0038325611639038,1
0.140370816880906,0.00280178864308635,1
0.143779465388582,0.00237196110392308,1
0.154091983387556,0.0026817222134218,1
0.146750723036038,0.00336278302025247,1
0.139065766340156,0.00418948592287026,1
0.216481606925195,0.00641889167682445,1
0.274818176370948,0.00719001482834707,1
0.292025385643299,0.00829545203977139,1
0.359950736505813,0.00960777992355097,1
0.444671704660417,0.0113140624258658,1
0.415570380160737,0.0129345145592455,1
0.37035791197658,0.0147403770315507,1
0.372611983296687,0.0179434045816914,1
0.25166444691943,0.0135469293979437,1
0.176450525997834,0.0101850264281811,1
0.173932385836828,0.0113297338806258,1
0.128496548595667,0.0209051241459665,1
0.0298812134951103,0.0112573306298191,1
0.0143867228213745,0.0216601938643805,1
0.00801859922800887,0.0174456152681933,1
0.00575767086639323,0.0133046730774849,1
0.00341009001255439,0.0103710434792839,1
0.00344874292586276,0.00884917423080011,1
0.00466121086460588,0.00862014552861426,1
0.00384057025050689,0.00561381147214463,1
0.00823203644825266,0.00597919479554194,1
0.0436867192616504,0.0141733865286145,1
0.0691150828571283,0.0167272306005965,1
0.115958438296681,0.0187974507840541,1
0.131676303520871,0.0191870376411215,1
0.122740448502218,0.0176954509960072,1
0.141107688197248,0.0169699041351815,1
0.120764338030625,0.00879246865221086,1
0.108667419782715,0.00788575232787463,1
0.0698126622025382,0.00521810752385769,1
0.0572696663513004,0.00450776380000226,1
0.0560081304409378,0.00492857120134205,1
0.0593873295533803,0.00511420541004892,1
0.0531626846596734,0.00478759571498805,1
0.050715879022514,0.00397794713729376,1
0.0516882767701092,0.00371027321136989,1
0.0429268080711742,0.00302370810396945,1
0.0407602238816858,0.00595116376659623,1
0.0527151873863627,0.00625414898551394,1
0.0789248412884341,0.00968607336933918,1
0.0844439009512462,0.0101521350488686,1
0.084951134290092,0.0106698794384975,1
0.0885528992463371,0.0114204143721489,1
0.190061558952303,0.00924104228641565,1
0.533144867553619,0.022819526705558,1
0.733005642510159,0.0215324645217161,1
0.695996639116789,0.0151241421776531,1
0.596368554920604,0.0134692354349235,1
0.574108926628984,0.0131342387692325,1
0.555806750548653,0.012078609972998,1
0.505447928640709,0.0107543050792469,1
0.488282256051894,0.00967972882903206,1
0.452813552871805,0.00728460441455052,1
0.438124314930268,0.0101376257586446,1
0.328434974403384,0.00773558972626539,1
0.218925733746699,0.0058404460194237,1
0.275463048480802,0.00954255194634295,1
0.323076151465732,0.00611338166576507,1
0.275912012602819,0.0057174213590048,1
0.228959195170902,0.00514048559267727,1
0.215003464677015,0.00510838523285489,1
0.189565497576101,0.00463697254594757,1
0.257165822804453,0.00700053319489825,1
0.365179579977314,0.00925096512986703,1
0.389225734630907,0.00921717575518755,1
0.382767085233782,0.00843988685890382,1
0.347199488459406,0.00912904658751992,1
0.21203145789715,0.0108149857033214,1
0.290274988813847,0.00937259333917459,1
0.399707546980329,0.0115915150748744,1
0.384060152978616,0.0122846857038685,1
0.317102581262976,0.0117523688562258,1
0.334199844575767,0.0129320305802207,1
0.357565385522734,0.0133790453885807,1
0.278974723773477,0.0125749704376829,1
0.180537531353229,0.0108123960416074,1
0.159773952562574,0.0091850094618723,1
0.0492444436417673,0.00177351944042306,1
0.0116481373083406,0.00550042684583381,1
0.0115863713699624,0.00541057056054342,1
0.0113267566813146,0.00546430492356149,1
0.0103856864246403,0.00543944400848965,1
0.0102934862073725,0.0053663936742926,1
0.00939154305179058,0.00508208303287701,1
0.00862082530610007,0.00573155601967192,1
0.00804829546449319,0.00619157588995556,1
0.0160371271739396,0.031392026104804,1
0.0184031757207803,0.0215069888501923,1
0.0173976961363523,0.0203346406851678,1
0.0201573101342389,0.0126181000443132,1
0.0376846878352133,0.0217838188654832,1
0.0510480508099559,0.0247426974645892,1
0.0459208702341732,0.0147173521917854,1
0.0675998167201368,0.00554557179218733,1
0.155098774480513,0.00740687547061592,1
0.147661274726407,0.00535102689556482,1
0.147324782805919,0.00434232654000566,1
0.193657535822685,0.00542454458348214,1
0.175239157476452,0.00313774684823859,1
0.195407439850573,0.00366778861006226,1
0.207607912212623,0.00262958746722159,1
0.263775071805648,0.00372630453331654,1
0.259990613472673,0.00374423697672545,1
0.255471110483204,0.00477320577199191,1
0.289980886135511,0.00601139937054098,1
0.357477556495317,0.0088863982184965,1
0.372604113817866,0.0101149521912448,1
0.479048361121326,0.011753696314119,1
0.402889977242974,0.0124025737770761,1
0.216236993127876,0.00684317573304271,1
0.163631653945948,0.00675565417217696,1
0.162355257738987,0.00613983471412497,1
0.168685632432864,0.00556795812432612,1
0.147016841195484,0.00257488794941249,1
0.217338152036746,0.00460727013948081,1
0.231647711229181,0.0051106489971664,1
0.232231103231077,0.00463940083605523,1
0.212076548164346,0.00436650595058777,1
0.225940656965409,0.00372302040125324,1
0.267369932852179,0.00391180160126047,1
0.336421788724187,0.00402199955660258,1
0.41346404165846,0.00478556669680406,1
0.408653562822349,0.00484069344558805,1
0.395246868717933,0.00621606743416683,1
0.36751400730508,0.00566696821532921,1
0.349999662769133,0.00506515540641368,1
0.341930758091248,0.00544307704558348,1
0.326107714808968,0.00544819022451203,1
0.335944954300589,0.00766405081573053,1
0.328075272541435,0.0111221618648398,1
0.247662012497959,0.0177417557976924,1
0.17780953486101,0.0146189053637244,1
0.138059087984969,0.0127619953876566,1
0.234642353800173,0.0213754574790554,1
0.29959226914771,0.0230071915625324,1
0.310401684017512,0.0359878322961055,1
0.294481910736768,0.0339462401337048,1
0.240739188768688,0.0288563130452957,1
0.202597218611019,0.0264085283606683,1
0.154924237034194,0.0229288536605318,1
0.0614633985024988,0.0152361915926168,1
0.0262699875822264,0.00959889144622788,1
0.00552233864228175,0.0036956324940111,1
0.00526771829278513,0.00683554983981114,1
0.00394090231927294,0.00698541973709475,1
0.00597383329516968,0.0106895907002309,1
0.00701717673843622,0.00942783134215742,1
0.00864830340947261,0.00717280216563913,1
0.0165909853409316,0.00892414824310889,1
0.0166943653960058,0.00728301109308054,1
0.0257777880861865,0.00557410818782525,1
0.0374888204935809,0.00766728724157899,1
0.0348464934184184,0.008169599247628,1
0.0389204916234674,0.00928125809737074,1
0.0312868050293017,0.00667229049348754,1
0.0276420994351388,0.00587689496859286,1
0.0290784115969725,0.00569631632816155,1
0.0374036441090066,0.00511467849934894,1
0.0470786645483616,0.00511953391153422,1
0.0382817481792743,0.00330374237926799,1
0.0579516502302419,0.00499571181684727,1
0.062942625204095,0.00439794942710228,1
0.0728429091433325,0.0048484333985491,1
0.0725319995114469,0.00464253264530656,1
0.0734407924857991,0.0048520422631482,1
0.0721981269698027,0.00483487511113892,1
0.0633023112878043,0.00427720605634585,1
0.0567650777116194,0.0051999296381057,1
0.049540803310564,0.00594230883747509,1
0.0697664145815439,0.00826063579447902,1
0.0544306961703834,0.0067057467923232,1
0.0618419357701982,0.00776778256377187,1
0.12207706992148,0.0104830117644594,1
0.28649099270132,0.0178666682376643,1
0.376723736852408,0.0216945250376367,1
0.409214680568208,0.0217094240524445,1
0.400835880672652,0.0179679622147039,1
0.337474009385333,0.0176732005406523,1
0.253923298722703,0.0145242439822336,1
0.217921640828289,0.0143944133028899,1
0.144819271515247,0.013705793940329,1
0.0796083743789479,0.00978356635657778,1
0.0817454205430615,0.01416246467828,1
0.0697111497640362,0.014918482592051,1
0.103918713912061,0.01274250331308,1
0.105984734253909,0.0104357611580929,1
0.118113381319673,0.0128974773433927,1
0.10460145875866,0.0113931467573825,1
0.100206199951869,0.0089419706936299,1
0.18144811446318,0.011321558399623,1
0.169204671501667,0.00532678702824419,1
0.153840058029819,0.00485650791161429,1
0.151764491074027,0.0048004346594316,1
0.144596430927154,0.00441188841643087,1
0.144116327021427,0.00468665439325463,1
0.154711695026926,0.00422065081158635,1
0.288527621278928,0.00683809494831418,1
0.387800307743863,0.00839735596616603,1
0.515104480881417,0.0118248881698212,1
0.497645800216779,0.014363358410784,1
0.530231050364024,0.0225719397431329,1
0.620517991619184,0.0303533485191826,1
0.595942797424773,0.0284551491522048,1
0.510179275438838,0.023881928953645,1
0.376709980559504,0.0228696669994341,1
0.157973140933138,0.0229835883789987,1
0.118244579055575,0.0249843811626475,1
0.0550684953409314,0.0144045912791106,1
0.0177577928210297,0.0193204983563031,1
0.00992196250293501,0.0225409089014485,1
0.0080627840014444,0.0191328205977061,1
0.00912036146745287,0.0300377500993567,1
0.00948021087802244,0.0319968644682673,1
0.00783335945856183,0.0243566027139245,1
0.00648663030611502,0.0119361736208448,1
0.00801916315191618,0.00850118752986834,1
0.00632262565196099,0.00538351701162463,1
0.0250051167809406,0.00892825755652555,1
0.0416257053219168,0.0128155710736501,1
0.0816733273925365,0.0155479899760058,1
0.0801376025478498,0.00876345714634845,1
0.0766706669399873,0.00828348913460606,1
0.0721666050754116,0.00794316552877097,1
0.0674194838607738,0.00725310390399036,1
0.0652159155028105,0.00724091942593509,1
0.0658379233033126,0.00691591582471983,1
0.0615498484066382,0.00615254342275122,1
0.0616741783840513,0.0076989848664349,1
0.0570555339680557,0.00709286287884141,1
0.0198731638885743,0.00276789815011728,1
0.0170204703428576,0.00327822043540937,1
0.0930319991947029,0.00860799400889833,1
0.181392783916609,0.0149192368400746,1
0.231466335729224,0.0198788564436633,1
0.258430626829058,0.0212653439078251,1
0.270388226644346,0.0225148781114787,1
0.258332257069673,0.0196402890333271,1
0.220620254538215,0.0113944463237781,1
0.272766369850076,0.0116719669309029,1
0.269323526970013,0.0120236679735412,1
0.276984107450124,0.0136437277800824,1
0.376808893654384,0.0197285972845807,1
0.419975484015626,0.0194406911587963,1
0.435747609788865,0.0133914556091875,1
0.450970764003931,0.0123434208507016,1
0.436263013647709,0.0122199280236345,1
0.338999698367384,0.00862829112603321,1
0.235726148536528,0.00508502167470975,1
0.284325499984313,0.00637588209290068,1
0.285471406375028,0.00593333495050935,1
0.301177422909454,0.00582342445691061,1
0.304525225778592,0.00579693952366416,1
0.294998615338413,0.0052635867100079,1
0.284737965274941,0.00531348266620687,1
0.253912833394502,0.00530138015161004,1
0.20525179017003,0.00384710623763036,1
0.233837388630222,0.00563714420220247,1
0.250311291121929,0.00825887677320634,1
0.223078125462514,0.0090060624843355,1
0.23594152375672,0.00844124050790183,1
0.213260944030924,0.00683683580846389,1
0.253086195989832,0.00757144912880389,1
0.360930046765768,0.0103363907305639,1
0.519560487494958,0.0182539935016313,1
0.485341906524933,0.0164193292999634,1
0.431634707602993,0.0159109006042563,1
0.478448660772614,0.0184809487353077,1
0.500747736103021,0.01872730810086,1
0.460097634006247,0.0169725747666242,1
0.327468193119594,0.0198235312492892,1
0.0716001608075731,0.0151255019405974,1
0.0337648971540467,0.010713831326204,1
0.0102469719258668,0.00974334808815017,1
0.010104860088191,0.0108544178580905,1
0.00662937474288566,0.00990814715532965,1
0.00220633824290391,0.00846568806805376,1
0.00233566793926029,0.00655561101230952,1
0.00744862482263442,0.0126985923658409,1
0.0089545999072411,0.0120288823935991,1
0.014114379005351,0.0152035395049093,1
0.0163239851333142,0.0174162826089596,1
0.028607451601689,0.0127885452005505,1
0.0528488697178235,0.016823142870828,1
0.0549490057488091,0.0174136549461702,1
0.0572623094434865,0.0172866702684041,1
0.0474678642662768,0.0138121036663507,1
0.0389192373980182,0.0101563266744441,1
0.0364053570918379,0.00959979932930002,1
0.0290893114490617,0.00681231849558946,1
0.0300857993568316,0.00761271678303308,1
0.0221163203237312,0.00368273896052572,1
0.0245796413193179,0.0025593334323189,1
0.0337043423393417,0.00246693714093837,1
0.0452215936641938,0.00339545392891116,1
0.0478528460637239,0.00248431395949507,1
0.062797774376585,0.00351070449273661,1
0.0639286674001847,0.0035367633846262,1
0.0883623405293035,0.00464676281763909,1
0.0950684764286804,0.00440090367035231,1
0.107949761037072,0.00394184921609774,1
0.182762645825773,0.00759331970216126,1
0.337039946826221,0.0130534050707059,1
0.372169341897088,0.0110345297067359,1
0.289281817169466,0.00865368698029048,1
0.284725083687268,0.00875373066017164,1
0.284600393518478,0.00861679632442873,1
0.224040591959795,0.00724624005618461,1
0.205299947431838,0.00705282870076825,1
0.155904918961898,0.00654131200049026,1
0.0918240319305056,0.0043210190747914,1
0.106859506619245,0.00393869131521556,1
0.104946333405839,0.00390018607877092,1
0.093821143807156,0.00475876306584497,1
0.0748238561207994,0.00458793465904254,1
0.0732893801213692,0.0039094524175655,1
0.221247756223904,0.00774382637982415,1
0.291216402888265,0.00665672128578077,1
0.270969537593587,0.00635954932715826,1
0.270712471513626,0.00631806855461474,1
0.236048756243363,0.00493880521800852,1
0.277964972445284,0.00735995245969476,1
0.340686734991443,0.00884538440405126,1
0.354918103036287,0.00638089240215829,1
0.335814505177293,0.0053098473120584,1
0.38809609722121,0.00666527487859634,1
0.329403341854116,0.00817806262891416,1
0.251991667298545,0.00838568490148332,1
0.305561207585742,0.00935017758929858,1
0.339797429847074,0.00988154624136386,1
0.378264312385072,0.0111921513697453,1
0.465036943887106,0.0125030258484939,1
0.539903392297441,0.0135338614919526,1
0.500540154467462,0.0351152396423693,1
0.271067101392512,0.0471924848330653,1
0.216920097866285,0.0446266739160682,1
0.173008718820503,0.0367084511692086,1
0.0904193706702929,0.0233542196135894,1
0.0472253845095128,0.0300560483940438,1
0.0279320827080707,0.0204462869630457,1
0.0150278770550961,0.0130522694613901,1
0.0116000830181115,0.0132081573005363,1
0.0107361585931629,0.0121589687450197,1
0.0173766047764067,0.0271092573246787,1
0.0307537900051046,0.0174968740819454,1
0.0679525017249178,0.0231166618627067,1
0.0717524852486323,0.0204059695214096,1
0.0617417037781727,0.0164339579390244,1
0.0625345630811675,0.0139278413145973,1
0.0684577927978851,0.0168829747957991,1
0.0599547336516663,0.0131242993361962,1
0.0515356775803531,0.00870763508263533,1
0.0412785469692247,0.00517266785456878,1
0.0506998118703103,0.00562849912309048,1
0.0498195068308195,0.00504139353945994,1
0.0580138297706043,0.00580443286450532,1
0.0606413291724974,0.00500094456966529,1
0.0611497250178884,0.00499826129510414,1
0.068859569654734,0.00645913236034248,1
0.0727043410662297,0.0066262844503693,1
0.0735008307481763,0.00708021227916754,1
0.0618793937102948,0.00722542389826735,1
0.0706222458958813,0.00926790582978785,1
0.0686720969077634,0.00688486437165716,1
0.0678685701014402,0.00761833227578763,1
0.0419040663907132,0.00452553633485405,1
0.0349799535599653,0.0046493674757166,1
0.0345789862728098,0.00494661129479909,1
0.0455931164779425,0.00470605846065766,1
0.0602274718671778,0.00428182017698484,1
0.0678143864323578,0.00422460008902243,1
0.0688115495679412,0.00405196091507809,1
0.096768408689629,0.0016772454211361,1
0.535795608787076,0.010799875043198,1
0.748455418618669,0.0114038657948055,1
0.938029000177725,0.0140019804254701,1
0.907890981118227,0.0103366433572669,1
0.86028992497306,0.0099671321440991,1
0.780698173081734,0.00956066535826994,1
0.639392043563494,0.00790285483359472,1
0.594875708487559,0.00740774241266858,1
0.531916110292925,0.00637147038501013,1
0.605810224457272,0.0101774630730312,1
0.480510259308808,0.0110893833004193,1
0.356698323367474,0.00831963972105566,1
0.16187463200852,0.00378277008672769,1
0.104818745620477,0.00458122463940451,1
0.108235754894271,0.00440379611609006,1
0.135768896553555,0.00527028596696419,1
0.138337937834474,0.00734025586561127,1
0.0999481529236294,0.00564665586149386,1
0.0965468138424045,0.00741403641277345,1
0.102218244916384,0.00702975068393327,1
0.121138273871241,0.00997932186430607,1
0.0811160479804173,0.00654607534142896,1
0.0979705072799297,0.00711700761477041,1
0.0999311240590324,0.0041532382471625,1
0.0989415130814817,0.00445809769785836,1
0.0931039328359484,0.0043785830277442,1
0.0889780760573117,0.00435825813706424,1
0.098985589072559,0.00468235203081436,1
0.105281335896009,0.00488860763066162,1
0.139039348520868,0.00705493478624506,1
0.121588955539127,0.00303537129694934,1
0.124025321592716,0.00405009611172825,1
0.108203341536372,0.00274758182553391,1
0.113321835201566,0.00435158163293194,1
0.105235806680598,0.00393944309322995,1
0.100774530885185,0.00375228356681768,1
0.100309135410486,0.00385271339937054,1
0.10834596625584,0.00445889068796293,1
0.11812939801287,0.00514487145370183,1
0.0845430659006904,0.00269631604699111,1
0.0758315468688233,0.00450225532590045,1
0.0641258279132963,0.00374020898973481,1
0.0560219639436949,0.00568349423034908,1
0.0474702469297272,0.00385304733691003,1
0.0618105400392171,0.00355120854889149,1
0.0602797777147643,0.00318190370791144,1
0.0746811531319739,0.00394220647866284,1
0.0835357886870711,0.00394218302742724,1
0.0857209579946322,0.00361466246199724,1
0.068870890657291,0.00354777482948524,1
0.0542251006946033,0.00346392778764132,1
0.0575949882127261,0.00381608838510385,1
0.0519663778209637,0.00334935604650912,1
0.0466802428333512,0.00483179133855047,1
0.0487114434657216,0.00609552184068595,1
0.0509017283590923,0.00585474565351094,1
0.0436158256290001,0.00589561915963267,1
0.0383304901923351,0.0063726129478687,1
0.0347378866684874,0.005983010146151,1
0.0525259654364765,0.00743910253119913,1
0.0554308204141286,0.00481307321259352,1
0.0660321321758203,0.005435271077921,1
0.0792972595022713,0.00603064591073535,1
0.0756253946347129,0.00496162500274755,1
0.0740843275449656,0.00500992823555621,1
0.0807589248794208,0.0063478197218252,1
0.0985417981493158,0.00697220041559362,1
0.112397275790042,0.00695797846548696,1
0.110969046460039,0.00696961703804066,1
0.0640780072053564,0.0052586970272914,1
0.0397845680086776,0.00626613897478798,1
0.0448144049488619,0.00755700414922022,1
0.0485283836279343,0.00867888685805459,1
0.0279297356446576,0.00826219553512608,1
0.0137647922570359,0.00766053114308839,1
0.0113734874816552,0.00655628407127562,1
0.0119705410885887,0.00784904140636307,1
0.0120502380852743,0.012741824586524,1
0.00248680505175199,0.00736612946870107,1
0.00160553449524204,0.0243041496208882,1
0.00170382789192418,0.0253047973596471,1
0.00179294168370113,0.0258085319140528,1
0.00182484085883369,0.0265778838642912,1
0.00175608895599035,0.0322344561631524,1
0.00033242548188096,0.0242379873920539,1
1.22254129057358e-05,0.167769940619012,1
7.41155381901841e-06,0.13978523532525,1
8.75442770689367e-06,0.058338244189269,1
7.64219736955189e-05,0.0856508023348381,1
8.35720881301242e-05,0.0706847704367002,1
9.89679165123198e-05,0.0703374372112275,1
9.51605232889521e-05,0.0667341739398524,1
0.000105447966296716,0.0687888155208955,1
0.00012324483337598,0.066741605048126,1
0.000120475169337894,0.0556365967623094,1
0.000118217479976258,0.0549138876554484,1
0.000108221650921703,0.0424026463427248,1
0.000109366179817996,0.0473758282777493,1
0.000107726627645438,0.0540864562687888,1
0.000150830723309013,0.0531534388468779,1
0.000157169307974028,0.050945224015417,1
0.000153855554781557,0.0476968873779354,1
0.000158391375539457,0.0449410116678109,1
0.000162263825902968,0.0447400390611312,1
0.000167928207801094,0.0426163080069293,1
0.000141219690491081,0.0318834440181076,1
0.000122805181851159,0.0307596179553538,1
0.000121516405317962,0.0311221424498163,1
0.000121564995200477,0.0315745592145821,1
0.000279393099790691,0.0473612996689779,1
0.000297167809568335,0.0354038979030774,1
0.000316746518918454,0.0351891201026741,1
0.000315358781376291,0.0340326537985828,1
0.000260329820893199,0.0300430424977937,1
0.000307921851008155,0.0359760681207235,1
0.000341297484375598,0.0412334350639571,1
0.000328223446764388,0.0368081569452537,1
0.00034081012898253,0.0355754963659038,1
0.000369064968501992,0.0371854294131733,1
0.000301380930948442,0.0441360027404727,1
0.000313124923848514,0.0625828423462902,1
0.000264300385116371,0.0686256869143485,1
0.000266158181407691,0.0834098512115909,1
0.00027109442892795,0.0946707619858814,1
0.000291309430212004,0.106207732975098,1
0.000297243202116992,0.116374366342097,1
0.00021756774864002,0.208525409553913,1
4.49911644826353e-05,0.134239373251277,1
8.74995516456955e-06,0.117275114998148,1
7.56457118079729e-06,0.150138751355127,1
8.61621161812387e-06,0.167262018201274,1
7.40430663900964e-06,0.187143091924845,1
6.18057362318647e-06,0.187706741383995,1
7.91636986346319e-06,0.166218246624929,1
1.07259743936555e-05,0.206030155812236,1
2.8647314056693e-05,0.102740216388118,1
0.000160236104923351,0.133001310433105,1
0.000175164475704093,0.0918314344491144,1
0.000208338357452594,0.07868795911984,1
0.000228170700473553,0.0591126484021904,1
0.000220613687793123,0.0565298451247293,1
0.000216174764328112,0.0556701832474887,1
0.000214815412898753,0.0540454972355715,1
0.000224921693768651,0.055950661875134,1
0.000244765628030525,0.0585648934799909,1
0.000257932394634161,0.0742020834535998,1
0.000167508298474488,0.0760915226864687,1
0.000151128724337937,0.088490455101431,1
8.43591624902417e-05,0.120340749380183,1
2.48445332093754e-06,0.110968283094773,0
5.60972707833597e-07,0.0994836632786855,0
6.25274452032815e-07,0.106859793279414,0
5.84607545757264e-07,0.103381985801382,0
3.18460292348574e-07,0.08001189020955,0
2.65176964947607e-07,0.0794732556425109,0
3.22491029548225e-07,0.0874707533461838,0
2.72714897603283e-07,0.0783779865936728,0
3.97130452722413e-07,0.091429217872663,0
6.14977240697722e-07,0.11387527285378,0
7.56813647336007e-07,0.123060245528562,0
9.20635334735834e-07,0.131421963815222,0
7.62411403739221e-07,0.119298576536778,0
6.73634617251756e-07,0.1066558239247,0
7.88904619315202e-07,0.106492793361096,0
7.14279219580576e-07,0.0992718573155449,0
7.63556651303402e-07,0.106048111279107,0
3.93050032479744e-07,0.0787209936094828,0
3.85472032853892e-07,0.0765569192917195,0
4.07470936385295e-07,0.0756252214998512,0
4.4663760174091e-07,0.0808706993165881,0
4.32950324059272e-07,0.0803000306519142,0
4.59587914284455e-07,0.0806632177504553,0
5.35295789996655e-07,0.0882631342234925,0
9.06476201702096e-07,0.120282557740655,0
1.1084125293773e-06,0.135559909839768,0
1.01874265012462e-06,0.129444370388515,0
1.10689332342481e-06,0.140208225823977,0
1.21430472351461e-06,0.151912822011357,0
1.03463908698517e-06,0.145893323925011,0
1.00795875865847e-06,0.144135610155145,0
7.53582780417625e-07,0.127241133532466,0
2.64335024347653e-07,0.0803117425090444,0
2.25486223622097e-07,0.0811684574542442,0
2.30695463971175e-07,0.0810179252161362,0
2.0979052228213e-07,0.0835295067265545,0
1.95695095730971e-07,0.0833173419204698,0
2.08241399658579e-07,0.0866537212091559,0
1.87620132118377e-07,0.0890574413946679,0
1.87756894043242e-07,0.0877632730862311,0
1.82067517834895e-07,0.090797294893598,0
1.71943796480662e-07,0.0862324919471214,0
1.71726900615445e-07,0.0901899221152996,0
1.17056321150436e-07,0.0775764448417603,0
7.75728596173005e-08,0.068141123822706,0
4.79608978611429e-07,0.122579178272586,0
6.48139336346276e-07,0.122010234135943,0
6.48820875508961e-07,0.122070772969234,0
7.52391322281174e-07,0.126299181592625,0
7.7657574547908e-07,0.124300795025906,0
7.77632445039175e-07,0.122329687431288,0
7.74971998219524e-07,0.125859245051365,0
6.86377115776657e-07,0.116701942633832,0
6.56135100914491e-07,0.110239339857684,0
7.15656855571776e-07,0.114759145491407,0
4.80750085922025e-07,0.095518626292202,0
2.78375692706239e-07,0.080150450023729,0
2.84988345463997e-07,0.0817401915709461,0
2.20430840438492e-07,0.0762283292753267,0
2.11950933313991e-07,0.0750586879964283,0
2.28342063699636e-07,0.0766015810514549,0
3.44049730633966e-07,0.0849176462461747,0
5.22970121518146e-07,0.0993792515638189,0
7.00509537496945e-07,0.1110396630151,0
6.54494358485806e-07,0.104057861967385,0
6.43267192772941e-07,0.104661293341847,0
9.34936438400561e-07,0.123688920608406,0
9.53255057164779e-07,0.120498413658793,0
9.17979028169769e-07,0.113507470755716,0
1.01925016508018e-06,0.118445303757271,0
1.02059227502449e-06,0.117059644434493,0
9.42178543259775e-07,0.119316298867606,0
7.73102874060839e-07,0.112645488920506,0
5.88223589815599e-07,0.102246647805183,0
6.28571696565121e-07,0.103003354787747,0
6.67405538955145e-07,0.106100588664023,0
4.66673357290283e-07,0.0867073684110913,0
4.38337995982199e-07,0.083312466590893,0
4.48655908585216e-07,0.0878414461092951,0
3.74265568408952e-07,0.0852492990457665,0
3.87078985471063e-07,0.0872777916040913,0
4.20824456205372e-07,0.0899072883530063,0
4.24108879307222e-07,0.0895054922887848,0
3.77671127317298e-07,0.082165446061916,0
5.43428717159436e-07,0.0984568426795746,0
5.5760507899035e-07,0.100057881033451,0
4.26742614813421e-07,0.0943824368381818,0
3.81383999886891e-07,0.0947372639326043,0
3.5817507385619e-07,0.0911748564090636,0
3.90011754131339e-07,0.0897596914359122,0
4.36176382941232e-07,0.0928711390653561,0
4.11613326875168e-07,0.0883166914933635,0
4.03979634160773e-07,0.0893144058142902,0
3.85182482216091e-07,0.0912395467757196,0
1.98681821244417e-07,0.0710863253322208,0
3.00286315346688e-07,0.0888191789507852,0
4.14113906483819e-07,0.103533615543779,0
4.47110525545548e-07,0.102706133107522,0
4.78463731047247e-07,0.105429422585357,0
5.46397011866602e-07,0.116713376984992,0
6.04284701923565e-07,0.113900472644229,0
6.97519873739019e-07,0.122953726331803,0
6.54470451860267e-07,0.116552567295889,0
6.37593709796097e-07,0.11487798670377,0
6.66031642547829e-07,0.123606649314647,0
6.66529407873976e-07,0.122481175363491,0
6.14039540039049e-07,0.113192139571447,0
6.24235782609299e-07,0.116766433957199,0
5.57386046220057e-07,0.109669358894397,0
2.21466705174095e-07,0.0732743593351691,0
3.26735457255479e-07,0.0934881426637794,0
3.30876111509978e-07,0.0924699123266574,0
3.68706944079944e-07,0.0951545541575863,0
5.39864359492628e-07,0.118682884314877,0
6.76437168258962e-07,0.124998669814554,0
5.30125414608646e-07,0.106502818664572,0
7.34972474110528e-07,0.120448262393119,0
5.81320317967501e-07,0.107269780128226,0
4.34263852898191e-07,0.0934591830362135,0
3.80643562278048e-07,0.0869573263051278,0
4.20558945749676e-07,0.0934292417557643,0
6.93620021975275e-07,0.116609721354158,0
1.07906000125303e-06,0.141958296361801,0
1.02311475791017e-06,0.136162021404291,0
8.74358518409449e-07,0.129038490599476,0
9.94470613818601e-07,0.130085367717128,0
8.85302143530039e-07,0.122949521147735,0
8.27038892405965e-07,0.118917017467835,0
9.64174775659831e-07,0.12279549146537,0
1.14921419422921e-06,0.129938019737156,0
1.29287338089734e-06,0.138088992487321,0
1.20788025196011e-06,0.133665330478863,0
9.90813434337551e-07,0.121970973112778,0
1.03508476525009e-06,0.119410534872719,0
1.03778567970961e-06,0.119135429257427,0
9.51136315781901e-07,0.121264192052631,0
7.34264624304095e-07,0.107649411509112,0
7.31511756339908e-07,0.106122379614399,0
5.35127508721918e-07,0.0935884638700093,0
5.01186377616586e-07,0.091294599126531,0
4.33047019013962e-07,0.0814728517652798,0
4.12750561045315e-07,0.0815840819555215,0
4.13982620378211e-07,0.0853818256948503,0
4.87328548198568e-07,0.0969402406283346,0
4.41247392243206e-07,0.0926078768669563,0
4.19883149519383e-07,0.0914100800682775,0
5.16694966205833e-07,0.099281100582348,0
4.54586888623721e-07,0.0924195599666428,0
3.63247018054134e-07,0.08479888031702,0
3.48333557528559e-07,0.0868708113620817,0
2.21663166884522e-07,0.0742197751659415,0
2.03634098758104e-07,0.0688231023862149,0
2.29810117486865e-07,0.0719662389863636,0
1.8752717674757e-07,0.0657650871268991,0
1.88243039948038e-07,0.0669504709957319,0
2.18526323789485e-07,0.0696092309017753,0
1.90138474750471e-07,0.0653810099093648,0
1.80274520919543e-07,0.0676750374632075,0
1.57970574188538e-07,0.0661842067444188,0
1.57185929355935e-07,0.067455488665502,0
2.24401610739447e-07,0.0768051267970383,0
2.18132599029227e-07,0.0783172190856592,0
2.59048988972405e-07,0.0807344720478993,0
2.73897674562863e-07,0.0792417076805332,0
2.72387951126652e-07,0.0780022771130163,0
2.02058131264536e-07,0.0695218025844874,0
2.23889955530307e-07,0.0760790375171933,0
2.2856443538411e-07,0.075878916291776,0
3.35983314641676e-07,0.0880556296697509,0
3.59117582551284e-07,0.0865090382742367,0
4.00747164563585e-07,0.0894066936243864,0
4.27399713124299e-07,0.0884392449888517,0
2.92411953698105e-07,0.0750897225700824,0
2.89354977430286e-07,0.0779997825770791,0
3.36901115371829e-07,0.0784387379713557,0
9.475127925558e-07,0.120218350588831,0
9.36261453104263e-07,0.115304293371517,0
9.58428504353835e-07,0.11857596840958,0
8.37204016296046e-07,0.113794663755131,0
7.82564421954641e-07,0.114129503060218,0
7.20642255114142e-07,0.109119088492452,0
6.85335240995527e-07,0.107103619825156,0
6.47410518158784e-07,0.107412655292272,0
4.94573724858828e-07,0.0946591047338835,0
4.35918485209871e-07,0.098003828063045,0
1.48629093648697e-07,0.0685121798567305,0
2.19323255826275e-07,0.0866493946302229,0
2.22268044577604e-07,0.0845023898100088,0
2.26396411627916e-07,0.0821602438929964,0
2.82928235414141e-07,0.0866870669473493,0
1.59944006026246e-07,0.0755602165945025,0
1.08444593694058e-07,0.0719458005514528,0
1.09454281342479e-07,0.0701120995840084,0
1.42490833817817e-07,0.0768529504155944,0
1.49293270457639e-07,0.0760892426276693,0
1.78474311949559e-07,0.0849370219372669,0
1.74177530067943e-07,0.0817184351206387,0
1.85839689520346e-07,0.0816064409329653,0
2.20282859761977e-07,0.0841291167111076,0
1.77569866876132e-07,0.0802741388582032,0
1.385973927693e-07,0.0703772223513381,0
1.94755391723789e-07,0.0782000700828697,0
1.88899069806377e-07,0.0764698059598149,0
1.87344471363569e-07,0.0753401161255656,0
1.82833598304649e-07,0.0742727237879167,0
1.75384213653061e-07,0.0703475159915527,0
1.43970640582964e-07,0.0652374071163056,0
1.59194085901129e-07,0.0692210056355088,0
1.39673324475079e-07,0.0659356457378435,0
4.33382379554331e-07,0.102566760052283,0
4.58391247441881e-07,0.100107593310199,0
4.0636762558323e-07,0.0930866874951545,0
4.15823430544638e-07,0.0970798577939957,0
3.60098421981179e-07,0.0940990438117039,0
3.47779698444167e-07,0.0908666234605083,0
2.80600077333812e-07,0.0827233917476469,0
3.43285787069288e-07,0.0939803953673182,0
2.68636747822258e-07,0.0872728415533296,0
2.6442263745577e-07,0.0881986621796998,0
8.69490648646264e-08,0.0586731280253658,0
6.90311158021622e-08,0.056728842932549,0
1.92080921464578e-07,0.0806432289114472,0
2.47827432635364e-07,0.0853866052793125,0
2.91287941628117e-07,0.0874863664477684,0
3.18206534870796e-07,0.0910842263618061,0
3.08225051260686e-07,0.0869973823290496,0
2.3814938954605e-07,0.075374931510168,0
3.64274869395701e-07,0.0886819501012559,0
4.15870442456311e-07,0.0868467051812153,0
5.25310032576393e-07,0.0938088007550328,0
4.90149930681756e-07,0.0921184051439993,0
5.14016489249604e-07,0.0921549370510147,0
5.45304519146484e-07,0.0948798351117355,0
5.66386556843706e-07,0.0959540652676451,0
5.75017650002334e-07,0.0945887463683714,0
5.31261179656554e-07,0.0910751009017773,0
5.7321463634444e-07,0.0919853869576875,0
5.52129259733037e-07,0.0892287316502526,0
4.9452310691984e-07,0.0900515316501309,0
2.33772073054381e-07,0.0673411878012137,0
2.26245893376624e-07,0.0674613841835619,0
3.38031671713613e-07,0.0825776578401997,0
4.55932070369079e-07,0.0956432836805899,0
4.07518482523237e-07,0.0893803433818937,0
3.31693477701557e-07,0.0835117808117661,0
3.13139799378975e-07,0.0851474691303323,0
3.18006600689621e-07,0.0881905660062781,0
2.47189700026739e-07,0.0833737498953512,0
2.12421052430717e-07,0.0775162347232226,0
2.38895837200419e-07,0.0769081650134957,0
2.53244620559654e-07,0.0752758260625062,0
2.28656856528648e-07,0.0718931015029352,0
2.15590216215028e-07,0.0696692706322806,0
2.95861853386779e-07,0.0838150784842079,0
3.00807853741805e-07,0.0844192652557084,0
4.07884828187208e-07,0.0941243772873007,0
4.6409077394934e-07,0.0926135121003553,0
6.11403667627773e-07,0.102153271241707,0
6.41009419003553e-07,0.105881522353937,0
5.49369313270784e-07,0.0993246970561619,0
5.45229059685987e-07,0.102171881283461,0
4.68105617917488e-07,0.0968866988518716,0
4.87211018419386e-07,0.100242200070627,0
4.68438975109348e-07,0.0960131682823998,0
4.62319279641315e-07,0.100456414502984,0
3.09471935372547e-07,0.0819041636937524,0
4.7528174583248e-07,0.10459896813371,0
4.49936048282322e-07,0.0992144823560158,0
4.60092223882396e-07,0.0976060468704133,0
4.29589373044387e-07,0.0999674694023495,0
3.83005910839593e-07,0.0977258139972216,0
3.95372180514546e-07,0.0992096207969718,0
3.97277231389822e-07,0.0993438805740025,0
3.75681668691521e-07,0.0931793743179165,0
5.98440132984071e-07,0.10985332975082,0
6.51026161547416e-07,0.124578224967677,0
4.04465780065569e-07,0.0987892910628648,0
3.86136076106267e-07,0.0995468487394907,0
3.4053385400107e-07,0.0978598644476242,0
3.11526436046577e-07,0.0919851846738116,0
2.54400552649216e-07,0.0809473074648673,0
2.40709401827128e-07,0.0790677947889657,0
2.07119524493667e-07,0.0732784336990382,0
3.61283202289267e-07,0.0943676239710456,0
4.14055275150796e-07,0.101740867235481,0
4.41828496867318e-07,0.100342244544501,0
3.99173734644794e-07,0.0948414929808107,0
5.61816384668925e-07,0.110187175535615,0
8.01556165817807e-07,0.129052018245728,0
8.14148546761117e-07,0.132370889204955,0
8.21525543753254e-07,0.132828610505539,0
8.27172448973217e-07,0.13575547927789,0
8.27925574455948e-07,0.134567803581058,0
7.47981952213365e-07,0.132607328249277,0
5.78215528448605e-07,0.118252889633175,0
3.91177569406878e-07,0.107605223811874,0
3.9442299399109e-07,0.112066439695868,0
3.35083276934968e-07,0.113581678319089,0
1.76965523409319e-07,0.0871891602652023,0
1.54720341567905e-07,0.0793765361243843,0
2.03246250486805e-07,0.0868482317775212,0
1.74585144711195e-07,0.0807659375545977,0
1.59723504133714e-07,0.0785306099290381,0
1.20222279577134e-07,0.0695166792494598,0
1.19239169685595e-07,0.0679644204427701,0
1.22033840855334e-07,0.0664422036544096,0
9.4588500511414e-08,0.0576619452829333,0
2.07252947504351e-07,0.0702160669967253,0
2.17002576913713e-07,0.0715340986455445,0
2.26188063383003e-07,0.0728060511676183,0
1.83068657863012e-07,0.0684454972301038,0
2.07376487329059e-07,0.073294552954768,0
1.95951524340095e-07,0.0742375767001229,0
1.99155279275323e-07,0.0735395491191161,0
1.8171012046093e-07,0.0727883390354671,0
2.1240676187802e-07,0.0783006327811182,0
1.61192092147212e-07,0.073556137870334,0
9.35674605547762e-08,0.0641198983095773,0
8.59600784841289e-08,0.06109164191339,0
1.3243776388766e-07,0.0697275249519703,0
1.28745859699126e-07,0.0669155784223502,0
1.20049056709409e-07,0.0631366882838138,0
8.17590566612324e-08,0.0545311257126236,0
6.91201980325187e-08,0.0555824822658369,0
6.54517997998208e-08,0.0547557085645764,0
1.16416985863003e-07,0.0639353091958624,0
1.34596705797281e-07,0.0636962110556621,0
1.64865431972898e-07,0.0693646208813534,0
1.71379653540591e-07,0.0719513317867866,0
1.73678963402393e-07,0.0758271639215151,0
1.83586723787381e-07,0.0787011667107601,0
1.64597784612126e-07,0.0789185284671348,0
1.47684581605094e-07,0.0768015154069502,0
1.43737317259976e-07,0.0701148356245622,0
1.44077485836765e-07,0.06739687976093,0
1.62135001512008e-07,0.070053983007861,0
1.94059695564976e-07,0.0765598831947073,0
1.2353114353079e-07,0.0638829658085007,0
1.42833807082519e-07,0.0657544671099212,0
1.70832605841129e-07,0.0688856994218511,0
1.82301375384152e-07,0.0699901068753117,0
2.416471024858e-07,0.076192232037465,0
2.40775645884484e-07,0.0768057375824299,0
2.36806478262336e-07,0.0773808206886347,0
2.15506743360496e-07,0.0776217137257711,0
1.35262752398164e-07,0.0689433953365197,0
1.20658074656076e-07,0.0705109108565432,0
1.26239670714652e-07,0.0718608863674664,0
1.34254800985117e-07,0.073209348399235,0
1.01778117639698e-07,0.0633050786450872,0
2.24455033366347e-07,0.0823868873455604,0
2.3867466752505e-07,0.088044837992151,0
3.25984735790958e-07,0.0971463747140009,0
3.68432218221107e-07,0.0995710938996004,0
3.78155269873585e-07,0.100186983570561,0
3.28931527890795e-07,0.0899297908915556,0
4.77704996188691e-07,0.102023693661133,0
5.44672395913683e-07,0.1081138852105,0
6.42350994721595e-07,0.116547259402918,0
6.32366305753872e-07,0.119475619145424,0
5.80422817835572e-07,0.119403795887166,0
5.68281590976437e-07,0.119431955433743,0
5.78912025946822e-07,0.118647227530311,0
5.14690148574821e-07,0.117786805953942,0
6.3965248428028e-07,0.124390607600593,0
9.41694400703487e-07,0.143494883635595,0
7.27656245356489e-07,0.13281286255567,0
5.49663137718737e-07,0.109404225537321,0
3.92936108727879e-07,0.0959271225281136,0
6.38468238198459e-07,0.120382889813207,0
8.57363712339826e-07,0.138530794928322,0
9.51950476615866e-07,0.142075255185479,0
9.09066130654238e-07,0.143410681353621,0
9.19085944999148e-07,0.138959173432863,0
8.66042618749534e-07,0.137571143407324,0
6.34818404328609e-07,0.119802796186187,0
5.74824126536387e-07,0.111696143057259,0
4.05504315932516e-07,0.100200511082344,0
4.71007935680431e-07,0.103985416130472,0
4.16953452660153e-07,0.0941784531839083,0
3.24652375476056e-07,0.0834555344333042,0
3.47190313312886e-07,0.0852177271560029,0
3.51682221339257e-07,0.083582410687617,0
3.48135893809027e-07,0.0832277480121925,0
3.09864591680265e-07,0.0793483065964877,0
3.06910721082364e-07,0.0798137454142446,0
3.30579081704411e-07,0.0789773569196055,0
4.42533675542406e-07,0.0899920291233798,0
6.12588581492428e-07,0.106182802376062,0
6.27589655126121e-07,0.107831315179407,0
6.34847786773404e-07,0.110601368560645,0
5.54757652976547e-07,0.105598481440042,0
6.1174250063889e-07,0.109758095609576,0
6.52459624183729e-07,0.108565861760211,0
6.7521125252816e-07,0.108689850770629,0
7.11683280582909e-07,0.11271374925158,0
6.92586961927584e-07,0.112107622466865,0
6.96621438711118e-07,0.11001082007559,0
4.93824739629682e-07,0.0895195814491501,0
8.09718074755681e-07,0.111547607792542,0
8.06360996881247e-07,0.106983684602451,0
8.3404473569771e-07,0.106735680743925,0
7.58230415401411e-07,0.10385381866242,0
7.10775763708435e-07,0.104550378685453,0
6.59745802710136e-07,0.107404455706235,0
3.80091840098733e-07,0.0805184290527285,0
4.23721431705625e-07,0.0910507026973564,0
6.05264339344354e-07,0.107545659209569,0
6.65288533807641e-07,0.110854118659705,0
3.7729396357138e-07,0.0908546038333398,0
3.79404157333954e-07,0.0926717384359549,0
3.30823356665914e-07,0.0888840265571551,0
4.10475825591888e-07,0.0944544270531558,0
4.14509233922883e-07,0.0923190737397709,0
4.45328346712144e-07,0.0905855705633848,0
5.46938183077104e-07,0.0959612316003083,0
5.37778740138428e-07,0.0968877193544459,0
4.1392385548862e-07,0.0891492634422788,0
4.69281449935571e-07,0.0968431120657837,0
7.95844218549592e-07,0.109146274677706,0
1.175160896332e-06,0.126246741917204,0
1.18782526426506e-06,0.126418161099973,0
1.03009816369862e-06,0.118168682333902,0
1.00823295029104e-06,0.11702670720514,0
1.00792243127217e-06,0.120167995217114,0
9.79970644425237e-07,0.124550647301364,0
1.01274075154891e-06,0.120448216471605,0
1.30147509161118e-06,0.131165030560504,0
9.31810146274337e-07,0.11269788057832,0
7.99890047641344e-07,0.119353021821106,0
5.6069704707879e-07,0.10411126166759,0
6.40434190868401e-07,0.114862992046874,0
6.14582313928359e-07,0.115742792171749,0
6.23204725910118e-07,0.11650454033911,0
6.34476499516445e-07,0.112079277917792,0
6.49129658292446e-07,0.110116843288953,0
6.51741089851916e-07,0.113213065449987,0
2.53191197932753e-07,0.0770270041971718,0
2.32637242902445e-07,0.0739698725396387,0
2.35516321822686e-07,0.0761023746988915,0
2.28143331527566e-07,0.0766103587039238,0
2.18779413484427e-07,0.0739915874442329,0
3.509993466109e-07,0.0863621818210055,0
3.45821224941991e-07,0.0819995556537755,0
3.35684147931032e-07,0.0832377959862196,0
2.74740282945652e-07,0.0806827161149744,0
2.01020663850126e-07,0.0700853972465695,0
2.76662829731238e-07,0.0788618722391305,0
3.58358847692728e-07,0.0853991499365046,0
4.27379412526077e-07,0.0877763127740036,0
4.07616646600167e-07,0.085565625283646,0
4.23286170852952e-07,0.0885582213316802,0
3.49063310612021e-07,0.0869147753044077,0
3.15473299721994e-07,0.0870255782015768,0
2.93190722041749e-07,0.0843005981542832,0
3.19885073808014e-07,0.0875555758499038,0
3.36283149135156e-07,0.0870826620604221,0
2.86525314439927e-07,0.0805608775930682,0
2.48176816615295e-07,0.0809067949249728,0
2.35789845672418e-07,0.0783916942858572,0
6.16216645641816e-07,0.110784208320694,0
6.63925722595407e-07,0.107808974721138,0
6.86056446458686e-07,0.1079048215111,0
8.49428849566279e-07,0.112673535317217,0
1.1392106737855e-06,0.128181387982273,0
1.14230598078812e-06,0.126699050471445,0
1.09416150942529e-06,0.127589454055444,0
8.54191476754469e-07,0.115913195829564,0
7.71716556892768e-07,0.109109180226953,0
6.81031647728982e-07,0.10321760205619,0
5.96119454071508e-07,0.099789434903188,0
6.25160661837515e-07,0.108918392621624,0
5.09080772750257e-07,0.0989993571971212,0
4.65521431897738e-07,0.100018004311895,0
2.58760907456844e-07,0.0801659980816175,0
2.91871850940141e-07,0.0876490856322867,0
2.99476561879442e-07,0.088568375997486,0
2.8270239125892e-07,0.0850481245645402,0
1.82557803993275e-07,0.0745386762238787,0
1.62744420128377e-07,0.0729459300637727,0
2.55425332189737e-07,0.0884187828282251,0
2.53062850071625e-07,0.0851476456610863,0
2.49340494985757e-07,0.0829794095072602,0
2.9495166538096e-07,0.0853530245750896,0
3.36405486950758e-07,0.0878689783608702,0
3.25144531426378e-07,0.0834879375479718,0
3.32529007586282e-07,0.0825413101001339,0
3.03602792024678e-07,0.0783346332182278,0
2.83148336636972e-07,0.0714888065886507,0
2.723763317053e-07,0.0710848557380442,0
2.49208941767015e-07,0.0681660894502789,0
3.01749026871227e-07,0.0740203395174548,0
2.91951317097655e-07,0.0732515846940287,0
3.35731159842705e-07,0.0781485473266969,0
3.2139893749781e-07,0.0749724275615404,0
4.45320867544378e-07,0.0841740336521388,0
5.16386851205184e-07,0.0846326302805636,0
6.44125026604397e-07,0.0932239415509863,0
6.10212343047889e-07,0.0925210139904472,0
7.65551585748438e-07,0.101205533750281,0
7.92180494796749e-07,0.101131233596837,0
8.93387658111447e-07,0.109761607947435,0
9.60740234976391e-07,0.117174140539292,0
8.72046253560623e-07,0.119283345581772,0
8.73129797990734e-07,0.124870009149672,0
6.41948722341034e-07,0.113424460572291,0
6.07802982574672e-07,0.118716063339681,0
7.55827064973719e-07,0.135344324165488,0
7.32746753917282e-07,0.136159777955702,0
5.70172751968718e-07,0.130961449173055,0
5.55538558225267e-07,0.14093176058817,0
4.42967467272838e-07,0.123075774055412,0
3.63220306740683e-07,0.109798503165055,0
2.95846895051247e-07,0.0991994998046747,0
2.18044318138274e-07,0.0895299275441184,0
8.59322987181409e-08,0.0611360058642215,0
6.76143477367578e-08,0.0597308575723255,0
7.47840649365215e-08,0.059196142124978,0
1.33802311335269e-07,0.0721523010024547,0
1.45729313460532e-07,0.0708391914924776,0
2.86566316306073e-07,0.0851259818832765,0
3.92771567037025e-07,0.0925117526411654,0
4.59708115194981e-07,0.0959292749780688,0
7.52193658561642e-07,0.11024668749339,0
8.34558127142226e-07,0.106530440981185,0
8.69426407937417e-07,0.110913104160825,0
8.67965833317956e-07,0.110134335903253,0
8.26768573913847e-07,0.109641540802982,0
7.85661865862336e-07,0.10759683430567,0
7.91993515602596e-07,0.108723101133509,0
9.49285755986063e-07,0.118216504967029,0
8.95980658864638e-07,0.110543900021018,0
8.21613156861372e-07,0.105797401821581,0
7.62765996425273e-07,0.106762166878599,0
6.93840123198105e-07,0.110095097176343,0
7.67576169751404e-07,0.114724303083903,0
7.62367463628593e-07,0.116066496228396,0
7.50961732785314e-07,0.114338735794607,0
7.56934516029368e-07,0.115725257671316,0
7.55347864010423e-07,0.117601966793359,0
4.51677625919282e-07,0.0971443805600072,0
3.24310069994191e-07,0.0834632681779745,0
4.21967700421045e-07,0.0918560343563727,0
5.15019231956528e-07,0.100839568642549,0
5.87306991094552e-07,0.102900164963436,0
5.71301438518561e-07,0.103573073154237,0
5.58676202659707e-07,0.104572414620862,0
6.44039149731654e-07,0.111414466898128,0
6.65342490660811e-07,0.112179832359648,0
6.46961367423118e-07,0.113520075989282,0
5.36456663679205e-07,0.105936321796021,0
4.98755648092607e-07,0.108498739457808,0
5.74723825554381e-07,0.128896074770864,0
3.61113318335723e-07,0.103017724577161,0
1.74527448274142e-07,0.0796743051934397,0
1.89775200887547e-07,0.0783452452204129,0
3.29666756793515e-07,0.0953759219898346,0
3.32949577216558e-07,0.0954655066223499,0
3.4601608397361e-07,0.10082880222798,0
3.60949978653974e-07,0.103842331532731,0
3.55842775522276e-07,0.104424571761958,0
3.60021493398442e-07,0.109577415593569,0
1.68535432884403e-07,0.0742561799567651,0
1.80223235197718e-07,0.0760769982943712,0
1.54581576294531e-07,0.0669877574838819,0
2.00242429732751e-07,0.074876847329062,0
1.83825656486193e-07,0.0747410167940342,0
2.03914033323063e-07,0.0747314610615179,0
4.3688062672035e-07,0.0967358242811766,0
4.82183949228039e-07,0.0997359349106821,0
4.80319499549208e-07,0.0995578595200045,0
4.97971403929707e-07,0.102123201875853,0
6.07744885467918e-07,0.113089858395183,0
5.1119243563507e-07,0.107411796885038,0
4.74868388256836e-07,0.111292378702444,0
5.49949082329224e-07,0.120316302124876,0
5.73732168042539e-07,0.118720017415879,0
5.57670121038602e-07,0.122289176317348,0
3.26134986929116e-07,0.100544260286889,0
2.4558702121972e-07,0.0870450881433116,0
2.41173110228625e-07,0.0844243047734031,0
3.42522244174311e-07,0.0939813589669867,0
3.3792682980832e-07,0.0872104823096172,0
3.69134325095148e-07,0.0861031315064053,0
4.37684637255204e-07,0.0941729687285272,0
3.74254883883572e-07,0.0884115821753328,0
3.33725807985424e-07,0.0826044339189973,0
3.78320345790708e-07,0.0804873974367346,0
5.06064931905149e-07,0.0890481825903833,0
5.06873750476425e-07,0.0904272199979785,0
4.87584976807691e-07,0.0890315936262792,0
4.97015806691022e-07,0.0917670253530348,0
3.87773479620771e-07,0.0867217874107322,0
3.85687726710004e-07,0.0909179834076863,0
3.52335580066251e-07,0.0881961280655595,0
3.17290737489152e-07,0.0822361837184917,0
2.69424731569041e-07,0.0772750049168652,0
2.91277257102737e-07,0.0857254053769985,0
2.82718952273259e-07,0.0878294510342,0
2.72384345099336e-07,0.0833769539130303,0
2.86518235941863e-07,0.0842925068641284,0
3.04571477806954e-07,0.0833379047535055,0
3.29087121291644e-07,0.0862096839527484,0
4.75074065370404e-07,0.100138793685813,0
5.08660203119982e-07,0.0962399968010877,0
4.36255581985613e-07,0.0892730873397545,0
4.41199846105265e-07,0.0911372595778388,0
3.67027870916456e-07,0.0853265098447098,0
3.42348219967182e-07,0.0825882551548268,0
3.04763131480958e-07,0.0781638422425196,0
3.07112658612049e-07,0.0821517152800024,0
3.20444942937931e-07,0.08881948997975,0
2.82494577240276e-07,0.0859789962354945,0
2.3026955207821e-07,0.0846927954324967,0
2.88467226927764e-07,0.097063558513549,0
2.95903656592329e-07,0.0941909702188722,0
2.9326551371941e-07,0.094906101320518,0
3.21435264884102e-07,0.0954171796449663,0
3.26986944271613e-07,0.0951193383807969,0
3.35159537734869e-07,0.0951678847578801,0
3.87143626849613e-07,0.0971614248806059,0
4.05869726700517e-07,0.0950862529449938,0
4.35157079219969e-07,0.0960957462545167,0
5.17077472214441e-07,0.096708443901004,0
5.12373075689574e-07,0.0947553963031491,0
6.15265055100149e-07,0.106110233772761,0
6.31749140856602e-07,0.102271315169435,0
5.84166274859064e-07,0.100723633635387,0
5.3064468254212e-07,0.0969945721627817,0
5.10230828350859e-07,0.0984718145610992,0
5.17553067150424e-07,0.101368126572632,0
5.04927029952166e-07,0.10186684663153,0
5.46388330689731e-07,0.104399943307471,0
5.76898660695505e-07,0.104015150801589,0
5.93896004339905e-07,0.107190480759148,0
4.46797869621612e-07,0.096462527569354,0
3.78544720823691e-07,0.0926049844843868,0
4.22332576962776e-07,0.0972652225568312,0
4.21985196331355e-07,0.1006062085869,0
4.70283124189957e-07,0.107763430305008,0
4.86002732155461e-07,0.105710201587993,0
5.14906376657201e-07,0.105574993029509,0
3.5491642717182e-07,0.09280449921299,0
1.66132082456712e-07,0.0757248963361918,0
1.65523064510045e-07,0.0765720360959932,0
2.20595782799047e-07,0.0808611305876552,0
3.4360739128323e-07,0.0995424847691304,0
3.15821615249386e-07,0.0935566262416513,0
2.93316799441235e-07,0.0906590414235682,0
3.15396504695823e-07,0.0899921100145017,0
3.09247560339564e-07,0.0872322374657676,0
3.14052257846437e-07,0.0864354576767972,0
2.94789260595183e-07,0.0829414355749187,0
3.45411339837096e-07,0.085772518471245,0
3.19720398560592e-07,0.0836101448361469,0
3.04232244126135e-07,0.0848586933598557,0
2.42754419984883e-07,0.0778257032650057,0
2.97801762526108e-07,0.0827098758276467,0
3.21500574045488e-07,0.0820182951293187,0
3.45834046372447e-07,0.0843670074567565,0
4.6440022451566e-07,0.0981873770347612,0
4.69745024780501e-07,0.0969649071349692,0
5.21367976937397e-07,0.10170500196002,0
4.62681084382e-07,0.0939345610647916,0
5.50302205893037e-07,0.0986785408091603,0
5.79155766682056e-07,0.101517116807359,0
5.97346171141715e-07,0.102657151324972,0
5.91311551207021e-07,0.100185190926763,0
6.78207594114449e-07,0.106236864196556,0
5.74070867497089e-07,0.0989101352692724,0
4.43202126161499e-07,0.0906588062513479,0
5.2917769720743e-07,0.10011859848101,0
5.64356497021482e-07,0.103797137012455,0
5.34039156255385e-07,0.102903508971574,0
4.64771511772621e-07,0.0997911541669396,0
4.31152652664067e-07,0.0955839745572915,0
4.31925010292482e-07,0.0973670767027221,0
4.23420795872741e-07,0.102443281955033,0
4.39008850619503e-07,0.100181587454334,0
4.302924148144e-07,0.0963339809522674,0
4.09733918860805e-07,0.0951177067929597,0
3.9449925479099e-07,0.0943391237922483,0
4.27143818741444e-07,0.095178060765221,0
3.8159782395106e-07,0.0875382116049922,0
3.30169864382352e-07,0.0829661097156621,0
2.78361802823245e-07,0.0767283014157634,0
2.63060360469805e-07,0.0748739997757831,0
2.69936921004452e-07,0.0741473740755845,0
1.80123468441982e-07,0.0646536884850642,0
3.25170574956992e-07,0.0829541485814489,0
3.24031604551472e-07,0.0793181877590398,0
3.77572829683802e-07,0.0871743403118382,0
4.03002667871328e-07,0.0927370860934976,0
3.00096264351489e-07,0.0851539103435173,0
2.86806718127126e-07,0.0848930501789862,0
3.33258760669745e-07,0.0918741999888873,0
4.06610297865926e-07,0.0996466333117727,0
4.9504063861794e-07,0.101887581504488,0
5.22286178337251e-07,0.102769516148019,0
2.69987271830305e-07,0.0795282525096526,0
2.79493828287269e-07,0.08273669326305,0
3.64021646144192e-07,0.089333511327532,0
4.19106918750517e-07,0.0909264877876314,0
5.46094506241777e-07,0.0972471072664977,0
6.25237056193985e-07,0.0977403733969938,0
6.62971460922394e-07,0.0986033332320239,0
6.57997814357947e-07,0.100895926791437,0
6.05190616119232e-07,0.104808972876556,0
5.13133413226936e-07,0.100108183640321,0
5.57489552559677e-07,0.103203516744249,0
5.91160765842594e-07,0.101127070377358,0
5.69102563195331e-07,0.100342740568507,0
5.50342272863211e-07,0.101969329974438,0
4.3726794076538e-07,0.100202394067766,0
2.85252787467155e-07,0.0885915953739081,0
2.73484183430652e-07,0.0920665997325565,0
2.88971002299437e-07,0.0921245744665744,0
3.41662139881211e-07,0.094777875146242,0
3.40795624872883e-07,0.0936791539688749,0
2.5305283332908e-07,0.0851462322206375,0
3.91812230214458e-07,0.101825173975926,0
4.29948506653727e-07,0.102369835470034,0
4.24419798995783e-07,0.103337590150826,0
4.69223619941951e-07,0.102147789451474,0
6.4596169651724e-07,0.119710185381877,0
7.01799026153759e-07,0.124503959155493,0
7.46317837385411e-07,0.130469787232895,0
7.21953246378282e-07,0.128424369419406,0
7.56844766016176e-07,0.12489407558289,0
8.12371042407566e-07,0.122945037525885,0
5.9108664194777e-07,0.105598540984727,0
4.4109994579296e-07,0.0928347171590339,0
3.72996647463495e-07,0.0858341161366642,0
3.60614484557039e-07,0.0881834959985141,0
3.3615319859522e-07,0.0834240646054192,0
3.96231349911676e-07,0.0890907223012041,0
4.87279532938386e-07,0.09958273281589,0
5.35070880737403e-07,0.101268578093622,0
5.30860643511366e-07,0.101703054596471,0
5.02121273587347e-07,0.105295260358759,0
4.56335945428448e-07,0.105874066792205,0
2.72832026712763e-07,0.0835156166359667,0
2.79241139262029e-07,0.0784872469501473,0
2.28488441697344e-07,0.0682980635567499,0
2.93345647659761e-07,0.0760538880010262,0
3.43029892686434e-07,0.0835169098563778,0
2.9759808876105e-07,0.0784625372120864,0
2.80615035669345e-07,0.0800690204166281,0
2.75535612303636e-07,0.0820809085122792,0
2.44104543323229e-07,0.0780063672089255,0
3.36516472458144e-07,0.091379004732619,0
5.68760658383168e-07,0.116259757472181,0
6.56608826058532e-07,0.118364588642149,0
7.31769787627837e-07,0.12999775127746,0
7.73904213464348e-07,0.144263021195544,0
7.83508933998242e-07,0.129138719928889,0
8.0869770258188e-07,0.127479972594754,0
7.03814127640449e-07,0.116286965983343,0
6.65475513001793e-07,0.115999844652327,0
6.75268414738945e-07,0.118852862037852,0
6.49487589892681e-07,0.11876277245554,0
4.74174962559667e-07,0.105902054742216,0
3.99524854860098e-07,0.10881401106106,0
2.48789039919576e-07,0.0868041764649748,0
6.5914840418482e-08,0.0511362636765679,0
4.35852508265649e-08,0.0497623139250623,0
1.47151023118925e-07,0.0729863946166047,0
2.34097817521908e-07,0.0907764586497674,0
2.44726783370053e-07,0.0925537431046665,0
2.80699042750147e-07,0.08724516415117,0
3.83868152037769e-07,0.0893147897080779,0
7.10413958967751e-07,0.112457524327013,0
1.4024912690347e-06,0.118227360169214,0
2.56898714883999e-06,0.154122443154807,0
2.70224668628595e-06,0.156842653883546,0
2.7144217029566e-06,0.156962424044254,0
4.21207803620354e-06,0.160364328097201,0
7.83992275215125e-06,0.19470070884547,0
7.86729650617512e-06,0.191301630506517,1
7.46942721852268e-06,0.184989683137388,1
6.99139233761287e-06,0.183310949130338,1
4.6016247463677e-06,0.133318462875249,1
5.94844910394571e-06,0.136894994157146,1
6.01859314662277e-06,0.126965348551992,1
1.35400469252486e-05,0.119152190424262,1
0.000132021397015443,0.15340213218523,1
0.000323663018342528,0.220943920919076,1
0.000585630200145686,0.278502719058124,1
0.000636185882407973,0.158423875999198,1
0.000773201298305962,0.0873441184412446,1
0.000807908241699462,0.0563908846213213,1
0.00067444338881112,0.0478064019374217,1
0.000614596846886225,0.0400232532482622,1
0.000404261200786984,0.0300787995789719,1
0.000215948487449612,0.0205772333061077,1
0.000213022315415306,0.0204307407279858,1
0.000244650662537435,0.0171306462883274,1
0.000362899560360573,0.0217145505585117,1
0.000402183546078672,0.0241955190866499,1
0.000402377459529796,0.0347880599112576,1
0.000373974308113533,0.034039122693083,1
0.000385215567383157,0.0293688344242974,1
0.000433253577467317,0.0364180740146932,1
0.000507945484232181,0.0375857027311968,1
0.000605696904357718,0.0262423651823329,1
0.000573124722724451,0.0198452812576762,1
0.000540365107804704,0.0214775162709955,1
0.000522198765964654,0.0211025666865062,1
0.000513670254934199,0.0214484965967976,1
0.000495732171017212,0.0206823121821741,1
0.000473999266224316,0.0230267980124412,1
0.000496628305533242,0.0274404775300736,1
0.000486521233474239,0.0240163681033311,1
0.00051936984982262,0.0218412559973207,1
0.000442312911879001,0.0218165725246427,1
0.000407172123332442,0.0273113369058352,1
0.000403078768269791,0.0288823208596238,1
0.000376783232573685,0.0285164364381988,1
0.000359441790450504,0.0270029924858115,1
0.000406624932326783,0.029116377026271,1
0.000460666525134972,0.0288448966497029,1
0.00044355770716615,0.0259888490283088,1
0.000411385733529585,0.0280866031755813,1
0.000404732124982697,0.0314741284023501,1
0.000519325419425836,0.038555178360247,1
0.000441438840640768,0.0325975483937002,1
0.000437525934657471,0.0331912271067721,1
0.000433039231998309,0.0322631238438844,1
0.000491546611705889,0.0350429863662996,1
0.000485249837458478,0.0337233225482991,1
0.0004878329826719,0.03434931336231,1
0.000548700114734914,0.0371211470542273,1
0.000561984989684781,0.0349210511965977,1
0.000506797022629208,0.0360458793509616,1
0.00035868945682466,0.0412029888184999,1
0.0003341714793054,0.0459382273435856,1
0.000329015757743951,0.0452778050323495,1
0.000325246778995352,0.0421807232041499,1
0.000296084960033043,0.0352086107915614,1
0.000356777723312985,0.0422205029114261,1
0.000331422968891332,0.0415746977451432,1
0.000201056305156332,0.0301885590113834,1
0.000235609210815879,0.0378532599324091,1
0.000229058210040027,0.0367028346781585,1
0.000224369770720258,0.0389740665334161,1
0.000218726640343113,0.0330849299401888,1
0.000265181460461661,0.037376266840001,1
0.000239209871962355,0.0331429044063285,1
0.000230932625042124,0.0360133152526136,1
0.000221932254385758,0.0350446325289052,1
0.000298879810836364,0.0234461839568939,1
0.000614950959436418,0.028180789483109,1
0.000567862864293233,0.025540221145198,1
0.00057184570022803,0.0265441764099994,1
0.000801066517392034,0.0246841735425824,1
0.00110519330845802,0.0219544945642815,1
0.000980010420642765,0.0188209549539838,1
0.000980196194622455,0.0166707917956304,1
0.00092149055406393,0.014149073440308,1
0.000915542313708899,0.0136863134345516,1
0.000989238837134364,0.0185216868909784,1
0.000924673113571937,0.0149925666212671,1
0.00127060672302636,0.0166980763549521,1
0.00128021803711442,0.0163071641055825,1
0.00120468303902622,0.0189349206259417,1
0.00102133344292064,0.0228825623822944,1
0.000969684028800407,0.0222214135097762,1
0.000963433470333971,0.0262579024008559,1
0.00091686954692074,0.0289860214576733,1
0.000914027082399854,0.027387013983473,1
0.000974080989993996,0.0277725532076478,1
0.000944310613454507,0.0438682381541649,1
0.000858075806974637,0.0455927689352895,1
0.0014308451573098,0.059506051268334,1
0.00197593084121615,0.0677648335283974,1
0.00169998198365794,0.0330952511997094,1
0.00141597980439397,0.0321100030609022,1
0.00127156693130552,0.0317692002229207,1
0.00163295303892986,0.016667655509774,1
0.00230192901132865,0.0122558350805409,1
0.00227314134881904,0.0118479896546558,1
0.00210053359255885,0.0106156823796162,1
0.00211046457028394,0.0101305235144104,1
0.00285199553528972,0.00998290349950059,1
0.00349831689430031,0.0114975488279796,1
0.00385728832523226,0.0130009120799731,1
0.00348478193935274,0.0100867137985471,1
0.0035950481945404,0.00890335960316922,1
0.00334314793822635,0.0113159305273959,1
0.00313140729734022,0.0133406002145861,1
0.0042841698484917,0.0121239610256466,1
0.0124082962809738,0.0212404644185451,1
0.0157056689614735,0.0151198366697201,1
0.0187058614798915,0.0122132475073538,1
0.0374513807820859,0.017002473645487,1
0.0641773319561682,0.0206896154891655,1
0.0631763166431732,0.0189799244244734,1
0.063284872599672,0.0201667366545814,1
0.055845619343064,0.0202893485197381,1
0.040606019011706,0.0153916345876811,1
0.0275014139264424,0.0102593211669608,1
0.0473242765498681,0.0109790223967588,1
0.045975776084216,0.00669671701735596,1
0.031398892962811,0.00485928471918149,1
0.0320712330364235,0.00466953597911921,1
0.0347086014432569,0.0051650648372041,1
0.0330801875144497,0.00474157831648812,1
0.0424637444560756,0.00568243526161665,1
0.0444223902880269,0.00531696338806099,1
0.0484823593777611,0.00509813122980619,1
0.0486758520248629,0.00537919472202769,1
0.0310784106085417,0.00473841247903096,1
0.0232705469457459,0.00517586669544982,1
0.020596952750837,0.00518563373690146,1
0.0136177913269242,0.00400620134766778,1
0.0188597031361089,0.00233400085110004,1
0.0805510550544329,0.00873271787764428,1
0.126249648047857,0.0097729598859722,1
0.127451139356447,0.00862563502870498,1
0.121713572194777,0.00853178234759549,1
0.121477771685948,0.0074922323309699,1
0.125310705918922,0.00720552890980418,1
0.116074112712171,0.00686091967901264,1
0.11810217976036,0.00705199696949471,1
0.108107766875537,0.00665228115257367,1
0.117356580733101,0.0100069009375055,1
0.0871516022586911,0.00795467123479198,1
0.0341344356580424,0.00379828074774327,1
0.0271436523928673,0.00346342784077483,1
0.0252024538633132,0.00352491100447031,1
0.0190156401908259,0.00307982144000866,1
0.0213600436262832,0.00395772172713301,1
0.0203385005433586,0.0037573557366107,1
0.0209872443033056,0.003631546798667,1
0.0229853154017864,0.00415555865277854,1
0.0214322444881764,0.00500245089855446,1
0.0199506439823376,0.00826466111981719,1
0.0121948105198627,0.00730327098998222,1
0.016195049196977,0.00909604399427545,1
0.0179654617577083,0.00935411220732551,1
0.0198922118163464,0.0107942780921924,1
0.0234057766209904,0.0122732368058809,1
0.0217005391216362,0.0125986164441018,1
0.0160933991019882,0.011972844260182,1
0.0171761628725952,0.0127463203473041,1
0.0115402303763911,0.0162127196465126,1
0.00740686981978672,0.0269017120027219,1
0.00471674285988948,0.0307186554644341,1
0.00320591189823157,0.0518362948047459,1
0.00266943244445973,0.0533016547601374,1
0.00176273668003488,0.0408262419485595,1
0.00177164064916034,0.0392943453105134,1
0.00138566774432099,0.030917832133029,1
0.0010854649114449,0.0230126311132812,1
0.00113627887514657,0.0228049628633587,1
0.00119184419493061,0.0268465429819481,1
0.00132940413951764,0.0240673895325425,1
0.00125624945294861,0.019159121114033,1
0.00166191371529117,0.0212965809724562,1
0.00255520316859094,0.0230665068025697,1
0.010563218020615,0.0161008776936421,1
0.0284536319554603,0.0241291300615258,1
0.0341693145699403,0.0200551562338761,1
0.0715038266758494,0.0215132991133433,1
0.0824813380025401,0.0178818533799159,1
0.119827952522167,0.0120369299815345,1
0.216193514182735,0.0168578372939405,1
0.201137700750549,0.0111469929347414,1
0.199020390677375,0.00845093300270453,1
0.188801859710652,0.0079094259357133,1
0.190066819751364,0.00800979332918723,1
0.189147453669729,0.00810023081315067,1
0.199224675000554,0.00814279006396886,1
0.226125879101249,0.00885812036243479,1
0.230111390331017,0.0087381749715085,1
0.196250674836837,0.00900126012822726,1
0.202235282778687,0.00759358504535596,1
0.15021873068684,0.00679769301523962,1
0.119284059023212,0.00747265029253586,1
0.146008788981419,0.00827953520955738,1
0.246482197697632,0.0132646308039581,1
0.301951746433377,0.0133637951218621,1
0.274478970628961,0.0134217069972798,1
0.259361189636728,0.0130157995685792,1
0.165811255037681,0.00917354751310047,1
0.120854446822166,0.0072684453143322,1
0.0861417454517953,0.00690118838089869,1
0.0811502880378315,0.00723337594345742,1
0.0562912150570688,0.00474326640815582,1
0.0527512481946817,0.00493379887743551,1
0.0469639811732192,0.00463852691617563,1
0.0578104570694274,0.00723089664239087,1
0.0535422185494494,0.00827388344812128,1
0.0608285770092739,0.0106224534566375,1
0.0693782800479039,0.0128252656066049,1
0.0947466703807153,0.0159466083184853,1
0.0957327871487822,0.0207757291698948,1
0.0906412338247812,0.0256273433160553,1
0.0875225142099434,0.031845608255996,1
0.0617120153445973,0.0272921515665637,1
0.0457592483575268,0.021059231854726,1
0.0333168476863006,0.0207824614097504,1
0.026417998948037,0.0158204468747779,1
0.0175953415853462,0.0108883783581448,1
0.0123830167362618,0.0161565312541481,1
0.0299237701919542,0.024986022709387,1
0.0350641811864656,0.0262187056935116,1
0.0393748666272683,0.0269460855588232,1
0.0393583554370079,0.026463983488892,1
0.0380959914011367,0.024339656804364,1
0.0273713309642354,0.0155794156014737,1
0.018821032941115,0.00983624149180322,1
0.0129463463439497,0.00683659206076535,1
0.0137107644618232,0.00602115898247027,1
0.016065743478966,0.00790563682619319,1
0.018370912836524,0.00891578228176574,1
0.0182033877071173,0.00740978454802088,1
0.0167877567711749,0.00594914277504382,1
0.019777601008497,0.00654617283847921,1
0.0169568291160174,0.00524965704115293,1
0.0173841796871363,0.00607445664816721,1
0.0182368582244124,0.00660981001614861,1
0.0128509895993521,0.00336162802100428,1
0.0157455204160908,0.00569054040992306,1
0.020701136004155,0.00645767485476607,1
0.0583450385331925,0.00806593031247712,1
0.281369197721991,0.0142219057613615,1
0.5425666952749,0.0200633461252976,1
0.557393986687933,0.0159433928069761,1
0.524467563199144,0.0155676623289573,1
0.506929773398938,0.0143908480002891,1
0.421093123459517,0.01300267956659,1
0.373293260499784,0.0119619580518786,1
0.296873225932499,0.00952640010743545,1
0.17958626649259,0.00678807099983969,1
0.126826821260655,0.00456674866069626,1
0.145953346076914,0.00776512877003325,1
0.105312401520565,0.00593720148915852,1
0.109889778716888,0.00712074019729689,1
0.107115889337931,0.00705417017258882,1
0.107052430977143,0.00726225968694234,1
0.0992428214970907,0.00807666778407557,1
0.0715694026378475,0.00754396197993793,1
0.0809432107739746,0.00550071976357928,1
0.174397467123041,0.0095930914756697,1
0.18936176970928,0.00936020545509548,1
0.156632693704918,0.00863971713342338,1
0.15082351348945,0.0084906037300345,1
0.140950046486206,0.00586296115272833,1
0.198967580671777,0.00667254154423248,1
0.197999985182812,0.00623520110100476,1
0.203915190567746,0.00569806896689704,1
0.242380593000214,0.00635542407860757,1
0.280550514197748,0.0108443488586104,1
0.211931718036902,0.00915549162123946,1
0.228339404561537,0.0111226644233015,1
0.307272711847046,0.0133792059896127,1
0.348063846558555,0.0150480364955796,1
0.350557851661275,0.0191314198516857,1
0.383726782571467,0.0339091409008978,1
0.241866904999218,0.0405321840056405,1
0.14261291211164,0.0398196598926956,1
0.0878085006243022,0.0294285930561219,1
0.0480831013989726,0.0198728608749569,1
0.0187950458543109,0.00831222263838258,1
0.00865355683674485,0.00936455067169838,1
0.0082400624500277,0.013314650030617,1
0.00992825688384874,0.0070089731974524,1
0.0170287264070385,0.00899938771564484,1
0.015833048366003,0.00606741158435855,1
0.057059054326847,0.0111184698787999,1
0.0586023464380195,0.00786837725548678,1
0.0646806129416295,0.00843540187767055,1
0.0639339359946749,0.00820419971551324,1
0.0712712798153505,0.00823934524089884,1
0.0720758112658255,0.00690423654251132,1
0.0511095497798413,0.00492113341562911,1
0.0380040388339383,0.00382647597617075,1
0.0382349894944593,0.0039989218734643,1
0.03284477163184,0.00346458941181484,1
0.0241905186619393,0.00326808268244513,1
0.0263442151233579,0.00469742057997955,1
0.0312922281705099,0.00546026016809598,1
0.0324959048226047,0.00588976297398118,1
0.0301276532034256,0.00448970162985671,1
0.0274256739630972,0.00422054444710002,1
0.0289545065725162,0.00434026565992536,1
0.03148689095411,0.00394839783008478,1
0.0370472991000232,0.00443840180377194,1
0.0376517906157603,0.0038820290408138,1
0.0879100022932034,0.00761938065258959,1
0.154287880811469,0.0124516083083834,1
0.183372999372437,0.0114071705717468,1
0.300395876017589,0.0177964767983994,1
0.406275269888756,0.0196583190454948,1
0.401056796791278,0.018426447569235,1
0.306594082792746,0.0146631251235845,1
0.27925867187355,0.0140079740911088,1
0.261276000837024,0.0134677103057993,1
0.239920562022146,0.014118250564991,1
0.245528212776665,0.0106295666320548,1
0.304791159899226,0.0131220571886451,1
0.322018720955888,0.0107395122325675,1
0.299699098919634,0.00963601419830996,1
0.229015376817916,0.00580625218572,1
0.29926959318679,0.00749511743887448,1
0.382746056666792,0.0094101223543629,1
0.355340779767154,0.00549481962940078,1
0.34445435920119,0.00540662551360536,1
0.279794201486905,0.00485218313506301,1
0.293158347124234,0.00683129643164016,1
0.274240273299557,0.00555796496318844,1
0.276626923125996,0.00717251543713703,1
0.238055891099917,0.00639259843787936,1
0.236192480288306,0.00788590556515213,1
0.207143857044453,0.00739242483935387,1
0.158977443540701,0.00497080970796676,1
0.162754705663529,0.00715616935662618,1
0.143997024762825,0.00600516550748536,1
0.173169463729871,0.00732679457262415,1
0.112913698916947,0.00483017381494265,1
0.147959512724348,0.00618198908208492,1
0.270800827586242,0.0104708968976431,1
0.330195448469693,0.0124896020189071,1
0.371525026436983,0.0132043099009144,1
0.334197270374436,0.0136237883215605,1
0.28568797523754,0.0153177711779613,1
0.246907078317002,0.0200289725549481,1
0.149888610925402,0.0169765811891476,1
0.105393084497941,0.0139089346010939,1
0.0212939902939817,0.0032071956305404,1
0.00973831539114508,0.0112730021267011,1
0.0227676561612884,0.0144610461567952,1
0.109139144680099,0.0183875710632232,1
0.143497049996496,0.00754176760922711,1
0.13703779175999,0.00687156571723549,1
0.150802286868756,0.00717303038860441,1
0.143387020440007,0.00669184193196266,1
0.151087509746096,0.00712105148460585,1
0.127009396374247,0.00632745231954682,1
0.0934342805335712,0.00486570715343026,1
0.0734654832851157,0.00319665985769395,1
0.0670410623020769,0.00312257898539151,1
0.0730603074669194,0.0046759662849225,1
0.081948564805079,0.00990833923814686,1
0.0742041065556383,0.009686161614026,1
0.0763112545799284,0.00947915874254457,1
0.0773458020983941,0.00919968163713453,1
0.0689236199407653,0.00861754351310143,1
0.0878997829377343,0.00751596319368751,1
0.12240691705176,0.00954781005610266,1
0.153543699419058,0.0135460152877772,1
0.185902861880163,0.014850026279642,1
0.297408689155286,0.0176109448321973,1
0.298298997972317,0.0142598641547932,1
0.280371949658321,0.0157778439674901,1
0.2357450593387,0.0158453097517228,1
0.182145611669699,0.0120620723390514,1
0.143955393003974,0.00757505764051849,1
0.157198265484564,0.00538512182659659,1
0.178403592352869,0.00536434666697824,1
0.179434404077253,0.00503691315728322,1
0.166076507289935,0.00480966906450113,1
0.15280561874239,0.00490463680443264,1
0.159869077683356,0.00553707696232571,1
0.188587730079741,0.00594111651290965,1
0.184850197006269,0.00576430033613917,1
0.17333033661875,0.00548167850958424,1
0.159965980052864,0.00633599580983828,1
0.0720559646781953,0.00442895885895975,1
0.0677404245918665,0.00510587505853076,1
0.0697953677120927,0.00575302335654804,1
0.0717689053933808,0.00505498307899816,1
0.0447714458116233,0.00329074592107808,1
0.113467666918723,0.00639395248326552,1
0.119864517217511,0.00662340968102211,1
0.147310434595251,0.0067690740482081,1
0.164801942341176,0.00682691404756689,1
0.162818407848925,0.00642587391053704,1
0.175714841775134,0.00543268647105941,1
0.200265650077201,0.00450595380369951,1
0.201055656073419,0.0043854576924529,1
0.245730546128482,0.00478085440072277,1
0.331125959030434,0.00671656518355616,1
0.375222436648725,0.00805372036937861,1
0.44293914367359,0.00931107695188794,1
0.432205869191759,0.00940950880295217,1
0.483195480590547,0.0105279322666985,1
0.435906532377771,0.0110804585527026,1
0.37761795264925,0.0125468459343864,1
0.342759390966459,0.0227530476792389,1
0.085857189923633,0.00960716039626592,1
0.0354422333780484,0.014024429455638,1
0.0135837111880068,0.00600265186499864,1
0.0116450957231315,0.0149002393203215,1
0.0226131765014761,0.0254807666264069,1
0.0247324187727672,0.0256089437500353,1
0.0226806719717144,0.0241004402164726,1
0.037614976082423,0.0190700387235052,1
0.0452388904614284,0.0223693862951974,1
0.0558333817181464,0.0242030463062351,1
0.0486495682713936,0.0196413755492616,1
0.0423900363555662,0.0165639358944537,1
0.0339087430666857,0.0116654859228189,1
0.0291560694087169,0.00859131066709086,1
0.0275689499417834,0.0080313913522381,1
0.0245960608351486,0.00722892770462798,1
0.013671168195208,0.00390042937429448,1
0.0134699830142414,0.0038554625582825,1
0.0176795749269991,0.00399762204770736,1
0.0184534121260518,0.00429907144347633,1
0.0192337730366677,0.00432682342228639,1
0.0496726427805631,0.00394480677037184,1
0.140490134914276,0.0105862319541062,1
0.157254354166057,0.0098871257054129,1
0.155992994017072,0.0096232306235759,1
0.164077419592654,0.00589683574424528,1
0.485086288993491,0.00993691921214168,1
0.749498143786115,0.0132948897603326,1
0.784117529027755,0.0123807093161788,1
0.690649640043806,0.0115448485431353,1
0.525106326652916,0.00847408815155005,1
0.451494273631076,0.00899969069140749,1
0.444077758249691,0.00879409460170323,1
0.387221331067857,0.00767440792779056,1
0.342114594377368,0.00526303785457611,1
0.317828879327928,0.00444143559147553,1
0.330889084652013,0.00456713241724971,1
0.296755600795532,0.00336047692170509,1
0.341778253299407,0.00438856844521498,1
0.354188321348213,0.00375822240270446,1
0.361171981161251,0.00393060480909237,1
0.36546037239547,0.0028280583572014,1
0.534958673599849,0.00463986590779336,1
0.550073845562004,0.00458534143305519,1
0.45179933059435,0.00396575586661253,1
0.478798121578021,0.00528688399477032,1
0.46468197582376,0.0066467758237481,1
0.379158520520576,0.00615537290781575,1
0.220769811538418,0.00320466025983213,1
0.174336532550254,0.00324444164005728,1
0.14743060998472,0.00292165497305117,1
0.112478107324123,0.00317704359271802,1
0.113133696306892,0.00331181479511717,1
0.151451786842013,0.00727285657328145,1
0.164180869461219,0.00924844779313236,1
0.259787164851933,0.0137183531817831,1
0.297995866583822,0.0189544586666406,1
0.346478104715326,0.0236644592317928,1
0.395468857051118,0.0333844758234609,1
0.342885425172683,0.0297014515205559,1
0.21398486570611,0.0221652300967779,1
0.103271903254543,0.0218019316034591,1
0.072801032628583,0.0176304672291397,1
0.0458481564301199,0.0127965459250755,1
0.0125375667562113,0.00441718476057089,1
0.0109716425295214,0.00744361327313646,1
0.0168822906363658,0.0117536971753885,1
0.0397869102473597,0.0445224823220391,1
0.0601986422290411,0.0448876668997236,1
0.0940490045089471,0.0349315384971583,1
0.104032242780296,0.022056978544046,1
0.128084669229452,0.0161316352876551,1
0.105560818781205,0.0128546329787435,1
0.0810265899485916,0.0107372420652174,1
0.0572748557126894,0.00772831821528306,1
0.0420210280063676,0.00537964760496998,1
0.0344314778487109,0.00443306005278263,1
0.0342959211078573,0.00467141623209307,1
0.0371600568336072,0.00522942498242753,1
0.033754003506862,0.00528848275422426,1
0.0407272740309286,0.00904821335510027,1
0.0218168743480419,0.00724277633424122,1
0.036826426119901,0.0059473716614064,1
0.0792125871847563,0.0122744456399718,1
0.146223053757686,0.0151069333643706,1
0.310865306692388,0.0270993401490954,1
0.492088731277937,0.0258501355541072,1
0.521871682581857,0.0266884131127553,1
0.521930037386542,0.0258805395707738,1
0.556473284293376,0.0224531095967437,1
0.47680627832738,0.0121178552220545,1
0.299707099594409,0.00813323803277428,1
0.201918319887311,0.00645574992981145,1
0.211170709898125,0.0052156246752039,1
0.259152516662778,0.00552191338222743,1
0.270637575597736,0.00456737214775693,1
0.379029955624282,0.00635875877572336,1
0.468454983619267,0.00768321203060645,1
0.635332041770297,0.00942961505724659,1
0.653409259453912,0.00942201767735461,1
0.593589183366165,0.0107911201566358,1
0.60096651925275,0.0105236381759534,1
0.615896322342067,0.00968883450854122,1
0.496948058843881,0.00740688450123217,1
0.2891276576577,0.00516229684888142,1
0.252905908380903,0.00627078849974616,1
0.253984581022701,0.00604301788616404,1
0.257467020807379,0.00525171247372666,1
0.209096286343076,0.00369649240761461,1
0.297923756201562,0.00646421380640592,1
0.386481159546435,0.00818576357629241,1
0.385006012254725,0.00712157237555668,1
0.332886435642866,0.00638700748857159,1
0.313206547636814,0.00900160293956753,1
0.294955048889679,0.00784425373203174,1
0.312626250559815,0.00924585752922748,1
0.298618182365768,0.00811680625091328,1
0.350851175886461,0.0101929483763293,1
0.463909534391938,0.0152799756828991,1
0.47856862985939,0.0191377684552205,1
0.462878450347182,0.018198076802894,1
0.514273784617342,0.0246748775173606,1
0.545433788922954,0.0272067978538292,1
0.473997644972465,0.0292168137344371,1
0.316006219159088,0.0308381373023872,1
0.225685689286834,0.0287282092905767,1
0.106082537623399,0.0306758563170464,1
0.0601591729122169,0.0203902765387014,1
0.0285399611517086,0.0129908548008472,1
0.0224781664088543,0.0136129469924689,1
0.0482888827032234,0.0258845957611076,1
0.059024092973039,0.0223308480578263,1
0.0605058709262733,0.0223226035293652,1
0.0602042421868572,0.0183515105131013,1
0.0521552786391591,0.0155924412333059,1
0.0387548249863154,0.0135296837387563,1
0.0473411351390572,0.00965695014069167,1
0.0731341827905348,0.0086280481655795,1
0.0649036062416396,0.00837142821269456,1
0.0632614680654909,0.00681553754477138,1
0.0773515943154297,0.00881067194732196,1
0.0928601169998533,0.00931412688732028,1
0.0965194605033032,0.0081628025892948,1
0.0968313874780326,0.00823913464198374,1
0.0922651074910063,0.00821576195743921,1
0.0928473176975834,0.00830383244788596,1
0.0780713196144255,0.00987105893947628,1
0.0637478174534663,0.00773654024665526,1
0.0727841141880217,0.00762801742835234,1
0.0789873772679021,0.010065435129479,1
0.103286355341236,0.0118176654428569,1
0.159473939587437,0.0149180939347042,1
0.383904716137451,0.0258130139603778,1
0.65289510005553,0.0384383799295085,1
0.807733288686408,0.0463850984296018,1
0.777732500423341,0.0349494558080585,1
0.707593863492139,0.0301013568966818,1
0.716632979915279,0.0315382657765666,1
0.540937772500513,0.0160097304281521,1
0.337178184681373,0.0119944151223571,1
0.196461072777592,0.00813310731550755,1
0.125372463378995,0.00415607465666655,1
0.216691571435758,0.00630844055369015,1
0.208667541231979,0.00526228842968859,1
0.196202547024786,0.00466058818023027,1
0.199120450300627,0.00424254042953137,1
0.201945287040253,0.00512456573604114,1
0.136617283614484,0.00345309920280155,1
0.130239592420228,0.00373997018775122,1
0.145121182238653,0.00383586094619404,1
0.153196619863271,0.00383492784879977,1
0.197235440139188,0.00534963363871629,1
0.250743457669808,0.00657689584515165,1
0.262372884039773,0.00776415732742726,1
0.262268847451065,0.0075370364081355,1
0.225508923796839,0.00760630420225087,1
0.233594805212326,0.0076948983429072,1
0.249466268572767,0.00637648581538658,1
0.25828815449977,0.00862313329066043,1
0.189126058226187,0.00700344455613108,1
0.208798450157146,0.00778345954318683,1
0.233619042954378,0.0101337796695249,1
0.266370497361788,0.0142203338609275,1
0.24894042660642,0.0126859701365077,1
0.298796930843173,0.0155428494686497,1
0.320359649772563,0.0160051442821562,1
0.279056099376011,0.0165035267926114,1
0.178816116948891,0.0176320999681893,1
0.162260960992797,0.0155214593052178,1
0.147359676146334,0.0147715939038824,1
0.133834363060315,0.0147206909288702,1
0.102478717667512,0.0118876382290628,1
0.0737945323897976,0.0109479984351262,1
0.0102290253116919,0.00196344595541347,1
0.0115217014562507,0.0285609539858474,1
0.021782585145417,0.0133315442472642,1
0.0776652326280516,0.0186777399621287,1
0.0941273683706896,0.0187624080174957,1
0.144656224354033,0.0221232418973728,1
0.149804059016612,0.0134351527818658,1
0.129626890727008,0.0122412160036594,1
0.108679844501151,0.0105729782528187,1
0.0918613251643697,0.00885975239362946,1
0.0713739963121163,0.00698595498699985,1
0.0670207983254661,0.00674790052896417,1
0.0640101790726875,0.00661448602291952,1
0.054803322889528,0.00628188272907511,1
0.0557063874891542,0.00645466258990821,1
0.0287623333495738,0.00296790452755547,1
0.0390389340737383,0.00652092740916421,1
0.04279050620915,0.0048767940375877,1
0.0627110762335251,0.00405565288924979,1
0.104257942203605,0.00682858350113328,1
0.138117199347151,0.00910090834253667,1
0.20658220804396,0.0105810212835623,1
0.306046119102913,0.0142841057982664,1
0.533551708726983,0.0163984961216755,1
0.485907981365424,0.012599667459181,1
0.395839582583045,0.010600245569888,1
0.388403246491551,0.00789680243664589,1
0.420395191925039,0.00891965640150003,1
0.402228916630217,0.00743246336745385,1
0.351227817492579,0.00664504901485329,1
0.299236902347493,0.00518572597429694,1
0.308752037976832,0.00546294025460763,1
0.310899437562901,0.00472366053103852,1
0.296706342272614,0.00447209201161917,1
0.375209026173039,0.0062416614884631,1
0.328376164513778,0.00571191061220083,1
0.389627444988204,0.0095816047766114,1
0.312107213840138,0.00622183240389898,1
0.33765030182371,0.00604694978626681,1
0.538785038127583,0.00782852442355483,1
0.544716538449987,0.00707127235177382,1
0.499339070380459,0.00636867708490921,1
0.511911425616882,0.00610350167644659,1
0.527503617317981,0.00682842001230194,1
0.504126669905609,0.00650691156703855,1
0.569038487862636,0.00734721903697838,1
0.545858291712798,0.00727807208422322,1
0.615456378934175,0.0102308427558941,1
0.548763096157988,0.0129829175993507,1
0.206873444388011,0.00659664555426653,1
0.175739044344262,0.00772788178977295,1
0.0922221442442321,0.00536405227589286,1
0.0532882225750349,0.00546978965898398,1
0.0434704791420839,0.00439354692888046,1
0.077572001235887,0.00619160963706284,1
0.106120653987756,0.00459467294134491,1
0.105738681753862,0.00381293150292156,1
0.169496907771317,0.00638579078125664,1
0.229988249352831,0.0087654485580189,1
0.20941736849842,0.00897403169771471,1
0.217627724326605,0.010130637351197,1
0.197981002185302,0.00961643306999974,1
0.17144329597318,0.00854504051377614,1
0.122975812981576,0.00642341854256724,1
0.110614237064032,0.00686378765452316,1
0.0880775954374939,0.0113728360129505,1
0.0209079812205548,0.0125212682321745,1
0.0281500238607057,0.0155584807623191,1
0.0370997646144859,0.0156594698966294,1
0.0382909976621775,0.0146274908047445,1
0.0562758129447165,0.0174797100289348,1
0.0610801596469691,0.0180522207331101,1
0.0850414564777829,0.0139958890279525,1
0.151688998013769,0.0212391222145133,1
0.164139671779776,0.010680730001714,1
0.154170669508474,0.0103641694624731,1
0.13515731051991,0.0101035503104091,1
0.132222691409221,0.00879129955059692,1
0.125479679769268,0.00533416724113745,1
0.129907785540313,0.0057371027231699,1
0.135554825147965,0.00470244739027836,1
0.136809592593403,0.00422589197802705,1
0.13722885139375,0.00446947705009784,1
0.131263386987476,0.00373668757097283,1
0.138944712896258,0.00549699073783612,1
0.151976766323822,0.00531065726351751,1
0.324411880058428,0.00851032142657102,1
0.408049047038182,0.0055609973632069,1
0.406836344608832,0.00680424399742427,1
0.381492953494446,0.00497047466429046,1
0.422242126399311,0.00589419353834601,1
0.451919477007387,0.00473530046878372,1
0.413714105154577,0.00416508975585252,1
0.416778204848223,0.00345313279089118,1
0.443028502909216,0.00356578154424477,1
0.55764172404668,0.00419365935931326,1
0.552504666143647,0.00401893427420306,1
0.534488388286934,0.00498967691487836,1
0.410415947762467,0.0039838101893514,1
0.432513099593841,0.00520174523129579,1
0.453322377395446,0.0053631970870534,1
0.41688266973735,0.00661894698737475,1
0.343828774409772,0.00586524183154665,1
0.330407190884878,0.00813877012615956,1
0.335814887420062,0.00621801349452285,1
0.270761861335204,0.00559410676185261,1
0.290601027988764,0.00817193083782459,1
0.314851139577121,0.00687451653947762,1
0.365742952214789,0.00702917962093511,1
0.360528465553264,0.00553621664974879,1
0.369207397470137,0.00536054713831751,1
0.337155519528902,0.00437601145224153,1
0.310042649384273,0.00439279668971436,1
0.351286217001853,0.00407933054598479,1
0.493112115486355,0.0085592592179108,1
0.439966951630199,0.00683630498376884,1
0.407411490554875,0.00584345003011992,1
0.4410561285083,0.00685006720094033,1
0.529598155374465,0.00810960918484949,1
0.561864371876762,0.0140487971818818,1
0.37774821638962,0.0116962952459826,1
0.334789344410369,0.0118742218718758,1
0.225767925004614,0.00836338333149512,1
0.1633431192007,0.00903476390023522,1
0.166773204560596,0.0089168966692467,1
0.128777764945073,0.0137949457514437,1
0.0365636219209272,0.00741358104325255,1
0.0277749634998362,0.00709890881714528,1
0.0368363022376635,0.00760179388217024,1
0.0283808273472318,0.00581352523373349,1
0.0334712121705353,0.00653444226908055,1
0.0405196913876857,0.00801149557735457,1
0.0445231732398909,0.00738202074969175,1
0.0534767450794288,0.00804546424715875,1
0.0609829811369709,0.00776355078071105,1
0.105052917916085,0.0126954255364773,1
0.083467945890826,0.00765765192938572,1
0.0802899990842131,0.00679831315053464,1
0.0981947988839979,0.00939002584578246,1
0.10680896248789,0.0089673676350542,1
0.0931830296781688,0.00572513780026905,1
0.0879057698962717,0.00550710727839105,1
0.081824241979353,0.00460796693387241,1
0.0821324200854803,0.00425857185373747,1
0.091483821603933,0.00513140194322351,1
0.0956225831770319,0.00551146752830365,1
0.0949283762786518,0.00625294458846,1
0.0910620857288646,0.00766617008285145,1
0.158594118750202,0.00220321150034211,1
0.664397264448573,0.00949630686394728,1
0.794374138134946,0.00754729825486518,1
0.769427182267142,0.0073571131183612,1
0.801465997975563,0.00759991099049353,1
0.871360939171548,0.00809998006171225,1
1,0.00926755945881928,1
0.804876194947562,0.00619722249807023,1
0.624205367561755,0.00475379030223479,1
0.407354025125675,0.00279925951927183,1
0.327591630067948,0.00396382484946251,1
0.257269749578544,0.00335344050339965,1
0.408933506015998,0.00722917759580189,1
0.470759574796021,0.00673823607315499,1
0.465238399574746,0.00678059174192237,1
0.443496538371605,0.00695513551415277,1
0.242679604024367,0.00405257867813856,1
0.247365746234218,0.00640408923449035,1
0.248996893185553,0.00638282635291783,1
0.210569699626734,0.00446619650730816,1
0.255496976190194,0.00533396036739823,1
0.260046357076584,0.00522483925212847,1
0.228075089625299,0.00524295993640347,1
0.218785254720863,0.0077445557477253,1
0.163432782617016,0.00657942172616153,1
0.106867853728003,0.00438309622516933,1
0.126302606004749,0.00417066491581226,1
0.131622280678069,0.00320515892114206,1
0.125026613732682,0.00264772434013896,1
0.129721140288731,0.00406601879473315,1
0.0991200044566183,0.0032091983424459,1
0.0950453419020717,0.00347153941798348,1
0.100205935647829,0.00329599656758382,1
0.115478374843102,0.00336575642043075,1
0.124603741793933,0.00374354952012594,1
0.180891234740591,0.00533667907010071,1
0.256642340831131,0.00984777930035409,1
0.315301490547862,0.0133233869131799,1
0.3249133583907,0.0192274640347505,1
0.260362048267569,0.0170151413108949,1
0.237332998891705,0.0155660506126103,1
0.216918206770468,0.01501585676876,1
0.102549399067692,0.0114606065995292,1
0.0648271551064019,0.0110178575876554,1
0.0123222061664735,0.00242493818728265,1
0.0081631880368996,0.0087728728553239,1
0.0162108012132449,0.0143554916148828,1
0.0521118004184286,0.0216848820176911,1
0.0689721575119772,0.0151721439885375,1
0.0732670626524365,0.0168150435032188,1
0.068553727705657,0.0157471533288226,1
0.0652994051587589,0.0144495221717176,1
0.0973410626576411,0.0151311748532646,1
0.0948500606383093,0.0114431656246687,1
0.0883106819780442,0.00974058032104256,1
0.0695264864948506,0.00685500203399056,1
0.0623513920334977,0.00616450235323355,1
0.0616987898655918,0.00588664027623621,1
0.0641543171467281,0.00575993148547847,1
0.0705067855990819,0.00597135723712966,1
0.0716722211825152,0.00599867099007572,1
0.089889512218167,0.00751776117568539,1
0.0801936251765389,0.00806194899155708,1
0.0645829434513795,0.00737249568143247,1
0.0424906537918448,0.0045682288280502,1
0.0505042697717741,0.00622323815292387,1
0.0498005625689871,0.00584646819668718,1
0.0518606159314247,0.00517181718789477,1
0.0561085774718581,0.00686556013579924,1
0.079627071619495,0.00619347344459292,1
0.178806787209709,0.010322982746959,1
0.158767428839314,0.00677853147221062,1
0.133897545039543,0.00604484405914781,1
0.12742643172326,0.00538433922392538,1
0.11819813295256,0.00470353107544946,1
0.12464773202727,0.00468544564530591,1
0.106717917366647,0.00390328416422588,1
0.0900144368742259,0.0035940219215927,1
0.111358043911742,0.00375141418859828,1
0.131626433991883,0.00558869705149161,1
0.153964065645886,0.00541259526783099,1
0.147586849280219,0.00601954125510031,1
0.135708510159157,0.00484449948628007,1
0.169525045448605,0.00614000890284553,1
0.173661236166767,0.00584741050665823,1
0.143249625678182,0.00343155483431281,1
0.170957432713079,0.00312481374580261,1
0.14636986952711,0.00217314869177135,1
0.18966575549947,0.00361352011846649,1
0.198002823859268,0.00307626603662101,1
0.257978117137177,0.00417881642447323,1
0.38636215079348,0.00617315178504823,1
0.43030607001166,0.00608417537560691,1
0.413484821810235,0.00587442751568507,1
0.438937152642827,0.00637182950365532,1
0.418838418933302,0.00815070756208389,1
0.361853493963209,0.00780412353823766,1
0.376777865596085,0.00934126973161997,1
0.204897503043773,0.00493179677667321,1
0.104144023179642,0.00255908408846995,1
0.105345728817006,0.00392839734984466,1
0.0932247202211413,0.0031303758988676,1
0.0868092065776615,0.00562668280800295,1
0.0644836513122767,0.00457035823825069,1
0.0751423421971782,0.00540141479208605,1
0.0767645206610138,0.00594728716569943,1
0.0818672824228915,0.00800118422628391,1
0.0822469818844802,0.00705599663414691,1
0.0823920227695296,0.00695677020399161,1
0.0754988581058129,0.00895348217385583,1
0.0437197696153272,0.00544768410166195,1
0.06777271124612,0.0106388954809953,1
0.072645824461503,0.00908586061739293,1
0.072548801322534,0.00919933560079644,1
0.0694859499130733,0.0101722722212409,1
0.0507193124039265,0.00774468379472971,1
0.0342560087192582,0.0056051989343456,1
0.0368717970868067,0.00700259201054757,1
0.0460683725548706,0.00857184493523161,1
0.046469565785948,0.00373588152321751,1
0.0659538608627688,0.00555820606723183,1
0.0642989758353531,0.0043796230506151,1
0.0678064186274562,0.00399941170543574,1
0.0715524524546297,0.00306358077840582,1
0.0764882230127339,0.00299083223800204,1
0.0810800449374505,0.00326639652021728,1
0.0840450768933373,0.00269330981039985,1
0.0876599751431706,0.00248377652961633,1
0.0952077713904723,0.00211334594225325,1
0.0972764494135835,0.00253183915765187,1
0.0862209352497872,0.0022220500381863,1
0.0792259503229196,0.00237318288930041,1
0.0760849766496702,0.00292747948784193,1
0.0735828635610757,0.00415493452219172,1
0.0672233910558895,0.00385626894597313,1
0.0789888337977609,0.00448159736367909,1
0.0893892836498865,0.00372152329242622,1
0.094985124711958,0.00395898074733277,1
0.0876390613717898,0.00543820716157561,1
0.0809108977346863,0.00511747117581558,1
0.087418824223232,0.00575286867533176,1
0.0953341384935177,0.00589498973119536,1
0.120385097889169,0.00710285066309011,1
0.144419559471776,0.00826259011471463,1
0.160659530340147,0.00927356253072068,1
0.179745228633872,0.0106638271070295,1
0.159611046848984,0.0209553812412943,1
0.0963388889985216,0.0225367699493481,1
0.0629628822069161,0.0196507969760048,1
0.0223508480865544,0.033228176021929,1
0.0141167729057167,0.0286553261963682,1
0.00361498566193879,0.0195280035718143,1
0.00225418511177061,0.0702974161403659,1
0.00165897409451121,0.083881126195944,1
0.00037761737079898,0.0400542880989117,1
2.23378186798084e-05,0.408685589513725,1
1.32301903469623e-05,0.420665614135384,1
9.64623899684183e-06,0.360193886405394,1
7.94942244272659e-06,0.341827711039724,1
5.78529960674885e-06,0.2831438775805,1
5.11657720004061e-06,0.272414242459801,1
4.47733206329044e-06,0.251033308443934,1
3.74952890570998e-06,0.236226750434772,1
3.66609411479944e-06,0.165647064909942,1
9.00495311574408e-06,0.232095970557443,1
0.000163631158806344,0.0434885502097376,1
0.00073534952139512,0.0634280885061158,1
0.000806157708827554,0.0528226512003297,1
0.000778359557442189,0.0541657407478334,1
0.000751155173846859,0.0504332985957298,1
0.000695592248464964,0.0476159344150011,1
0.000642457837704934,0.0462652061006149,1
0.00061417718183458,0.0465865529490734,1
0.000615647534263887,0.0470007171180099,1
0.000627241697530328,0.0470896761953031,1
0.000631893337608453,0.109837431414108,1
0.000233905756233259,0.118154850692866,1
0.000128000510413966,0.146376967790755,1
0.000100743979523397,0.162238618056206,1
2.75906456152791e-05,0.126192986672806,1
1.70863601649257e-05,0.143176380017514,1
1.2343481585666e-05,0.122258955882174,1
1.29976348406791e-05,0.150353590277392,1
1.47045063345164e-05,0.168998232558528,1
1.52537925756024e-05,0.19218975722681,1
1.58926999477939e-05,0.205696831602148,1
1.57977362868851e-05,0.230894317675881,1
1.13317036434104e-05,0.285274539512404,1
6.40729350882027e-06,0.228256159764094,1
8.41185070452679e-07,0.110028493537296,0
6.34650657280141e-07,0.110122520914878,0
3.11859926795004e-07,0.0793706710703286,0
2.74536609180594e-07,0.0811717075930303,0
3.46415685222827e-07,0.0882247297730958,0
3.35272393034196e-07,0.088545360775283,0
3.14975534395848e-07,0.0896325941595878,0
2.80849160331737e-07,0.0843931207240162,0
2.48170539456634e-07,0.0835118624946391,0
2.74413737138722e-07,0.0852784662223315,0
2.65952260820502e-07,0.0869024046683681,0
2.44114560065773e-07,0.0868275862653624,0
3.03554711660468e-07,0.0910510499849259,0
3.30130465195012e-07,0.0953843964917612,0
2.89445795896016e-07,0.0931979923427579,0
3.16563789093602e-07,0.0968711367669065,0
3.0983187032129e-07,0.0983291500853134,0
2.49843602574594e-07,0.0920151529928509,0
1.54159403985449e-07,0.0751476488143219,0
1.47193093437609e-07,0.0729940807496268,0
3.7468159711594e-07,0.102344669876944,0
3.84213262207547e-07,0.0954273466769369,0
3.97701407047413e-07,0.104959521252071,0
4.33968025101729e-07,0.108979903717498,0
4.54902082122435e-07,0.106650415802195,0
4.59416294095536e-07,0.108260942159959,0
4.45054288636144e-07,0.107823110195522,0
4.51738394157382e-07,0.106311175675622,0
4.70110435548501e-07,0.10716938934122,0
4.58957527287028e-07,0.107295355383101,0
2.75193707491472e-07,0.0821134372048043,0
2.81505190190077e-07,0.0821599828373827,0
3.77123678948134e-07,0.0907581848790564,0
3.94043025557259e-07,0.090374183537503,0
4.41177408601966e-07,0.0992176804194918,0
4.19197202989979e-07,0.0948515849952984,0
4.36198419774829e-07,0.094488783511417,0
4.33847156408366e-07,0.0942558664078465,0
4.48244554358081e-07,0.0940512443924736,0
5.40110103576372e-07,0.09762652461289,0
4.90517879024534e-07,0.097258479897787,0
3.91694566878708e-07,0.096956661794984,0
2.50732154416519e-07,0.0812948798847556,0
2.3310736201917e-07,0.081366426782469,0
2.10283212458721e-07,0.0705179503116887,0
4.83300482130261e-07,0.101689546004081,0
5.24478642945252e-07,0.105522142180503,0
5.49002967606814e-07,0.10661593928588,0
6.05354222914115e-07,0.11001308196358,0
5.88423390440207e-07,0.109515783618981,0
6.04024934400261e-07,0.104985772830254,0
6.00894368463885e-07,0.0984941297455542,0
5.82061957585449e-07,0.0970669869047107,0
5.46652372023187e-07,0.0957049707535451,0
4.65403902118557e-07,0.0918394119750335,0
4.32229519265816e-07,0.0909259488118246,0
4.37304668821374e-07,0.0904095423352024,0
4.23259459539501e-07,0.0894914020897638,0
3.53757022611509e-07,0.085930946753274,0
2.67168560478462e-07,0.0784047078649288,0
1.5427159150194e-07,0.069982150905265,0
1.14003752249336e-07,0.0673557985593683,0
1.18527179625577e-07,0.0657728203361939,0
1.22250068937714e-07,0.0677052653250868,0
1.17401564876782e-07,0.0718408236369046,0
7.45917434796792e-08,0.060533204187233,0
9.775112002393e-08,0.067087835844015,0
1.0338547092657e-07,0.0678708184790184,0
1.92570272726987e-07,0.0857137778850233,0
1.65270909711073e-07,0.0800971763833124,0
1.75733597632991e-07,0.0798529487179243,0
1.95989988631463e-07,0.0784546473562472,0
3.54087842228591e-07,0.102126536483659,0
3.87380155530215e-07,0.104846958796447,0
4.18186981115289e-07,0.105036037454132,0
4.38495993401257e-07,0.104914337599329,0
4.51247573772731e-07,0.103267472116322,0
4.90316075051417e-07,0.100992242791128,0
4.20422718051079e-07,0.093665983099175,0
4.56656614746418e-07,0.0999337875914326,0
5.91524039705519e-07,0.113681663381756,0
5.9788573967341e-07,0.119983682878342,0
5.65621144156786e-07,0.115110259911487,0
5.86716003284464e-07,0.11906266770212,0
5.01385109788656e-07,0.108304108919264,0
4.55156507383049e-07,0.103594772024262,0
3.63984918088198e-07,0.0967693100786123,0
1.30365633746753e-07,0.0696895095271277,0
1.2526203664237e-07,0.0695812527383655,0
1.38768345175383e-07,0.0705185724103108,0
1.5239979621191e-07,0.0738512837718839,0
1.744493176823e-07,0.0733367347828408,0
2.89246663054244e-07,0.085902194204007,0
2.83494515259288e-07,0.0801927419134391,0
3.00849389834221e-07,0.0860738235569343,0
3.62724678319613e-07,0.0961204528650697,0
3.92415772341867e-07,0.0987475774876611,0
4.00771204745689e-07,0.0987786784820165,0
3.63206416857689e-07,0.0944293653049633,0
3.56141808676353e-07,0.0927031941944139,0
3.58499883427745e-07,0.0903547294687979,0
3.24235678986232e-07,0.0895357293131653,0
6.2652454150229e-08,0.0524806133869104,0
5.96483662830405e-08,0.0540907146682061,0
6.24173945918662e-08,0.0547264200479853,0
5.93791162434614e-08,0.0540167349375751,0
8.29139202982562e-08,0.0604766956375332,0
7.94467918124067e-08,0.0616668895564916,0
7.28918354917017e-08,0.0602538419124034,0
9.5920193043479e-08,0.0620671228537761,0
1.14823255345991e-07,0.0651431855791435,0
2.46082649640791e-07,0.081444584096941,0
2.5582266297731e-07,0.0811115843457199,0
3.36485620891109e-07,0.0913753151836372,0
3.387976186268e-07,0.0873224498192035,0
3.50642483463204e-07,0.0863231263528087,0
3.44748899263528e-07,0.0810475654727407,0
3.60518323828618e-07,0.0800637152177316,0
3.35884616338477e-07,0.0781722880160989,0
3.08705854902791e-07,0.0782607228726582,0
4.26502747218638e-07,0.0901101442379895,0
3.62467181257952e-07,0.0875933844676392,0
3.56185748786978e-07,0.0854588369959061,0
3.20852023354914e-07,0.085232883386749,0
3.32232645563552e-07,0.0865489570821346,0
3.1109865436167e-07,0.0856889085636579,0
3.47811084237471e-07,0.093846029533975,0
3.43886791621919e-07,0.0917624092670332,0
4.03049012000165e-07,0.0991257931084617,0
4.44618226444068e-07,0.0970445313394315,0
3.86733741744718e-07,0.0932810158663294,0
4.34295906474331e-07,0.097293724299556,0
4.22252309465858e-07,0.100192228083705,0
3.89068310540275e-07,0.0924577294410498,0
3.81770779705651e-07,0.0938530768192384,0
3.46002327647184e-07,0.0919574593118496,0
3.64825122452777e-07,0.0937018420455099,0
3.71568126420173e-07,0.0985017177260745,0
2.34223494251692e-07,0.0790186158830825,0
4.4120345213258e-07,0.106151458047349,0
5.46596678934643e-07,0.115565117978443,0
4.82852800516834e-07,0.109147726856623,0
4.75203348127503e-07,0.110505781186471,0
4.82912233189261e-07,0.109971131804079,0
5.53556578767254e-07,0.119334816275732,0
5.21279696046444e-07,0.111288131606539,0
4.21089833104499e-07,0.105256753051797,0
2.72027882621341e-07,0.0878625938615663,0
2.63499494462928e-07,0.0840243145323704,0
2.37064910219968e-07,0.0810862149304183,0
2.2331299115978e-07,0.0808040627601943,0
2.18287925316941e-07,0.0783800113127954,0
2.408098363657e-07,0.0791069464646294,0
2.81593871750732e-07,0.0853546212221635,0
2.24362077995541e-07,0.0779758162944967,0
2.34571809779083e-07,0.0798373343492255,0
2.16308216320572e-07,0.0764387455069861,0
2.13217049571535e-07,0.0763698006753489,0
1.85181522756931e-07,0.0786297387836006,0
1.30091442114185e-07,0.0733979838129099,0
1.16088436707565e-07,0.068686031302208,0
1.44537588210947e-07,0.0798055428595233,0
1.07401917573525e-07,0.071766988115006,0
1.18665410672683e-07,0.0763158418234695,0
1.65880328327442e-07,0.0776313415879669,0
2.33432171590726e-07,0.089069312872759,0
2.46652134843551e-07,0.0861577958029636,0
2.98057523352395e-07,0.0902413117357485,0
3.32969210031944e-07,0.0909538556832319,0
3.42398971462737e-07,0.0911014282726976,0
3.40542401621374e-07,0.0920647232848513,0
3.73080120318027e-07,0.0926193691490507,0
4.16994053856598e-07,0.101538884497976,0
4.56958853258108e-07,0.103782201848235,0
4.13380948042743e-07,0.106686945436339,0
3.00422142375583e-07,0.0915508443566182,0
3.0637542636082e-07,0.0931571329293842,0
6.40433656642132e-07,0.128282244692339,0
6.81874122555205e-07,0.121744035203631,0
6.646549414526e-07,0.120066521240025,0
7.29002896224087e-07,0.122216177773138,0
7.38372156529916e-07,0.11889935629129,0
6.66225967353179e-07,0.112828170455094,0
5.72533497851456e-07,0.10712579707522,0
7.22637723785447e-07,0.117759509493193,0
7.81095299714872e-07,0.12214421360712,0
7.69090834780603e-07,0.124584734380353,0
3.21565215424038e-07,0.0875708929460879,0
1.59879898873966e-07,0.0712109595393471,0
1.99699121617172e-07,0.0747954101061416,0
3.02972405027251e-07,0.0850943314924125,0
4.14981623501252e-07,0.0924297828486682,0
4.7700729668137e-07,0.0930414041128756,0
4.74117132566047e-07,0.0920994489173273,0
4.45971955809729e-07,0.0901650626246937,0
5.05146062722459e-07,0.0948122099856351,0
4.98621156629386e-07,0.093206408677865,0
4.77483425843621e-07,0.0909966780754697,0
5.96653813897082e-07,0.0975602789305766,0
5.84593121648001e-07,0.0972228037318086,0
3.81306002851616e-07,0.0826004518066247,0
3.07348385953247e-07,0.0837658942115231,0
2.50961203929355e-07,0.0817701778263213,0
2.61026160393998e-07,0.0826843007366151,0
3.18681996250212e-07,0.0871510096960289,0
2.30103007038847e-07,0.077361738492667,0
2.6561462981849e-07,0.0841894194039864,0
3.32334148554663e-07,0.0921989013142748,0
2.8732064379791e-07,0.088919992788115,0
2.87253331288015e-07,0.092894992868569,0
2.74644122217231e-07,0.0923738742342713,0
2.20892411934913e-07,0.0822653353113069,0
1.95037329637258e-07,0.0773875159832527,0
1.45499596164859e-07,0.0725105659195868,0
1.57721624747181e-07,0.0767299823520235,0
1.69670263036339e-07,0.07784041937651,0
1.52200930483272e-07,0.0737567170616524,0
