Activity,Complexity,Tag
0.000666982126707484,0.0450684814426105,0
0.000603398203735439,0.0651297734185803,0
0.000440331189572302,0.058195843639984,0
0.000446165635120059,0.058882751452478,0
0.000356669383871184,0.0619053361394785,0
0.000316888589823784,0.0727402987818751,0
0.000336786524248838,0.0635498190676058,0
0.000306467305475361,0.0599319398004812,0
0.00027322006929542,0.0702485734394122,0
0.000259833397561729,0.0669299811222309,0
0.000232800654532648,0.0671445134090517,0
0.000205699720414554,0.0643794135244376,0
0.000330937580376691,0.0602519538350877,0
0.000469187048209913,0.0668796504486804,0
0.000512653756856221,0.0638390737465356,0
0.000562924018149118,0.0552218575024626,0
0.000677052865427078,0.0672000672180728,0
0.000617059684766739,0.0591079139830043,0
0.000629869984442874,0.0608689613691761,0
0.000633225209732338,0.0606352712523238,0
0.00063116536469487,0.0616038028148486,0
0.000548841984598599,0.0615776431206115,0
0.000498718283146416,0.0769347786528368,0
0.000433143515355248,0.0737541784387369,0
0.000358859133604957,0.0762781420530271,0
0.000240045113151396,0.0950709941641975,0
0.000185361717935481,0.0988487424105151,0
0.000217727456507432,0.11993116805739,0
0.000191454286273021,0.0880838726429842,0
0.000178831125315208,0.090978801595198,0
0.000236852667738167,0.0951672748411858,0
0.000240563358499845,0.0716791323929333,0
0.000249196695225843,0.0668318523599729,0
0.000220266123781043,0.068727031042663,0
0.000315644398412311,0.0724883947798841,0
0.000333974360728113,0.066571189163,0
0.000321602410203532,0.067356303252985,0
0.000317948506652212,0.0680594394761692,0
0.000319214011377603,0.0610959074135706,0
0.000334196600726764,0.0570745291900096,0
0.000410234597690964,0.0651270017112918,0
0.000547305557298685,0.0869424640633039,0
0.000548794190496822,0.0853477872601456,0
0.000546159444439652,0.0839196113999371,0
0.000398857629551893,0.0905599922993281,0
0.000318854619392893,0.0911394027120077,0
0.000292836632915279,0.0792317807782862,0
0.000563610072052923,0.0984685872090838,0
0.000590639300272865,0.0803743657691617,0
0.000548367934750972,0.0814333695778957,0
0.000486166463428524,0.082353798312226,0
0.000372668230534695,0.0640494587474669,0
0.000388995735609409,0.0704067580586266,0
0.00039623434097205,0.0697594782065194,0
0.00035419570697972,0.0661287388236286,0
0.000322080832439088,0.0606175133172275,0
0.000371924203228035,0.0671845574160117,0
0.00023293184349064,0.0645272831198142,0
0.000195715146596204,0.096473012284983,0
0.000283056460567338,0.0860172255050674,0
0.000316827606235116,0.0661398604076753,0
0.000311032123646853,0.06630693925256,0
0.000265684219259922,0.0607097047449956,0
0.000234701440471725,0.0593936440907221,0
0.000234670148442161,0.0576342283622688,0
0.00027636798006163,0.0589154803556159,0
0.000273543254790453,0.0547535293406395,0
0.00027691026266012,0.058976287272315,0
0.000266088516401264,0.0587864373675696,0
0.000214010144554054,0.0636170229800411,0
0.00028552190432793,0.118188131761314,0
0.000334567170492661,0.125806462116057,0
0.000364316557183077,0.122228262192707,0
0.000379051319603096,0.101397153090312,0
0.000461596339580111,0.106783749145887,0
0.000397784042252835,0.0885762445414928,0
0.000320674412819833,0.0749074795016034,0
0.000354200055962115,0.0753865359983298,0
0.000374469734642795,0.0695999741800682,0
0.00041681746212585,0.0815085642904385,0
0.000353397344192456,0.0714565194164875,0
0.000318687217391674,0.0734914978112978,0
0.000293287250077825,0.0689017518947896,0
0.000332495499574752,0.0720745119465923,0
0.000295136102178211,0.0611063229482684,0
0.000306519819303202,0.0654214444362618,0
0.000302189223359776,0.0739189064406827,0
0.000324284875698822,0.0706073718913719,0
0.000405446803650812,0.0972476106269812,0
0.000383625961077485,0.0917787674166235,0
0.000469465976647566,0.0886213338840183,0
0.000563689521672216,0.0799726328572172,0
0.000573534613951645,0.0816550851483149,0
0.000507312276104871,0.0879688846630253,0
0.000481380328138613,0.0984796778663222,0
0.000448373685875438,0.104235437647331,0
0.000446205666776265,0.105236838048708,0
0.000396971223271144,0.116843128090574,0
0.00033039421246356,0.104800359925659,0
0.000312709963442298,0.108247130135798,0
0.000246557606037661,0.1363785102479,0
9.14027933110917e-05,0.107724873902209,0
0.00010189372012573,0.132677359704525,0
0.000116045215919849,0.074144277020439,0
0.00036470631925334,0.101103131401829,0
0.000378001161712345,0.0922743754248341,0
0.000350962153723801,0.0893431721914242,0
0.000352816340179591,0.0894067158142925,0
0.00035328220394147,0.0880559130778444,0
0.000342733208931561,0.0888611056867275,0
0.000311396125351613,0.0845154509019071,0
0.000259740804330392,0.0786111002813306,0
0.000261771463602359,0.0827749819293247,0
0.000259628756184589,0.124707936499037,0
9.3938290539088e-05,0.112351705199307,0
0.000155510804355203,0.168136940218439,0
0.000139141874292805,0.0995176325348292,0
0.000178103698852116,0.114891414691381,0
0.00019098095591153,0.099645309596934,0
0.000215002014939675,0.106018436126977,0
0.000203964006221665,0.105471546210002,0
0.000201167327568615,0.108032656482079,0
0.000206687035146909,0.109217451433512,0
0.000179877047506352,0.103665473700627,0
0.000185030909491865,0.10119062596883,0
0.000146037710047397,0.0967038793109169,0
0.000181678285727579,0.126462665079028,0
0.000138560961093414,0.0924782136713209,0
0.000146428226712098,0.0980286465790383,0
0.000231973574090577,0.123304668683332,0
0.000245802785034637,0.100005846729626,0
0.000302070397907357,0.112555450899918,0
0.000313425354545412,0.114599193501469,0
0.000352760129447551,0.119201820690882,0
0.000396846395703417,0.131867423900114,0
0.00036531231195123,0.131636210098466,0
0.000349356764590619,0.143230714519998,0
0.000342907221357934,0.139750608594414,0
0.000360933341448768,0.165601887374294,0
0.000213731332441907,0.137622331857292,0
0.000217496743471178,0.176881141546289,0
0.000250275381420626,0.0925829917902797,0
0.000585745075415228,0.0985198975619773,0
0.000608072386608184,0.07949572013048,0
0.000663497376125432,0.0756984512142863,0
0.000738737927331216,0.0857429954155278,0
0.000786334841457015,0.091318513425616,0
0.000788821459268593,0.0965478690456701,0
0.000720400827731674,0.0926516694669208,0
0.000611025422658757,0.0786787849203845,0
0.000464518402618558,0.0599704989950072,0
0.000571054396149464,0.088655647111241,0
0.000623091629960845,0.116036132247687,0
0.000616299497342728,0.122638785081698,0
0.00069472433830319,0.147515486649942,0
0.000697059438981812,0.147307407296371,0
0.000751958412513103,0.123069401035389,0
0.000805384907580335,0.0901236078821287,0
0.000812645967276708,0.0673937804935468,0
0.000733512355234556,0.0517621804324563,0
0.000788728319518021,0.0457433700311023,0
0.000795288657530128,0.041158408533185,0
0.000675508326002907,0.0396400986254249,0
0.000669667529129264,0.0418322888044118,0
0.000557266746881412,0.0339064447492465,0
0.000635421748007383,0.0333824962032377,0
0.000684939927915088,0.036845159838776,0
0.000620471517278,0.0405945194085381,0
0.000583893832439476,0.0445784519130859,0
0.000808201582751922,0.0570215739572716,0
0.000827851512131716,0.0660077132812772,0
0.00181790206313217,0.0682584219231831,0
0.00388719535133631,0.102623559349676,0
0.00865941278535166,0.101045526886961,0
0.016281261668485,0.133090468582191,0
0.0214731886620267,0.0837455930142066,0
0.0189427239263819,0.0650723472998784,0
0.0174693271693416,0.0493790857386178,0
0.01592057066724,0.0417135224622754,0
0.0140861939304144,0.0297632816580149,0
0.0277247844798878,0.0302952822470908,0
0.0309005570166754,0.0250207949322751,0
0.0302825691554726,0.0230649827164551,0
0.0278472847217868,0.0209124190975825,0
0.0272686754445617,0.0214457554761211,0
0.0268192772684751,0.0229029318634499,0
0.0201882152157147,0.0184054887713483,0
0.0189461680854474,0.01464959566391,0
0.0190667870634956,0.00883962716629757,0
0.0190091052339179,0.0102717322546008,0
0.0160245133050612,0.0105972416308974,0
0.0191997104240349,0.0114358621565036,0
0.0191967382275114,0.0096901255739266,0
0.0185117351151853,0.0102497192062675,0
0.0207322344765554,0.0104701373689649,0
0.0235347154047133,0.00798097237307716,0
0.0235986202477586,0.00667280846475688,0
0.0207666994420833,0.00729534382330257,0
0.0183455415445295,0.00903745266536785,0
0.0181303163912868,0.0062226286838568,0
0.0270255119434493,0.0129300000225393,0
0.023808678751402,0.0137568383580915,0
0.0223214646788125,0.0148930784504242,0
0.0211362928788697,0.0139288697958398,0
0.0204124899838839,0.0152299575483844,0
0.0143382420390723,0.0238723409084402,0
0.00953818630554953,0.0229425954319726,0
0.00816741698556954,0.0205829459102053,0
0.0074284355770148,0.0198352967149823,0
0.0059310773891205,0.0494675121415244,0
0.00368426405488147,0.030471314205698,0
0.00238836489375531,0.022872551927994,0
0.00278496388710599,0.0160124357535733,0
0.00868658183449077,0.0174212309978816,0
0.0124787145413843,0.015645766012423,0
0.0120748606009266,0.0143484021040233,0
0.0117396709969864,0.0127751754066045,0
0.0126596326314959,0.0104684363753194,0
0.0137118883088271,0.00700753437171137,0
0.0304842237989119,0.0109613278892786,0
0.0714306525055719,0.0234723409804787,0
0.0826780370271006,0.027003343623735,0
0.0741661878365413,0.0237129501906569,0
0.100721684522256,0.0289599056518803,0
0.126638083635724,0.0408264202936041,0
0.150298419580891,0.045207498473578,0
0.13761574459982,0.0299694019559534,0
0.11760830174106,0.0234166956040174,0
0.0681856305077097,0.0103747146783179,0
0.056875103391885,0.00913988870899626,0
0.0603019466926537,0.00934354239242708,0
0.0608590916652194,0.00899047831534926,0
0.0357747117472409,0.00313313109175682,0
0.10343270573414,0.0107108991902212,0
0.186660750291611,0.0122148624049798,1
0.203290335269922,0.00970796132443517,1
0.186571817417433,0.00835309587078377,1
0.184920221104642,0.00898481252352492,1
0.166303897309493,0.00876382830968804,1
0.189675611098852,0.00784810903115327,1
0.216591028511538,0.00762311430377858,1
0.2304730307502,0.00709016521614496,1
0.231493275123652,0.00757812653953356,1
0.235405235283967,0.0110055163249015,1
0.215947565874485,0.0129619379561246,1
0.217011901889742,0.014757568131344,1
0.215002435597285,0.0164808707625233,1
0.234531454293511,0.0175056432238524,1
0.239118049345428,0.0183226226544225,1
0.177399948555328,0.0222181308797097,1
0.0524166379476519,0.0077810897982872,1
0.0437485324703086,0.00679761175095664,1
0.0627380228510831,0.00948131887840236,1
0.0620138005382784,0.00881519951201403,1
0.0487276359246665,0.00610155312391841,1
0.0460205335260261,0.00914220817523445,1
0.0363382774328039,0.00771264623652908,1
0.038072433459333,0.0078975902874144,1
0.0425277373698425,0.00568775389674978,1
0.0447555910062595,0.0058461229013467,1
0.0450448471068254,0.00694553668249837,1
0.0521487896865952,0.00904171374165578,1
0.0367845365875463,0.00501573036524245,1
0.0441307895371583,0.00510181521433758,1
0.0724899987903889,0.00923313359872994,1
0.0916747032097097,0.0120235101401785,1
0.116038035811471,0.0152683146189975,1
0.128353128527111,0.0185149182914088,1
0.125179515413037,0.020456656708185,1
0.147118941613969,0.0239881112011093,1
0.155783143543158,0.025292868881514,1
0.116316421538673,0.0206409904421903,1
0.0831981394642915,0.0184390452264873,1
0.0297511140106815,0.0114285127077587,1
0.0358247756070605,0.0198406914563433,1
0.0352245263708511,0.01929867247413,1
0.0332502110084166,0.017600162569338,1
0.0335185598001086,0.0185743591209432,1
0.0196515370909899,0.010415802187757,1
0.0198170606332773,0.0128620594547509,1
0.0187869427094588,0.0129457938434747,1
0.0187499767492695,0.0179227235386947,1
0.0120568510182504,0.0144513130217231,1
0.0120800211870882,0.020138259181795,1
0.0365724551472871,0.0152113355656939,1
0.0698672321904815,0.0214473903851018,1
0.0711203458814104,0.0219356115561324,1
0.0752521806520006,0.0219167314215995,1
0.0788842842604848,0.0201949929827673,1
0.0776166151370656,0.0189457850357489,1
0.0719874500126771,0.0175963847332182,1
0.0540561354066334,0.0132400387503343,1
0.0419861076191226,0.00977280729899336,1
0.037698556214033,0.00846847386390452,1
0.0333655935497531,0.0122660399618736,1
0.0396365273276652,0.00446827396208629,1
0.0814047396922575,0.0115410132940447,1
0.1094251317079,0.0113179708509554,1
0.211067522318889,0.0211421851979449,1
0.191348595944863,0.0139274165467733,1
0.177451666624247,0.0131004617779881,1
0.15045567175328,0.01048743281871,1
0.164746865671776,0.0123158573609738,1
0.185641433630464,0.0135310470006133,1
0.179643025380629,0.0135192212435934,1
0.168901686150313,0.0187770071392979,1
0.153085192169073,0.0171877222589213,1
0.137524483284774,0.0252032357498296,1
0.043974755536716,0.0113246920308045,1
0.0422614765723223,0.0127066163108367,1
0.0466316674789788,0.00907829100285017,1
0.0493549863901377,0.0119691923963244,1
0.042028856869723,0.00972244945727267,1
0.0383720349887819,0.00788817105658056,1
0.0423908895136636,0.00394199821228717,1
0.052954181848487,0.00457048497684085,1
0.0543523659363987,0.00519168331448405,1
0.0682099910385061,0.004681339371405,1
0.136608413360602,0.00959615832949255,1
0.128991659485067,0.00857559775667842,1
0.120822739455979,0.00687078264858906,1
0.168493960805926,0.00929533031084329,1
0.205866250214376,0.00962891525477718,1
0.167870935918018,0.00759258195242266,1
0.144629026430669,0.00820224070376956,1
0.138653155222937,0.00882033742797793,1
0.107542174747606,0.0058643110466599,1
0.127241914325992,0.00514388108084016,1
0.21748043886327,0.0122651903652034,1
0.189922430246292,0.00798170160179751,1
0.160186331100021,0.00961941989757494,1
0.236351485200495,0.00559973651003028,1
0.342305013273207,0.006830852874384,1
0.336705122836626,0.00612748067183749,1
0.337528019014858,0.00594267659370878,1
0.329632760802935,0.00579304401292812,1
0.324477680455188,0.00467861060353405,1
0.375788475692348,0.00862870211167657,1
0.320810773168918,0.00676005997799609,1
0.316980271566832,0.00827457364501824,1
0.29344193759835,0.00583008354729314,1
0.223161329350445,0.00971437793936471,1
0.0867997800831651,0.00518358108946131,1
0.082023062959453,0.00615114255170892,1
0.08643128334992,0.00599201448015828,1
0.116377428465468,0.00829235757850049,1
0.136781382151972,0.0071204827313538,1
0.179814383698014,0.0096638216926726,1
0.182190041550992,0.00763753757785038,1
0.188648731346435,0.00991955219886251,1
0.242299018888092,0.0113265396984719,1
0.319505618769392,0.01632715308798,1
0.292044719408872,0.014574238053809,1
0.296656365916649,0.0145473437121499,1
0.331535517160354,0.0170852060319338,1
0.404496237144447,0.0214141397645785,1
0.414642458093542,0.0383691315053854,1
0.21912877272212,0.0224609773322036,1
0.174145711884603,0.0225460946621392,1
0.1467257448695,0.017304228595442,1
0.145731291729004,0.0307898382621701,1
0.160459746841459,0.0417381152434295,1
0.0931360425173308,0.0477195744037945,1
0.0334248409064979,0.0302915550390349,1
0.0139439053177386,0.0227172601312301,1
0.0121532511572259,0.0197270554107707,1
0.0122385432649113,0.0205057050270096,1
0.00743750679852655,0.0283054560922829,1
0.00317617998525012,0.0240575412128585,1
0.00254419137698247,0.018473326231965,1
0.00337112669139673,0.0284789340520749,1
0.00606108249142497,0.024113086109061,1
0.0245192709046959,0.0394401157798407,1
0.0246814735112703,0.0226877290664976,1
0.0239380621596397,0.0214907082777054,1
0.0304434853632008,0.017479964762195,1
0.0442195354977795,0.0187139497584223,1
0.0397548650087417,0.0149899284322638,1
0.0513969198368804,0.0120409837607617,1
0.0611700636785381,0.011332411308607,1
0.052640563412558,0.00983606890935027,1
0.0493157983716828,0.00988056689345541,1
0.0507704165029047,0.00896087044566639,1
0.051683333551763,0.0109667047681557,1
0.0598627806879404,0.0109178575566868,1
0.104955352211712,0.0200680092534044,1
0.111050332227457,0.0164802802946728,1
0.0885537405986924,0.01262831826044,1
0.0881638539117455,0.0171857597234009,1
0.0874147501433304,0.0172120203717996,1
0.0803361063674725,0.0127804536443445,1
0.0621674292982083,0.00669415622287821,1
0.0583190868645423,0.00627828869186069,1
0.0590463198961037,0.00661399762409426,1
0.0573728868085914,0.00780603675314127,1
0.0412920596900045,0.00408745858822618,1
0.0806671055062778,0.0164403167059753,1
0.0874134983345877,0.0108970672907696,1
0.0912352305983437,0.00931283705023808,1
0.100719308434507,0.012133832677717,1
0.109236711646329,0.0150826563900101,1
0.113838582266843,0.0201793503489174,1
0.0853818653401845,0.0164555419547454,1
0.137627690000859,0.0169669587021912,1
0.156905494391876,0.0153194993924322,1
0.211336785622632,0.017434949473097,1
0.284335410540324,0.017623224051282,1
0.248830350565272,0.0166871567633092,1
0.18758649840343,0.0139360928033327,1
0.172565631676589,0.0127577109041812,1
0.16320386684858,0.0115056302073566,1
0.155143143485327,0.0110071983573114,1
0.120436791876747,0.00791051951761448,1
0.109960176877156,0.012148549125346,1
0.114685677084937,0.0135786500675413,1
0.0963522676441201,0.00929760718642448,1
0.0844295421321179,0.0103898480743412,1
0.0808364881201182,0.0087756234617464,1
0.0919031229716773,0.0104899731713655,1
0.0986721388852834,0.00949099643017726,1
0.0988148992997052,0.0106282072631601,1
0.0954851796729708,0.0114259535439021,1
0.0983395225710198,0.0114857276643596,1
0.0977528322048076,0.0104462519926045,1
0.0963376744063081,0.0104586146575604,1
0.0884909536210684,0.0161726373457859,1
0.0640699130270231,0.00876471500588855,1
0.0842245748450784,0.0111805960443936,1
0.0849573460612493,0.0102300418086173,1
0.0852776407094389,0.00999822043330604,1
0.0900555768682938,0.00955969602429836,1
0.0874679128840022,0.00829241713546826,1
0.0899752340282619,0.00917879113400102,1
0.0893033089655662,0.009203881106341,1
0.0915163160317921,0.0103539215309106,1
0.0783630922167789,0.0077783412258752,1
0.133041824561482,0.0207834372154045,1
0.152812681829784,0.0286324483744694,1
0.159501702186021,0.0328666985212057,1
0.178909262136787,0.0389733068365824,1
0.204146616779095,0.045318314938559,1
0.183098442742313,0.0421117235215206,1
0.164542875783012,0.0394885022263532,1
0.131701307897978,0.0316788113493454,1
0.0799754494116841,0.0202360553368105,1
0.0388046143109155,0.0154830804764877,1
0.036169209117611,0.0172986162111553,1
0.0178131767967644,0.0143013836065375,1
0.0072058221329936,0.0172817301949927,1
0.00876904581163375,0.0224940221568961,1
0.0176443940749692,0.0183199627040298,1
0.0624577221188454,0.0471828844995717,1
0.0646674619545278,0.0292573960024241,1
0.0580941965448549,0.028631386176276,1
0.0572708176237259,0.0246618576502572,1
0.0864196938316737,0.0230855953538805,1
0.0900561194940174,0.0157531614726556,1
0.0737782388739142,0.0142767201187857,1
0.0586699205586275,0.0101992403068069,1
0.052649852643518,0.00961927928640014,1
0.0482801443091325,0.00989662842982461,1
0.0489916950052031,0.00698969132619827,1
0.059824461554787,0.0110226071789904,1
0.0519559923900413,0.00800639325139577,1
0.0834250930848436,0.0121371077505718,1
0.0843747570854947,0.0113053279201606,1
0.145056989908927,0.0147003853526852,1
0.149965597034844,0.00437552324846599,1
0.160983179520169,0.00321532883316982,1
0.224374037134647,0.00483702464259772,1
0.223488223383164,0.00190654794954447,1
0.257810358120729,0.00351175404138319,1
0.259984105744404,0.00336379973065501,1
0.254309734607235,0.00344860919726303,1
0.24147053687954,0.00293939101911794,1
0.243247864141373,0.00260640084576751,1
0.206201289058586,0.00245486194708877,1
0.177276599983336,0.00543980380568844,1
0.155953924359169,0.00695489238234575,1
0.0894047168429656,0.00311579080235306,1
0.0802905759485987,0.00881303309745709,1
0.0658652597793297,0.00730256092101235,1
0.0845412913075576,0.0115034328266527,1
0.145750382904608,0.0185443666560355,1
0.149344263169898,0.0148153145215435,1
0.176196709453959,0.0167806176977459,1
0.16124216808068,0.0140839231092531,1
0.156300104790248,0.0131236886219414,1
0.157365662253992,0.0136071953377448,1
0.107280003322035,0.0125960398491911,1
0.121175496884662,0.00670840295416029,1
0.365351417384894,0.0197068557419871,1
0.368539035082668,0.0122242745739867,1
0.370122595440906,0.0120035118308801,1
0.322286257222177,0.00889244865619713,1
0.443450665572359,0.0122189353190266,1
0.46694859514424,0.00850608043862438,1
0.471356670344792,0.00736886675405496,1
0.470128764307729,0.00699889599880042,1
0.471762636122874,0.00643757343995402,1
0.442226565360662,0.00852265776624794,1
0.246096207748694,0.00248428424399224,1
0.269264862233218,0.00555828235945631,1
0.288159242763395,0.0036647948196283,1
0.433542580076268,0.00868487864296965,1
0.372832111303593,0.00724719511854531,1
0.371873923776793,0.0125347425411315,1
0.378814722382895,0.0101750357996241,1
0.492016688135787,0.0137243036401782,1
0.583832393861492,0.0170126304126936,1
0.603353774796474,0.0159155991576503,1
0.600554625354074,0.015574087220301,1
0.584933840774073,0.0138577157168865,1
0.645232667308605,0.024440208882459,1
0.488896524443906,0.0147895104230939,1
0.349920111316469,0.010284411051866,1
0.22142411985495,0.00488127615096255,1
0.184366723115079,0.00487518814779286,1
0.23340907167693,0.00740167864953888,1
0.277299809741419,0.00942672760442307,1
0.352859916431991,0.0148529409471826,1
0.311891469873223,0.0120809346032309,1
0.302416239613539,0.0117755644304764,1
0.368252357681031,0.0138073628863752,1
0.394494409764659,0.0221686009032895,1
0.252769948251951,0.0177146191068125,1
0.195697321397883,0.0178305153549835,1
0.0720968882250979,0.0100563996240129,1
0.0792574082309514,0.0122088351777967,1
0.0789157721154974,0.0122977001176415,1
0.0842940693649096,0.0138077604962951,1
0.0737016994988001,0.0168320011433295,1
0.0253313963991195,0.00781707847653921,1
0.0244124235199529,0.0140999717228039,1
0.0287012590313166,0.014294371336453,1
0.0312112067479527,0.0270256611066785,1
0.0603479592830957,0.0502392088240893,1
0.0744145877039148,0.0227707872377975,1
0.0694283053407126,0.0162343300163996,1
0.110124826263917,0.0183954769398849,1
0.115116828496255,0.0124250883057527,1
0.0897442870340286,0.00959912909912928,1
0.0945012770500147,0.00522966725628313,1
0.207148597390945,0.0137302002695711,1
0.237786640896819,0.0146143577086285,1
0.279793252817554,0.0146213928234268,1
0.275637021778256,0.0160620398494243,1
0.25282694378093,0.0172745683639084,1
0.184891515948624,0.0136512620622832,1
0.185230502491786,0.0137843672350966,1
0.177478705080568,0.0163339558496676,1
0.103987764824181,0.00926403138633901,1
0.0772173427476303,0.00914766363826925,1
0.0679852837332476,0.00879970622381513,1
0.0663549475359334,0.00942806837804803,1
0.0652755974981626,0.0105677564334606,1
0.066955502962411,0.00560014306458963,1
0.0823115649205851,8.53456994931853e-05,1
0.17099353392266,0.0084642764163799,1
0.325524261897857,0.0172255608851415,1
0.476964861507664,0.0233399843487376,1
0.680252534173325,0.0310352583911876,1
0.759151849070041,0.0360936329847436,1
0.826967105435078,0.0281449630397171,1
0.747795542713444,0.0210022302631761,1
0.687168160148199,0.0185432844608417,1
0.530211269299345,0.0162503216125406,1
0.348325864191456,0.0135516578831811,1
0.345596251006807,0.0105344755672616,1
0.344585200032694,0.00872782026151415,1
0.395025297267423,0.00946352167156474,1
0.37003087877329,0.00816667992581778,1
0.372578091341133,0.00626376637244978,1
0.328538514371846,0.00644556209611054,1
0.337069314020424,0.0087348798559063,1
0.395047191535499,0.012172498373458,1
0.418800663824797,0.0143237857071462,1
0.312873001185734,0.0098757921944036,1
0.301906515119497,0.0111056193125556,1
0.201405334391354,0.00909571346600333,1
0.209030554721451,0.0110633555531751,1
0.0860850711259327,0.00211777771885183,1
0.060428785640514,0.00569846044759763,1
0.057539374875174,0.00689637563779068,1
0.0626324960845461,0.00935373509958606,1
0.0612862388972234,0.00845410423314024,1
0.092907963904372,0.0120159451356964,1
0.0893126565912286,0.0164796877050917,1
0.0782650228685648,0.0152196031398396,1
0.0768782147130972,0.0130176585587524,1
0.0756617036549661,0.0131240789060837,1
0.10986976788191,0.0099870892246574,1
0.21374095279003,0.0196779207612357,1
0.330358221374316,0.0270848322249521,1
0.40976622866268,0.029474810231665,1
0.389511409725293,0.0286289906673617,1
0.432280946051471,0.032030271088256,1
0.439348229993212,0.0314210390065816,1
0.343397722291155,0.0276614730876653,1
0.26717528480616,0.0241555762330777,1
0.11022169661985,0.0101623348406478,1
0.0177067921349946,0.0150789100137314,1
0.0172249173614255,0.0117117227642076,1
0.017180836649537,0.0123080410148186,1
0.0166504593305533,0.0186900799655087,1
0.00519361611761355,0.00445711133002523,1
0.00520169396329568,0.0106881904776579,1
0.00649291562755944,0.0130131674253634,1
0.0131336230028501,0.0230654479008116,1
0.069955484352367,0.0370662139737968,1
0.0947032563661366,0.0251917630498169,1
0.095865176596537,0.0262892543493863,1
0.0841633660097366,0.024650189194897,1
0.0791935224741833,0.0207314663688618,1
0.10080518461982,0.022230668717352,1
0.111767475890195,0.0197944208162934,1
0.0965016594346923,0.0155070226658458,1
0.125410983647825,0.0148227479879019,1
0.154580938820604,0.0176941382280573,1
0.158960329496416,0.017976735373243,1
0.271678895956238,0.0243852675118402,1
0.280278155287084,0.0200363449518979,1
0.216152916275253,0.0137504627108009,1
0.165714215771656,0.0058280239569716,1
0.225074275756764,0.00724582476857377,1
0.23613977058652,0.00578341973209153,1
0.216614793635726,0.00502545955360196,1
0.235437634052898,0.00701851460108889,1
0.247893158042266,0.00673541713587453,1
0.252724580584164,0.00645192168720867,1
0.222849111413939,0.00770218249351915,1
0.193726464794184,0.00598946681566631,1
0.230853442951614,0.00839405183541836,1
0.236594871230898,0.0153939627696753,1
0.189322035506533,0.016717447364548,1
0.364237758875447,0.0425991508663449,1
0.408622621779708,0.0197987424388089,1
0.395051276297494,0.0116379220958209,1
0.770754905132899,0.016993601412299,1
1,0.0205536148587252,1
0.85866793855979,0.0168026018157204,1
0.669394215295759,0.0115480841608617,1
0.667106116235362,0.0111927216697882,1
0.615064861847451,0.00841012173939377,1
0.585407755718517,0.00602219251621924,1
0.660422517064381,0.00697255171409633,1
0.655118834333424,0.00651271410644039,1
0.605359827117154,0.00795076489220721,1
0.505003721528891,0.0099262729487583,1
0.417713538745533,0.00699317466622385,1
0.416400840770273,0.0072154579602287,1
0.391810596556213,0.00846731209711113,1
0.33529013633832,0.00647774550955144,1
0.340419100283762,0.00875309508573483,1
0.349602844966231,0.00835716192442391,1
0.430610781983855,0.0117790377702916,1
0.539245573329613,0.0279631713927097,1
0.438423271362248,0.0238083526338871,1
0.449145852476781,0.0227010396412219,1
0.422446223878786,0.0250229548653847,1
0.437371605727913,0.0236220444243847,1
0.449356367257513,0.0207542175013324,1
0.356318535327223,0.0212301709948344,1
0.243640442078381,0.0131532301635518,1
0.201044914500864,0.018444695728777,1
0.17137521415332,0.0184930494039401,1
0.144368467554218,0.0125678545576611,1
0.1654622507269,0.00892290085786103,1
0.215928701435551,0.00457463158855043,1
0.416784908467049,0.0126820511750746,1
0.506698423327797,0.0173507046197986,1
0.574836871677754,0.0197408642909202,1
0.692466374153748,0.0234465068186981,1
0.677587034329628,0.0234055799510981,1
0.674248827472878,0.0238583833123299,1
0.581006836452404,0.0218584013276819,1
0.509830812803574,0.0196675105801841,1
0.141019366888376,0.00405835514486872,1
0.0219207403436525,0.0345432090885336,1
0.0173636295651049,0.0266165295394662,1
0.00730722036731278,0.0104672677688147,1
0.00537264191705896,0.00727356737114101,1
0.00608172630406636,0.00736110685340033,1
0.00636601401863589,0.00674780954471656,1
0.00671768418229339,0.00903827181234688,1
0.0090844869074655,0.0131724646829938,1
0.00954709121833258,0.0131355993816102,1
0.00986172702006204,0.013249388520551,1
0.00989400666184285,0.0101672959915096,1
0.017429681644539,0.015160585979044,1
0.0167794034480348,0.0134693879562946,1
0.0248246409013628,0.00171839450288904,1
0.10622089591785,0.0162405645600138,1
0.110428881971469,0.0150716701833667,1
0.122194355753212,0.0144605658550742,1
0.195738209342064,0.0188914908102935,1
0.189945393024304,0.010239410996772,1
0.181463461471121,0.00621139694300105,1
0.207164218706568,0.00663369639503093,1
0.198661093891137,0.00489625208443316,1
0.187416272544349,0.00347406195327729,1
0.162055806349472,0.00331790038685814,1
0.167556926478589,0.00434118489826153,1
0.160043333645345,0.00379474584197425,1
0.15272085547681,0.00385083209072642,1
0.143455927931075,0.00309757929485594,1
0.145041467861793,0.00484776113601411,1
0.106259997726465,0.00396630124266295,1
0.0897543613846903,0.00457239869119264,1
0.076719044175106,0.00544377321932824,1
0.0852688987190718,0.0100391362887434,1
0.0876071926136174,0.00832774225092608,1
0.0974485688356286,0.00857411481530385,1
0.098010878552349,0.00838301336237487,1
0.152502731293916,0.011931695387855,1
0.190088593697769,0.0189268421104437,1
0.169855689575944,0.022938882947429,1
0.280080330711293,0.0256786934922525,1
0.478071863025475,0.0311751150637753,1
0.503351936469187,0.0296527171611107,1
0.726834988033639,0.032498858356078,1
0.756786875037781,0.0282615653862113,1
0.518626436443117,0.0202416527750277,1
0.345310341585701,0.0144323049244506,1
0.288763889828414,0.0127609499251963,1
0.238693841463791,0.00985521266776892,1
0.173877073008693,0.00490540113239952,1
0.150327721768563,0.00525855360929221,1
0.204517300025322,0.00846019138059815,1
0.193963321873163,0.00790891206736379,1
0.179193736725826,0.0100874027298009,1
0.142287048000812,0.00842573596959756,1
0.151377279587281,0.0069616703022361,1
0.19789176480853,0.0100494047657026,1
0.215062092110628,0.0110087355126584,1
0.182488767039366,0.00948313595400363,1
0.181874969015093,0.0110144411338877,1
0.150195584786007,0.00862491412501775,1
0.1553377554076,0.00827402394893502,1
0.180933608958759,0.0121738845334008,1
0.196664381375628,0.0159930137755884,1
0.143398413705254,0.0132565490772776,1
0.204897772340575,0.0221494792639311,1
0.237869201082413,0.0198322432533416,1
0.228946965849353,0.0167383337462639,1
0.237991646625811,0.0179630504746265,1
0.236019935178025,0.0159511778582042,1
0.17535596383091,0.0139239108091956,1
0.166063892459479,0.0165999294559067,1
0.22292905138012,0.0129363612983181,1
0.23543198686099,0.00597570882777013,1
0.307927692012947,0.00933811312287628,1
0.390919736906624,0.011202270694289,1
0.39121924605396,0.0112976319292787,1
0.359632943743178,0.0113351094376204,1
0.308256303637655,0.0095072062079644,1
0.308831207136472,0.00937214484113834,1
0.318407830398637,0.00832867926551508,1
0.319191665981889,0.00854525509141328,1
0.246285020084452,0.0051771602399764,1
0.32159717092726,0.012163158308773,1
0.427250014773088,0.0171626280296191,1
0.474609066541194,0.0198326123335554,1
0.470515884882013,0.0241192382159216,1
0.463025811038949,0.0242777521427395,1
0.458713411142371,0.0239930734275758,1
0.288220778881136,0.0194863448748595,1
0.199735925703666,0.0164171712059054,1
0.0699719787117535,0.00271676528072351,1
0.0169158716928897,0.00979089492803923,1
0.0234101199489712,0.00926506451043144,1
0.0183323879158531,0.00677806796836861,1
0.0202156357074699,0.00874346680944799,1
0.0221143124860487,0.0100460569775053,1
0.0298388064498025,0.0115092263851507,1
0.0406131891245415,0.0155983588613692,1
0.0423858471261543,0.0166900827562535,1
0.0637911505636327,0.0199856707118702,1
0.052793250713645,0.0122298430607247,1
0.0537372202869762,0.015024409523107,1
0.0623551901522588,0.021391310112175,1
0.0477899199918813,0.0152959702961189,1
0.0698322003412656,0.0167789160921831,1
0.056725276118169,0.00953256882495406,1
0.051276726742664,0.00923809031505579,1
0.0586615529348722,0.00906007612237854,1
0.0514940028901413,0.00642608982943276,1
0.0572963016531877,0.00856606124252019,1
0.0574454546314724,0.00961842403898697,1
0.058683115922181,0.0106212128532783,1
0.0578855891188249,0.00971371124686968,1
0.0734078533133199,0.0141551969320826,1
0.0807194919881151,0.0196645612496776,1
0.103101578671917,0.0342604580855272,1
0.175487772493733,0.0404851795661509,1
0.28808402597536,0.0635165895234416,1
0.351596188811843,0.0686322294182612,1
0.29188913748914,0.0517522124556445,1
0.217215311240732,0.0443040589762535,1
0.185505909212156,0.0314833773331345,1
0.184399213522997,0.0204678381739984,1
0.169403918649971,0.00968809202865763,1
0.162118508486012,0.0070366045566886,1
0.154357108743316,0.00667648227072718,1
0.180934462420048,0.00950808718539996,1
0.271850636628076,0.0136030795083867,1
0.413911992091288,0.0214510092696438,1
0.409370477694448,0.0178777405686046,1
0.359919328242102,0.0160328824026709,1
0.289929369885692,0.0122707859554718,1
0.367245584504891,0.015308741204704,1
0.330541589483239,0.0146049631401206,1
0.248642312401511,0.012486410223891,1
0.239673718104475,0.0119747108456878,1
0.239842361816118,0.0127294234798819,1
0.217861587869979,0.0132476038519187,1
0.17086824529305,0.00885836761393121,1
0.173253755290864,0.00838142187719678,1
0.182678300882795,0.00829909496262709,1
0.206490423861607,0.0116511917387117,1
0.187099700927957,0.0130939155006064,1
0.154844481402547,0.0166821805551308,1
0.194787077363365,0.0158932731972038,1
0.202907023355649,0.011579161658838,1
0.205457232010981,0.0112541380438346,1
0.235557258682383,0.00858235644392326,1
0.251048799148909,0.0105707800362497,1
0.248215692597549,0.0131060963157723,1
0.273124803270222,0.0148461014657551,1
0.300553226625654,0.0172746083301795,1
0.308698337998131,0.0203921449780634,1
0.299302422152393,0.0196204193688186,1
0.169106624192371,0.0148837007666677,1
0.114068551577956,0.013584548088444,1
0.0744743791749753,0.0056687414384843,1
0.128690767305156,0.0331117551070277,1
0.146463878256548,0.0212092446205814,1
0.136685051379746,0.021388128553441,1
0.129964725284855,0.019296143071249,1
0.112508736876117,0.0151405494160696,1
0.126055629126638,0.0153353586982258,1
0.13852454220717,0.0157289695214413,1
0.108562762975278,0.0130617932931703,1
0.0918505040099199,0.00997160622158452,1
0.099717759700912,0.00933436330656699,1
0.0875238727779912,0.00596036324953701,1
0.0808725096068317,0.00786053466514132,1
0.0775684119814411,0.00790144148634749,1
0.0981047726574517,0.0101142260520641,1
0.0944586239788416,0.00890193510422231,1
0.0962506893358091,0.00935266371907989,1
0.0820476066628999,0.00773078495198821,1
0.100122297746997,0.0104685644833639,1
0.0931799587901247,0.0126258515589846,1
0.1224740872151,0.0230033670755766,1
0.220086926800539,0.0417694647340053,1
0.28928681133329,0.0468143902959165,1
0.309145363296538,0.04902231738219,1
0.324216087843575,0.0537614618822925,1
0.239564160422949,0.0624517654822688,1
0.208517106700585,0.0663769159017469,1
0.151275219086571,0.0516662743465841,1
0.103998144434507,0.0390077838394595,1
0.055557342517909,0.0210027533044471,1
0.0193348969949189,0.00828118820998056,1
0.0148041358641903,0.0166855804013345,1
0.0144772140809332,0.0180337748790177,1
0.0138736398242769,0.0154586131328451,1
0.0193460241265296,0.0174564128705106,1
0.0226785820331484,0.028450006008512,1
0.0234102252617063,0.0268763419440347,1
0.0225216584557416,0.0309563839656044,1
0.0187049585038804,0.0234441269224572,1
0.0176851291985631,0.0177410342933111,1
0.0199365629440335,0.017700407901199,1
0.0166881169832736,0.0104263471377412,1
0.0175589032063132,0.00658798651432389,1
0.0223458542804532,0.00682649302630745,1
0.0207912195698373,0.00798141938518623,1
0.0213151518862621,0.0082067955877211,1
0.0233280326523111,0.00588331462590509,1
0.034553511306917,0.00975723951856207,1
0.0347888833178292,0.00905137683177546,1
0.031847749645178,0.00788578029339486,1
0.0433259298099864,0.0111868372237042,1
0.0640719611224821,0.0202903096576806,1
0.0886563212097039,0.0329463352490254,1
0.113552815134302,0.0419762941968227,1
0.144059047565882,0.0344039571585054,1
0.110271786035705,0.0255979579811065,1
0.0870596495294632,0.0236560762221404,1
0.0844178454155865,0.02067564066309,1
0.0664666263283557,0.0139195572341444,1
0.0456518170438335,0.00581347328897882,1
0.0437619350376771,0.00555062307196406,1
0.0506550054487118,0.00553621015041041,1
0.0670606276012656,0.00242792543381537,1
0.11065447079306,0.0050793396491669,1
0.100843739198843,0.00180152744282444,1
0.240459205561657,0.00717393611623303,1
0.248925095262613,0.00607744990416018,1
0.239820646749242,0.00582018785298148,1
0.234132673756407,0.00617949629853715,1
0.231474260481103,0.00610918463605876,1
0.255586304487551,0.0066273698616598,1
0.232046261719837,0.00607038135013692,1
0.164229694562471,0.00443506906956852,1
0.196843169691986,0.0049445763729065,1
0.409005370568755,0.0136595964960311,1
0.664216365848224,0.0207686745092634,1
0.699550002372267,0.0263235688375305,1
0.699691150964544,0.0251079547449282,1
0.591129130801591,0.0226443100003054,1
0.458836631878949,0.0176156486575758,1
0.461242663274947,0.018349297117319,1
0.488237640742432,0.0195780817442523,1
0.38909873555,0.0107935123111445,1
0.374099224922628,0.0140966603767794,1
0.322380990414059,0.0184699173407585,1
0.233731000836121,0.0153303573821204,1
0.226499115838176,0.0130690675187559,1
0.207847374670717,0.0109461568915265,1
0.205575599805618,0.00872383785730646,1
0.252677682582943,0.0116090749641035,1
0.264262357125774,0.00627265529929972,1
0.359333456094528,0.0054324790458445,1
0.562383735102306,0.0129064456676328,1
0.508339770485926,0.00892453109973827,1
0.478394390772555,0.00741156488218033,1
0.473279390657096,0.00800508812830325,1
0.475389201851722,0.00811282309833178,1
0.537549506030048,0.00971131632647335,1
0.536164227561086,0.00991071771210406,1
0.422843259930473,0.00770472202915021,1
0.282611621688292,0.0053696994367616,1
0.257098456848602,0.00877359721610498,1
0.198260164675395,0.00888677993004614,1
0.111218622772286,0.0110823054246903,1
0.0767908577015021,0.00927414189849006,1
0.0687335965933042,0.00698286031126088,1
0.106656885521644,0.00389805594265553,1
0.321810152353393,0.0119145039457051,1
0.335332520531626,0.0143495129393522,1
0.331838504790269,0.0105247663522684,1
0.372069511668433,0.0119547030496037,1
0.373876750448968,0.0106125063902812,1
0.406778587317526,0.0108944457700646,1
0.436791849136423,0.01176047077551,1
0.446378075446275,0.011538379202948,1
0.579473648316521,0.0139295964651719,1
0.636740411931954,0.0218336004972373,1
0.400871084158925,0.0193271582729562,1
0.378641616570844,0.0174487485993277,1
0.334942372760621,0.023204202681586,1
0.351404135768225,0.02622307951438,1
0.219378369377441,0.0233719928425488,1
0.187464380838278,0.0243503274755743,1
0.143108406852504,0.018213459140223,1
0.0345184936667331,0.00275257371297594,1
0.0244492311969373,0.00953784536006411,1
0.018699471193307,0.00729505979755279,1
0.0170247033359003,0.0127265418742999,1
0.0178210162858648,0.0118781509821659,1
0.0189004489842602,0.00922490407052793,1
0.017992991807433,0.0118451214246052,1
0.016726890008726,0.0123412636092484,1
0.0129379815593463,0.0110541371010184,1
0.0104425101106606,0.00834014801300784,1
0.0104352016446921,0.00763386634341379,1
0.0142298703878431,0.00526136892353494,1
0.03137704984226,0.0138805909176771,1
0.0851848517385512,0.00608853122133554,1
0.245617743401899,0.0145880649229294,1
0.24593246397988,0.0126978317455381,1
0.238233627763573,0.0121818613207793,1
0.228628704459385,0.0106835631095439,1
0.253901570650853,0.0110481297880066,1
0.246947226171379,0.0103805426167165,1
0.227078416601261,0.00912936820741829,1
0.2001097670636,0.00790813697130837,1
0.217329866137787,0.00784416370748158,1
0.208106323372539,0.0132674915340372,1
0.15074336981996,0.0130119209043738,1
0.1295569825106,0.0149088028255554,1
0.0809665110417584,0.00916288210018576,1
0.0482180242094918,0.00217785870823838,1
0.0627988239046675,0.00534411725496924,1
0.0646620151249968,0.00517614080819498,1
0.0653738061996533,0.00490176110128964,1
0.0667526501376922,0.00546323825991106,1
0.0629354554820034,0.00664539242787599,1
0.0892222850197945,0.00878550233220744,1
0.101456204641872,0.00767190312514716,1
0.101354930706156,0.00812422770785301,1
0.0994240438311293,0.00752158584022918,1
0.0939041100175119,0.0107193225877313,1
0.100199820162056,0.00884930908623199,1
0.135292415119524,0.00869791129031708,1
0.143648934008509,0.0053225971597029,1
0.342354885715309,0.0127428518151728,1
0.366553795958377,0.0123826246847997,1
0.594023961782263,0.0193830309038422,1
0.745969598399767,0.0254716158275786,1
0.816349526179348,0.0264904329919407,1
0.688176630464573,0.0186361955681949,1
0.534797642403599,0.0130815401652097,1
0.470509720798532,0.0122154965090579,1
0.398261042959095,0.0118121934009776,1
0.167124104051827,0.0048151085518672,1
0.165738949609496,0.00839295143345359,1
0.147102822146181,0.00562140576169942,1
0.252399103365228,0.0149263920887497,1
0.29539716144065,0.0167584365896497,1
0.315879779649919,0.0165908937736611,1
0.49715809034806,0.0281842895994234,1
0.757334974769916,0.0616542141738482,1
0.886046039229041,0.0755374638511688,1
0.85258667283709,0.0492180874108728,1
0.67590528304336,0.0443618763874947,1
0.415078193755008,0.0223075352280419,1
0.274398636738094,0.0181331308620083,1
0.265375540599532,0.0123984173236038,1
0.210972931416742,0.00765858592441438,1
0.178329280309389,0.0071101163658708,1
0.195176379681285,0.0109793966057202,1
0.171861824834136,0.00983494453382358,1
0.139776526822597,0.00696989328948353,1
0.145314208728044,0.00827400753140684,1
0.145603593289887,0.00842271526364823,1
0.170234761067139,0.0116901900197028,1
0.187174377791969,0.0163281842016696,1
0.140306902415423,0.0177107694272283,1
0.100769743433081,0.0178479859262438,1
0.165593653817448,0.0246221123946785,1
0.200559666944812,0.025569379692573,1
0.209474171213916,0.025103775179926,1
0.20982749709633,0.0234939801731975,1
0.216765731250218,0.0237883763622286,1
0.217423892756132,0.0242249318282584,1
0.207555857429558,0.0254904411659107,1
0.175309044511226,0.0202004573486639,1
0.155900333783814,0.0186368717296099,1
0.157878818729902,0.0161350603922643,1
0.141416770982968,0.0172114245843238,1
0.138291583499509,0.0159218467307224,1
0.165396739433047,0.0195532834106797,1
0.150967730243726,0.0236602885064408,1
0.151591353014549,0.00924038847937804,1
0.243649762610498,0.0144787198375555,1
0.233571987111701,0.0155789883562141,1
0.2486850153136,0.0158471170496665,1
0.238480948504727,0.0130552619523201,1
0.248876681873795,0.0142909233913311,1
0.255028897282184,0.0133897178066072,1
0.242764086446344,0.0123923284247785,1
0.192328599158934,0.0100964354676568,1
0.153861030304889,0.00622571810355548,1
0.126978879738476,0.00628198967036803,1
0.153025598434991,0.00562050962595432,1
0.159204463667649,0.00442055907583902,1
0.186047298195758,0.00589167444217348,1
0.182957659683398,0.00684029304700733,1
0.150013789558036,0.00492649496793257,1
0.171486649682658,0.00641275303422432,1
0.181539951752892,0.00709401336497979,1
0.204366749436091,0.00731241363353356,1
0.199177172827042,0.00768555133813945,1
0.254688508836906,0.0125341681070394,1
0.243932127673444,0.016170320116213,1
0.251626471264079,0.0215930637655527,1
0.205546690647429,0.0201998707686582,1
0.225160073453255,0.0210010948859761,1
0.179237706377985,0.0160925241784539,1
0.213285034176516,0.0207027005218895,1
0.222267797549243,0.0216595269865785,1
0.263088191026017,0.0308609226233235,1
0.155553502650784,0.0237072824411361,1
0.138297503612357,0.0308055392501023,1
0.126989389368419,0.0371365756789173,1
0.056640501790296,0.0264884374210501,1
0.0335331965822795,0.0202278463141447,1
0.0265892251396868,0.0167682628380531,1
0.0106755011195979,0.00903002656865434,1
0.0139660886247412,0.00676790544928858,1
0.0416653621417162,0.0235509151043403,1
0.0393062677045157,0.0101751158393394,1
0.039739844627646,0.0101509899735088,1
0.0370660509791437,0.0105942254341933,1
0.048875111774918,0.011507682715934,1
0.0511568073324071,0.00794439203869477,1
0.0479523664909144,0.00619258642977395,1
0.058433845228953,0.00838478847269982,1
0.0696528373291542,0.0107851530797034,1
0.0743509249401015,0.0130753329793275,1
0.0679979488968417,0.0122587813582986,1
0.0640484999706541,0.0159209075566683,1
0.0564571379912684,0.0129427355688639,1
0.0407263096211288,0.00822920799402772,1
0.111951636295425,0.00171980623690372,1
0.383562033115856,0.0243978306088928,1
0.439903104200828,0.0181518672595045,1
0.426632301797953,0.0184721482698963,1
0.430914035147689,0.0181835454245392,1
0.436800049121547,0.0170176465515778,1
0.401933882120431,0.00984106693529681,1
0.457270626484346,0.0102213700236152,1
0.419577272699017,0.00948274776823419,1
0.333211533496832,0.00712262143733879,1
0.30820830998029,0.010270939637201,1
0.312570594238707,0.0100030310623691,1
0.303454046206341,0.00940596508134941,1
0.295495600216206,0.0095066722789075,1
0.347888781020228,0.0078922813461113,1
0.393254733925176,0.00956613139178798,1
0.382884922206342,0.0151719017305985,1
0.267116761159781,0.0117421485056415,1
0.252512479816317,0.00740598096057244,1
0.246163573366628,0.00659411685733288,1
0.226614305393155,0.00654157842764287,1
0.224519106675689,0.00625546166770137,1
0.228335649759912,0.00805225878704252,1
0.186595004990393,0.00286176537156373,1
0.199056598475625,0.00920788902173515,1
0.165207836060291,0.00751124800914212,1
0.164461485141091,0.0106596128660835,1
0.137703989844902,0.00826690700738832,1
0.119569825499457,0.0114256470191828,1
0.118254935474869,0.0116919796938401,1
0.11871605142966,0.00891857392252724,1
0.127398674760971,0.0104078008115598,1
0.111621202832816,0.00746412071809231,1
0.112695183653809,0.0101072971222549,1
0.0912138103679443,0.00873208301224796,1
0.100905932577467,0.00749206622978175,1
0.10768432525335,0.00957854947690063,1
0.127092436988893,0.0116890543448395,1
0.156321982914357,0.0151276479596612,1
0.15803774124108,0.0154341372186202,0
0.176676827287558,0.0287777049883758,0
0.116149967244404,0.0176610354159576,0
0.107035242692773,0.0188134296888921,0
0.112774328971193,0.0256359580766045,0
0.0595771738931426,0.0156326083941335,0
0.0420338483705573,0.0146671613763874,0
0.0299519474571279,0.00788533385652675,0
0.0300595688830309,0.00941763960051369,0
0.0297750078940987,0.0118765855024811,0
0.0231126671688447,0.00997884678763207,0
0.025540387596573,0.0130609646847422,0
0.0160301728972217,0.013804372788615,0
0.0109920035117803,0.0152068746965791,0
0.0146183085439328,0.0163928379084563,0
0.0139185909552316,0.0151265702164772,0
0.0130338742752245,0.0112925398317147,0
0.0164193184991717,0.0166345837447135,0
0.014056456778031,0.0121116044424767,0
0.0163104047245016,0.0134909808025472,0
0.0179932521460248,0.0170744155840039,0
0.0197874885079356,0.0193563990771515,0
0.0211581895511623,0.020241939378455,0
0.021600683051692,0.0286311058577015,0
0.0183578426591397,0.0299079191521405,0
0.018993998650004,0.0324201787464919,0
0.0175175246458472,0.0478066791420209,0
0.00355234060218849,0.0316828191550308,0
0.00112226603571967,0.0870831372271198,0
0.00105346484376438,0.0695820203165783,0
0.00106812864528442,0.060626281995388,0
0.00110252319572949,0.0608304007403626,0
0.000853799880250815,0.0644524518532426,0
0.000402330739391282,0.0519098042509171,0
0.000406172175576071,0.0515675747752082,0
0.000410494925048058,0.0421261164228147,0
0.000499820259954684,0.0421951881774425,0
0.000470847442690099,0.0363388939991617,0
0.000621752088380107,0.0342080174575458,0
0.000620974009765401,0.0277808311790317,0
0.000776542681730443,0.0388378455791105,0
0.000990137569033439,0.0476117628537148,0
0.00119174149501962,0.0543473975958842,0
0.00136482632517982,0.0637237256112305,0
0.00147378466890306,0.0722712825940484,0
0.00154000374425236,0.093821069931143,0
0.00129063635386657,0.0946484829239653,0
0.00124372639616199,0.108844501077816,0
0.000474579213412514,0.128045908050262,0
7.76384608707229e-05,0.422406925812338,0
9.97189340183765e-05,0.763363685267868,0
9.91741505385084e-05,0.515600021914727,0
0.00010374736287095,0.523528472816608,0
0.000105281543941703,0.50562744342511,0
0.000107210940806349,0.281325315289899,0
0.000215018285765205,0.347288261975977,0
0.000410893045000692,0.46432907264279,0
0.000641075270644659,0.57509130037097,0
0.000796822851005814,0.389169064185893,0
0.000798857372425055,0.271164440414662,0
0.00089914921892891,0.28537081996912,0
0.000961017844590005,0.301460465050043,0
0.000964975538874116,0.284020032550025,0
0.000965301827006823,0.275620205756996,0
0.0010392643241417,0.364537630648807,0
0.00105151408981747,0.415576292943019,0
0.00087564630788219,0.412076311998296,0
0.000507679026789678,0.360844602088884,0
8.398091207957e-05,0.221441647107128,0
4.72355544377912e-06,0.213530219151691,0
1.14599023743656e-05,0.399528477395266,0
2.96567693513772e-05,0.543859112067088,0
2.94695484796293e-05,0.451820626868191,0
2.7828673279128e-05,0.437323215545761,0
2.57253416944834e-05,0.414858396151168,0
2.306618179222e-05,0.387855857735231,0
2.13815085168748e-05,0.378268626301898,0
2.16880646135865e-05,0.393481270988409,0
2.02629823572142e-05,0.389154617866016,0
1.99967425280103e-05,0.385699911442624,0
1.98028510788842e-05,0.507811352770261,0
6.4872972963138e-06,0.320405053045199,0
4.3575394587057e-06,0.301859653844695,0
4.39923875925652e-06,0.308951202089393,0
4.39081393705555e-06,0.321828639724577,0
2.70089594950367e-06,0.269815176213418,0
3.30019466448113e-06,0.303142734953786,0
4.99651453387331e-06,0.363665120577939,0
9.01710393666816e-06,0.500976177493024,0
1.14812273910499e-05,0.611843693613699,0
1.02797054395392e-05,0.545407049386244,0
7.20542005937805e-06,0.470898694706985,0
8.11374204847571e-06,0.446643299327435,0
8.61306636270509e-06,0.402549928860602,0
7.17682996473512e-06,0.372996727651112,0
5.30043423116081e-06,0.298005246762146,0
1.27651784864167e-05,0.351090226840403,0
0.000156654498252229,0.210281357432782,0
0.00108766288695777,0.169765405914312,0
0.0101011483897581,0.0452972324636633,0
0.0385679577050217,0.0839305337014557,0
0.0492920534986658,0.0281904962295497,0
0.0475195950573226,0.0243499029676938,0
0.0465998889426734,0.0236515935739137,0
0.0440562144668595,0.0229735020084986,0
0.0424719396876774,0.0214421725756738,0
0.0409594096680262,0.0214215349310924,0
0.0406723103327103,0.0212486663418913,0
0.041317425262183,0.0219588527254959,0
0.039197746360849,0.0347068002837104,0
0.0169956429229541,0.024581661322684,0
0.00144635757655298,0.0232318288832153,0
0.00135649124752255,0.0535287003472084,0
0.0015812658631197,0.0666756066620516,0
0.00125951471355207,0.0863802920825923,0
0.00125566043989962,0.114621850128611,0
0.00118765945064068,0.12020068378436,0
0.00112088640771377,0.124799649089418,0
0.000700461356674535,0.221522534359226,0
5.0378869761326e-05,0.200596751146482,0
9.26149516737735e-06,0.408949257929083,0
6.23259358703328e-06,0.357465578476049,0
6.19078193991609e-06,0.353310785175161,0
7.25192053725374e-06,0.378127133822531,0
7.63703520455462e-06,0.437587783812733,0
3.0514076403074e-06,0.313082652615938,0
2.94199144687733e-06,0.331930499770071,0
3.03437800734389e-06,0.318228063107754,0
3.89944633433394e-06,0.351403150363226,0
3.5664885604701e-06,0.327368756088453,0
3.43806637072982e-06,0.352437231086007,0
2.60630575794884e-06,0.294727316763278,0
2.3728980424897e-06,0.294640921097854,0
2.24362201884501e-06,0.288140336074143,0
1.91596208775154e-06,0.27406266137868,0
1.97577165480113e-06,0.270007930699798,0
1.84407526481722e-06,0.258997864185891,0
1.63156237231539e-06,0.25691390199992,0
7.75856025134121e-07,0.199895141617977,0
6.0671007752766e-07,0.187239877384102,0
5.52003619200056e-07,0.175343017472958,0
5.739673729253e-07,0.184241555438282,0
6.21360069782247e-07,0.190766469287176,0
6.24122859093551e-07,0.191655122218936,0
6.21501439211596e-07,0.183320999951371,0
1.05954982964492e-06,0.236058625381493,0
1.38180472061928e-06,0.274857640126206,0
1.35623651455635e-06,0.261548699048423,0
1.65067814058316e-06,0.283159431462782,0
1.72477257354664e-06,0.291951490472988,0
1.69752853120203e-06,0.291771230966282,0
1.68337684278036e-06,0.290535925491376,0
1.48350481143787e-06,0.269347155470551,0
1.39611603478733e-06,0.264279169601448,0
1.55571720535932e-06,0.266779571564322,0
1.26431829883834e-06,0.235965682998137,0
8.93258186990281e-07,0.206260210843329,0
8.67959612686636e-07,0.204871723704194,0
6.25432632813141e-07,0.173205925035505,0
6.85164493487663e-07,0.180448954823459,0
7.17098068756815e-07,0.183085127871887,0
8.4369111596339e-07,0.195701068094262,0
1.13468276618127e-06,0.233170627874518,0
1.20052417356818e-06,0.223356106387987,0
1.29195672444198e-06,0.238310635402879,0
1.10144573668689e-06,0.230683027645061,0
1.15100742444081e-06,0.226922366199658,0
1.87011649673564e-06,0.273971984827628,0
3.34593469653572e-06,0.364843930088481,0
3.23527964815608e-06,0.338126203399859,0
3.3951406201628e-06,0.349619428952625,0
3.18714101690951e-06,0.339129623599158,0
2.70908788663478e-06,0.303540810630477,0
2.8254206496123e-06,0.333002354775325,0
2.67738532399272e-06,0.341072379136785,0
2.62604130477441e-06,0.349034288341159,0
2.4467530368336e-06,0.341608457906581,0
2.04293734733911e-06,0.352718833805395,0
5.48893725809741e-07,0.190297339669964,0
5.38587566732761e-07,0.200998022975782,0
7.03729529524882e-07,0.212056402250549,0
7.02057672184095e-07,0.207283727760514,0
6.6814188218456e-07,0.208625997017168,0
6.54169714213736e-07,0.210919626161494,0
6.75708657484894e-07,0.199288170870803,0
7.1896934125291e-07,0.207734532924458,0
6.71987177473905e-07,0.206948843030659,0
6.66211627741126e-07,0.203866965810802,0
6.7802206053072e-07,0.205669789979323,0
4.90024125032105e-07,0.185381028837801,0
2.91378309650471e-07,0.159488334483519,0
2.07949983519804e-07,0.14271877721562,0
2.27440006286798e-07,0.142178627884134,0
2.00068637833634e-07,0.125901941836518,0
1.58706376981919e-07,0.115676163548378,0
1.55835220045137e-07,0.110633906424398,0
1.68274559551057e-07,0.112868163959826,0
1.78743387093925e-07,0.120058697580828,0
2.05485614775419e-07,0.127359365116506,0
2.48564905649816e-07,0.132849535202439,0
2.43121714509212e-07,0.129346508671952,0
2.16116642673483e-07,0.127214352840836,0
2.4974290620927e-07,0.135763026522971,0
3.17408306912252e-07,0.15856692352327,0
3.41415831924035e-07,0.172989653987701,0
3.46449894318776e-07,0.174162875534993,0
3.3559440734332e-07,0.169237022104379,0
2.84957703382454e-07,0.155131657927563,0
1.70406569703266e-07,0.123922308346573,0
2.30935856943663e-07,0.143003966349261,0
2.32899347246318e-07,0.135359040967273,0
3.59499650168637e-07,0.158211094447295,0
3.32507685432317e-07,0.154387441190381,0
3.21730606997973e-07,0.14564089286588,0
3.23946877074959e-07,0.137142509056484,0
3.4036258286432e-07,0.138429798561874,0
3.30317629554151e-07,0.139836564214926,0
3.87767918709984e-07,0.150814037824482,0
4.24192782025106e-07,0.153171683968613,0
4.41643012446453e-07,0.154441761730686,0
4.09593345725385e-07,0.161188115897717,0
3.39311206247378e-07,0.151427219659199,0
3.25889302396419e-07,0.152346624890813,0
3.51734864045076e-07,0.160400992284005,0
3.24720195940136e-07,0.160628532771532,0
3.15132118666536e-07,0.154350510755592,0
3.55676356081874e-07,0.16139010383484,0
2.95953857621218e-07,0.14905582882846,0
2.89654023912046e-07,0.160469950060563,0
2.69876347124077e-07,0.159898329904711,0
2.68965169659749e-07,0.155137742221518,0
2.70318945784503e-07,0.153342747964461,0
2.36946398244433e-07,0.146016328306666,0
2.20399855516321e-07,0.144433272971419,0
1.9027763457453e-07,0.13547885466223,0
1.84282306871289e-07,0.140181477386916,0
2.66702556624137e-07,0.161476739570123,0
2.59409392023982e-07,0.15496852634823,0
2.5231166363824e-07,0.145718289357877,0
2.4579673306554e-07,0.145012068749142,0
2.45497142221887e-07,0.142078196600499,0
2.32501453157092e-07,0.143459512457211,0
2.39781510657838e-07,0.141655455098721,0
1.69744427127725e-07,0.127567461929678,0
1.22074140629707e-07,0.114978835992134,0
1.13853882801656e-07,0.114004719445129,0
9.77089790483148e-08,0.106801458819116,0
1.26455422662772e-07,0.114819891278319,0
1.48539012725476e-07,0.122286246168764,0
1.60346636850914e-07,0.128039550975001,0
2.31340304582594e-07,0.154222354496539,0
3.01724726247065e-07,0.167131348535948,0
2.79209304069878e-07,0.167328957277582,0
2.77710647685578e-07,0.167009308880352,0
2.90284100905101e-07,0.174340404287681,0
2.70959321212809e-07,0.165100936717104,0
2.40749329516042e-07,0.156694685419205,0
2.37912578715212e-07,0.153531665001594,0
2.88075320599207e-07,0.164728836263631,0
4.12423542976511e-07,0.202450388083926,0
3.71711955988353e-07,0.190940890250046,0
2.16892536147472e-07,0.157431367675896,0
2.0870059901636e-07,0.149803801457083,0
3.80746258311888e-07,0.193081517174606,0
4.45314872723964e-07,0.201398119480083,0
4.79110592330692e-07,0.201319522658415,0
4.7384434703212e-07,0.198969081171133,0
4.7692989866639e-07,0.20227780363396,0
5.11425209704115e-07,0.201163564766719,0
7.22192049320288e-07,0.215490011643618,0
6.81838801067779e-07,0.208364417598123,0
7.06210516198876e-07,0.207752876793441,0
7.32887442438667e-07,0.21878578037411,0
5.15696953834969e-07,0.18597888890104,0
4.31101861801484e-07,0.170474585553725,0
5.1153849249187e-07,0.201390927140984,0
5.08759553361652e-07,0.205976144943752,0
4.96393941289911e-07,0.198306522597646,0
6.30127783066004e-07,0.2467298280321,0
3.62925518276868e-07,0.212747563981333,0
3.47188572992656e-07,0.216689956650392,0
2.98504826843845e-07,0.202611184137981,0
1.89463121968351e-07,0.162959189267549,0
1.29563911721009e-07,0.134795667354574,0
1.28744718007898e-07,0.13718402905326,0
1.45596702963327e-07,0.143832142021487,0
1.5973364589816e-07,0.162097583083018,0
1.39950117726525e-07,0.165981060350493,0
7.27238048537704e-08,0.126158280092878,0
5.5731386690379e-08,0.104043031223947,0
1.21781805501799e-07,0.134222677389002,0
1.4373268618298e-07,0.137761987098514,0
1.47932341267081e-07,0.144549525898439,0
1.36817520967588e-07,0.143074263246953,0
1.32148818968895e-07,0.141188110589366,0
1.47393077748507e-07,0.139004733603855,0
1.80708749839352e-07,0.138691969809416,0
2.02911240018131e-07,0.141163197631923,0
1.91605196500463e-07,0.135781896606518,0
1.75596981069538e-07,0.137052816737187,0
9.1229390832952e-08,0.104352734825222,0
1.02235375396274e-07,0.112957686851994,0
1.20247572704815e-07,0.121898178330935,0
1.19475190061025e-07,0.121604631094277,0
1.15730304515374e-07,0.124442361932946,0
8.51224187293814e-08,0.113790049828855,0
1.53712572106793e-07,0.14448823487244,0
1.602511422695e-07,0.14383183192758,0
1.54022695441042e-07,0.142702923007338,0
1.5078781649564e-07,0.151678128070258,0
1.76903009903584e-07,0.165545618674198,0
1.74107218788409e-07,0.159174821898417,0
1.21371740534551e-07,0.139657296050418,0
1.08532634496633e-07,0.128639673674276,0
1.70874680396472e-07,0.140150413257162,0
1.75068015986215e-07,0.136812935358114,0
1.83896583660087e-07,0.144230984585246,0
1.56755291612635e-07,0.130784720150753,0
2.10326113398519e-07,0.145548629798432,0
3.74263159266326e-07,0.171852797308161,0
7.18564191447938e-07,0.214030865544613,0
6.7758110025772e-07,0.207793606180201,0
6.86839393547955e-07,0.200899652694552,0
7.50906895462953e-07,0.217437046023535,0
6.80200413641558e-07,0.212834861828628,0
7.191249880584e-07,0.214617361785775,0
7.1862130095251e-07,0.202697503042546,0
7.22236753891489e-07,0.210201488817538,0
7.82080024910993e-07,0.218428225138389,0
7.9272673451728e-07,0.228719234566352,0
6.22737017386313e-07,0.190806003875837,0
9.13076121297867e-07,0.219854054186892,0
9.39746493987954e-07,0.224041044911187,0
8.82481576666631e-07,0.206581530872239,0
9.27356540160167e-07,0.208295533764428,0
9.09334278471721e-07,0.209491107172123,0
8.9220400170918e-07,0.214636376285182,0
8.32469332370501e-07,0.200000984815465,0
1.75417109535674e-06,0.266079135294829,0
1.84341920768069e-06,0.241672526543445,0
2.14763006981938e-06,0.277371471323396,0
2.15587092451793e-06,0.28369036645448,0
2.08218374785754e-06,0.279485081671523,0
2.01014970411021e-06,0.277161301823732,0
1.98438793427564e-06,0.286410727339023,0
2.00248322123221e-06,0.284797021508707,0
2.12820722093685e-06,0.296913295621335,0
2.39825091763376e-06,0.329382819433001,0
1.67718373830924e-06,0.300039361404299,0
2.30818290943065e-06,0.41217412161523,0
1.86676927122386e-06,0.322487231121266,0
1.78936365727199e-06,0.318359276567728,0
1.73222864066803e-06,0.289090155585944,0
1.65260301175363e-06,0.262951334867541,0
1.48862009103789e-06,0.238101711276837,0
1.59760492046416e-06,0.240756077280073,0
1.62459618303443e-06,0.234298120201926,0
1.96292037788519e-06,0.249408102040991,0
2.63534266424843e-06,0.291654054865296,0
1.91342235318554e-06,0.258679653630995,0
1.83904705380614e-06,0.268538796698168,0
1.90514428368688e-06,0.275265039008425,0
1.47608221423105e-06,0.263566754355556,0
7.7084185744384e-07,0.202958298874732,0
1.5684516886573e-06,0.245394136756696,0
5.93528576604303e-05,0.19473553791203,0
0.000276295577146657,0.296523568098294,0
0.000309631832298737,0.24220284922605,0
0.000295844046342362,0.233337179140708,0
0.000283175810069678,0.235535906672234,0
0.000272385499082259,0.235901449240999,0
0.000253246588592087,0.235680800097225,0
0.000237479809677176,0.233652419829606,0
0.000230929462551594,0.231283801804524,0
0.000223923292170392,0.222184650837358,0
0.000209689081450839,0.41053837647071,0
5.93960642774133e-05,0.345060886846118,0
1.4714149633755e-05,0.265507898096509,0
1.08256308754433e-05,0.257780317539817,0
1.35930263959685e-05,0.271818427622888,0
1.46517504783506e-05,0.250520683214075,0
1.50350507486046e-05,0.265573339530069,0
1.61062284478688e-05,0.287548913090808,0
1.82498657675305e-05,0.308170823207952,0
1.77874398105824e-05,0.344391507630589,0
1.53272548055179e-05,0.381536005219258,0
1.53385830842935e-05,0.395118510164287,0
1.55451322465639e-05,0.411591226496602,0
1.53638435075757e-05,0.423119354847329,0
4.78989398472221e-06,0.277146596542033,0
1.29265514559624e-06,0.244861058395316,0
1.70267587638453e-06,0.27445145305126,0
2.22755084252585e-06,0.296135747514139,0
2.31366518781414e-06,0.288864573646919,0
2.93817540850631e-06,0.30695526436119,0
2.95661335249033e-06,0.301660463611509,0
2.92032283694415e-06,0.311802855537735,0
2.58194808613854e-06,0.282525837819728,0
1.79908444392711e-06,0.229445209107158,0
1.00721879902999e-06,0.166741119276416,0
1.27828040242926e-06,0.190297761312696,0
1.81961765137392e-06,0.229613345741338,0
2.32291435294585e-06,0.27141560783687,0
2.31114487984191e-06,0.291382761890706,0
2.15173563465414e-06,0.290969089799563,0
2.14017400269798e-06,0.296004852918229,0
2.0786829820384e-06,0.299972906683419,0
1.58851865785367e-06,0.269677058732836,0
1.19584306663611e-06,0.228119935507837,0
1.34008318481053e-06,0.249016497591093,0
1.38804182749556e-06,0.25127989736132,0
1.29823010989699e-06,0.250779438745458,0
1.19475822010461e-06,0.238404425891413,0
1.39593230134025e-06,0.266537115591853,0
1.42284866619962e-06,0.251959686501337,0
1.79831674239026e-06,0.272574043220209,0
1.80177678257909e-06,0.269213676815978,0
1.71712364481965e-06,0.266352700242716,0
1.83334733800566e-06,0.292510533820206,0
1.40477959344185e-06,0.268368459622323,0
1.37066017529077e-06,0.275886572802199,0
1.42393093812231e-06,0.283753360939601,0
1.39757841259291e-06,0.278605361423943,0
1.26893691299286e-06,0.265257808288167,0
1.0699212901636e-06,0.291421360586336,0
4.03642722593345e-07,0.201257349315148,0
3.23331545568739e-07,0.184671457960738,0
2.1323869813165e-07,0.153610042852078,0
2.18148945248038e-07,0.147585415155533,0
2.81974902045342e-07,0.164412624453432,0
2.79751610307958e-07,0.155759770469581,0
2.91617982325393e-07,0.148966758001556,0
2.95648649449247e-07,0.151572565162882,0
2.9069486803839e-07,0.146902728982527,0
4.20810916322036e-07,0.162745764068143,0
4.69197880291353e-07,0.163549832167462,0
5.01711678764735e-07,0.160129719819206,0
4.91843203185906e-07,0.158588366449732,0
6.27908704324858e-07,0.178578753914294,0
7.74120504739058e-07,0.187332470300523,0
1.10499214329862e-06,0.224901275264669,0
1.97682958496778e-06,0.303408263106292,0
2.64554092381062e-06,0.356235828789903,0
2.60160382009092e-06,0.345572892286547,0
2.83144617045526e-06,0.35850776858443,0
2.70442527007509e-06,0.348309584115752,0
2.5970575290385e-06,0.338064651302744,0
2.6001994880113e-06,0.343446715145504,0
1.67670626540217e-06,0.280611966239794,0
1.00221680221773e-06,0.223848240876335,0
1.24160182311842e-06,0.245148013123039,0
1.00961763227733e-06,0.228729734150919,0
1.32438813543336e-06,0.235353570863426,0
1.67114394009015e-06,0.260936181173491,0
1.70397909655441e-06,0.257553975189143,0
2.05266936865088e-06,0.291182583277165,0
2.3620247673079e-06,0.319969662509254,0
2.7501222359459e-06,0.341780039488208,0
3.14213123753633e-06,0.370708032875908,0
3.13623866013025e-06,0.372685528912767,0
3.11916010959931e-06,0.382156460065335,0
3.26646705498026e-06,0.368532308229462,0
2.48729118880993e-06,0.34003644174282,0
2.85522619367014e-06,0.283818895729356,0
6.24770115749048e-05,0.263831082560736,0
0.000191272779862561,0.265942983297565,0
0.000269473631494711,0.0922605817229899,0
0.00128764668347315,0.107643809612347,0
0.00138620461590378,0.0655431852716358,0
0.00133792939253154,0.0649255191074116,0
0.00131566350167453,0.0586863555961141,0
0.00129321269936988,0.0515663812592934,0
0.00120238908724861,0.0475248529909822,0
0.00120740645868848,0.0465567990513877,0
0.00132684318877495,0.0513965899381107,0
0.00145206028077213,0.0551328721309683,0
0.00147866662177077,0.0721701181264009,0
0.00066243841611526,0.0745795253032067,0
0.000495692959804211,0.133794929830004,0
0.000516353962406482,0.137221651158766,0
0.000379844471148068,0.234411629526642,0
3.51698585466353e-05,0.176541470347476,0
1.8935358406614e-05,0.343702934817252,0
1.95754379889623e-05,0.344698627995231,0
1.96980850970805e-05,0.343021011394768,0
1.99087665064952e-05,0.352869532446372,0
1.26291483276351e-05,0.440294287388764,0
8.44012942064967e-07,0.19263648185788,0
7.4364813699875e-07,0.215252235743455,0
7.87908939262799e-07,0.217602819276004,0
7.32621321509579e-07,0.224936485738194,0
4.87275144986251e-07,0.199208101072779,0
3.93640133300911e-07,0.184825012188326,0
3.92244227213771e-07,0.179983980435451,0
4.0138993988229e-07,0.18155851559336,0
3.86897466875967e-07,0.188788778501964,0
2.07794336714312e-07,0.147470380868364,0
2.51811955473241e-07,0.160059679712726,0
2.38737623811988e-07,0.154064532035712,0
1.66862737700347e-07,0.139715078004968,0
1.3445192357947e-07,0.129408819812089,0
1.41350704920599e-07,0.12748005607752,0
1.24806970856646e-07,0.119988815685013,0
1.44397169311986e-07,0.122889037051642,0
2.97044321481041e-07,0.166947808289946,0
2.84549510857977e-07,0.154898660129822,0
2.78043006277755e-07,0.151209643559487,0
2.49341969400538e-07,0.144953569172932,0
3.05964638850783e-07,0.164509646361815,0
3.32846597574199e-07,0.16856044325367,0
3.32095748022295e-07,0.170721830239163,0
3.34000958543645e-07,0.171248057529769,0
3.2813623372381e-07,0.168822904299628,0
3.37432912090888e-07,0.188207795091791,0
1.44711739697821e-07,0.140664712574527,0
1.32553968773865e-07,0.144354621577547,0
3.64881050697737e-07,0.197990640510224,0
6.20798336950399e-07,0.243530253413889,0
5.62188069496801e-07,0.215920323145296,0
6.25006652082325e-07,0.22432562171019,0
6.45530497315265e-07,0.219636146091955,0
5.78673055668757e-07,0.211185928311062,0
5.64479705395392e-07,0.205611603169221,0
5.65094100680226e-07,0.200844513328872,0
6.91728341627803e-07,0.212245685671978,0
8.16635956283489e-07,0.232761240583818,0
7.81493248157058e-07,0.216144569279676,0
1.72045472051251e-06,0.306215192694294,0
1.77829564804182e-06,0.304153092316393,0
1.59411351685888e-06,0.284936295704696,0
1.76540387955091e-06,0.302791555356193,0
1.86493802219204e-06,0.314401199594289,0
1.92180902436503e-06,0.324169772356775,0
2.03992154419813e-06,0.324907889600886,0
2.22968987433845e-06,0.343522015140978,0
2.21215655426906e-06,0.342148892796459,0
2.12989358970913e-06,0.378842033705191,0
5.96077411242171e-07,0.225667968904785,0
1.81814193241359e-07,0.15128826740205,0
1.47627367150457e-07,0.141769046571352,0
2.08279299392475e-07,0.166271037829066,0
2.10295218092768e-07,0.158008791418751,0
3.67481171543152e-07,0.193055483648073,0
4.53971877828776e-07,0.224599374281452,0
3.23397081065787e-07,0.194788879303602,0
2.66465458558028e-07,0.172075798712084,0
2.82671450756832e-07,0.171085033150593,0
4.10428221146718e-07,0.196711933363882,0
4.19309451273577e-07,0.191600554902534,0
4.27562242794805e-07,0.196129557931637,0
4.29573948498859e-07,0.195227098271445,0
4.38169631102861e-07,0.204317746090417,0
4.08396620738203e-07,0.206654625916572,0
3.41190904735949e-07,0.174082631224046,0
4.07270580465695e-07,0.19034704911783,0
4.15663571139539e-07,0.189526423287979,0
4.17011729935973e-07,0.19535063791833,0
3.39286630435986e-07,0.182795554189324,0
3.54162486100045e-07,0.183666521941998,0
3.47899867190983e-07,0.179455433600021,0
3.58929725399658e-07,0.180729181044262,0
3.58511000384585e-07,0.17939561389888,0
3.17317259382424e-07,0.172520168287051,0
3.30080063377348e-07,0.199711612148208,0
2.35852891665104e-07,0.172116612065828,0
2.7304709490451e-07,0.190603217687597,0
2.21546726714677e-07,0.16456390072266,0
2.03562616047727e-07,0.150520435288227,0
2.1338474866793e-07,0.147609803695329,0
2.54015586561511e-07,0.163018428761198,0
2.93831209682873e-07,0.173953796137694,0
3.19339731632422e-07,0.175269856243588,0
3.40878206792887e-07,0.175262716272889,0
2.90696740481163e-07,0.152696311812371,0
2.78657167507242e-07,0.151360308823512,0
2.5850757677352e-07,0.144472156509074,0
2.72659499250534e-07,0.14610857600799,0
2.63404014624458e-07,0.1439707920857,0
2.89992701998581e-07,0.148413974875228,0
2.38417436097834e-07,0.132835365833622,0
1.99918842411809e-07,0.120062884748624,0
2.67229415209341e-07,0.141538372745055,0
2.89536996238744e-07,0.150167647308124,0
3.34595459124018e-07,0.154778763038471,0
3.16254882164191e-07,0.143456828507929,0
2.54470824210654e-07,0.134254975229476,0
2.53023191891914e-07,0.140429523174063,0
2.39633353623438e-07,0.143393828792864,0
2.21590729119838e-07,0.144469058339833,0
2.2720220605465e-07,0.148209049716288,0
2.5341757515094e-07,0.166006946887272,0
2.12162979758662e-07,0.150744273976019,0
1.46780086795753e-07,0.123869637840268,0
2.33203619196902e-07,0.160868060500428,0
2.39185839800733e-07,0.17658469508755,0
2.1437971794634e-07,0.165104171690373,0
2.11765085669436e-07,0.158388817123862,0
2.0705870075994e-07,0.156882155065792,0
1.82814077682048e-07,0.146360283689356,0
4.15720914699456e-07,0.202590965464761,0
4.14770649992248e-07,0.194856682916581,0
4.04476895848639e-07,0.204657536811743,0
3.89277341640228e-07,0.211775966972229,0
3.07359608716537e-07,0.184629906099728,0
3.74293118350691e-07,0.194704371805034,0
3.14468571758916e-07,0.173878247363157,0
3.27561627847899e-07,0.182697101026623,0
3.39698801901354e-07,0.188785505751555,0
3.60098831855941e-07,0.194218424260097,0
2.86029910925242e-07,0.187572294487969,0
3.79317584476223e-07,0.209251183430674,0
4.56743093132557e-07,0.22818722674115,0
4.759094173552e-07,0.228391215675809,0
3.65926107820321e-07,0.218870111221026,0
5.86168210033029e-08,0.114111046766382,0
3.53182496363816e-08,0.104160908168292,0
1.32791769006014e-07,0.133802626693441,0
1.7523372717161e-07,0.136866386856412,0
1.93000166366218e-07,0.141365295101339,0
2.03174318227712e-07,0.138157895413717,0
1.84871190123343e-07,0.137912877069539,0
1.69891647940739e-07,0.133166654262934,0
1.81266737785654e-07,0.137769725467775,0
2.10041268041703e-07,0.150214007781448,0
2.01323174491428e-07,0.14505827673452,0
1.43026541202278e-07,0.117444087991231,0
1.72137643046743e-07,0.130820472330676,0
1.97949032614796e-07,0.138151056392774,0
5.55735631701645e-07,0.215458463913774,0
4.78347337845419e-07,0.187589020359298,0
5.37260004806829e-07,0.198441269820185,0
6.00102929148398e-07,0.204480018345538,0
6.33550374399381e-07,0.206590125387883,0
7.07555164165111e-07,0.216998460024472,0
8.09913886729046e-07,0.231712718269118,0
7.87061892963443e-07,0.242054196652566,0
7.20982217233696e-07,0.23451731889125,0
6.85827104173901e-07,0.236404717024629,0
2.15705407429501e-07,0.152132261513643,0
1.57330131543892e-07,0.142649622468969,0
1.66564317133428e-07,0.140988016937576,0
2.80009071189221e-07,0.165149869374363,0
2.91805226602676e-07,0.159806908785052,0
2.78992100708231e-07,0.151727579185664,0
1.97092624101575e-07,0.127466528964731,0
2.44057935895624e-07,0.144743766219684,0
2.94402304728585e-07,0.157239696078263,0
2.78370449707652e-07,0.157761285842095,0
2.73327961320433e-07,0.152048471432658,0
2.64753343697626e-07,0.154115930905963,0
2.44005507497986e-07,0.147516090028676,0
2.08346707332297e-07,0.138749787342305,0
2.01516270152375e-07,0.136720898098609,0
1.82413608984009e-07,0.12936075718851,0
1.84173471135118e-07,0.129883147590748,0
1.71554377123008e-07,0.122705990665272,0
3.17617084281422e-07,0.151432358900057,0
3.34830216636661e-07,0.144968479300761,0
3.56111699026556e-07,0.152441194909172,0
3.896272543834e-07,0.157304113135326,0
3.95926151871184e-07,0.164738254283941,0
3.53187645581442e-07,0.16553656040304,0
3.34871410377662e-07,0.170180614216755,0
3.51438784031623e-07,0.182969203141793,0
3.50751831589342e-07,0.185886361570557,0
3.91571084036939e-07,0.20514206672041,0
1.40909978702945e-07,0.136700349735263,0
9.04371134847001e-08,0.12580142596704,0
6.89445131721689e-08,0.120682808414934,0
7.6386536972764e-08,0.124688667935926,0
1.82608108977037e-07,0.167706159189414,0
2.2362396791578e-07,0.162128167162784,0
2.44232073073497e-07,0.162819908895107,0
3.11649375109081e-07,0.176098458062268,0
4.251474937839e-07,0.195697884953559,0
4.111116627588e-07,0.18400282091733,0
4.43720253647556e-07,0.188169757895979,0
5.05029647358183e-07,0.199829906284513,0
5.19692980767526e-07,0.187622275293299,0
6.17891135490242e-07,0.206000800391689,0
5.05606359732213e-07,0.180458296596572,0
3.71200545056024e-07,0.16151898652056,0
4.31775941199702e-07,0.178713287062862,0
4.37139787577808e-07,0.182021977373018,0
3.94448794523426e-07,0.175428426387356,0
4.15139287163147e-07,0.175549949090855,0
4.21267090192566e-07,0.183295768657605,0
3.22473264612745e-07,0.164991280510929,0
3.20889880192975e-07,0.172997722995693,0
2.24769200726709e-07,0.147938928689246,0
8.40719783338261e-08,0.104695269961181,0
9.57005501191129e-08,0.112236289488471,0
8.65068561045394e-08,0.104918634608167,0
2.53781531214908e-07,0.148348098483487,0
3.57222759756881e-07,0.175418986259374,0
4.59681189898468e-07,0.214366771941132,0
4.44924234350483e-07,0.221625244882069,0
3.90639543757459e-07,0.201365227033925,0
3.73566610554836e-07,0.197232469347826,0
3.17716089693035e-07,0.18620805154757,0
2.76359680224984e-07,0.171962733603327,0
3.05768032359636e-07,0.173053892216243,0
2.60708867308322e-07,0.164903409360238,0
2.10922486421664e-07,0.164559979777984,0
1.93808359478039e-07,0.157298151417192,0
2.34860496995506e-07,0.16979087323463,0
1.76936479818148e-07,0.130332108088964,0
1.90547266333817e-07,0.135433356045782,0
2.3715540966895e-07,0.146913634662776,0
2.77955001467432e-07,0.159826181211614,0
2.48613589161909e-07,0.149798672623742,0
3.0238452826914e-07,0.163777269952586,0
3.23209836788506e-07,0.171029051312001,0
3.16895959758537e-07,0.171930193503124,0
3.38097629275241e-07,0.17472236815902,0
2.49660284671919e-07,0.151430920721118,0
2.30155048307395e-07,0.164154092613387,0
4.90286267020301e-07,0.219661446664461,0
4.41208605723158e-07,0.192460886140072,0
3.03996935551889e-07,0.15446878784694,0
3.36743853150488e-07,0.167292387879506,0
3.39968199605294e-07,0.172650910539857,0
3.5485599209203e-07,0.181104013742429,0
3.22163141278496e-07,0.171956073649696,0
4.39026039616082e-07,0.197601233807917,0
4.79053248770775e-07,0.199965738392239,0
4.6699307892635e-07,0.200526073651404,0
1.53820471621577e-07,0.129993458530297,0
1.15169507904913e-07,0.134126500013297,0
1.14777231144005e-07,0.136958633736282,0
1.9563773606709e-07,0.158944153967686,0
2.2516124343227e-07,0.154771388615935,0
2.53262162400795e-07,0.153221223458046,0
2.59739644118038e-07,0.152738650440661,0
2.9859961925922e-07,0.153360473183124,0
5.27602179039941e-07,0.190090015355199,0
3.03945700836518e-06,0.38449946808204,0
3.44795474101311e-06,0.369936893824324,0
3.46451181623182e-06,0.353977696191957,0
3.45738529903845e-06,0.345205262220141,0
3.47411159627276e-06,0.344795966451718,0
3.09758207908527e-06,0.326317814118565,0
2.70479905646362e-06,0.309284797252009,0
2.40691681684174e-06,0.293253608970407,0
2.36938721229065e-06,0.29821065038022,0
2.92623296850123e-06,0.342245681159732,0
1.13925901631806e-06,0.236713604917035,0
6.43942431788562e-07,0.204780483799749,0
6.41743481807227e-07,0.211283603922064,0
4.5944526210909e-07,0.194271502553331,0
2.98445142730462e-07,0.161231477703284,0
2.00338503648268e-07,0.139413932344743,0
2.35581387463043e-07,0.144545046626518,0
1.92608825826698e-07,0.128821608627157,0
2.08644425733175e-07,0.13600998433806,0
2.23970369828752e-07,0.15429755831002,0
2.32340189023283e-07,0.167970547196281,0
1.65897727506302e-07,0.140758525710439,0
1.5679765563037e-07,0.137590906907641,0
9.78913081633186e-08,0.115225793817801,0
7.29356249424465e-08,0.106274869533812,0
5.33552568116634e-08,0.0969776805458342,0
4.74982558182653e-08,0.0977153350269748,0
2.23944155629931e-08,0.0862611885333389,0
3.01350939858541e-08,0.0961553465727119,0
1.77893766185756e-08,0.0881663651814898,0
1.1248934013096e-08,0.0818018789674914,0
3.36190078200425e-08,0.0892642669593783,0
1.71695980607703e-08,0.0857940018042123,0
1.13603443580792e-08,0.0858045309933437,0
1.8108862166688e-09,0.0788071041719866,0
0,0.0814584707387455,0
1.40831102051128e-09,0.0874839549119407,0
1.79267671070316e-08,0.103441983919202,0
4.38285020388738e-08,0.12168729572961,0
3.89636616597263e-08,0.112245807946454,0
1.18167990950246e-07,0.146230079494772,0
1.17465824910437e-07,0.155106399576239,0
1.40633793393953e-07,0.154450259342776,0
1.12506894281955e-07,0.135968034522794,0
1.07900685060804e-07,0.134167028699786,0
1.21676246540481e-07,0.134520244717792,0
1.66214872500949e-07,0.143284073414026,0
2.62701848584648e-07,0.156020826555635,0
3.81305416534923e-07,0.182013270372048,0
4.03661212965727e-07,0.186933732731854,0
4.09454550904849e-07,0.188439345485608,0
5.92307949885127e-07,0.221623454650755,0
6.00696493507385e-07,0.214532746351337,0
6.6723374743974e-07,0.224479418513267,0
6.34070211324187e-07,0.215222051320134,0
5.64189710820952e-07,0.205921526188961,0
4.51882465749649e-07,0.177358115045536,0
5.41235434868883e-07,0.199301363522034,0
4.97914364821445e-07,0.191230954648622,0
4.82251615082106e-07,0.188320936371147,0
4.59093008812453e-07,0.193629294148331,0
2.79423932822713e-07,0.152733836199796,0
2.59084289147549e-07,0.15709180603034,0
2.17460120362985e-07,0.142386614073496,0
2.00109129408597e-07,0.143616884195971,0
1.72747123169298e-07,0.130027749986926,0
3.37668137714224e-07,0.183755613750977,0
2.38376242356832e-07,0.154793497307782,0
2.35477700944498e-07,0.155185074435397,0
2.64735321435937e-07,0.156377700660667,0
4.82554716755957e-07,0.195641678492058,0
4.88792057687586e-07,0.187445118489999,0
5.11901746389799e-07,0.187212578860642,0
7.423561514855e-07,0.218008734224676,0
1.09367884406521e-06,0.258388684972966,0
1.10588272389244e-06,0.25217089561363,0
8.58101201487709e-07,0.210195946109099,0
9.30482349314053e-07,0.203839760931075,0
1.15741796632892e-06,0.178722040152475,0
8.82479025463353e-06,0.407700291202292,0
1.57413736113699e-05,0.466324210721135,0
1.51800527169322e-05,0.451383720644923,0
1.6123823792605e-05,0.451131366548003,0
1.82963386268753e-05,0.454779574458161,0
1.76996035201091e-05,0.426788959954811,0
1.87458990295313e-05,0.373018799848905,0
1.75640562175076e-05,0.284360207066262,0
1.78925800468853e-05,0.286500637747557,0
1.72318418034245e-05,0.300269598376395,0
1.72044797971852e-05,0.329122078956938,0
1.48315574129395e-05,0.322586207785111,0
1.58468054806347e-05,0.335820717810078,0
1.54239983062615e-05,0.342320634382925,0
1.33354793823374e-05,0.32155837864287,0
1.44831166438425e-05,0.34557979962439,0
8.28612217286154e-06,0.366447129819823,0
2.27816180039859e-06,0.336329885257366,0
2.34309928603691e-06,0.35070586261384,0
2.34264498460916e-06,0.343505709427618,0
2.0804599302298e-06,0.378780752587644,0
5.74993705620153e-07,0.202529788909567,0
2.16371809812349e-06,0.346671424531806,0
2.2875972735862e-06,0.313225886813206,0
4.23216654202097e-06,0.368879596258872,0
6.18105459971126e-06,0.439374079348311,0
5.76658002973246e-06,0.383334102885428,0
6.04074778163651e-06,0.389439183656618,0
5.71940570651389e-06,0.366317126844149,0
5.37599033976383e-06,0.354446106810055,0
4.75419422487087e-06,0.334465679558596,0
4.51407497234787e-06,0.329921872653533,0
4.36498990849878e-06,0.320440077576805,0
5.97199636412529e-06,0.379685329640313,0
1.13523752416379e-05,0.492078898694177,0
1.09017737608002e-05,0.417609463045917,0
1.06813182001114e-05,0.424229899596892,0
1.88349994529315e-05,0.186267966194934,0
0.000263255468356017,0.282272160808307,0
0.00122964658894593,0.226706867590405,0
0.00209128489638806,0.111556193326021,0
0.00200347599975259,0.097094225385964,0
0.00196447027764491,0.094047238648954,0
0.00197341853373326,0.0947510839123442,0
0.00201611174914316,0.0939220343149713,0
0.00201072664141142,0.092343432581186,0
0.0020097968368864,0.0889453947662374,0
0.0020571247844382,0.0915213067001033,0
0.00206962643509472,0.104943189145741,0
0.00125374795142727,0.134113183641869,0
0.000123350052392028,0.15149407142042,0
0.000141457010986583,0.284266948144083,0
0.000142506934821989,0.257973481199822,0
0.000145390112841371,0.255932328868634,0
0.000145932945001815,0.256424810474178,0
0.00014728066213581,0.253992942336034,0
0.000148309029941904,0.255363361022894,0
0.000144632614245182,0.26582038486073,0
0.000142572576112054,0.269215667073536,0
0.000147500864916725,0.282413297434453,0
0.000111964395416325,0.29195037299071,0
6.38984090979554e-05,0.334343070744735,0
6.45973042142962e-05,0.383059431499143,0
6.25817740458783e-05,0.385068566460806,0
6.09298345810323e-05,0.347281286964946,0
6.57023375513358e-05,0.338323579828067,0
6.10763590793896e-05,0.291934817882798,0
6.05134793763435e-05,0.288385810375019,0
6.09666610833222e-05,0.290052303130021,0
5.99989028454528e-05,0.289789938110032,0
8.2098655834172e-05,0.2288466554357,0
0.000225132015770863,0.396110746283867,0
0.000302090627779074,0.419369665393863,0
0.000359794002151466,0.419474268100596,0
0.000353563904764704,0.300246327816916,0
0.000352701128775779,0.296186318491744,0
0.000322643585986302,0.283652069555967,0
0.000301595649404521,0.217380756376305,0
0.000317131117973934,0.207171455898468,0
0.000471273000014795,0.238715182524541,0
0.000865315290957125,0.320894886659763,0
0.000974924754419366,0.13740782151369,0
0.00105562733354005,0.14059830713534,0
0.0012068044196535,0.155232843016257,0
0.00132510723210072,0.176748481298793,0
0.00140847795814681,0.184057608571347,0
0.00152671977413232,0.191866231822078,0
0.00160690633728173,0.219849089184175,0
0.00165008526341067,0.246072024169217,0
0.00131588997830901,0.242513428948755,0
0.000453977246122205,0.153649463890692,0
3.46542779183075e-05,0.210152419394401,0
2.15864452718624e-05,0.214370083320409,0
2.28640628295501e-05,0.203078232638488,0
3.57949585868009e-05,0.189873407687977,0
0.000512712992753616,0.151941646995358,0
0.00100019375887269,0.116900144089017,0
0.000990192592636761,0.110396980194453,0
0.00120998911900504,0.0648737976676464,0
0.00503295081908934,0.0744302053044059,0
0.00631265427919623,0.040532888211572,0
0.00586452213726821,0.0382774374687091,0
0.00526632451811468,0.0353338447596261,0
0.00510430192116681,0.0345601583112176,0
0.00513639825290666,0.0334910116246099,0
0.0054857913353973,0.0387473719332836,0
0.00578191883563745,0.0423133229641416,0
0.00597905384926879,0.0443213462946538,0
0.00605896287239687,0.0531303744846222,0
0.00408524886813027,0.0382051177680591,0
0.00508160984899355,0.0987041058285879,0
0.00691049112941744,0.116773589014685,0
0.010233318492784,0.146727019624138,0
0.0137333401046327,0.170797064226819,0
0.015470264438562,0.139917320412665,0
0.0167362696098597,0.105240293384076,0
0.0171385165820127,0.082416223996761,0
0.0176755244116101,0.0857201830609329,0
0.0119469027863562,0.0516604251600763,0
0.0158349908809578,0.0265147973944265,0
0.0427762389178803,0.04465537981246,0
0.0540400390721732,0.0463213141033065,0
0.063445596803339,0.0296612349811804,0
0.0568673837316323,0.0272478636510187,0
0.0490272723091695,0.0235292508270529,0
0.0424174524577583,0.0175345390727352,0
0.048480631037223,0.017525182775232,0
0.0608452986453174,0.0198609248070355,0
0.0587326632370642,0.0169745889416216,0
0.0570513812231058,0.0219720714934932,0
0.0465900478293348,0.0197086968304387,0
0.038688228509124,0.0170063203359037,0
0.0264596786100861,0.0115155762072199,0
0.0313272605747687,0.0117699229161883,0
0.0307921375498113,0.010344123069574,0
0.0271567385433928,0.0100286632628726,0
0.0231163317640443,0.0112519194476253,0
0.0165522258168553,0.00801696372538902,0
0.0258874877247313,0.0123096432657944,0
0.0424601239446401,0.0197698626515158,0
0.0767194868149602,0.0312768652236216,0
0.0828824590962535,0.0174834781987314,0
0.0779147021247939,0.0226943061749196,0
0.0699591100829103,0.0219194888571963,0
0.0690368532380089,0.0213708189974138,0
0.0679134919461462,0.0206745035928133,0
0.0625873547120013,0.0199858547626405,0
0.0639102249339127,0.0203040595050651,0
0.0628118328693516,0.0235986509994649,0
0.0534769947423202,0.0239943918840098,0
0.0263996581816385,0.00843003374956718,0
0.0424690917480948,0.0291475802107177,1
0.0812369123850893,0.0387537611650992,1
0.072297054573549,0.0288874412563927,1
0.070200499780599,0.032007219931253,1
0.0734511189141227,0.024483200786529,1
0.105802610834845,0.0311246597580662,1
0.114952076299981,0.0341611616522075,1
0.0968289334579048,0.0263465695333929,1
0.086872845253997,0.0214143821464796,1
0.075383399943566,0.0164639432621494,1
0.0749309525468522,0.0177602200162096,1
0.0771623941026393,0.0105526868327774,1
0.190346580790923,0.0164624388387571,1
0.245128493840907,0.0147079421267897,1
0.222905391980605,0.0150279025895256,1
0.222197347221104,0.0149955693046955,1
0.246524784540901,0.0148576574971252,1
0.242241080666563,0.0115690767554411,1
0.238826046532813,0.0114300360527509,1
0.203192168387802,0.0103342997752526,1
0.148487996271397,0.00698933959377291,1
0.134875726846587,0.00423596397797338,1
0.164264396297451,0.00808447983873976,1
0.124146766132283,0.00530627675584912,1
0.14888934591631,0.00589914916074258,1
0.161625191857608,0.00589143044189559,1
0.150696874959413,0.00397397632407112,1
0.191505879819815,0.00689067681106476,1
0.232463689980519,0.00884167010674575,1
0.248071203720671,0.00229691273583151,1
0.548674189173045,0.00988202422876323,1
0.572496461399995,0.00716995393894055,1
0.543775897800368,0.00736044848062673,1
0.538922556478012,0.00737589956660797,1
0.514200332907608,0.00687978783796803,1
0.513992628724332,0.00619619311472382,1
0.544208485460255,0.00851240959652597,1
0.489583550613387,0.00758898567940513,1
0.43672826754277,0.00510639834789772,1
0.500440347918912,0.0157644104719137,1
0.18674034087027,0.00394557748312362,1
0.113668007247507,0.0102760204314696,1
0.152390030068161,0.0111602123385551,1
0.205919899851959,0.0156996418969426,1
0.22168693630616,0.01656308467501,1
0.239589342665192,0.0203318665921029,1
0.267489312979378,0.0213427704441378,1
0.224962857059048,0.0228003868839981,1
0.155058233948596,0.0296873869553102,1
0.154485177977594,0.0307957787320863,1
0.107317216201955,0.0343495609437569,1
0.0292178780433809,0.00836492761122433,1
0.00839551955409311,0.0269632464917139,1
0.00850815993645872,0.0216178316332942,1
0.00808506447330644,0.0149776977732146,1
0.00984383101531732,0.0162741288493249,1
0.0109233564349724,0.00949829773457996,1
0.0133235137383194,0.0144423237820447,1
0.0123202860267179,0.0141648436544013,1
0.0132569096707137,0.0155175453072186,1
0.0140883967104774,0.0162354025255551,1
0.0130281510246908,0.0158968625341869,1
0.0158760150167957,0.0120407460564626,1
0.0587379699973432,0.0189169977522299,1
0.15442222494051,0.0533687921232647,1
0.186989637056572,0.0653939974894326,1
0.222758964765012,0.0745074373552113,1
0.288779550529701,0.0568479886403439,1
0.261542934784877,0.0298918437275483,1
0.233642928672159,0.0212715856753269,1
0.199400505403775,0.018898203072218,1
0.130793644105283,0.0134064992347034,1
0.0793760484559479,0.00846550888305446,1
0.0734126370088169,0.00851023136558025,1
0.086162133244939,0.0101706843223066,1
0.0873064022138446,0.00906562735058528,1
0.10333050873516,0.0084936385545417,1
0.152666520323182,0.0162791174667278,1
0.199899359112281,0.035813614562138,1
0.200482061369888,0.0441727974123019,1
0.209995737193338,0.0327932401634444,1
0.216871430313555,0.0323467791906105,1
0.234406238979633,0.0318492592545123,1
0.300012987451815,0.0399989841526608,1
0.340196387502673,0.04244174941975,1
0.36894546414054,0.0430686167139448,1
0.386919556097635,0.0310907625004577,1
0.339590370610949,0.0238701756239572,1
0.252912246599924,0.0167699474078502,1
0.214692712540511,0.0133262690951789,1
0.264526079054967,0.0194930665860758,1
0.304723398987704,0.0144763050550199,1
0.30378620380583,0.0123862345906721,1
0.294135240676286,0.0138166820189479,1
0.293165841206984,0.01238294879306,1
0.313768880646556,0.0111843275134302,1
0.30326277673017,0.012037942254643,1
0.289193088152956,0.012458077871774,1
0.2616492166802,0.0104198655820979,1
0.250036743053133,0.00856025048213318,1
0.318061069921299,0.0119916061198291,1
0.356293400262814,0.0115060700293144,1
0.349305122889746,0.0109511716080631,1
0.358989641078274,0.00790592478123315,1
0.332816355221073,0.00889005928438938,1
0.260674987009773,0.00647925556856511,1
0.277672701826934,0.00721132952149581,1
0.284303988660598,0.00747146546641011,1
0.290553875473726,0.00832752372027266,1
0.278257272674762,0.00891420498153996,1
0.197927551445045,0.00568375707901877,1
0.114950758103311,0.00424796513824294,1
0.0841724376984229,0.00362645721141393,1
0.0944006912910839,0.00826294146131469,1
0.0902495747283427,0.00827330087723085,1
0.0913281260756488,0.00972934526130505,1
0.0810176266124259,0.0108572276978548,1
0.0902749408266776,0.0155178620722756,1
0.0635389078938933,0.00974966655440003,1
0.084755677593331,0.0121000621547012,1
0.0906596369115031,0.0129462274159245,1
0.120208251545147,0.0153137996861132,1
0.173135354719116,0.0246587724540924,1
0.248352411613983,0.0339523957526645,1
0.269948416913926,0.0359024622476081,1
0.315341399489927,0.0368978595263749,1
0.324053568723721,0.0429125199396614,1
0.341190145438169,0.0509374365263942,1
0.282831857764984,0.0568185489926398,1
0.238327528044226,0.0550396324290012,1
0.123614723998216,0.0395581460116747,1
0.0722515981828705,0.0616853373367041,1
0.0591181255287491,0.0501491495622259,1
0.0430512507922643,0.0360179645930396,1
0.0117403098863973,0.0105286923903954,1
0.00626587577423002,0.0101371330509269,1
0.00656410998253723,0.00806384488307493,1
0.00744347378212731,0.00874504705324721,1
0.00880008773503776,0.00869911112943155,1
0.0101486979083783,0.0100959862952547,1
0.00962191009495782,0.00922136244150557,1
0.011535178374892,0.0116287350194375,1
0.0105416161719241,0.00997253706376007,1
0.00966379698618784,0.00919591564343385,1
0.00855043383937463,0.00960605194497896,1
0.00815111027654642,0.0130988103631448,1
0.00841745801486138,0.0123136025859134,1
0.0109586675751776,0.0174030555107926,1
0.0176688796741763,0.0170273045629044,1
0.0309811014352362,0.0163510830071163,1
0.0304566306920407,0.0136777197024823,1
0.0351854955374134,0.0119463690513734,1
0.0347507553123994,0.0102656961723625,1
0.0357833531284492,0.0107191359379629,1
0.0345673694524851,0.0100616347751991,1
0.0526275038088294,0.0148765559886457,1
0.0502579283156304,0.0100665752613181,1
0.0587294882517117,0.00841027813595099,1
0.0836309943837871,0.0142513970132199,1
0.0875777006412312,0.016825248525102,1
0.0619149842688974,0.0107403888947803,1
0.1179646786482,0.018927603469078,1
0.113349621767949,0.0111737147885064,1
0.101105502185897,0.00958888055810694,1
0.0879403276911939,0.00761982120788418,1
0.0876287141731298,0.00809498698210993,1
0.0775170824869955,0.0086670959988871,1
0.077694908577248,0.0093615299141936,1
0.086843164322644,0.00637688439873004,1
0.091800276481516,0.00776143045527516,1
0.0862576851586784,0.00834111406639124,1
0.0608308348328564,0.00785758192959531,1
0.0491351403133163,0.0121379326919405,1
0.0399001277837718,0.00940625997560362,1
0.0457764124174221,0.00762819462590872,1
0.0604770665259191,0.00930599466639197,1
0.0647691280172098,0.0102318389661153,1
0.06649470771681,0.0174774371197931,1
0.0631819438474479,0.0277359536163547,1
0.0963358241145333,0.0359368687642967,1
0.178522066792352,0.0584341685304412,1
0.2021268272565,0.0518116160618466,1
0.19918892091685,0.0484451271432862,1
0.158266446069353,0.0385259138721104,1
0.126118082468664,0.0417138050434879,1
0.110936478565838,0.0418018207996328,1
0.112317872213882,0.0150081575327704,1
0.240591579507931,0.0256776689044621,1
0.255768122748674,0.0199267592540082,1
0.29608261902269,0.0162190901548542,1
0.317337599514104,0.00861786484721515,1
0.365946297752834,0.0104769842136062,1
0.41553271079338,0.0124734486120171,1
0.407244500564322,0.00613121392248065,1
0.489429622307786,0.00768940340282538,1
0.469293781395307,0.00756381093586689,1
0.454473228826379,0.0103341855439085,1
0.356883413143911,0.00751702202555799,1
0.346193150498132,0.00817090051164992,1
0.2914361288476,0.00852258825368993,1
0.270398387371017,0.0126576216064103,1
0.250777108826037,0.00820630672148631,1
0.201311603716334,0.00403964463429693,1
0.215430176565679,0.0112714054995228,1
0.116307317635545,0.00568831174108664,1
0.0985580234868256,0.00414849094270726,1
0.100940628170367,0.00522983439689006,1
0.0931754921249352,0.00509238643984659,1
0.149470571991527,0.00913281502605373,1
0.158749699441319,0.00831912018939584,1
0.136351613034784,0.00815806231247688,1
0.145999653872617,0.0195214576511008,1
0.155580800814215,0.0304455673314996,1
0.167272549071436,0.0256603328957078,1
0.303913076058361,0.0188665248969783,1
0.334636090926219,0.00842446268316156,1
0.35290662254434,0.00878459027479133,1
0.355244406883544,0.00902426411534605,1
0.312706795293703,0.008452146733899,1
0.323491921505809,0.0095265269854933,1
0.41310217641231,0.0124224834879948,1
0.521910531801337,0.015470645082823,1
0.622217488431533,0.0178173821690943,1
0.68793199126814,0.0204825305018259,1
0.385552156089565,0.0196054523502552,1
0.249032347440928,0.0768068826726212,1
0.217406760297974,0.0903045665127996,1
0.0988556576284822,0.0746180468567103,1
0.0391229508487987,0.03500908335215,1
0.0121317424960355,0.0110814466619408,1
0.00723675356167714,0.0182303877639483,1
0.00792938330661799,0.0189989936616857,1
0.00851641942196287,0.0131572604369163,1
0.0101594430277254,0.0122461645291167,1
0.0111412270210053,0.0122612358863205,1
0.0114307294109908,0.0125034272805034,1
0.0109013113310984,0.0116491118155006,1
0.0111064532245967,0.0116016832653659,1
0.0120164555801173,0.0112582047134091,1
0.0158976933447069,0.0203941249184345,1
0.0240968745545655,0.0235210319196059,1
0.0580449801629327,0.0377406591542225,1
0.0764890583584105,0.0368980350494166,1
0.128112245335959,0.0347038380494976,1
0.14420223050076,0.022648860042259,1
0.136587256999285,0.0148957468641172,1
0.181750238726385,0.0157027612371088,1
0.155980300266593,0.0107617304583151,1
0.211935111421962,0.0118018689159892,1
0.178505781406708,0.00710997540252013,1
0.147127603454658,0.00498117543378705,1
0.2169234711998,0.00654156203744074,1
0.297096687535699,0.00969112225473464,1
0.331357226601075,0.0120070373469087,1
0.318624380959326,0.0115518756870914,1
0.260239380154347,0.0104317457499785,1
0.270264108202987,0.0116752652701127,1
0.206717467197446,0.0090863801917499,1
0.236280984893347,0.0114501530467348,1
0.14129440448357,0.00713987697553785,1
0.10360786605664,0.0023710521418018,1
0.143366127830112,0.00960333671705814,1
0.155132138463199,0.0106241169795588,1
0.247592276683905,0.0182619531886774,1
0.281200109412524,0.0174156245784554,1
0.287164478262816,0.0166122975696468,1
0.268500868530007,0.0162134607979834,1
0.268218203773468,0.0180727686873021,1
0.217484480857737,0.0187345727351775,1
0.349076934609219,0.0206565619275824,1
0.491460448513878,0.0308992785758509,1
0.498140859822717,0.0300283468695631,1
0.47721590077903,0.0334182152065325,1
0.310539050931504,0.0247467770105452,1
0.237549600046944,0.0130159153068834,1
0.288233441073866,0.00250239295438101,1
0.46076650409994,0.00796880938707744,1
0.443116015492207,0.00664723768581328,1
0.507910380583338,0.00730022523727021,1
0.534649060624515,0.00759220524981789,1
0.629281005611979,0.00614223659000436,1
0.813275759864431,0.00846981905171495,1
0.875045087104706,0.00946364880947101,1
0.965289076153929,0.0100199063928737,1
0.876572061543929,0.00958397090992505,1
0.810191073265019,0.0180599332397237,1
0.642514706644752,0.0141179068143286,1
0.701011588127763,0.0146595065424259,1
0.500648344104724,0.00716245725951449,1
0.321711139237849,0.00441202033972729,1
0.300281398439502,0.0110457932551806,1
0.249262080590664,0.00942312935960718,1
0.240880862065411,0.00938626762837418,1
0.239643907655787,0.0104347972299213,1
0.225513536761734,0.0101967831668039,1
0.172058965327003,0.00726266307368765,1
0.169247134732454,0.00714885591917518,1
0.118950358507469,0.00627396819411218,1
0.0988809506790797,0.0118140972773761,1
0.0920561002703815,0.0111854037812417,1
0.120945157925026,0.013103609987873,1
0.137997423106195,0.0122374893318779,1
0.138283533278209,0.012835264325343,1
0.138788249401877,0.0113954316104754,1
0.186026189568859,0.0222344305033186,1
0.202590138337744,0.0202344639897711,1
0.200743501719136,0.0212069865336255,1
0.207523061622478,0.0202901959611706,1
0.215350052553118,0.0179579877679564,1
0.217674999686346,0.0140084694232859,1
0.190065065463104,0.00954784472586233,1
0.180010355459147,0.0051904967553451,1
0.359563010224224,0.0118527529695025,1
0.523201179145506,0.0194268961919362,1
0.591429804636886,0.0227067526269984,1
0.589178245648868,0.0233108019691829,1
0.596148793339027,0.0231671794840023,1
0.612933156849348,0.0236644245000976,1
0.540136397215311,0.0260575114236006,1
0.37383158050084,0.0208419241992271,1
0.27888427633949,0.0222592358152989,1
0.0177464817083112,0.00319198963224888,1
0.0160729474609079,0.0166649216034245,1
0.0157285206036146,0.013811031479778,1
0.013691810138444,0.0132820611426201,1
0.0130138690060602,0.0139052967381798,1
0.0222040160698431,0.0144685496598323,1
0.0254928327695775,0.0118294992445328,1
0.0228138347593081,0.0123155269835559,1
0.0171227620872586,0.00848153445173737,1
0.0180236282758239,0.0107365586605497,1
0.0234507966858204,0.0135581913331396,1
0.0295597010185593,0.0164418565728367,1
0.0490042051473875,0.0300620966378051,1
0.0585813477790682,0.0271198356054816,1
0.0525391394284058,0.0253582422191314,1
0.070554177820581,0.0363227265058122,1
0.123101430702679,0.0615073074514804,1
0.215936894635879,0.0873578290863693,1
0.214742748025566,0.0425655954073415,1
0.218900775580082,0.0348392417957034,1
0.213047243189553,0.020948891496336,1
0.170675118806077,0.0170975970341173,1
0.157142960330497,0.0134952652660275,1
0.150158276491084,0.0130122633789012,1
0.118469136899049,0.00745389979984268,1
0.142179847950133,0.00348188077907494,1
0.18129588000188,0.00274415826302683,1
0.181376648461261,0.00278218174449443,1
0.181494228956439,0.00324182887092952,1
0.177892527766383,0.00386207500122124,1
0.173848953828024,0.00379981056264378,1
0.276186484769969,0.00608294607052887,1
0.306123789010979,0.00634904763239891,1
0.313675182947359,0.00695117024213857,1
0.275727195536644,0.00647273514178808,1
0.281748969548583,0.0109439115230676,1
0.263087921830302,0.013105047120942,1
0.345308781288267,0.0109755137671689,1
0.301797966902298,0.00844184688726746,1
0.322066390162762,0.00864198083517963,1
0.256215461471532,0.00566547296493181,1
0.269185388102946,0.00757926215983767,1
0.274618632509927,0.00722425433991639,1
0.263733073296517,0.00548745655658679,1
0.286537250033452,0.00604757187749551,1
0.289827925308414,0.00542523796569512,1
0.298515769966994,0.00710938981612574,1
0.283353159869003,0.00598753597384446,1
0.297327741385794,0.00627939360131471,1
0.248416858369819,0.00602091671627932,1
0.219571480149002,0.00305176035302326,1
0.312152385888641,0.00675225392875624,1
0.313688610532201,0.00859940816432613,1
0.328248716520923,0.0108732328598102,1
0.409202423064769,0.0139800271776495,1
0.449004120709159,0.0184593119879659,1
0.316157385224308,0.00968327215644968,1
0.27492245200344,0.0135153926843015,1
0.313896789043616,0.0179004804833368,1
0.248724302181117,0.0106158510267731,1
0.217495508439757,0.0173692199779021,1
0.194436218113244,0.0192315669175461,1
0.201624339408076,0.0182605816250623,1
0.217021207211071,0.012533086338523,1
0.222191770871196,0.0112714206215663,1
0.184628073221012,0.00673663052834696,1
0.17528308072237,0.00788901305161706,1
0.155656464831695,0.00655205484856403,1
0.118841862570979,0.00356276897465966,1
0.106716500261023,0.00557248172402309,1
0.111305487998724,0.00637772879829156,1
0.117949722588088,0.00684886068666711,1
0.117491784367396,0.00825591664649416,1
0.111651847100165,0.0152376697163029,1
0.0434895715788846,0.0112419169685882,1
0.0539700469349934,0.0147009736189193,1
0.12025893963198,0.0400165552821562,1
0.188241977593645,0.0608300618258389,1
0.299200012267202,0.0819930559500253,1
0.358560716942081,0.0933015995693359,1
0.365787604265748,0.0876696950490613,1
0.358972928711077,0.0824254921231,1
0.310704739265608,0.0733840081452443,1
0.241540930515729,0.0572684618635682,1
0.114415685558007,0.0325927052312268,1
0.0210531958899136,0.0166304632756289,1
0.00651549346668024,0.019668955651978,1
0.00716887637458945,0.023513446981364,1
0.00638953677289489,0.0246399065135886,1
0.00541015369852946,0.0237349384914966,1
0.00529639812459071,0.0257779227038897,1
0.00538010160056951,0.0283229772507684,1
0.0075523565454002,0.0199264069118246,1
0.0121835310078901,0.0289755933911529,1
0.0237642737048068,0.0360051095809151,1
0.0227489920174016,0.0177821874879159,1
0.0295252118210472,0.0152839872327436,1
0.0334088801764498,0.00834846090933769,1
0.0360932691926457,0.0080500180469058,1
0.0370338019178642,0.00800398976510625,1
0.0382620198769768,0.008299108315958,1
0.039927682872799,0.00618451172202615,1
0.0471187389031276,0.00886154414079655,1
0.0749224857737412,0.0122937012106436,1
0.138060064189398,0.0234975278766678,1
0.169675667610027,0.0334872276166894,1
0.283154921463231,0.0368528015559074,1
0.335031768137994,0.0464852055988733,1
0.399439507003139,0.0458275012170129,1
0.35235110648464,0.0275232100988207,1
0.238336751508208,0.0207328552704201,1
0.175438951996535,0.0161771060185291,1
0.128605940825773,0.00969423317534963,1
0.121242297900246,0.00791031599007155,1
0.153606095151617,0.00803644087094219,1
0.144995255262632,0.00638813679762097,1
0.151520355323172,0.00624900443705639,1
0.21116828856609,0.0088085657405923,1
0.198142832857235,0.00750910292667019,1
0.205710377732719,0.00938014499965982,1
0.195907930808128,0.00838679216389842,1
0.220193231911577,0.0101308762325892,1
0.218580750056922,0.00980189013643983,1
0.174693230641278,0.0072585051830758,1
0.188226605098749,0.0103472142821719,1
0.197749512625398,0.0120864445282406,1
0.200685003901233,0.0154136731671175,1
0.238239269241722,0.0123047895191915,1
0.236987985777003,0.00916429252911066,1
0.22297692660548,0.00786293368963785,1
0.40900442170089,0.0152434083047848,1
0.452309045920786,0.0077388979340785,1
0.479414854814205,0.00529604029157012,1
0.564780493138403,0.00795328950371295,1
0.578310193439046,0.00818001414909325,1
0.513780972963106,0.00564973032186149,1
0.499646440946266,0.00513324815550555,1
0.501622179525302,0.00489239999963611,1
0.462697417151717,0.00542944740234653,1
0.473358484167733,0.00543650090430962,1
0.402739140940523,0.00327996493425937,1
0.354498266829721,0.00816812582599172,1
0.315814972797825,0.0153047505834957,1
0.31181346063966,0.0142956194362953,1
0.268650587977468,0.0119889667928929,1
0.311504054080483,0.0172851461132581,1
0.343914779385548,0.0217052470680977,1
0.337473970300972,0.037179659887775,1
0.205833587729903,0.0278658276740276,1
0.151577982889592,0.0347651205021784,1
0.108366414553557,0.0300419342903586,1
0.0596782294046648,0.0153101958636301,1
0.0643835136663197,0.00816666330284034,1
0.146601771651535,0.0120659927341713,1
0.149529736661199,0.0126338804610293,1
0.146885627519479,0.0139215613803123,1
0.172162758089121,0.0152266466624587,1
0.176399791595573,0.0131796574854171,1
0.177736895917964,0.0101868644078253,1
0.221167431739947,0.0115820954192045,1
0.21171196514205,0.0106933654021985,1
0.183688672378087,0.00943578712691941,1
0.182258394926257,0.0125042595055712,1
0.165325257821006,0.0147925474665087,1
0.193215452440089,0.00809845393369896,1
0.323291774584653,0.0137109789654713,1
0.440512834276939,0.019927103457592,1
0.54130736809961,0.0239742918287074,1
0.635976439503204,0.0300697273467436,1
0.711382782409423,0.0380550217490581,1
0.687931496903692,0.0430067589882009,1
0.597927486341895,0.0378476155403009,1
0.421520181672445,0.0297235167978854,1
0.19730946765579,0.015615195677635,1
0.0126840351284159,0.0273819837654955,1
0.00650977041813631,0.0245473192210489,1
0.00592795984305657,0.0442195298321323,1
0.00450656886419338,0.0283105435185622,1
0.0111593989631944,0.033864468682653,1
0.0180365826449919,0.0473673078771497,1
0.0216214987393663,0.047566075633875,1
0.0233543398600443,0.0269613266412445,1
0.0367225390898411,0.0237952708025546,1
0.0347956941261915,0.0216782150045946,1
0.0356832469903514,0.0222503058301906,1
0.0313866883659506,0.0177806805526835,1
0.0245836856518253,0.0129563417094897,1
0.0332865986569316,0.00696682848704951,1
0.068161743320616,0.0163478175229431,1
0.0778459113934743,0.0176527521453569,1
0.0984499732703574,0.0168824760019974,1
0.195657221908926,0.0210743410934176,1
0.494211952270869,0.0458774944636239,1
0.576199729465228,0.0454747000001385,1
0.634520190021196,0.0382451036352239,1
0.565279189977399,0.0240623249640242,1
0.429439462013731,0.0165990711795034,1
0.370139868334379,0.0152679787447352,1
0.378249373207762,0.014605367972242,1
0.366779963432192,0.0128493086849925,1
0.332732131838187,0.0125069135895074,1
0.327781787271698,0.0149962220507629,1
0.238976378209376,0.0101772587386238,1
0.193455692060723,0.00686763302629761,1
0.119123718260444,0.00329837964567704,1
0.114353559900956,0.00649655983525384,1
0.106357392674391,0.00723706347260509,1
0.10688708405486,0.00716011134310277,1
0.0958214587015651,0.00520493492357648,1
0.0807113588999879,0.00481705879583144,1
0.0781548678354308,0.00496201590169221,1
0.0826754882750843,0.00589492084329961,1
0.0809879474676175,0.0075792676843936,1
0.128748450230347,0.0111566228924723,1
0.255841150628872,0.0241135129563383,1
0.420789043957795,0.0402336980015411,1
0.438368545462113,0.0322275562096353,1
0.53247539663373,0.0244362706334978,1
0.628264267476794,0.0203547376352347,1
0.585885975900646,0.0161317539212646,1
0.56669738816866,0.0141117074798582,1
0.59893317493739,0.0144447347668966,1
0.633548024381887,0.0157963184767764,1
0.634462636635341,0.0161125149953423,1
0.63042628647845,0.0141966944929495,1
0.641521142390523,0.0104480165238772,1
0.694730498186079,0.0109906838977699,1
0.596421260706691,0.0155257657849952,1
0.329961753706144,0.00994040053755261,1
0.334095421377494,0.0102920530787806,1
0.37912652175565,0.0104456651407844,1
0.360270320949645,0.00753570029163656,1
0.348085204615846,0.00663770153686457,1
0.349821403167551,0.00777394676788037,1
0.303346692789492,0.00763353610098582,1
0.17270928228986,0.00353899893920768,1
0.268130137121041,0.00944259316187499,1
0.364083565232301,0.0137532251150074,1
0.436591165000436,0.0167881066360637,1
0.490120599541465,0.0211458080174924,1
0.287932114415845,0.0179158422136953,1
0.278617983777383,0.0221980815706898,1
0.292496741336266,0.026061278293238,1
0.249800422908353,0.0149704276018185,1
0.177299811385003,0.00855711399184011,1
0.129389086411055,0.00769673942877985,1
0.161793281263465,0.0090475315587167,1
0.23357869241236,0.0127838842215622,1
0.230906022080897,0.00918808909885864,1
0.222901400876324,0.0086241446973428,1
0.276149555222472,0.00687550167056726,1
0.340718994873209,0.00985384291440002,1
0.269599192998214,0.00800263771879391,1
0.240308152526515,0.00550301655202925,1
0.302473450395029,0.00869504922000594,1
0.29728154670591,0.00876825049807598,1
0.299945549903055,0.00993761993811648,1
0.26416619023559,0.00795799724164608,1
0.319315274364678,0.0115346260314608,1
0.3818873494292,0.0141555495449535,1
0.362388663182427,0.0212117451858513,1
0.255466248575046,0.0189539763382247,1
0.245662229271785,0.0190108955625621,1
0.22908615509715,0.0291475105832222,1
0.281025162208418,0.0353436002973095,1
0.243014694536972,0.0365587999208495,1
0.179256304825891,0.0328063953818623,1
0.0806576558118873,0.0294165444211222,1
0.0726664500217473,0.0295969602037563,1
0.0547704752361149,0.0238482513931923,1
0.0342835191669956,0.0206049364497166,1
0.0106119277347338,0.0173760281399206,1
0.00979794761944778,0.019666106636758,1
0.0102053382103881,0.0197282588121155,1
0.0101794807718349,0.0185056978972265,1
0.010493276276485,0.0198887227602061,1
0.00912092396974529,0.0152290755681941,1
0.00894103479302276,0.0162953358254942,1
0.00982192915050683,0.0175233794745548,1
0.0179635459455885,0.0294095909459127,1
0.05019976153812,0.0255603761225024,1
0.0828277699208067,0.0240797257703876,1
0.0873816196165085,0.024990726341868,1
0.0966311637154304,0.0256411772994684,1
0.0814753230223474,0.0209167244536282,1
0.0778671022468252,0.0189448525100049,1
0.0643930469875153,0.016011401606093,1
0.0476483263187865,0.0110138195012087,1
0.0303291052600829,0.00536740596572494,1
0.0258053988505382,0.00395892606539628,1
0.0625125160064412,0.00878230117266532,1
0.125442425495281,0.0179574390330388,1
0.129748114902193,0.018806917673091,1
0.147923694242096,0.0227430650551532,1
0.178979711011911,0.0277887067399469,1
0.16948446254144,0.0231328383860145,1
0.154541023673171,0.017351966377028,1
0.151657781345911,0.0135133955794539,1
0.122851012533688,0.00530167310920344,1
0.173945408060467,0.00723734149186939,1
0.164190734557926,0.00869519047034921,1
0.244185523116322,0.0130421213719892,1
0.34988900930544,0.0155095365629767,1
0.324201430599349,0.0141217123852885,1
0.310272800019312,0.0127013168643252,1
0.245802071340201,0.00998270346275663,1
0.204596282380033,0.00811993418312772,1
0.175182292954951,0.00671342910356144,1
0.176436302076334,0.00997259160375225,1
0.212153686596976,0.0146306602713187,1
0.187937862008884,0.00778831521644529,1
0.2367419273291,0.0142461197963125,1
0.220575692965854,0.00926657473680933,1
0.266646873928448,0.00553606440531136,1
0.308642451872536,0.00492067712259203,1
0.336834486153319,0.00557346487917158,1
0.326608283344944,0.00500334482574141,1
0.410564923349787,0.00419455565648713,1
0.653805511077433,0.00899312111650961,1
0.67357000457536,0.00861788242974724,1
0.672155090100799,0.0104895179435857,1
0.576134854483601,0.0064006367683025,1
0.726456667574559,0.0105356045213957,1
0.735510692712076,0.0103721716646629,1
0.625835890312701,0.00964612456355231,1
0.632556511982046,0.00960950898870971,1
0.633023890085529,0.00989507574968005,1
0.592724493157264,0.0164525545788774,1
0.342800238857252,0.00962706583023263,1
0.298187563688697,0.00833203913161428,1
0.311097473021218,0.00831283238243484,1
0.344103143672199,0.0138815624881762,1
0.33773220421251,0.0151738210822265,1
0.33873143962334,0.024044324068452,1
0.252014475855108,0.0217567030779066,1
0.228383946766348,0.0216906633244856,1
0.222289865133431,0.0201765939355377,1
0.182695549262715,0.0263454550445647,1
0.0958165051506988,0.016523022974116,1
0.0737459866858893,0.0152562896742983,1
0.122112669079727,0.0204075228730177,1
0.127055008635047,0.0176163128118523,1
0.125046309987953,0.0167407572006991,1
0.118361299873063,0.0219096630119146,1
0.102255671833332,0.0173011619639473,1
0.110049742136113,0.0170043475539172,1
0.0773939390464925,0.00863126795036311,1
0.0763725833419766,0.00840828933744461,1
0.0773074676322189,0.00861746519586866,1
0.079719277975263,0.00981728231866575,1
0.060988388634243,0.0072366617817728,1
0.0638849501740384,0.0097332721036939,1
0.0727230558186157,0.0114289820183441,1
0.0761800890387288,0.0068367536904702,1
0.154476203370852,0.0123282530192677,1
0.144782405998191,0.0107321988149929,1
0.147109763300902,0.0134022710298429,1
0.1349477338972,0.00996890109888017,1
0.124032657977136,0.00740833758606866,1
0.160995221163129,0.00883965779176282,1
0.163485020238828,0.00896694285415774,1
0.181965402632961,0.00901565590231598,1
0.207864236491614,0.00649832581681812,1
0.308108895835953,0.0130482026936557,1
0.31048638155048,0.0124945656309562,1
0.298614800321183,0.012581085422756,1
0.26627118379178,0.0109612387926682,1
0.324765967793653,0.0142335188244002,1
0.328114407725933,0.0154764112328833,1
0.39248123819631,0.0200365502582539,1
0.414233107889191,0.026078423197045,1
0.21642929747008,0.0150491114362584,1
0.12760608220607,0.0242692467684902,1
0.128601513080243,0.0299465097408959,1
0.123899255576455,0.0550100726417192,1
0.0548115994292092,0.0351024354113299,1
0.0122844067883116,0.0121810026081922,1
0.00783656860579193,0.0124240557035102,1
0.00697215084851081,0.00951299989906955,1
0.00748484383678801,0.0102002358635257,1
0.00752653032725566,0.00997356658787225,1
0.00688827195460328,0.00942119590132955,1
0.0105153891634895,0.0108536203568306,1
0.0128681552873604,0.00855164074375572,1
0.0135920793755024,0.0106154721896692,1
0.0138790624243983,0.0115198160599355,1
0.013089371174268,0.0124824436134601,1
0.0153684906898236,0.0138027160650948,1
0.0211625743873258,0.0207280764245115,1
0.0330102159281063,0.0329545024132305,1
0.0492756542479035,0.0327168367417543,1
0.118083195962074,0.045846589746114,1
0.182144440605625,0.0702656073660422,1
0.211232771830113,0.0905571594919691,1
0.198128325842838,0.0600169944718849,1
0.639493318257886,0.031323251949632,1
0.840003198888049,0.0198549855105004,1
0.774546824224031,0.0186386593860793,1
0.672159014728446,0.0161540114802842,1
0.605883906826188,0.013770300733829,1
0.533260535509943,0.00984958591123464,1
0.520599546162119,0.0095963633281523,1
0.523875794651942,0.0079405121984991,1
0.485736162114884,0.00619311291435821,1
0.390689458110446,0.00388673708205388,1
0.304970502957329,0.00624127458266236,1
0.227860180001717,0.00640364794458396,1
0.22760315434637,0.00644199933696826,1
0.220086484926279,0.00578902524096736,1
0.226912486330699,0.0060700678754503,1
0.220976341455144,0.00739872024620411,1
0.199299151718381,0.00560663703673029,1
0.184885968765757,0.00716691671770854,1
0.145448805163246,0.00291661241326014,1
0.183301744386649,0.00519401824938355,1
0.194879738684211,0.00626550495870268,1
0.255906966656936,0.0104059018697566,1
0.273646549033408,0.0111849137550272,1
0.269824065138589,0.0114209876023382,1
0.264428905864183,0.0134305453393705,1
0.254172570523325,0.0132837031409414,1
0.412965971610557,0.0229398727524845,1
0.533568168606949,0.0393924363109533,1
0.553742797241684,0.0309272326484115,1
0.528421660701281,0.0292591575614478,1
0.515620263643952,0.029299127506896,1
0.566873904216966,0.0156566014047945,1
0.768824418505388,0.0198523677153609,1
0.745216186126488,0.0177024415059106,1
0.70237523452564,0.017141109564749,1
0.838959994521375,0.0205608982961627,1
0.969251269492978,0.0241816914395204,1
0.8402013426615,0.0248273085103146,1
0.529586084434479,0.0188982983683367,1
0.438951079215083,0.0161177824974411,1
0.205741365796243,0.00617388456264009,1
0.126868956584207,0.0116469076175985,1
0.130821993437255,0.00750341255046853,1
0.148936722111563,0.00462438830736793,1
0.170016091779406,0.00565003890006845,1
0.195936163762632,0.0081622951158617,1
0.314479478588506,0.0140541651958678,1
0.339453305693481,0.00665494490582641,1
0.406634428551138,0.00773467352909704,1
0.401979434383924,0.00740471121491623,1
0.405315493390359,0.00733312024356948,1
0.406876628164586,0.00720689168715403,1
0.390908141040094,0.00903528964816205,1
0.302418227641502,0.00980727725645124,1
0.28412939998177,0.00863316012929839,1
0.275362209250683,0.00875051695102937,1
0.163567455996152,0.00323267602559269,1
0.142465639369895,0.0055732120199633,1
0.173731737221502,0.0047443766662487,1
0.191151755963848,0.00454755437917551,1
0.203792909832809,0.0052496353052685,1
0.257027757005526,0.00755411512592193,1
0.239569077572826,0.00535247430055388,1
0.237329850172488,0.00566103542706725,1
0.243007299183807,0.00545015532024503,1
0.30202867702152,0.00721424486163981,1
0.305469654141755,0.00647174098878816,1
0.329321682490104,0.0100899401701933,1
0.276171787468575,0.012597111227545,1
0.28851122211042,0.0136190316204798,1
0.29080226729849,0.0134305356641466,1
0.320709586048776,0.013519507074095,1
0.432231318755897,0.022947751464364,1
0.510595953030646,0.0248502469071819,1
0.538179169398623,0.030890866199131,1
0.300849387644492,0.0232888863444227,1
0.225618534871438,0.0242831272275376,1
0.202475023005928,0.0245476739712743,1
0.201582228104345,0.0219972138024169,1
0.135061363545617,0.0362376932410385,1
0.0385760814159555,0.0166012099216662,1
0.0066172543266928,0.00946339508465824,1
0.00615723673255549,0.0166682926971906,1
0.0072960883345831,0.019842187853062,1
0.00739992177154182,0.0196491380587911,1
0.00768041254080523,0.0236805598567421,1
0.0067778470961462,0.016753210459472,1
0.00591234164458217,0.0160972433508537,1
0.00569281014540236,0.0182128962494271,1
0.00534203869833658,0.018100184998821,1
0.0100133286797656,0.0224200965063387,1
0.016414561637184,0.035160232584197,1
0.0350631939118388,0.0450835815512022,1
0.0802746879470365,0.0482844046043639,1
0.12202978797289,0.0413550619527575,1
0.145842748563932,0.0199561684507856,1
0.315921167399164,0.0341730106238545,1
0.372027684886361,0.0323724819548709,1
0.349858061437177,0.0334900935036744,1
0.297920152079189,0.0302832719439058,1
0.261292537164775,0.0279240717217332,1
0.229203243732507,0.0177813274210213,1
0.352154055167329,0.0235323552544282,1
0.32142769181755,0.0148015727102465,1
0.260685737251422,0.0126221930274378,1
0.244680575083728,0.0137396630581824,1
0.273365861852387,0.0126750983294281,1
0.295411698397982,0.0138874220252306,1
0.292431184159841,0.00973731529294877,1
0.333173816401075,0.0110986732642917,1
0.436705565906159,0.0145343958549067,1
0.458404913410508,0.0130837109879608,1
0.419268804386976,0.0101572895583855,1
0.434200550514144,0.0045610546717284,1
0.527020868025103,0.00544960042901171,1
0.521419491050353,0.00371832850076761,1
0.526454794951423,0.00507755510068272,1
0.492359830798099,0.0044203920365028,1
0.479495747106887,0.00590860805266271,1
0.471797663057161,0.00491631641103146,1
0.435023360681015,0.00429770776836525,1
0.436307245854927,0.00329645478838488,1
0.520345136543382,0.00546897356808394,1
0.510746256828174,0.0140765203269869,1
0.410837529514144,0.0110711132755423,1
0.362939808445774,0.0120985952283505,1
0.434042262154394,0.0128706084335792,1
0.455451456601681,0.0120913649529801,1
0.477019556309333,0.0117434524013022,1
0.463697786068015,0.0132871436285481,1
0.287999731473821,0.00693923171504362,1
0.166427519039054,0.0047558806893271,1
0.250308366080411,0.0118112571228106,1
0.28980654779569,0.015003469681832,1
0.405982827538414,0.0193166767173706,1
0.447934411278406,0.0154270563473459,1
0.411074938038052,0.0177262104926335,1
0.401706882278629,0.0174837739597208,1
0.393531372204289,0.0127407798206097,1
0.402625145894027,0.0129765314012582,1
0.360596562346882,0.0110665166329291,1
0.356891139543788,0.0137064437421033,1
0.386665849277823,0.0150167998331427,1
0.387584842582063,0.0078095908251284,1
0.508605997035765,0.0111222211742053,1
0.493275862365516,0.0127380953996097,1
0.453003081555444,0.0112503229384332,1
0.383839759106104,0.0098810540364711,1
0.328209069257558,0.0135235410815027,1
0.309008388992426,0.0135805759030758,1
0.276308520345533,0.0102485802261907,1
0.291155702055025,0.00867341578209632,1
0.260887549389767,0.00582224555265472,1
0.25190807101098,0.0119377639598275,1
0.129557012676824,0.00714942170273172,1
0.126602696679374,0.00832344913777601,1
0.145781641963264,0.0092047100346665,1
0.171207158053774,0.0112306008992629,1
0.2006771833114,0.0146378121662112,1
0.167884992567096,0.0113870659455069,1
0.104850287804894,0.00848071761886402,1
0.0908869630393313,0.00967940176288226,1
0.127675540743402,0.0204803281113571,1
0.124112278078834,0.00874838625718711,1
0.12617913926961,0.00815538170756671,1
0.138582476571466,0.00719405366732749,1
0.140070060849398,0.00729699430255503,1
0.137219625150064,0.00792957633657253,1
0.121356793979426,0.00758591993333153,1
0.133920463192775,0.00679644615263956,1
0.156945946356481,0.00918246258428893,1
0.153241783904682,0.011194059151884,1
0.135667337857289,0.00804943479249114,1
0.145303168845947,0.0116132978407401,1
0.120092877922255,0.00746443551104,1
0.136478091881706,0.00972556121802491,1
0.147094752315022,0.0104023286489283,1
0.133814728474616,0.00923390396402751,1
0.133152691956107,0.00733238129924961,1
0.132015594307971,0.0104593320726405,1
0.101148430666485,0.00686974596605283,1
