Activity,Complexity,Tag
3.06342080422974e-06,0.0630918955718675,0
2.67528038165424e-06,0.067993192754978,0
3.18624276485452e-06,0.0669091329725603,0
4.89995536716873e-06,0.0694482077224873,0
7.90040748218374e-06,0.0864414228790393,0
1.12178194955853e-05,0.115179455359859,0
1.29708515489694e-05,0.125321777822765,0
1.25919600230015e-05,0.107404996000659,0
1.06526124396043e-05,0.0779914845710837,0
8.80500036525931e-06,0.0562124457452833,0
1.03836536796753e-05,0.0567765233815755,0
1.7021673549471e-05,0.0820365886030818,0
2.68585925689526e-05,0.13811111539426,0
3.46178242160537e-05,0.215587581886951,0
3.43445859895479e-05,0.160653814044509,0
2.71633405374934e-05,0.0978555911899448,0
1.92494724185994e-05,0.0668842208277498,0
1.40104529250877e-05,0.0570121697924332,0
1.18196750398173e-05,0.0563784484025581,0
1.11893743764993e-05,0.0539806089832973,0
1.11472485096625e-05,0.049922884230476,0
1.20044963544975e-05,0.0503721414231519,0
1.47901539571764e-05,0.0523019720782608,0
2.10476399340093e-05,0.0603155819229922,0
3.10620700418822e-05,0.0864689047348865,0
4.08622389834018e-05,0.14066164896846,0
4.50411317462643e-05,0.195295599048515,0
4.01281898277033e-05,0.176754206568744,0
2.79860817438182e-05,0.122273680107767,0
1.55711417922714e-05,0.079062264493959,0
8.46543675617051e-06,0.0617087281557636,0
5.69110217336585e-06,0.0581545978949847,0
5.43808029935335e-06,0.0814749745378588,0
5.75290258090383e-06,0.114483013561761,0
5.32970100931209e-06,0.117161843272862,0
4.04564092523947e-06,0.103514400816173,0
2.43999437802421e-06,0.069315628282136,0
1.96538841265568e-06,0.0518035204890625,0
3.97881182700594e-06,0.0618709785834065,0
1.02200392171708e-05,0.0748064380530114,0
2.24153972412496e-05,0.098524342668205,0
3.68080306591995e-05,0.137847212343039,0
4.80176764159523e-05,0.173344573502201,0
5.33386618746396e-05,0.184809160107364,0
5.08578919263543e-05,0.184178416395058,0
3.96170538954134e-05,0.155431151706682,0
2.52483744847413e-05,0.119996065800628,0
1.3261063723025e-05,0.083642650075176,0
4.94092988394733e-06,0.0553093557326942,0
1.05945793171833e-06,0.0412324468814772,0
6.89434340941637e-07,0.0573150979821996,0
2.49197444683012e-06,0.06222007544946,0
1.01701459703455e-05,0.0553870413654964,0
3.05222900439888e-05,0.0613202731278215,0
6.86302287821803e-05,0.0702066539932335,0
0.00012077531314203,0.0916684351055354,0
0.000171675673800496,0.115388098429222,0
0.000195644661327872,0.104255743585538,0
0.000184941812776168,0.0716826052982816,0
0.000149599802072194,0.0526475187843685,0
0.000104016265927168,0.0385307148101896,0
6.15238591800532e-05,0.0273649804943654,0
3.43955670928621e-05,0.0237130270684426,0
2.45272907159119e-05,0.0273382385021347,0
2.60831032769666e-05,0.04469722349149,0
3.02580382740039e-05,0.0863737564543498,0
3.10310682484022e-05,0.113637972487269,0
3.31791784550436e-05,0.112984774753082,0
4.14753328894156e-05,0.138739741915875,0
5.08100728027956e-05,0.144545703368856,0
5.33248245094176e-05,0.0957568904431892,0
4.85518012532654e-05,0.0534261411597337,0
4.38184022173162e-05,0.0297026820170436,0
5.43281244954643e-05,0.0245972187350955,0
9.14003476639841e-05,0.0317704231780074,0
0.000147416639182345,0.0477732028995881,0
0.000195599284590282,0.0649045057403123,0
0.000207912317362961,0.05604271209095,0
0.000180025501465524,0.0359063606564636,0
0.00013932944208483,0.0237583768361878,0
0.000121676989553819,0.0188700147372627,0
0.000146526361982714,0.0211194836524736,0
0.000202323173163319,0.0334883746069091,0
0.000253007765741385,0.0557470758564986,0
0.000266235084748732,0.0806529577640205,0
0.00023030910252257,0.0777743306931972,0
0.000159075061720439,0.0611249836099725,0
8.4689636123048e-05,0.0459319730220268,0
3.38754066079098e-05,0.0357526359371281,0
1.00195053605193e-05,0.0276662286883521,0
3.90623867719508e-06,0.0330623129936812,0
5.51970763215899e-06,0.0622565381139929,0
8.97170908104531e-06,0.0858096233078508,0
1.20518710230704e-05,0.0978832155022297,0
1.3277842956962e-05,0.0888552717400935,0
1.22909454763406e-05,0.0767667500784662,0
1.07884040200028e-05,0.0456501857832036,0
1.46244950017376e-05,0.037527085481316,0
2.92233809304886e-05,0.0516868900815295,0
5.14676630022367e-05,0.0864997783911518,0
7.73123775564825e-05,0.139177872303966,0
0.000103024885800548,0.23528644362228,0
0.000119765917773322,0.42673092863927,0
0.000120873584255825,0.490383834096983,0
0.00010850591738314,0.377764687203575,0
8.33541335490569e-05,0.148964308107996,0
5.22663613102864e-05,0.0667849132138955,0
3.14320767010404e-05,0.0389908081964978,0
3.05797347926668e-05,0.0337804248842596,0
4.93199930176763e-05,0.0426599520999905,0
8.10950535147432e-05,0.067016131122621,0
0.000113379141957596,0.110682480600696,0
0.000135802653677014,0.162389503720499,0
0.000140003286638035,0.193620425513269,0
0.000118376699639629,0.140415530270403,0
7.92132692013535e-05,0.0808359924007311,0
4.36330644882716e-05,0.0436650809923218,0
2.61919058574705e-05,0.0275953629712939,0
3.16615339950006e-05,0.0346883742978076,0
4.88505977579023e-05,0.0635018902512153,0
6.25862547475819e-05,0.0874149358268724,0
6.6034717488201e-05,0.0885386505558878,0
5.75707707144588e-05,0.0636264527280094,0
4.32190229222903e-05,0.0488502026393877,0
3.0801644817679e-05,0.0424991003443783,0
2.32332113465898e-05,0.0371465024825708,0
2.06442610547806e-05,0.0423556948377189,0
2.08564819611042e-05,0.0624988447659757,0
1.9152623560759e-05,0.0651732668236157,0
1.73995237809009e-05,0.0442081849122301,0
2.5570130264069e-05,0.0365082794149438,0
5.35264165922256e-05,0.0499926147183085,0
9.85093205024561e-05,0.0941325794086519,0
0.000142962506029089,0.169625095415673,0
0.000168269925300457,0.19092381823325,0
0.000160065849240412,0.094744603929221,0
0.00012627057151707,0.0443016728708845,0
9.35632222419606e-05,0.0264550467037277,0
8.41970233814009e-05,0.0215780686994376,0
0.000106237355642464,0.02568040715745,0
0.000149834101809046,0.0376133604029833,0
0.000192370560394602,0.0633580631933081,0
0.000210591690963388,0.0905165718497093,0
0.00019158615237257,0.110581247851129,0
0.00014023184232331,0.0913063900596652,0
8.08157453030039e-05,0.0654110474683556,0
3.5754888221183e-05,0.0496461314623177,0
1.12565251754844e-05,0.0375444727485894,0
3.26890292638888e-06,0.0371868734881997,0
3.77920497646753e-06,0.0848011799184273,0
5.59144266685393e-06,0.135879435233043,0
5.57738942349597e-06,0.0895640895911964,0
5.19862911757144e-06,0.0483326916764704,0
8.02004629852986e-06,0.04686600224333,0
1.48144889258706e-05,0.0587857999713442,0
2.26334891862893e-05,0.0762514443566151,0
2.72464747843459e-05,0.0781378021734372,0
2.72570062510551e-05,0.0617210742767528,0
2.53263149576178e-05,0.0460872528836976,0
2.4818175921803e-05,0.0401804406965749,0
2.73227009308489e-05,0.0405282455461587,0
3.22239177035961e-05,0.0472916758370146,0
3.73567209213304e-05,0.0680966732973501,0
3.77571494660348e-05,0.0782790205510672,0
3.15156469370693e-05,0.0715148087739899,0
2.13341567823265e-05,0.0572676487403244,0
1.26397071871815e-05,0.0451111877296367,0
8.64550451895582e-06,0.0468972209899041,0
8.01319322594055e-06,0.0628402933316546,0
7.81612611817767e-06,0.0757248810297669,0
6.62390313286834e-06,0.0773692599715703,0
5.41173470096181e-06,0.069415734401369,0
5.05938771990283e-06,0.0697677718143244,0
5.71577577443016e-06,0.103424322497463,0
6.20863402454552e-06,0.158539751960133,0
6.15594282776246e-06,0.164761896103073,0
7.19813897441641e-06,0.10185838412537,0
1.33953949513275e-05,0.0710093103115751,0
2.97171704196217e-05,0.0736669070988674,0
6.0518324220364e-05,0.0821781333040299,0
0.000104243280835159,0.0984762085897809,0
0.000143552132711857,0.113942146061339,0
0.000157720714255054,0.0921832219767379,0
0.00014436505357945,0.063729704798888,0
0.000112626971737194,0.0393780744562106,0
8.30018246641396e-05,0.0262219515010668,0
7.25187146573744e-05,0.024338442758635,0
8.24755730294306e-05,0.0313852775305871,0
9.96176007561294e-05,0.0426503383181203,0
0.000108859640058203,0.058071053272025,0
9.92450670529096e-05,0.0772050138831846,0
7.14300750811652e-05,0.0657474108642602,0
4.03571688034408e-05,0.0490016227444682,0
1.68220540002187e-05,0.0338085966769209,0
6.43111549168223e-06,0.0301393361429873,0
6.89540163557285e-06,0.0483453971599477,0
1.11628128999719e-05,0.0761302074099352,0
1.597819906562e-05,0.0970583160983404,0
2.00883282928349e-05,0.123885489135418,0
2.10212604723808e-05,0.143032471605195,0
1.81067871161268e-05,0.12226841141546,0
1.30196357747828e-05,0.106233921683966,0
6.92552298489067e-06,0.0657257161678255,0
5.26891649888433e-06,0.043187300883237,0
1.34408267166772e-05,0.0544654265455159,0
3.52649845384965e-05,0.0665630554169844,0
7.76767925486299e-05,0.0736477525349408,0
0.000134778307689167,0.105262951334795,0
0.000181620878986117,0.122673444039112,0
0.000194017363473495,0.0799842944613008,0
0.000173709567541617,0.0425040053217159,0
0.000140016831932838,0.0249397246801381,0
0.000124270206613491,0.0181061217103998,0
0.000150920895838838,0.0200468850028538,0
0.000213325694430918,0.027705878760056,0
0.000286154308501763,0.0424630858276871,0
0.000333880896532402,0.0696003082924107,0
0.000325703331154029,0.102004921813651,0
0.000258377852893732,0.0868465249415875,0
0.000163657299499294,0.0572436344229436,0
7.81420268631567e-05,0.0388355433636684,0
2.7151860900148e-05,0.0298389777999623,0
1.01412775607969e-05,0.0320425070093487,0
1.39425952310301e-05,0.0692031344903204,0
2.72780691844735e-05,0.13168745941248,0
4.78118090994722e-05,0.164363228360444,0
7.55161487113912e-05,0.210380664852882,0
0.000107171185197791,0.284174829436408,0
0.000135608867070336,0.412098584335064,0
0.000148197868293004,0.321880951784133,0
0.000136368491435784,0.142880811131689,0
0.000105786466641715,0.0745127998945945,0
7.29610320262567e-05,0.0457795509892356,0
5.03711713879464e-05,0.0338718867808629,0
4.44443980166296e-05,0.0328623610536022,0
5.3335512593598e-05,0.0454496942923209,0
6.63193718584828e-05,0.0682556852983883,0
7.38129294796446e-05,0.118079627269751,0
6.97245192860651e-05,0.18770064219058,0
5.36965793581863e-05,0.182169102220358,0
3.48854453781209e-05,0.153818988529792,0
2.23527290882633e-05,0.145117572232546,0
1.62125115011861e-05,0.182497320834817,0
1.36650860037568e-05,0.187647563320916,0
1.1544282264857e-05,0.103970480535908,0
1.01123541234882e-05,0.0528540558187372,0
1.19092390687965e-05,0.0458036639008969,0
1.8637970084725e-05,0.0522428724746768,0
3.0180893587197e-05,0.0726534529541093,0
3.81711317713514e-05,0.0730841328643684,0
3.89501386070815e-05,0.057970071845995,0
3.53341713646067e-05,0.0509400084535606,0
3.08124768206166e-05,0.0424505439106553,0
2.91387863315402e-05,0.0387812933887902,0
3.08714877440062e-05,0.0441013045785901,0
3.29809303668901e-05,0.0540119384322937,0
3.28409566767212e-05,0.0583247477810095,0
2.93621143796021e-05,0.0537739262215873,0
2.5880262487294e-05,0.0362088554498048,0
3.64891617208267e-05,0.036829496555674,0
6.66167545729746e-05,0.0600387347469302,0
0.000106632738564855,0.100893391357507,0
0.000141493861672995,0.190261761337303,0
0.000148705304666651,0.175886107414639,0
0.000124065232439887,0.0729852705641368,0
9.05615214200809e-05,0.038310595970601,0
6.7509558816667e-05,0.0267535594815369,0
6.11354690161048e-05,0.0246409696820424,0
6.96415077934468e-05,0.0330518247642295,0
8.30783725113942e-05,0.0499997210314282,0
8.96970776373819e-05,0.0627467575108144,0
8.26430605996678e-05,0.0747158859529548,0
6.05454148099698e-05,0.0724109863229215,0
3.24004298264957e-05,0.0507828775314404,0
1.22743863534442e-05,0.0387164805463862,0
3.63564178317589e-06,0.0332863326096831,0
2.19397796116755e-06,0.0478474716283588,0
2.37504468944457e-06,0.0686242446965347,0
2.34177829198971e-06,0.0680652332522168,0
2.42827769801975e-06,0.0702620515532955,0
2.31656287913329e-06,0.0775411354890756,0
1.96203595219197e-06,0.0525374487410841,0
4.20738867680394e-06,0.0416195378275437,0
1.92757672221354e-05,0.0319432387059467,0
7.4229176388936e-05,0.025098780485289,0
0.000208478557247671,0.0251983784368509,0
0.000445181843169062,0.0311267127594389,0
0.000756011543253788,0.0422808156478114,0
0.00103661132001703,0.0559228123378712,0
0.0011361207954574,0.0398587803930048,0
0.00101576654627013,0.0201710718726534,0
0.0007954055992677,0.0113883960023558,0
0.000639492377616947,0.00785999517695436,0
0.00066564929428478,0.00803138218178538,0
0.000880033875205291,0.0112542322801019,0
0.00116957843554326,0.0186033249901556,0
0.00137446589809603,0.0308933609219058,0
0.00135758321196995,0.0460005724179568,0
0.00107757931388961,0.0407103472298818,0
0.000658518674372051,0.0240380971869179,0
0.000305068026925436,0.0137248864075749,0
0.000144892410002266,0.00903904478147443,0
0.000210748346530688,0.0121003261882244,0
0.000480491141986087,0.0215899254396325,0
0.000859441827029071,0.0406833774224043,0
0.00121923651488631,0.0635073681260528,0
0.00144500623778936,0.0703463736295729,0
0.00140762491945925,0.0384705592100689,0
0.00113682809265586,0.0190852715081636,0
0.000813717309762575,0.0107690107992486,0
0.00061865187910371,0.00805341753447844,0
0.000624071605528605,0.00886855983220457,0
0.000757316975273316,0.0131362054804317,0
0.000854398367729275,0.0165595306106487,0
0.000821101493361109,0.0141178682606857,0
0.000696111709892835,0.0105492060809513,0
0.000585536118025771,0.00823908751023839,0
0.00059613957797686,0.00866006804925127,0
0.000704714766844203,0.0123887117121128,0
0.000813572870358026,0.0188470555065889,0
0.000818331175804794,0.0265248140537238,0
0.000666310943839757,0.0295021559391782,0
0.000421379526261331,0.0233328318229275,0
0.000203239444630257,0.0179506561512359,0
7.0129015652115e-05,0.0134278653302225,0
2.09276286220561e-05,0.0129178241150922,0
1.50909272282736e-05,0.0297639563133031,0
1.49521091210675e-05,0.0254335733306096,0
2.232753483993e-05,0.0215833440645751,0
4.49183436488765e-05,0.0290783786449083,0
8.27117479430321e-05,0.0366972387529816,0
0.000141336224071823,0.0452028276870149,0
0.000214214583237831,0.0754219414587381,0
0.000268248017146146,0.154527745685867,0
0.000296842236064661,0.22352858422468,0
0.000316676916013598,0.295559515267617,0
0.000306583504138311,0.266968785983819,0
0.000243034195861865,0.075181769050448,0
0.000167093537611353,0.0359732734308422,0
0.000116313730076633,0.0162617986003699,0
0.000146670090259287,0.012922383112471,0
0.000270499482185037,0.0206898387483807,0
0.000380913923140089,0.0252145656417846,0
0.00042922482555819,0.023703486715118,0
0.000427469270693649,0.0227073535356081,0
0.000374179774006239,0.0194146521812891,0
0.00029237112473095,0.0153403876920088,0
0.000227724173490156,0.0135359651778728,0
0.000205251090224665,0.0142422199356605,0
0.000232492400865367,0.021068308150962,0
0.000262954029153162,0.0632706077270275,0
0.000223392841133001,0.101088759180836,0
0.00014396655100635,0.0547331337712461,0
7.7007760807985e-05,0.0128953663657661,0
0.000110649566108306,0.00822869275154064,0
0.000328026349212716,0.0142164994495834,0
0.000713597098144072,0.0221148833382332,0
0.00116886450961615,0.0320944447258566,0
0.0014252399827437,0.0266619341639316,0
0.00135575547761573,0.0140507081250063,0
0.00118150050877888,0.00872435807827767,0
0.00116792491061182,0.00645555564994406,0
0.00146510612191183,0.00654517774674399,0
0.00204013021495933,0.00948665351188282,0
0.00263287383514455,0.0136635198461867,0
0.00294293240582906,0.0183553682198186,0
0.00277413348173879,0.0224603007012475,0
0.00206473422283868,0.0184823432539658,0
0.00114375461883915,0.00877500966276227,0
0.000554020449924179,0.00495874844171389,0
0.000513907299606611,0.0057969415919966,0
0.000916524052823228,0.0139155873908527,0
0.00151316824805925,0.0373236131571704,0
0.00195342701573608,0.0641113792467161,0
0.00197757746365186,0.0314961968923416,0
0.00167277736689053,0.0174849936156813,0
0.00126333870796136,0.0129724808203169,0
0.000864226528869086,0.00948799007733913,0
0.000546140474672624,0.00792040911812482,0
0.000364743770315494,0.00696546348607286,0
0.000326383867929447,0.00687530145757445,0
0.000379518842433488,0.00856894683902202,0
0.000433905452972169,0.0109122119230187,0
0.000421075942341562,0.00938134608314085,0
0.000401232944735035,0.00960841935487003,0
0.000402879785910069,0.0102472418107949,0
0.000412318718770816,0.00945727493596577,0
0.000479237440293992,0.00897155858109761,0
0.000673393325571369,0.011043448213618,0
0.000949903299515414,0.0197786378900589,0
0.00114366179547361,0.0410726187980683,0
0.00110243205147768,0.0485404573254692,0
0.000832886598268846,0.0269747431420244,0
0.000522306990888133,0.0166743785331209,0
0.000310475473694012,0.0141442128583322,0
0.00019528131302769,0.013054805350601,0
0.000146305755692327,0.014127979393216,0
0.000139703067877444,0.0202962808735559,0
0.000132800999417085,0.0259604132766904,0
0.000107472517212299,0.0236191559855316,0
7.88132766458255e-05,0.0171914114747314,0
6.90632041305532e-05,0.0160521113444224,0
8.8275956101523e-05,0.0234580091603174,0
0.000101964894522847,0.0230034000240488,0
0.000105120406400117,0.0140710988836079,0
0.000157802460109189,0.0125896281732721,0
0.00029993480041724,0.0150149300851155,0
0.000538793781910362,0.0187397059662062,0
0.000828257442975119,0.0251775386839711,0
0.00107322054384467,0.0325348464002336,0
0.0011775693975541,0.042083704398699,0
0.00109139399497575,0.0460467854115537,0
0.000809798622112875,0.0342081091303004,0
0.000454540778365284,0.0190923599299994,0
0.000193202635155627,0.0139984208444515,0
6.96436200128551e-05,0.0130483470084012,0
3.53121221644105e-05,0.018000345237071,0
3.57917271901422e-05,0.0574596910799395,0
3.19939651597947e-05,0.0621893894344985,0
2.39679758631701e-05,0.0389665646067379,0
2.36257539899763e-05,0.0356743628446317,0
3.19421205439368e-05,0.0455298950326427,0
3.99871790759011e-05,0.0491778630750448,0
4.08041635319346e-05,0.0232730560925077,0
6.30280176059581e-05,0.0130853756750039,0
0.000174938714153978,0.0137259683138327,0
0.000427401341040213,0.0183911020082236,0
0.000774508489887996,0.0267452566569169,0
0.00104454494733472,0.0319652710902952,0
0.00109690824639385,0.0221851636823143,0
0.000967066944686037,0.0135930242824271,0
0.000800414441873465,0.0093408948365199,0
0.000740050957304316,0.00741352293509091,0
0.000855908024698289,0.00869143527649048,0
0.0010824774618065,0.0114455344682371,0
0.001267656393434,0.0164739274370106,0
0.00125515369267085,0.0218021285558964,0
0.000991577697443576,0.0189766272198114,0
0.00060706520006612,0.0125109399423064,0
0.000313601050469768,0.00946386922713545,0
0.000194859715726952,0.0108256563832308,0
0.000187076754416518,0.0188134842092923,0
0.00022274651469277,0.0354718501095869,0
0.000316141813375317,0.0271191137074997,0
0.000564249369775255,0.0204421801176119,0
0.00111452163344806,0.0186127027496817,0
0.00203239879349562,0.0222420382445232,0
0.00303288965471636,0.0301990778452323,0
0.00363102955526776,0.0267618744143844,0
0.0036602953499026,0.0186149332343991,0
0.00318852198081614,0.0130560686587396,0
0.00238360885023533,0.00851672669376289,0
0.00163030082506995,0.00521502665704619,0
0.00139398222975387,0.00438965956226795,0
0.00177775524292609,0.00693628908715708,0
0.00254282873232173,0.0158881157428718,0
0.00321151640131407,0.0546708383603397,0
0.0033485026767142,0.157519969570982,0
0.00296228787441239,0.103382440021291,0
0.00228421872577379,0.0503904768014404,0
0.00152686423426678,0.0249205930591741,0
0.000867657687495594,0.0131680964255985,0
0.000486616493612119,0.00735028267293001,0
0.000494005079431463,0.00703139050386896,0
0.000825147273972201,0.0127665235073776,0
0.00121958199186316,0.021245899032663,0
0.00143465428009953,0.0280675675676814,0
0.00136994102464067,0.0225026060098902,0
0.00109894974666458,0.015298445585771,0
0.000768618085633225,0.0108825133703647,0
0.000499104459634271,0.0089450737958633,0
0.000340218502927993,0.0080311102710466,0
0.000291508065108064,0.00960177232205471,0
0.000293858228784117,0.0179689838944856,0
0.000262820586834831,0.0237248755857891,0
0.000200444267225075,0.0191937534786517,0
0.000173889584509547,0.015539831357363,0
0.000240523715156011,0.0179696255148288,0
0.00040191153014142,0.0279492053965129,0
0.000580831350356712,0.033749133679898,0
0.000704618616415626,0.0364782328149183,0
0.000727848335615899,0.0372232487249576,0
0.000628267967488859,0.0337178374770618,0
0.00043202790579631,0.0193326994520814,0
0.00028047148165694,0.0111304245612196,0
0.00030186256677358,0.0109765189054673,0
0.000508989455984494,0.0185946257562638,0
0.000810212198059348,0.0405996979100306,0
0.00101097303998849,0.060074230497576,0
0.000982227452400551,0.0348244348098985,0
0.000789854191412798,0.0197683101863021,0
0.000574343425052045,0.0124891457703833,0
0.000437617773822643,0.00971239468983626,0
0.000427617507013648,0.0105404690874949,0
0.000517939001576918,0.0154257164877132,0
0.00062645672453106,0.0251255592617544,0
0.000676203720268682,0.0424566711652929,0
0.000598215631448055,0.0643013766166219,0
0.000410029077165103,0.0530869602329537,0
0.000220488361664569,0.044179649385033,0
9.69638023654516e-05,0.0411623708414691,0
3.62444448056902e-05,0.053948286531177,0
1.76245111275762e-05,0.144185176947263,0
1.40438463096813e-05,0.26140859697444,0
1.09882817764372e-05,0.0789695489520692,0
8.90467680338974e-06,0.031655278454824,0
2.04903568754879e-05,0.028297085374429,0
6.25577376691173e-05,0.0353965838276862,0
0.000138388429290354,0.0508161634400855,0
0.000213369526158319,0.0653302465552635,0
0.000249928581600328,0.0598870067152358,0
0.000244460176772235,0.0431222018288757,0
0.000205431124124213,0.0262031013629502,0
0.000168916035862553,0.0165244577407181,0
0.000177365015085538,0.0154802994981371,0
0.000246097756351948,0.0204695140258655,0
0.000359886258283009,0.0330618907902869,0
0.000467856662436119,0.0666997772573398,0
0.000505008210237328,0.133883535073862,0
0.000452151134387785,0.125040418700129,0
0.000343447790099989,0.0879580838677047,0
0.000213969095934053,0.0634050237776514,0
0.000106555530384479,0.0518482531052255,0
4.34126148153553e-05,0.0518696768725942,0
1.4456706895272e-05,0.0455139540610849,0
3.762997184655e-06,0.0402421244905701,0
3.27310196777776e-06,0.0661168742188195,0
8.19020906449059e-06,0.110620765307407,0
1.80129859496171e-05,0.131624728752993,0
3.36007757557821e-05,0.157691444815626,0
5.621759153075e-05,0.178681402555145,0
8.30460331200524e-05,0.22335216885977,0
0.000105528987519131,0.280067640625097,0
0.000121348486524517,0.373425194451073,0
0.000134795323965763,0.442066564628675,0
0.000144133767670691,0.622272071415566,0
0.000149149759652369,0.550291920403933,0
0.00016658181330532,0.316939060355635,0
0.000197410311669946,0.318915352022176,0
0.000212416750121887,0.1947273596541,0
0.000205613934809196,0.141348600019474,0
0.000184233597037401,0.0998522377801811,0
0.000145875764541715,0.0847527641012313,0
0.000105854087293113,0.0557073589467126,0
0.000121976611474858,0.0168083653051938,0
0.000325224606572459,0.0124783611376852,0
0.000838092393693949,0.0143729489871753,0
0.00167263251689423,0.0182428294891137,0
0.00261818430579614,0.0264640454322192,0
0.0031911184783769,0.0261261485956726,0
0.0031020997110071,0.014961551290412,0
0.00263474691237313,0.0090401093941274,0
0.00223280095601838,0.00593326776113155,0
0.00230831091622321,0.0051521350296819,0
0.00306247291719814,0.00696511682376705,0
0.0042126914353753,0.0116733051726945,0
0.00517494328596611,0.0200679989775255,0
0.00536026779564951,0.0312734019863997,0
0.00444349394642559,0.0242693619946199,0
0.00282994009632651,0.0107290430290552,0
0.00147150137623552,0.00578726515866603,0
0.000976654782665713,0.00413462598429776,0
0.00150813831712264,0.00735757560144374,0
0.00260188785579622,0.0184248665683274,0
0.00348734320138312,0.0315608801442683,0
0.00378062850229322,0.0311978403903901,0
0.00336849465139903,0.0186015693900865,0
0.00252683442705401,0.0103310533285936,0
0.00178511446931895,0.00759113278140219,0
0.00143230932289616,0.00722917490736892,0
0.00142264905145253,0.00862309381668784,0
0.00153608837684809,0.0114999887018443,0
0.00151803935194849,0.0128074473532075,0
0.00130897453741014,0.0103384968750082,0
0.00107662799820527,0.00816638041712829,0
0.00100186982302653,0.00719072669056864,0
0.00123032518846176,0.0108508564295546,0
0.00161119125861505,0.0231395213714596,0
0.00183395044239137,0.0489623722248558,0
0.00175336526763624,0.0754201480060219,0
0.0012935735372193,0.0245851311901272,0
0.000730837718685317,0.00891295719313113,0
0.000460563537081898,0.00629931832069173,0
0.000561169013119617,0.00705063597345156,0
0.000959193505039225,0.0116431492983315,0
0.00139561738387923,0.0195804410010417,0
0.00159341932388516,0.0203368661273553,0
0.00153566916267266,0.0181424956291005,0
0.00127567004381364,0.0142508003905205,0
0.000886313791343737,0.00974227113062682,0
0.000604241018798441,0.00807595852002122,0
0.000580860722481911,0.0115899342923131,0
0.000649015062728621,0.0154842796118125,0
0.000662161109967151,0.020111072843812,0
0.000555065300102033,0.0213701622533889,0
0.000376571365119866,0.0153636959634807,0
0.000247212720362025,0.0130016642828767,0
0.000175783703507017,0.00969069346029384,0
0.000209413453494963,0.00709036126847064,0
0.000459495964672011,0.00837639163215273,0
0.000950290051545272,0.0106211435763588,0
0.0017559539893512,0.0132313620502369,0
0.0027423998571451,0.0209723929163564,0
0.00343111194603623,0.0304725869735306,0
0.00362160162795904,0.0386233847041537,0
0.00344646238418131,0.0511674083080116,0
0.00290950014623934,0.0539624618807147,0
0.00214803916157018,0.0414632183228115,0
0.00154588702194395,0.0446137875928326,0
0.00114175038929365,0.036247149592295,0
0.000725064443134449,0.0115125067975625,0
0.000557084937420374,0.00552313489710811,0
0.000873753171746585,0.00597951750284597,0
0.00160867640531872,0.0080888136685254,0
0.00255917485545744,0.0121256351842243,0
0.00332286735971889,0.015396257712568,0
0.00359061784548821,0.014905513249122,0
0.00330705018034524,0.0122939269490916,0
0.00260987189700801,0.00782285589604241,0
0.00198861146079826,0.00401917518462528,0
0.00240205185273299,0.00358836937297734,0
0.00453492922825145,0.00589356832948962,0
0.00875536817012805,0.00961436415349858,0
0.0142541763436453,0.0224664871746352,0
0.0193415844656826,0.03858456143703,0
0.0235585186006251,0.0652118508742367,0
0.0260682030590233,0.0971460481288847,0
0.0250075667247533,0.0389768978477438,0
0.0209688978971483,0.0269435139408562,0
0.0155716942540515,0.0177924573360934,0
0.00990683712219493,0.017108572349605,0
0.00590420756627551,0.0119693385866242,0
0.00689856146501283,0.00658532335809861,0
0.0146331656285455,0.00778330137113089,0
0.0286618281029749,0.00977185244557711,0
0.0468575975453956,0.0169317825069861,0
0.0586910019817367,0.0161419460465668,0
0.0579383172941065,0.010193596436381,0
0.0501661977053593,0.00782540461618208,0
0.0407564401863089,0.00622781175011844,0
0.0313873420569864,0.00535838826677705,0
0.0242791994138658,0.00466159624378792,0
0.0216690203222703,0.00553181792673664,0
0.0216181249606722,0.00730098566626925,0
0.0200918282065312,0.0104603729843267,0
0.0141239024390847,0.00807012503010129,0
0.00823134685286643,0.00444117979467436,0
0.00823402856726311,0.00573828915807218,0
0.0117718212741672,0.00837531269796856,0
0.0153534057498527,0.01014443801369,0
0.0174680751295054,0.0090784890149687,0
0.0181962919521677,0.0106107550365289,0
0.0158807436960403,0.0099938875031163,0
0.0113111025545688,0.00599367196823754,0
0.00780188352429709,0.00273228874452838,0
0.0100801549047831,0.00297036865854732,0
0.0199500252116005,0.0106845921986284,0
0.0300154508485265,0.0284759019595297,0
0.0332400641953855,0.0266978572470876,0
0.0299601579392442,0.0144883620020973,0
0.0237523483829301,0.00616138583720107,0
0.0204266457136373,0.00364478648357835,0
0.0242012893332445,0.00426533716793737,0
0.0346859711868134,0.00589901679109129,0
0.0495437227302911,0.00870597598667951,0
0.0620445517030209,0.0159544546445166,0
0.0628152211388939,0.0203237520099795,0
0.0516916932510798,0.0148120137853887,0
0.0350587714783666,0.0092614235418471,0
0.0183603635683718,0.0034108340890391,0
0.0102169530572029,0.00262698968657245,0
0.0121628006000526,0.00536434269534706,0
0.0204292298849798,0.01040371106315,0
0.0301626906242549,0.0271008071930233,0
0.0339487358222133,0.0350628828402616,0
0.0299378219639925,0.0190939213970578,0
0.0228430341645968,0.0102782058554891,0
0.0168696855680063,0.00459058860198033,0
0.0168856555383053,0.0039992919304888,0
0.0236370519976171,0.00709982817316229,0
0.0315057635915519,0.0099660154915688,0
0.035741200954759,0.0110601700851508,0
0.0336526441901943,0.00892185185707457,0
0.027570217489105,0.00480728128845808,0
0.0250669353285837,0.00370501077870434,0
0.0292569687408575,0.00457184451995104,0
0.0374939103761526,0.00543480862017539,0
0.0458369596370291,0.0114799939672278,0
0.0457278539593895,0.0120810217334548,0
0.0366884182350138,0.00585727385170592,0
0.0270855315047714,0.00331566248119307,0
0.0241121376569023,0.00204263851698654,0
0.0319733085852204,0.00338948501916142,0
0.0461181090437593,0.00908083993691313,0
0.0558437434048212,0.0158380912774583,0
0.0556735682449157,0.0162388720937546,0
0.0459760853705788,0.0119956751960394,0
0.0300559129933647,0.00491261849894525,0
0.01616357077219,0.00253367935801766,0
0.00955594321263592,0.00224058401085955,0
0.00944431506247168,0.00473328961925906,0
0.0112131967023472,0.0100364302670673,0
0.0112789565731052,0.0127452430283606,0
0.00905586748763781,0.00937622177797133,0
0.00621972059436737,0.00638311857609885,0
0.00412205755245064,0.00543078446236887,0
0.00300162386767355,0.00524691308457277,0
0.00277618393883571,0.00799815852051372,0
0.00278026928440634,0.0107642322996603,0
0.00246566386302565,0.0102877002499653,0
0.00206065143394245,0.00556635496998964,0
0.0029508961925922,0.00449347794201958,0
0.00729298266723932,0.00593066396942886,0
0.0168794960186731,0.00699354126276054,0
0.0320657989904836,0.0118705093117444,0
0.048509980494194,0.0242059641723174,0
0.0592220865564668,0.0270385379228086,0
0.0593697440902514,0.0158964849797675,0
0.0498608383995679,0.00776851455483017,0
0.0376824282525793,0.00341255522434713,0
0.0326807692415283,0.00285748210280117,0
0.036765316803814,0.00363960991620293,0
0.0467910444875715,0.00534776099054252,0
0.0569747608115151,0.00898644923047169,0
0.05954870215476,0.0126120170129797,0
0.0510200874642004,0.0117236922222135,0
0.0345491632309865,0.00609464629764666,0
0.0189906251873775,0.00265704943122393,0
0.0121254952538948,0.00130763843146307,0
0.0165443367341488,0.00398263415189747,0
0.0264867596442581,0.0172999120450896,0
0.032395507749969,0.0306161671845991,0
0.0295230402492399,0.010964245710697,0
0.0232336968903808,0.00369477433452593,0
0.0237127059612373,0.00264950286407673,0
0.0354926068302053,0.00337177673076358,0
0.0565688980299887,0.00578366966440068,0
0.0784895987045072,0.00923823396181496,0
0.0920535363706738,0.0125988595813564,0
0.0928421453939303,0.015739044507623,0
0.0777166648847703,0.0151701509296812,0
0.0508888187127643,0.00836985154037999,0
0.0244967321583411,0.00368466746522567,0
0.00850964097917867,0.00238957535746712,0
0.00349422311482066,0.00187674801796766,0
0.00621156395646947,0.00709518581566251,0
0.0120477139170677,0.0186405948373445,0
0.0182043876193074,0.0270961870405912,0
0.0224571720309768,0.0301653280189381,0
0.0217340688576388,0.014055158658412,0
0.0183028062709927,0.009453227940909,0
0.0144406726313846,0.00674606634591115,0
0.011566293707544,0.00570108117537078,0
0.00972769634435817,0.00596332871411091,0
0.00888648868947703,0.00568629663000916,0
0.00894355838164059,0.00554112076748466,0
0.010036282969021,0.00569658143690574,0
0.0120656682053289,0.00603915679299062,0
0.0145780982484217,0.00604253672876556,0
0.0170461051426791,0.00821852727163925,0
0.017838097568932,0.00908721197017686,0
0.0161133355066708,0.00795061164514512,0
0.0124992308480541,0.0049950182176555,0
0.00999178743328355,0.00224193019245322,0
0.0117152363808033,0.00473957287425322,0
0.0147901031623209,0.0100849328830163,0
0.0151853679485761,0.00827883086750832,0
0.0135844386180024,0.00493248852148536,0
0.0139035979336325,0.00291166764842406,0
0.0220345662830402,0.00392329533814502,0
0.0362515175279335,0.00865765643915136,0
0.0470204109264667,0.0115988063896023,0
0.0496970787865309,0.0113822524029284,0
0.044848570459653,0.00969719222383416,0
0.0345608925462112,0.00616004689271487,0
0.0250936139549796,0.00433068627540373,0
0.0216180636893778,0.00459850776663239,0
0.0234767481279166,0.0064233447055879,0
0.0258876887628961,0.00934510704969359,0
0.0240740584468878,0.0101199000228804,0
0.0181032074841376,0.00452264489064445,0
0.0147266037345926,0.00297534821771564,0
0.0177106759648246,0.00360825297910269,0
0.0258433202862569,0.00816670231941539,0
0.0321210879208356,0.0161327341676588,0
0.0312536147329539,0.0131070453161965,1
0.0251750668878817,0.00793218409236691,1
0.0184105147303089,0.00375569297480005,1
0.0180775766878845,0.00265054666406415,1
0.0271241548970046,0.00498357312403823,1
0.0409458940976343,0.00962566907356586,1
0.0521653983739188,0.0156401055219156,1
0.0542424370748299,0.018821856831964,1
0.0449444589560918,0.0113913473940339,1
0.030900378109631,0.00657511662333366,1
0.0187625169201216,0.00490984663111498,1
0.0103785834514866,0.00424154497819274,1
0.00600000849238343,0.0035590538285073,1
0.00556686098754648,0.00450685479844153,1
0.00665236577617946,0.00541458044055494,1
0.00801950558729295,0.00615568843445662,1
0.00898750412656067,0.00655496954860833,1
0.00929714001632086,0.00635397828939397,1
0.00922673896035424,0.00684777620982441,1
0.00861824071889284,0.0066985809094996,1
0.00851619974637515,0.00416865385696847,1
0.0139536994732287,0.0024088466506067,1
0.0309927527237882,0.00329337519498528,1
0.0622822357360125,0.00679080596429366,1
0.0997556894957723,0.0224380492068261,1
0.122258105164886,0.0295100492548296,1
0.118262382206634,0.0143344847353986,1
0.0974262182427623,0.00643902354301794,1
0.0780759256552026,0.00315304918931365,1
0.0783362459880292,0.00266604175030412,1
0.103526730892378,0.00370451887416662,1
0.144543416158935,0.00587218663050701,1
0.182183420124902,0.00970663835357625,1
0.192179894776232,0.0132068937389823,1
0.162661039815674,0.00920352504429748,1
0.111086935596875,0.00443894070193886,1
0.0664516017544077,0.00246076489618613,1
0.0443930004462951,0.00220545264527898,1
0.0440484987476013,0.0045694125639361,1
0.0497451828522973,0.00908727422080209,1
0.0482722212890492,0.0109651240771787,1
0.0378562633130443,0.0086162731862716,1
0.0230923508248057,0.00419940664506229,1
0.0118916485224956,0.00211748311905491,1
0.00914883502591048,0.00240320746122744,1
0.0146429108459192,0.00748102328292141,1
0.0223380855536566,0.0304241659594476,1
0.0254091943836118,0.0450518707868519,1
0.0229938247885629,0.0237575642368021,1
0.0173883353462292,0.00895566389086473,1
0.0129945706935341,0.00403743854344601,1
0.0133557984143208,0.00465182925001811,1
0.0168385363382252,0.00635654861643045,1
0.0204808532723103,0.00725867440137743,1
0.0230842848091629,0.00896106297270399,1
0.0228716543566181,0.0114237544182174,1
0.0190229552790278,0.0115341820509305,1
0.0132956641627017,0.00939924784511351,1
0.00757701419100282,0.00614823044153911,1
0.0044946031585983,0.00429105552312312,1
0.00547762045407042,0.00908224112057527,1
0.00686075700437179,0.00935700677094001,1
0.00702793419687727,0.00565546792870366,1
0.00769645265974009,0.00418721187899014,1
0.0108522405223923,0.00428124802671372,1
0.0167148995222954,0.00617144390924708,1
0.0225409438167595,0.00756355614569959,1
0.0259998531966791,0.00825225531776254,1
0.0265054869667265,0.00894998035883234,1
0.0234304381703101,0.0106287087350933,1
0.0162841868180625,0.00767336176889328,1
0.00871866835790851,0.00490122994851103,1
0.00408574183822977,0.00383847230045634,1
0.00234700827846475,0.0038605578855421,1
0.00238809850592421,0.00552849493866682,1
0.00324268510668929,0.006203284147732,1
0.00581550984778997,0.00561360912673346,1
0.0116556594672705,0.0106580900407073,1
0.0169564782339017,0.0127109478623607,1
0.0186905601150875,0.009450135741553,1
0.018154425139094,0.00684031149591177,1
0.017640864920735,0.00487998608174131,1
0.0198375631495946,0.00428856788946659,1
0.0257292933490412,0.00544324991866514,1
0.0327356671827129,0.00750715160265434,1
0.0373498159829607,0.00904266428939399,1
0.0369061564446797,0.0117534619000032,1
0.0292739588708017,0.00961594217198773,1
0.0182769767483332,0.00655124576379828,1
0.00952693167588324,0.004693948223884,1
0.00447365914863534,0.00347724937391034,1
0.00266232803213139,0.00415664309417991,1
0.00299989174616902,0.00422595693427726,1
0.00770404399745811,0.00308583533279475,1
0.0262716571457814,0.0035417055111237,1
0.0643927105950185,0.00630185947423161,1
0.112700593779607,0.0102244704250998,1
0.155069202140823,0.0130387275426369,1
0.177251016170151,0.0130002174622425,1
0.170460011169315,0.0110308965921631,1
0.137978762494797,0.00826608476794927,1
0.0929033629516658,0.00516172162202602,1
0.0527807351267776,0.00288731682307993,1
0.0309803453311056,0.0023252736436277,1
0.027821098834043,0.0049297805441198,1
0.0294727827906018,0.0104332209016576,1
0.0256096912743072,0.00666873424676624,1
0.0207627874299278,0.00341644402095933,1
0.0221898144603465,0.00300442159833362,1
0.0311913185464617,0.00602971721698382,1
0.0406045374936395,0.0114135296094402,1
0.0426903678231702,0.0108702255522683,1
0.0379002741304072,0.0110576001429437,1
0.0289016628536424,0.00948370011217404,1
0.0182427237793314,0.00692984115861,1
0.00882864914201754,0.00375950528011054,1
0.00530421338259209,0.0039647971927874,1
0.00906521849460367,0.00634788606693626,1
0.0187027622753893,0.0121318445769041,1
0.0299494168252347,0.0192983492099543,1
0.0406157936674839,0.0219303058828414,1
0.0491237254675012,0.022710515992162,1
0.0514512510997631,0.0147881675572565,1
0.0469600837856167,0.0132861789299389,1
0.0377139822200019,0.0117126789045905,1
0.0251517950936095,0.00877865363167092,1
0.0123254058703678,0.00509164658256885,1
0.00480671978444353,0.00394155007662222,1
0.00316320370837731,0.00388951484559599,1
0.0042857036559172,0.00693489959749121,1
0.00615486642974642,0.00911934329688662,1
0.00890151266908574,0.00854359050368122,1
0.0128824547646053,0.0190141695960925,1
0.0159425085344807,0.0337032515283673,1
0.017829565197255,0.0474458411622644,1
0.0173099648991338,0.0577372521243826,1
0.0125000663514679,0.0130587767922858,1
0.00763623323784698,0.00410559593726148,1
0.00901801058977427,0.00247785533133851,1
0.0232885731506278,0.0028645086282899,1
0.0512745583164941,0.00860987085387794,1
0.0786191422637036,0.0135181802086452,1
0.0963488479581689,0.0165837749758155,1
0.101188389553862,0.0168373532195903,1
0.0883092268461709,0.0109541506889961,1
0.0638626127526856,0.00653941793013747,1
0.0429148815289823,0.00515500656297677,1
0.0310814326175124,0.00445414718202227,1
0.0288916794337938,0.00558369745913424,1
0.0313266737355578,0.0112490657867975,1
0.0290640980670143,0.00952642654849138,1
0.0234733179301595,0.00838020241671134,1
0.0169664119298196,0.00691476755077768,1
0.0105684380622626,0.00455902018484975,1
0.00794900129501542,0.00593592475324255,1
0.00780913446029091,0.00839003517887051,1
0.00726005110947199,0.00730311294192581,1
0.00674591106783743,0.00653486802482699,1
0.00757193047254713,0.00523114840076908,1
0.0122626840441509,0.00619410540406365,1
0.0209263728885698,0.0185939381884716,1
0.0299605094184798,0.0370363150153871,1
0.0376355487830527,0.0509975119338791,1
0.0432909141130698,0.0807385979832287,1
0.0449403692590953,0.0677685326402669,1
0.0411997514962251,0.0261160501225998,1
0.0332524353036096,0.0146919116445926,1
0.0227693048942442,0.00783204580119337,1
0.0130568062648322,0.00368676269071264,1
0.00777197805311519,0.00376337034480869,1
0.00669967982955817,0.00525108978377264,1
0.00793227581896715,0.00863311057164056,1
0.00987228593236349,0.0161658036239618,1
0.0121027608649609,0.0276622549098239,1
0.0172089198105532,0.0133366741869575,1
0.0309442666807083,0.0110774180846431,1
0.0539487487929336,0.0122755670933527,1
0.0863847721789565,0.0144700935106949,1
0.122948688201854,0.0243618589675393,1
0.145639326489598,0.0222720237491748,1
0.14485960747613,0.0179994635775348,1
0.124471016540182,0.013608619540556,1
0.0899134517512031,0.00752609965275062,1
0.055090318115499,0.00417478612597154,1
0.0353152903750016,0.003389629579407,1
0.0334546993176979,0.00495651201182379,1
0.0387190858932716,0.00850353522484056,1
0.0405709503436038,0.0142594081588532,1
0.0332262918348798,0.0100935808631884,1
0.0228276827444178,0.00590249834314392,1
0.0170848995442592,0.00413311763685168,1
0.0174968906912397,0.00396582390561474,1
0.0237683623077108,0.00778951709328793,1
0.0314703049770242,0.01973618394698,1
0.0341192725187358,0.0351552852947113,1
0.0278228723321903,0.0111987866008691,1
0.0198475973854632,0.00330433557160764,1
0.0221607539107911,0.00326322766490954,1
0.0362322840601273,0.00519176003503791,1
0.0564608848819647,0.00784967767753911,1
0.0753628846954296,0.0126504006867843,1
0.086464513498777,0.0174683413120182,1
0.0910708530005818,0.0236069469659381,1
0.0888816010901278,0.0317674607037437,1
0.078255287606539,0.0329074811828345,1
0.0615683161370979,0.0243653668216972,1
0.0441353765922365,0.0116276650707573,1
0.0304434318223617,0.00453622996498617,1
0.0291003518115114,0.00284036760210638,1
0.0471210620967099,0.00358385410265203,1
0.0790368288134886,0.00745242748889314,1
0.10392427554223,0.00859019097939022,1
0.113957356136886,0.00854504541509063,1
0.109562407083613,0.00822481664213891,1
0.091422219704423,0.0071402280100442,1
0.0647769741976039,0.00581241153234034,1
0.0411150925020986,0.00425026190509675,1
0.0299700182154314,0.00439324747028093,1
0.0280924290364596,0.00616473334126144,1
0.0264822662509144,0.010770512804703,1
0.0183952106128391,0.00742176538123642,1
0.0119719600145693,0.00475406880410439,1
0.0122770176962758,0.00556650240604453,1
0.0167428119726633,0.00793525921015764,1
0.0217029373383307,0.00997373023589196,1
0.023412903820051,0.00753298197069549,1
0.023340408077367,0.0062317274638615,1
0.0241885749576197,0.00545965448992441,1
0.0275901096011039,0.00569129121613548,1
0.0329920161197613,0.00491023686785488,1
0.0439205220022851,0.00625509238895796,1
0.0576397178396458,0.0174556774408458,1
0.0614238827644377,0.0226784106888324,1
0.0505305835581913,0.0113040732533179,1
0.0328056595856011,0.00412407152255559,1
0.023818122234972,0.00177272986599787,1
0.0321984588648605,0.00390249349058647,1
0.0505480558159724,0.00786704920955003,1
0.0671628529895068,0.0123831338227571,1
0.0736521038240238,0.0124731947089331,1
0.0688506040067701,0.0130362800015006,1
0.0528368879252373,0.0107773040239695,1
0.0316174216260228,0.00603981184880952,1
0.0147151898088586,0.00426776697655079,1
0.00554682004238802,0.00287832120622293,1
0.00262444063619001,0.00417377232847471,1
0.00248325388444634,0.00892551017392211,1
0.00209851377108844,0.0086069040256133,1
0.00176657995565618,0.00551174720243306,1
0.00262942888148187,0.0114665137162795,1
0.00459036456207572,0.0237514641261255,1
0.00690318321695637,0.0379695893346913,1
0.00855004840102582,0.0660903224207302,1
0.00909967870661598,0.0707973295615451,1
0.00964867758559018,0.0716249791275046,1
0.0107660313920299,0.0611518405849612,1
0.0126484951882018,0.0417034042045358,1
0.0158579435447002,0.0403511862490503,1
0.0187801792226216,0.0521787293814368,1
0.0181750582591438,0.0200866890412985,1
0.014837911348054,0.00753776152250233,1
0.0123708186384415,0.00382009909791746,1
0.0136728050736048,0.00337814084249726,1
0.0186200162832478,0.00605971655325098,1
0.0227236319168244,0.00708265569493907,1
0.0240272852359661,0.00651207735360824,1
0.0235490935135954,0.00615873951527074,1
0.0219691662642032,0.00537489108935239,1
0.0206714994404842,0.00449393508619865,1
0.0215299142971246,0.00448531709725247,1
0.0252007930260787,0.00635930831994706,1
0.0295061131006836,0.011719772061418,1
0.0298498088712682,0.0248299833966215,1
0.02362315547332,0.0217117319023019,1
0.0148099705329923,0.0116441270046827,1
0.00777819757840334,0.00928378879224667,1
0.00325696455647045,0.00700231257366831,1
0.00125835610936428,0.00602446741766488,1
0.00117786912106485,0.00499537135612139,1
0.00201983262456051,0.00818803071846883,1
0.00286940092641089,0.0101435708720898,1
0.00341373011579667,0.011241551846636,1
0.00346077456701394,0.00896358371384211,1
0.00320126088612323,0.00798198413543557,1
0.00274851086345736,0.00744842260159689,1
0.00220559897752746,0.0064274529882591,1
0.00176509208968018,0.00566879208030675,1
0.00162803561578974,0.00663293293692043,1
0.0015884477266072,0.011971190524412,1
0.00127755255195372,0.0104857217705431,1
0.000902482504980758,0.00845594566199352,1
0.000531967207304006,0.00592691522354629,1
0.000333575318914554,0.00463573214170919,1
0.000454662698717223,0.00383487895224687,1
0.00133557671331557,0.00392565149438865,1
0.00359485247713919,0.00679328932924551,1
0.00639075624875553,0.0117316570995506,1
0.00814055216189503,0.0114043779548536,1
0.00835909472502955,0.00740159659757301,1
0.00802772093981092,0.00475217493093868,1
0.00874356827121864,0.003585770267318,1
0.011930536822599,0.00400760481803744,1
0.0175321780001172,0.00563383244705606,1
0.02377261805309,0.00848579813973307,1
0.0279024202125023,0.0139188263263876,1
0.0271169547431676,0.017684015645649,1
0.0211452845567548,0.0118671245085955,1
0.0128769720737241,0.00462081616303427,1
0.00682681975926021,0.0012243336624389,1
0.00703863530570517,0.00119397908126387,1
0.0141755298561404,0.00313980362307527,1
0.0263799844218906,0.00858994563390023,1
0.0385342556937246,0.0248514697083192,1
0.0434583742921811,0.0214725143982445,1
0.0396056255397075,0.0110275614073853,1
0.0313149435949166,0.00634507770869658,1
0.0234194558315317,0.00371839741588744,1
0.0203321185193262,0.00296477462879248,1
0.0238006520005194,0.00399121786079756,1
0.031918038533623,0.00670948766381827,1
0.04081107496358,0.0129194584507901,1
0.0445756750857233,0.030729136980853,1
0.0384021860005411,0.0249019234007399,1
0.0259118053602736,0.00839062178467836,1
0.014260910894905,0.00391912039344416,1
0.00724281089528959,0.00179924187321324,1
0.00618913233450478,0.00368822813727037,1
0.00840685704724104,0.00800728448381705,1
0.0103814501438155,0.0104797591715622,1
0.0108427478909034,0.0104628377884384,1
0.00963141099194615,0.00838536024684458,1
0.00747382684632273,0.00549637776693023,1
0.00583391287050344,0.0041929691909889,1
0.00553053453444656,0.00433952613115705,1
0.00647862371686194,0.00665424058600749,1
0.00763473021807242,0.016799293993005,1
0.00729521226086001,0.023750720039979,1
0.00530401681073416,0.0102911076439382,1
0.00308927431475979,0.00520947297723522,1
0.00185528184355278,0.0036626906399493,1
0.00193215813034309,0.00610573473488326,1
0.00276326057201083,0.0146373511824514,1
0.00336335126591973,0.0224100863157923,1
0.00339687072334475,0.0250395155810193,1
0.00301452612923596,0.0267752898918629,1
0.00232988389771744,0.0249086692076081,1
0.00162838772149524,0.0173771098969956,1
0.00129677553908808,0.0182625951848043,1
0.00124640072316925,0.0193843163907251,1
0.00114120247788597,0.0129567060459996,1
0.00102350074451927,0.00794848109244498,1
0.00115396427897418,0.00476618363421222,1
0.00193376466580027,0.00523927378095394,1
0.00333840940452476,0.00735859064548694,1
0.00491851930798445,0.0102329462706548,1
0.00622766089697565,0.0129888225685856,1
0.00662440232777668,0.0156921708315517,1
0.00567127157393697,0.010727839541369,1
0.00407722982259109,0.00479840912560234,1
0.00322980881399676,0.00371394169914974,1
0.00365631300360023,0.00431036891681551,1
0.00502518735320679,0.00905575044155479,1
0.0061678418612982,0.0167116725737474,1
0.00614359524178931,0.0160781620195444,1
0.00508097618959508,0.0126957063922199,1
0.00350754474294308,0.00912391822628874,1
0.00198368521062756,0.00669228980781297,1
0.000985065902789724,0.00519747260854414,1
0.000613254400825528,0.00633791523682621,1
0.000580297750399572,0.0101649771807165,1
0.000565717015165857,0.0128749319496461,1
0.00056402466603319,0.00963430992236181,1
0.000759856074647346,0.0116539511910241,1
0.00103414224981713,0.0214556016998639,1
0.00106777048865813,0.0155533580067058,1
0.000955320740171812,0.00882932795033949,1
0.00108718479038286,0.00543938224954984,1
0.00190880946228992,0.00649666877842071,1
0.00337570701293299,0.0114749303472027,1
0.00475958220509158,0.015912193710106,1
0.00555409163072351,0.017830915545884,1
0.00555819895776786,0.0213080833598877,1
0.00458026573208251,0.0189119762025923,1
0.00298313473921419,0.0121169641325836,1
0.00156791200992574,0.00856937650097008,1
0.000705001757777838,0.00498503524872635,1
0.000796189719452218,0.00609447546224028,1
0.00183100076820024,0.014717348721929,1
0.0034831563888557,0.0258673989747345,1
0.00517256167180869,0.0395829226903198,1
0.00595375720706786,0.0283275361094758,1
0.00554164032165541,0.0142787447161964,1
0.00455967552945271,0.00770419894106142,1
0.00385711378721742,0.0055285692850352,1
0.00371822021155482,0.00542980638952424,1
0.00389050671465736,0.00650011226107619,1
0.00398553616426687,0.00631125369710052,1
0.00409409439188537,0.00453184472462643,1
0.00549247936733034,0.0030723103630002,1
0.0101406370165044,0.00287396229946372,1
0.0185721756565337,0.0056863801631882,1
0.027717298480115,0.00978478604292172,1
0.0332066757886877,0.0138027367111717,1
0.0318193770909942,0.00972838899125289,1
0.0257002837636575,0.00616926779788952,1
0.0189838800496232,0.00459193508893351,1
0.0143972054417299,0.00396187876773515,1
0.0125714522773538,0.00461444168466444,1
0.012380098964366,0.0057646683882691,1
0.0122400151128542,0.00783210516014502,1
0.01065241428464,0.00774176250686901,1
0.00782369070393846,0.00579681431213501,1
0.005409762484874,0.00370640096742051,1
0.00506513607211126,0.0059242288660012,1
0.00580588260993404,0.0143425308126698,1
0.00599350336455436,0.0278875889625629,1
0.00513290192907012,0.0326789861124011,1
0.0043814156233015,0.0187777351482214,1
0.00664301198819526,0.0110847516979789,1
0.0141088646856043,0.00800078296094667,1
0.0265906902573601,0.0103309169183833,1
0.0412653636851735,0.0189391911898025,1
0.05151286803205,0.0247753226177218,1
0.0510659185152105,0.0134223921721496,1
0.0421798542336829,0.00564722640842538,1
0.0343105786306041,0.00337366240025221,1
0.0334038047857491,0.00369952247056754,1
0.0374277245778324,0.00560900221930854,1
0.0398294498196445,0.00585522083966759,1
0.04031261629704,0.00411665844250269,1
0.0485451139200567,0.00294379866528578,1
0.0768684809586108,0.00313140714055653,1
0.126748452171746,0.00493582613827578,1
0.181347234620878,0.00748448378298684,1
0.218724977429151,0.0104340030198769,1
0.221863980830229,0.0121776303881623,1
0.187194290376641,0.0108758019813046,1
0.126856629670758,0.00647670764304748,1
0.0665698550564117,0.00335553768205505,1
0.0274493978066567,0.00259835150914102,1
0.0122532185921427,0.00292374660114242,1
0.0103063434482014,0.00665069241813389,1
0.00994534263650011,0.00811444875569461,1
0.0100143262958869,0.00534578387088961,1
0.012840223244469,0.0109771723315407,1
0.0136588402471587,0.00692366149241085,1
0.0152207560852418,0.00555948590695887,1
0.0202235669712311,0.00643877249344776,1
0.0271930324798015,0.00777702919193283,1
0.0329206554431515,0.00882708702063236,1
0.0342228936853452,0.00705313975668215,1
0.0350832705610061,0.00590512045377473,1
0.0380062252020111,0.00689954915141903,1
0.0364514312682902,0.00687743429587131,1
0.0294552605760803,0.00458483206395975,1
0.0275443979010726,0.00407783501299948,1
0.0374447871454735,0.00407924174786849,1
0.0581913213899196,0.00571411228708271,1
0.0805305982226237,0.0074289200604281,1
0.0943102071330313,0.00729971174512165,1
0.0960782607151723,0.00680931837038389,1
0.0874818667281816,0.00506617704417824,1
0.0799044903021326,0.00347972717146367,1
0.0840326320962395,0.00500327049981045,1
0.0890797029102619,0.00566368152008903,1
0.0895085362556358,0.0048757945801391,1
0.0927366099046696,0.0042493756077073,1
0.105570810530108,0.00410157049317852,1
0.128816234991757,0.00504369289412266,1
0.151422271031693,0.00600781239392749,1
0.162466097626033,0.0065820236707478,1
0.156840060106936,0.00589644084402371,1
0.140754957523843,0.00491029396910034,1
0.124949420331074,0.00383254192380534,1
0.123600285539584,0.00375375896602702,1
0.138824090586028,0.00580088903232726,1
0.149702222257938,0.00919554923259688,1
0.134814340120479,0.00936720414320393,1
0.0964688218724098,0.00495891195969843,1
0.0616459982038456,0.00202148135184784,1
0.0556136768138705,0.00164355880404754,1
0.0826289480406173,0.00443313129207498,1
0.121337437233887,0.0188877806242848,1
0.140834158352537,0.0350905949160163,1
0.131654700208795,0.020009465064056,1
0.101499854223503,0.00852085956964266,1
0.0666546444324664,0.00332833422136517,1
0.0446076084356888,0.00318074672690181,1
0.0376246698456686,0.00334597583812615,1
0.0424903769635241,0.004766392211103,1
0.053852015387567,0.00850522669645477,1
0.0614278502998068,0.0175410908720429,1
0.0588455237418143,0.0292899791243668,1
0.0499889665135535,0.027803867901224,1
0.0398774584080142,0.0247520877469876,1
0.0308456067280618,0.0223569608388474,1
0.0260130972779887,0.0316584568314173,1
0.0227862136211995,0.0159518324986552,1
0.0182253503133113,0.00568016538842405,1
0.0182137592193542,0.0031731304198677,1
0.0296979878270962,0.00327630201553611,1
0.0546122811904505,0.0046608832048363,1
0.0887693965114774,0.00656229952758073,1
0.120975744676678,0.0126486811228971,1
0.137991812543991,0.0186094163372515,1
0.133920269137748,0.0207865285883719,1
0.10912247039765,0.0159047393536757,1
0.0718625976780594,0.0064969637384174,1
0.037735551878666,0.0042337434953239,1
0.0151241832635779,0.00279927093174456,1
0.00520754305173725,0.00167283185615111,1
0.00673373327213464,0.00375014950482648,1
0.0144444437980752,0.0112916657669963,1
0.0237784462505784,0.0196955698827248,1
0.033102397912323,0.0363782838388547,1
0.0367253463362456,0.0264383368002398,1
0.0330458083162021,0.01421261766452,1
0.0259920473819166,0.00848296353786498,1
0.0197333416385879,0.00521748545005489,1
0.0172539621275128,0.00378519868484647,1
0.0209231393388628,0.00545446514884634,1
0.0280066791085226,0.00995944948365524,1
0.0335991795782426,0.0142951327990274,1
0.0350324808865707,0.0244755020392206,1
0.0286931151265003,0.0206173889785775,1
0.0187345442947815,0.0139199000592995,1
0.0104138609188609,0.0112630237776432,1
0.00499489044416961,0.00926098906981303,1
0.00203539064434844,0.0106145513180518,1
0.00172746073790672,0.0257915119411127,1
0.00200997246266172,0.0186532100838018,1
0.00197914512834587,0.00433725368253269,1
0.00428694067996507,0.00329387008690003,1
0.0118470319426175,0.004384596778644,1
0.0285160701655664,0.00566235869428144,1
0.0524589950430603,0.0127373217348006,1
0.0701910000513184,0.0165459499862592,1
0.0742674253680563,0.0143662157826564,1
0.0684933449219076,0.0126879333250049,1
0.0534852913501791,0.00877469054853134,1
0.0351896125371193,0.00531841041670959,1
0.0233670714145114,0.00464344844301217,1
0.0196086195905702,0.00521117118932588,1
0.020264001081542,0.00793146323331245,1
0.0200126502693848,0.00893878108678729,1
0.0186815117184733,0.00445593445284341,1
0.0245702636165947,0.00344578363885604,1
0.0435785210867127,0.00646726367868591,1
0.0650810034401038,0.0124666374827897,1
0.0721522937552184,0.0101180612524685,1
0.0659261916550016,0.006524525438746,1
0.0597890639824786,0.00438956152539795,1
0.0676342224759984,0.00402469231449865,1
0.0914130880084787,0.00526049244187477,1
0.121111749870609,0.00771082367131307,1
0.142825669513855,0.0108167614515662,1
0.145650000181903,0.013972813676873,1
0.120329329400477,0.0130532629204979,1
0.073887238120352,0.0048383576548204,1
0.0367368035518952,0.00293207149193705,1
0.0200530096985593,0.00310973205764872,1
0.0161414972962857,0.00490207796700099,1
0.0165943895741773,0.010924143901032,1
0.0150471559128873,0.0046890717952481,1
0.0172398240567461,0.00330901335749013,1
0.0265727268556553,0.00525824855829577,1
0.0390763296211561,0.00762180823137907,1
0.0491663341436725,0.0105915685776599,1
0.0511254846898643,0.011100442532085,1
0.0439849815416736,0.00764922078140263,1
0.0334989739381429,0.00572568621573622,1
0.0242429042038349,0.00422450067989888,1
0.0196678013878536,0.00285567902632931,1
0.0250208258371073,0.00533740159194365,1
0.0357858615145162,0.0157009400181623,1
0.0440098798041509,0.038742509382862,1
0.0465558701141022,0.0934624321598969,1
0.040454509063412,0.0324195222900009,1
0.0286596867992789,0.0099325093782781,1
0.0194105457626343,0.00602792968447434,1
0.015609545208917,0.00448900217569511,1
0.0162250412883059,0.00484534882546756,1
0.0191160930308613,0.00652941457062275,1
0.0214156952918614,0.00776715834295054,1
0.021522572324051,0.0070938858896594,1
0.0198564155586277,0.00651611036275146,1
0.0171565435884363,0.00440135741252454,1
0.0172739728962942,0.0029784923563865,1
0.0225821301142223,0.00545295837516012,1
0.0288806125512114,0.0110283292827924,1
0.0309527967412194,0.0169960554035107,1
0.0265148907537802,0.0145828288846275,1
0.0176274217870853,0.00477906207081758,1
0.0123296707122591,0.00179549690257068,1
0.0170012284296472,0.00230520888318748,1
0.0318390838356337,0.00456706438563006,1
0.0516725605221708,0.0130247694940983,1
0.0649512027742804,0.0221817684285908,1
0.0640334894615051,0.0141640088157408,1
0.0523676828033061,0.00711307405257883,1
0.0392405569913188,0.00361182533893857,1
0.0329348826080947,0.00265421700712639,1
0.0367110274992869,0.00456258684660851,1
0.0436955387191983,0.00655619640996552,1
0.0482796791251882,0.00872336341161996,1
0.0459877450121934,0.00886140247916252,1
0.0367663201038001,0.00576746179815064,1
0.0271340276179314,0.00426028109602173,1
0.0219979681451898,0.00443564607816786,1
0.020902132212059,0.00524093047828968,1
0.0211084436618241,0.00708500506079531,1
0.0195827065315378,0.00689666515158951,1
0.0170967848631839,0.0036329903021987,1
0.018352366168113,0.00412765531109443,1
0.0228028977163722,0.0054222052561687,1
0.0277576626120465,0.0094538810909458,1
0.0285005637491188,0.013205320996704,1
0.0230895538230186,0.00909353327354165,1
0.0154092301892018,0.00479502164455927,1
0.0100053821684124,0.00495951098978262,1
0.00701235374269482,0.0058736303433387,1
0.00714871300639852,0.00291341862654445,1
0.016577524293755,0.00322051829713876,1
0.0416824425295401,0.00385148040274529,1
0.0914807833283149,0.00591012043552004,1
0.154802785811564,0.0123098842859399,1
0.198052573251865,0.0153040202319933,1
0.205489068999038,0.0130819300422155,1
0.178929436612679,0.00845142719290066,1
0.135880732142581,0.00418930129261602,1
0.11099535391581,0.00253017830824577,1
0.127364624516909,0.00332544273093679,1
0.175758447509071,0.00585603655409502,1
0.226654755449195,0.0104172132748944,1
0.247812935549892,0.0203995681440096,1
0.22288791356383,0.0195403343540997,1
0.168240375880048,0.013687739125893,1
0.10380131259625,0.00824502642830457,1
0.0484294169199512,0.00417745377753918,1
0.0165153629591383,0.00385932536692961,1
0.00470829209973969,0.00185982487228442,1
0.00558192748244925,0.00234665621530798,1
0.0155171053783982,0.00492308641672849,1
0.0316251658604888,0.00704680265571176,1
0.0515864088238584,0.0128713821752002,1
0.0669897571973689,0.0180374308500816,1
0.0710462505069818,0.0159239688117479,1
0.0644218384096612,0.013382295023043,1
0.0490906154166115,0.00944350351477573,1
0.0298163111201781,0.0045563673157784,1
0.0159622561986093,0.00233326236744313,1
0.0122659426230229,0.00344625533660087,1
0.0145340902967352,0.00716332692029784,1
0.0167743484878202,0.0155605038726111,1
0.014911068029165,0.0131778860258141,1
0.0107703520151383,0.00384985459010985,1
0.0125189249447746,0.00213316730085294,1
0.0241184574300707,0.00443100789148786,1
0.0413231409708389,0.00756594508479699,1
0.0596928972360542,0.0123060987112063,1
0.0753720998854176,0.0242055656398081,1
0.0776167462017411,0.0229518239013017,1
0.0643012172208095,0.0117383558371762,1
0.0449303815005194,0.00683711702862761,1
0.0291368040242078,0.00331379046566612,1
0.0282475465693975,0.00344390308664583,1
0.0402977225131118,0.0102314521173025,1
0.0472837015054009,0.010363063135886,1
0.0461916053689045,0.00696094490569309,1
0.0500995387868234,0.00333177819528902,1
0.0907144930523884,0.00274342015611039,1
0.182472320860446,0.00503464926625731,1
0.300976286773514,0.00818864201951187,1
0.41538118254494,0.0135425938507311,1
0.46937240511984,0.0162021587517074,1
0.425302490478068,0.0112471363072675,1
0.319417622518412,0.00665750159997474,1
0.214365887207306,0.00435773966669775,1
0.144912856908375,0.00311812423111072,1
0.125589011055997,0.00446760297478594,1
0.132879569386373,0.00734209438277109,1
0.133025556836103,0.00865304105495452,1
0.115330716654268,0.0084663657355159,1
0.0804718129426811,0.00614531301479712,1
0.0459566015518614,0.00418552054685511,1
0.0311839199032609,0.00359636459456509,1
0.0343919358829301,0.00415548731370213,1
0.0495927003829142,0.00549868053162739,1
0.0724088750660321,0.00629347178598464,1
0.100702966582736,0.0070684289277165,1
0.125950156095458,0.0107444189451272,1
0.137730753552376,0.0158797530706477,1
0.132590415099842,0.0254844034043377,1
0.110147119867826,0.0265570528690699,1
0.0786546661538536,0.0178900711996652,1
0.058273845472036,0.022825935114009,1
0.0538276710260574,0.03063445626017,1
0.053015089044809,0.0268370821182025,1
0.0463214558348508,0.0115056008883595,1
0.0394310097453816,0.00721156981823069,1
0.0361022804476916,0.00521365037724642,1
0.0429155390133591,0.00457471548462842,1
0.0608391445066049,0.00919370154572094,1
0.0724772837784494,0.0101716427169191,1
0.0744992937583546,0.0114080739546724,1
0.0700902721935421,0.0127427284955299,1
0.05442871030966,0.0128856306537269,1
0.0322685846127102,0.00823869544735511,1
0.0215424853635303,0.00706796307601377,1
0.0193566661016852,0.00775909984060038,1
0.0164653432796847,0.00564468941471301,1
0.0168506205655713,0.00554422695917283,1
0.0218727129078066,0.00466770268010984,1
0.0334843650371618,0.00685311958925234,1
0.0439987893612213,0.00786233521020467,1
0.0482274003826319,0.00725954503947437,1
0.0487689957674966,0.00661142076419872,1
0.0477791267878279,0.00730645955116565,1
0.0398443027433444,0.00758549971741143,1
0.0255736848033996,0.00407386098271442,1
0.0171916540465585,0.00384503148831802,1
0.0158885559490508,0.00563060145501461,1
0.0161908889566116,0.0109750332858854,1
0.0137274895621078,0.0107799270923806,1
0.0128655820892987,0.00669706454196544,1
0.0181757805619891,0.0101833611633371,1
0.0263748625437997,0.0138562317175514,1
0.0338142493986955,0.0150273600281864,1
0.0360853415824553,0.011267585890616,1
0.0327112673362894,0.00598249236439629,1
0.0311255754422389,0.00399008653683749,1
0.0373333195070527,0.00401240253715651,1
0.052296485199347,0.00454566478135306,1
0.0758411622484074,0.0065937796735474,1
0.0998597337031029,0.0150419435231039,1
0.111344831508179,0.0235315271771349,1
0.107000858478735,0.0334896309914018,1
0.089117714901751,0.0339881042980349,1
0.0630979419522058,0.0172471036105909,1
0.0394810401171523,0.0146603152668428,1
0.0237400625635013,0.0170654837860622,1
0.013996792982063,0.014360186043365,1
0.00759287525713163,0.00961822625585572,1
0.00405394114326228,0.00955410491683498,1
0.00248761538048186,0.00864869228692928,1
0.00161671862357168,0.00609757547748335,1
0.0012095002289414,0.00597104037857218,1
0.00124056681972542,0.0102054827908879,1
0.0012111953548595,0.0114582928273202,1
0.00163869108543997,0.0033937272654886,1
0.00736782133533243,0.00369924613232125,1
0.0222864541407389,0.00625788778470923,1
0.0470046640810364,0.00826791565021024,1
0.0841618618786818,0.0126636347058625,1
0.117398541972642,0.0195338323615176,1
0.130367634682012,0.0203746938382275,1
0.12518355458252,0.0203234897069042,1
0.104425992978122,0.0167395314950442,1
0.0682467903208581,0.00907726694762197,1
0.0342864573177709,0.00543153094259538,1
0.0172688678651637,0.00434345831407445,1
0.0182446219492186,0.00465364880170327,1
0.0351131793719498,0.0104437317200929,1
0.0600789051890056,0.0253358908715132,1
0.0876200998141051,0.0296829370601713,1
0.114491286429903,0.0384108390331296,1
0.130426653135739,0.0532733687955217,1
0.131437426297971,0.0422088729855986,1
0.120765145840572,0.0256615250009372,1
0.0963201932806737,0.0160203956679398,1
0.0631885272625499,0.00842418464602091,1
0.0341521259413166,0.00543565277611972,1
0.014823652262777,0.00358551251922144,1
0.00514411907130097,0.00352428732029895,1
0.00256419468668361,0.00563861596640958,1
0.00235138540661705,0.00882429896115288,1
0.00227222579371474,0.0118049726263991,1
0.00181701426928243,0.00919803005179578,1
0.00177847482401377,0.00604551025590848,1
0.00313201637822174,0.0100140478292301,1
0.00533637086062467,0.0130008455855775,1
0.00881112786296799,0.0157418321558547,1
0.0142712595974912,0.0252022892558413,1
0.0204968855382667,0.0417786304891089,1
0.025596757401413,0.0477818255990391,1
0.0283381438122997,0.0467725989110995,1
0.0268856470730463,0.0272286579716916,1
0.0215501146111422,0.0121572479304893,1
0.0154009004424363,0.00925169548805015,1
0.0102062351860727,0.00766539537593667,1
0.00574620400933336,0.00549088742372954,1
0.0028216633116637,0.00350559357370014,1
0.00239866153317031,0.00396845315132784,1
0.00388397510154404,0.00544633915723528,1
0.00632196217270109,0.00721834669866877,1
0.00908630176712882,0.00857952122455196,1
0.0115077221384901,0.0101652124224109,1
0.0124951112498192,0.015730981742165,1
0.0108404813905873,0.0126663655926926,1
0.00742548396431018,0.0049806585512499,1
0.00467191986777625,0.00261909825031125,1
0.00401276454761684,0.00308460050201192,1
0.00507580754637388,0.00696613702648502,1
0.00624505862177208,0.0128113037756663,1
0.00621582283419814,0.0115577644773418,1
0.00516597714738756,0.00906855610845866,1
0.00377116616146989,0.00714807509262228,1
0.00249564130628491,0.00562088586367405,1
0.00162132402380464,0.00452318465064132,1
0.00136168151022874,0.0065453679131201,1
0.00146938418316426,0.0117842898146208,1
0.0016449128837979,0.0137120148569761,1
0.00194272677888653,0.0129242927776546,1
0.00261498356956585,0.0127371278237013,1
0.00367693777636211,0.0191076799682658,1
0.00427553350994686,0.0143024909389566,1
0.00409940603955646,0.00687872818115882,1
0.00402219694487285,0.00436879798345031,1
0.00502593683553276,0.00386907819960767,1
0.00751011926263655,0.0052972165730495,1
0.0103679289257741,0.00808146606812909,1
0.0118723539230808,0.00845883644155939,1
0.0117100499678485,0.00778928754741084,1
0.0102709850476908,0.00616482581338689,1
0.00866890503162484,0.004204184798435,1
0.00864002356356551,0.0038665346919252,1
0.0106623494747733,0.00601069059637623,1
0.0134053807585343,0.0104441715437662,1
0.0146280747353165,0.0190520292062328,1
0.0124740952677789,0.0161022610374939,1
0.0080653346530708,0.0054330976118031,1
0.00497993997318263,0.00255453808201705,1
0.00551147327813215,0.00221286940815716,1
0.0103271687294226,0.00483088463274622,1
0.0175211613748114,0.0126336391074518,1
0.0235319117261956,0.0226025983068698,1
0.0263162908900877,0.0294457778043627,1
0.0243803940721313,0.0183790306531891,1
0.0184387613473324,0.00704848852266762,1
0.0125055402633049,0.00320182944980394,1
0.0103303552600249,0.00227217441589136,1
0.0131942144761654,0.0030309566566924,1
0.0198539260350326,0.00707598042859311,1
0.025901695321549,0.0146483769555684,1
0.0270996730634515,0.0148288857212099,1
0.0229844406421867,0.00846215562620561,1
0.0166023476253547,0.00352613308095558,1
0.0136214825145731,0.00112720033838555,1
0.0190226162445318,0.00212520075196371,1
0.0307744509240359,0.00647720307223063,1
0.0416651558549965,0.0121065885755544,1
0.0463543712737174,0.0171365243944713,1
0.0426581966686228,0.0150077979163256,1
0.0320264893893828,0.00789142578016757,1
0.0199576643684421,0.0036930382083551,1
0.0121981251373263,0.0019962477709036,1
0.0116326165969462,0.00215936420815543,1
0.0178096114583977,0.00543142650662503,1
0.026482920725696,0.0176384725145134,1
0.0324250549481033,0.0453630364291511,1
0.0336512773344958,0.052877383714352,1
0.0304201969220862,0.0373946902316282,1
0.0237867264935243,0.0188540530238716,1
0.0163588699015132,0.0111197858106706,1
0.00985353856709162,0.00751301866850684,1
0.00487224343795882,0.00483683668983989,1
0.00184521345660964,0.00293643974932158,1
0.000846985235296005,0.00293675157774261,1
0.00118722431014048,0.00779346524613164,1
0.00204309714246971,0.0204675289646636,1
0.00299002421478328,0.0392638231921729,1
0.00383450392610475,0.0832302604807943,1
0.00416200801107892,0.0771840617969795,1
0.00390771790804564,0.0539242139697416,1
0.00328978108082167,0.0342956859083715,1
0.00236934826651009,0.0160208977411961,1
0.00139790877790746,0.00764326566901167,1
0.00088758471249185,0.00565646562104055,1
0.00100615430136238,0.00646893940112364,1
0.00167859088466568,0.0107982999993946,1
0.00259836246001403,0.0265957726408172,1
0.00317189302769205,0.0457851363478439,1
0.00314636335129749,0.0354139526447387,1
0.00262154795805968,0.0211953006113917,1
0.00180215028500277,0.00858750794802781,1
0.00144777478175864,0.00399407142963583,1
0.00230500719765627,0.00500982250014887,1
0.00425158746476255,0.00846603477868789,1
0.00685548884556284,0.0155835728810944,1
0.00909625157771467,0.0312391783996589,1
0.00958685176369283,0.0263438149845424,1
0.00829929355644252,0.0162894745199233,1
0.00611956549938184,0.00997069470438971,1
0.0039406335670232,0.00529499941787558,1
0.00281856234076254,0.00379853013745569,1
0.00319085786267199,0.00615572118289988,1
0.00426369421116119,0.0114812590334834,1
0.00506606060620803,0.0185827905066702,1
0.00492486036843022,0.0251367995234584,1
0.00375115078728828,0.0181621466088172,1
0.00231800494508124,0.0130223065769265,1
0.00121160980278433,0.00983252741889652,1
0.000483463386024675,0.00650692045668755,1
0.000169858047622521,0.00602712386482791,1
0.000141833065485191,0.0116072680358727,1
0.000180784732170842,0.0176033265956107,1
0.000224415680206801,0.0191707222322887,1
0.000309083698885925,0.0251843665240991,1
0.000391165709141954,0.0486300377282834,1
0.000338520689115454,0.0178604692659298,1
0.00027822944329665,0.00611606426608007,1
0.000545751318352939,0.00561812048885777,1
0.00137372649431598,0.00964957807130479,1
0.00242384548707955,0.0187396503203814,1
0.00290605791856723,0.0145169617882239,1
0.00282137701915933,0.0103222349211318,1
0.00256475546188845,0.00879440407688478,1
0.00224845135894978,0.00768574923871915,1
0.00189629858778793,0.007041897491197,1
0.00160708855813545,0.00662268660319203,1
0.00152365256021093,0.00808677499806934,1
0.00157797484753092,0.011555936919123,1
0.00144338401942054,0.0174475490068098,1
0.000983223658038445,0.0126697200629583,1
0.000710083211629555,0.0112282008480164,1
0.000802468450377368,0.016061034296084,1
0.000860099412995607,0.0125010801819067,1
0.000861338638153882,0.00586388983675415,1
0.00157250033038854,0.00324391475369715,1
0.00462155683626389,0.00335105513262571,1
0.011708031401455,0.00426010662667341,1
0.0222941359144643,0.00878569543347987,1
0.0326062594701246,0.0143430560401772,1
0.0381269837613167,0.016759173178488,1
0.0362816357491348,0.0116212543812937,1
0.0288414636692663,0.00598973123473935,1
0.0209128299938239,0.00374811674093761,1
0.0164785775787518,0.00309365058042915,1
0.0164898749260595,0.00403064618425428,1
0.0189017346135243,0.0064529709790483,1
0.0201868158773721,0.00943160193981625,1
0.0180091844456991,0.00815575535081504,1
0.0137923360736372,0.00393655640051265,1
0.0141778243232574,0.00132722608000534,1
0.0279267182871998,0.00144023579244178,1
0.0582382091898025,0.00256318290362324,1
0.101668703095868,0.0104386539058005,1
0.139669917406548,0.0283878489730442,1
0.1497037171717,0.0199118996682732,1
0.131301797498153,0.00982691155252878,1
0.100557604912927,0.0048473161102256,1
0.0777273913825602,0.0027911725744871,1
0.076813243855943,0.00323122416216384,1
0.0937327297331207,0.00515367424347604,1
0.112512840044055,0.00734082639260866,1
0.118125768363348,0.00865725594043326,1
0.104607088286971,0.00548564931511729,1
0.0948274179607241,0.00208041652296225,1
0.125308315751043,0.00236688261771929,1
0.199368140182666,0.00414874294717438,1
0.290408756559238,0.0093711581648263,1
0.341784041315486,0.0150366913802342,1
0.316977213336899,0.0094463065778718,1
0.247394831432532,0.00563811976867054,1
0.179755283954048,0.00366531400086625,1
0.144561753656285,0.0028692188804005,1
0.152291261847103,0.00422492603911851,1
0.178766846745903,0.00758439083950629,1
0.188129935268144,0.0100040951140284,1
0.165960503140947,0.0107007184752414,1
0.114192678268357,0.00670350614522942,1
0.0605786021198346,0.00188145510328262,1
0.0404540628687025,0.00230921844745714,1
0.0479980538002922,0.00565345715884791,1
0.0613209799005788,0.0142452933468512,1
0.0656620259272689,0.0386916828350281,1
0.0537676566502972,0.0213361757627857,1
0.034281148679695,0.00645094825334959,1
0.0213875626076988,0.00402392710184709,1
0.0182989778331026,0.00377355211771276,1
0.0233342665772099,0.00436937823342089,1
0.0364528931230672,0.00901732311374437,1
0.0511614564424882,0.0182244618965452,1
0.0615674161538479,0.0275691670771353,1
0.0655298818958143,0.0438898980120513,1
0.061454374641062,0.0806698825117767,1
0.0489311015592989,0.036794652938927,1
0.0353069056174076,0.0237938140009183,1
0.023662795003939,0.0143362633577195,1
0.0142748832686201,0.00767001258737694,1
0.00793127920697041,0.00377729687376338,1
0.00673966844782164,0.00451165176047194,1
0.00852425748245647,0.0073412703572029,1
0.0106120841852616,0.00967500500876405,1
0.0118092575736955,0.0122758910108476,1
0.011120094003197,0.018288987372209,1
0.00912822619850033,0.01647944235367,1
0.00763815328761819,0.0109225270751157,1
0.00855100557928307,0.00929446659512062,1
0.0122196917229017,0.0107800278558091,1
0.0171814725394721,0.0166985255365423,1
0.0192153165185664,0.0113718381723106,1
0.0186079740293841,0.00924336971948659,1
0.0168643486541275,0.00778351913449106,1
0.0148725177603592,0.00628229101790466,1
0.0136288735893404,0.00485598677311879,1
0.0151941250197623,0.00547387813871126,1
0.0217969241388728,0.00868028101338626,1
0.0324380502573752,0.0251407541080667,1
0.0360258929428642,0.0356704832348808,1
0.0278977953197435,0.010911394018876,1
0.0193691599810752,0.00465757832120701,1
0.0220366146363835,0.00279573859503502,1
0.0422536966411103,0.00607046008760477,1
0.0668141040789696,0.0105495825669251,1
0.0802189900363505,0.0105440252214242,1
0.0824350281143754,0.00966936084698853,1
0.0757008682120164,0.00969883238020035,1
0.0579690347718486,0.00845338186966337,1
0.0361263836563917,0.00599128416270923,1
0.0200032426557854,0.00425983326710616,1
0.0125421665034091,0.00349348186472628,1
0.0125232845317701,0.00617960461049673,1
0.0132567027814999,0.00728878406078794,1
0.0123077766903465,0.00508330289229614,1
0.012424236709607,0.00692523759731746,1
0.0122685677688822,0.00913405103308062,1
0.010496042207662,0.00683795184056495,1
0.00916320395929543,0.00361360121768328,1
0.011615375976405,0.00497451722319372,1
0.0172012844760245,0.0108485134581299,1
0.0219417439968898,0.0305257839800972,1
0.0216947148195052,0.02158973672756,1
0.0184902425048346,0.0250440644100549,1
0.0153114861778557,0.0202289081476266,1
0.0133466086725554,0.0155150922181187,1
0.0132444445606093,0.0136416266394515,1
0.0170585982432146,0.0158032804342639,1
0.0240145271936972,0.0212188187568616,1
0.029675819766938,0.0219132970726994,1
0.0316282117739995,0.0172161523007646,1
0.0294342954777865,0.0111735466954416,1
0.0234142028138226,0.00723460009709673,1
0.0165440287437754,0.00307930228756755,1
0.0149043428707205,0.00315388311821649,1
0.0183349494248761,0.00613399250711333,1
0.022348154550138,0.00948496904232383,1
0.0230990600844603,0.0122257404581066,1
0.019456032691197,0.0106038196620106,1
0.0135059956485519,0.00852943961985068,1
0.00742496770233039,0.00542389669116285,1
0.00365779179422871,0.00378523278286785,1
0.00250055818480478,0.0050998282840078,1
0.00275311667004917,0.0110810222291231,1
0.00308865184497003,0.0205048006625338,1
0.00296338353214447,0.0226264709058457,1
0.00237580083436241,0.0186611860900089,1
0.00218258074694102,0.0266489518479058,1
0.00270997460133298,0.030513663418785,1
0.0030628131792365,0.0351989917930836,1
0.00250672896396325,0.0190368742503321,1
0.00184634144103435,0.00737440906763497,1
0.00271062036056399,0.00389543149155968,1
0.00970510157355049,0.00278509277909074,1
0.0286461144646813,0.00583401447124182,1
0.0547617039470538,0.011214294956356,1
0.0793561496567593,0.0155442232073018,1
0.095309906038961,0.0224781406813222,1
0.0907879466505944,0.0113754755104392,1
0.0736465330336986,0.00539876053047216,1
0.0623371804804235,0.00438348123571952,1
0.0620600364469968,0.00457954796134057,1
0.0698252962582337,0.00590566108214957,1
0.0764153506517933,0.00730185822563491,1
0.0754901819198675,0.00619324352578038,1
0.0719242526429944,0.00535542416381626,1
0.0695235810685005,0.00568657524049973,1
0.06514170018972,0.00492821772344706,1
0.0625801425687551,0.00513205348570191,1
0.062490029616704,0.00528478103773424,1
0.0650088784363715,0.00421833172970458,1
0.0767443747516541,0.00411017537121602,1
0.10300412114722,0.00393202929521494,1
0.144869548706618,0.00604156083563701,1
0.184816548035913,0.0121506728790702,1
0.196180684876884,0.0200394011746904,1
0.168903399943815,0.0149825715196952,1
0.115010652851578,0.00553614180499768,1
0.0641073869517205,0.00113301358876675,1
0.0468820512428317,0,1
0.0741444542737357,0.00111231234437492,1
0.132398072895675,0.00535738032197009,1
0.192850309643861,0.0135946540134073,1
0.229811783281996,0.0214889075442842,1
0.231538296170968,0.0209464542759557,1
0.19635740997838,0.0125475302912813,1
0.136929548196506,0.00521909767789943,1
0.0799162019365147,0.00134682486990775,1
0.0558781257652516,0.000237150760307136,1
0.0799090990886892,0.00117683956696385,1
0.14117152197294,0.00502984790582469,1
0.207592437183673,0.0146914897099703,1
0.242341548543133,0.0211326108391865,1
0.228654328088481,0.0133233885026465,1
0.179269753661859,0.00634126695099696,1
0.125244736528829,0.00283656474965506,1
0.0975990068995735,0.00166391118779495,1
0.112594114830933,0.00196887391315137,1
0.164304502603703,0.00457474041748197,1
0.224115595883261,0.0110513096553739,1
0.253573241502151,0.0213997535095102,1
0.227107142250547,0.0138122272746823,1
0.162801442163628,0.00530997210263421,1
0.101023767926729,0.00248225685936345,1
0.0689371930784188,0.00128477629226693,1
0.0765041256504186,0.0023396783004882,1
0.110385492204973,0.00629834776132353,1
0.142782341756078,0.0129144233550454,1
0.152974690780004,0.0185648518358092,1
0.133458301846738,0.0168040600088336,1
0.0915740297176456,0.00548639773539724,1
0.050540636875994,0.00206412561790675,1
0.0254435481761689,0.00106868496516487,1
0.0185716518599836,0.00147847714537963,1
0.0244689148425047,0.00414012505443723,1
0.0349854654730791,0.0146233201274951,1
0.0413570038014872,0.0395339313485452,1
0.0401701133405345,0.0393520409710571,1
0.031258477544583,0.010357888801611,1
0.0210548275203525,0.00300092109027327,1
0.0193567363001756,0.00222611221281618,1
0.0299921931836899,0.00340952586120927,1
0.0500035880328233,0.00688962671564012,1
0.0702687781203431,0.0119063222857911,1
0.0814240838793029,0.0153442755029939,1
0.0802387163666398,0.0171803971813767,1
0.0683974498433021,0.0180038082236371,1
0.0470628922684012,0.011796470678203,1
0.0248609639292118,0.00701781197312168,1
0.0104329133284046,0.00637336350463233,1
0.00400131592476363,0.00633267266994679,1
0.00160143830772463,0.00718910878112149,1
0.00117073941545952,0.00600792124546904,1
0.00206274215019527,0.00340657079349818,1
0.00558778963629855,0.00420899698360272,1
0.012215885630515,0.00585967795837916,1
0.0202318372499195,0.0114437369884274,1
0.0258414621384829,0.0138993501758894,1
0.026730857674875,0.0114004845202911,1
0.0230999667895628,0.00741365697098841,1
0.0177206759268644,0.00541763355055358,1
0.0130607939445944,0.00419372731993736,1
0.0105773413845365,0.00399367185546853,1
0.0100859404049625,0.00529862156013997,1
0.0101563547056877,0.00638768447175712,1
0.00962061042679116,0.00621964917326669,1
0.0085761313265208,0.00481743881615196,1
0.00810339843414794,0.00427985482441384,1
0.00894416849558175,0.00552872051245814,1
0.0101654922938352,0.00992806698535206,1
0.00993813589626349,0.0127704056013159,1
0.00785142560935468,0.0106555949846608,1
0.00487286999250154,0.00821455443032201,1
0.00214744663534774,0.00445960938525358,1
0.000753055045620408,0.00399977473771603,1
0.000468452486091259,0.00786398967429385,1
0.0010978879437037,0.00456415914323032,1
0.00505097817018644,0.00431558292715708,1
0.0151759845133279,0.00550520786354898,1
0.0338229925266939,0.00693835906691771,1
0.0605547556283342,0.0149517367074774,1
0.0822192528761336,0.0261570589823102,1
0.0856170201964046,0.0151664132989114,1
0.0752836346973148,0.00823460050849857,1
0.0608573412217798,0.00533694917791892,1
0.049362702737514,0.00417196979242465,1
0.0448836513213061,0.00468576231006299,1
0.045330527591964,0.00546874496310648,1
0.0459387940945959,0.00559064122631013,1
0.0453219743478343,0.00656568907950145,1
0.0401669770333455,0.0066844424130326,1
0.0305279388171159,0.0047481794407886,1
0.0234336031257975,0.00419358693907961,1
0.0213135723364469,0.00437215346332155,1
0.0229202796495615,0.00570129815862003,1
0.024459225148141,0.00598747306718533,1
0.0255228829001027,0.00571426551862261,1
0.0266608580675831,0.00614920739920087,1
0.0269946866327156,0.00729399204904302,1
0.0246417834504185,0.00676436237091896,1
0.0213752662906665,0.00453993074653892,1
0.0237448225959731,0.00454541137783246,1
0.0317195299355872,0.00743331696199412,1
0.0386322544624356,0.0122696031491531,1
0.0391793446866179,0.0135079690697029,1
0.0327560998070022,0.00858748360882056,1
0.0251667982854236,0.00488854183814483,1
0.0237940289947623,0.00489366669392943,1
0.0294958610734062,0.00692022359467069,1
0.0386979617351207,0.00988728983635415,1
0.0446652472757426,0.0152729099161363,1
0.0405236030365263,0.0125403480979182,1
0.0300601309854676,0.00681163616060349,1
0.0243203606863965,0.00358519375356541,1
0.0378136419804881,0.0023973794439913,1
0.0827637163290212,0.00361160956194259,1
0.151494045902254,0.00840614500867712,1
0.223658685829655,0.0152242081771032,1
0.280527968634754,0.0268790054575391,1
0.303204278150912,0.0384831503129181,1
0.285552789875574,0.0259560236342999,1
0.240218410306537,0.0189115836188904,1
0.175248922345143,0.0118775340967517,1
0.102545982535375,0.00441065063120893,1
0.0477470677375266,0.00145126513753172,1
0.0268827019238302,0.000800090254755947,1
0.0400355633430222,0.00141069338072261,1
0.0852334312849533,0.00381899772127206,1
0.15019308662796,0.00958837822875208,1
0.215172384121481,0.0162029314548628,1
0.266804063627504,0.0266993290480248,1
0.287622493164414,0.0358072185787341,1
0.2641947574455,0.0271510129948417,1
0.20639852989175,0.0118528480380065,1
0.13856019156515,0.00633088358414477,1
0.0769900231894129,0.00290979144340609,1
0.0374338880044356,0.00144759801545531,1
0.0272219785038893,0.00175600532169328,1
0.0391107120323814,0.00455592142043244,1
0.057113747354462,0.0162331359471957,1
0.0631916907661511,0.0167482066555445,1
0.0556359125285433,0.0114292391241956,1
0.0421808201655869,0.00659672776132137,1
0.0311289938725212,0.00424221228853494,1
0.0281525818408997,0.00372016423494027,1
0.0353523590848593,0.00575704812229059,1
0.0482076085185132,0.00951549586321727,1
0.059044936450182,0.0184228187417258,1
0.0592394399415873,0.0406677660380656,1
0.0475432322321985,0.0309805895863602,1
0.0314800480398494,0.015016162129878,1
0.0170563226675509,0.00481507729300643,1
0.0105191186279883,0.00265564519593453,1
0.0152227204577573,0.00392908761066089,1
0.0291723171670129,0.0073315312087095,1
0.0454171744723912,0.0157985120898318,1
0.0524662286834058,0.014542677522642,1
0.048608508608793,0.00831541987432933,1
0.0415972029375165,0.00644979055250933,1
0.0337663899101583,0.00588123552707286,1
0.0257876862895198,0.00488825529442476,1
0.0210707638983204,0.00428683914832387,1
0.0215831079354538,0.00360247302129169,1
0.0294452990657461,0.00421865142972501,1
0.0424963489189194,0.0058840736348553,1
0.054338907142734,0.00617185923157259,1
0.0627535994657537,0.00679554409482398,1
0.0649551090468208,0.00849580422180164,1
0.0569744546666881,0.00721441241256328,1
0.0425575135611142,0.00427305851188936,1
0.0318849404195245,0.00256382598343117,1
0.0327842646527742,0.00274253992441865,1
0.0431348683210791,0.00918266196713154,1
0.048327533568103,0.0164831962275915,1
0.0415494567850006,0.0105805822207382,1
0.0294433059772056,0.00481890546578455,1
0.0211408651715156,0.00339814562659093,1
0.0189293284108319,0.00632546817473397,1
0.0181312909396195,0.00582521951592816,1
0.0184992385827476,0.00536060733137817,1
0.0202764079070154,0.00699472769677463,1
0.0196758700532947,0.0067009539596851,1
0.0170503189484393,0.00428413345141395,1
0.0241254204100287,0.00305542242136349,1
0.0534417339276964,0.00515080062448896,1
0.0921583353345296,0.00856818237208513,1
0.119082030040122,0.00913510236526762,1
0.132288016753165,0.00816479254891089,1
0.131123484866942,0.00820935993793714,1
0.112703552855079,0.00812439217919612,1
0.0810184306265554,0.00629131255270362,1
0.049541575483597,0.00444271227979452,1
0.0305242995731309,0.0033939890251801,1
0.0276427204869875,0.00717507910383053,1
0.0255827799609111,0.0121116248628317,1
0.0170249201322912,0.00558742373965759,1
0.0112987911133683,0.00448594236826713,1
0.0112421322288315,0.00564345552860938,1
0.014639732916579,0.0204742210461615,1
0.0138765898221735,0.00952745754976429,1
0.0140566366024506,0.00310261029863035,1
0.0264369253871916,0.003985655864519,1
0.0512319682354727,0.00567132463875933,1
0.0868324146307491,0.00786880645180786,1
0.125687943497646,0.0136410656461249,1
0.149288938538502,0.018948910532205,1
0.14431442820944,0.0133594120460633,1
0.116120530942089,0.00825392809441105,1
0.0784250854283945,0.00324374816112968,1
0.063767897448093,0.000709785213542409,1
0.094806488516186,0.00441870577111414,1
0.140836510526843,0.00943550199911388,1
0.168218179713403,0.0119826097129591,1
0.164294700927848,0.0106192493329694,1
0.133364355148734,0.00659852232015308,1
0.0974579995467937,0.00353642925833189,1
0.0818733414127871,0.00317090200318673,1
0.090915060945826,0.00427884092851798,1
0.112311705385853,0.00663945735714712,1
0.128195768038916,0.0141731394510048,1
0.11722256429628,0.0141724553020147,1
0.0829665966836533,0.00568649905950937,1
0.0491076635246504,0.00276075186441142,1
0.0310172274629932,0.0027437049305793,1
0.0284272948833365,0.00448562836574699,1
0.0324217644912266,0.00876645266566182,1
0.033157486765972,0.0104064951701078,1
0.0281353549011062,0.007766815696559,1
0.0212338956403813,0.00615315173818551,1
0.0149955340282379,0.00524704584844355,1
0.0102786518877286,0.00411005386795769,1
0.00900294798491085,0.00395907009037526,1
0.0116176049562545,0.00441832671709168,1
0.01743633638733,0.00436128624677744,1
0.0278748699421529,0.00721215123724492,1
0.0373125538632249,0.0104996662282795,1
0.0395096033723735,0.00858784216542173,1
0.0360361414822282,0.0085853059036409,1
0.0292424277949273,0.00804182054879093,1
0.0208394613330821,0.00613943086665925,1
0.0146817350259833,0.00539798246734307,1
0.0120592501060189,0.00578799178499268,1
0.0118565381363328,0.00823739684248361,1
0.0132884167315529,0.00717862918252517,1
0.0189219234860007,0.00798802187026871,1
0.025848520003231,0.0101636791944086,1
0.0295631269396706,0.0100325387792443,1
0.029543673356591,0.00651572597514432,1
0.030539995081894,0.00432271671937181,1
0.0421097158802431,0.0047808678352488,1
0.0593861598700656,0.00771637320815128,1
0.0641158259074253,0.00613601231686368,1
0.0638204232441278,0.00393695920665479,1
0.0808650044268531,0.00367937144642399,1
0.128669281847165,0.0042355303454997,1
0.205387650818011,0.00578060278953373,1
0.286732663298144,0.0077501366479521,1
0.34541596255751,0.00994004763205687,1
0.355840845088039,0.0118554633771578,1
0.299376659179634,0.0107175948960406,1
0.193403887027192,0.00380234957490348,1
0.106688886859504,0.00173580300541636,1
0.0733295591455623,0.00208395839406506,1
0.0804489451325935,0.00473097414740973,1
0.0971654267326232,0.0143572832480535,1
0.0934784565998021,0.0142863127729252,1
0.0699198799702874,0.00504636044831359,1
0.0494191205835297,0.00194317159549377,1
0.0498930284582674,0.00198845139577055,1
0.0718016016917165,0.00439607763532713,1
0.0990188513850384,0.00963052662553437,1
0.111156922141423,0.0118661339362476,1
0.102107107804757,0.00836101063133266,1
0.0811635126664521,0.00504981928428366,1
0.0611420963690549,0.00397812421133421,1
0.0496304314788523,0.00352048708958909,1
0.0492225572549109,0.0048725960269537,1
0.0522125909429348,0.00708389355086258,1
0.0502877939818877,0.00622635680947673,1
0.0462810393969168,0.00427301276646831,1
0.0488581653236279,0.00334673576997915,1
0.0648701967768461,0.00420890272252463,1
0.0909297143473334,0.00781333951878423,1
0.110440460111838,0.0166283392984541,1
0.107639015954851,0.0159142022424374,1
0.085517300582647,0.00924802937456907,1
0.0558866862899773,0.004807780107206,1
0.0309367545067726,0.00174054434071907,1
0.0212377519180852,0.00236799718246915,1
0.0230213307107704,0.00534727821826267,1
0.0256922829643763,0.00812071262280218,1
0.0244193495992259,0.00760196107356848,1
0.0199280083634943,0.00412360265834591,1
0.0171740813588823,0.00236897982313367,1
0.0200561049508063,0.00285360482562703,1
0.0279188088340004,0.00508566857124855,1
0.0367744018912455,0.011155175815465,1
0.041486335372587,0.0229242674399401,1
0.0388015014987412,0.0281763816667165,1
0.0295629685274479,0.0152743395458395,1
0.0181629580991447,0.00651347308454023,1
0.00894256084263774,0.00397062280497406,1
0.00357165832703648,0.00293462831093196,1
0.0016151899693267,0.00406002436594915,1
0.00141655570058547,0.00745011509379291,1
0.00166493644864996,0.0136123194450435,1
0.00176369485442513,0.0165685187947508,1
0.00155732785625265,0.0165687071261014,1
0.00113189164965082,0.012443809609475,1
0.000690962504169676,0.00964663900706485,1
0.00035946822932087,0.0064342878304503,1
0.000263413790322008,0.00471941430375175,1
0.00047215262464222,0.00690997689032973,1
0.000986909447042724,0.00781745436533809,1
0.0019725423601058,0.00992607465798111,1
0.00347285710543103,0.0137147587208331,1
0.00522294811551652,0.0227507792013631,1
0.00704903383804461,0.0390616905826517,1
0.00882814045270413,0.0854088079728544,1
0.00998146971132633,0.214616509631746,1
0.00964349909663282,0.0550678195352678,1
0.0079324707696226,0.0180478894769535,1
0.00565007748396872,0.00648062102660307,1
0.00426415792163005,0.00277214692558529,1
0.00528818728821062,0.00311374445068207,1
0.00861387823235764,0.00518483818112296,1
0.013085156990145,0.00830275137800364,1
0.0171072990935055,0.0133613234252533,1
0.0188749545836652,0.0211705189176887,1
0.0172889073669016,0.0213431520390237,1
0.0129744360572647,0.0126869897973394,1
0.00772775503601049,0.0063037137438195,1
0.00348401033503493,0.00375147195723316,1
0.00129750756068246,0.00284353513763569,1
0.00089841665193593,0.00486353009173056,1
0.00136168865960465,0.0141423017144231,1
0.00199884059652747,0.0453726164624367,1
0.00253668319820645,0.119375695353133,1
0.00280264209439415,0.164737089467977,1
0.00249065287897816,0.0293367188754643,1
0.00180425389045018,0.00847661089944005,1
0.00144947011085616,0.00480412953958051,1
0.00192469958307608,0.00428954384216149,1
0.00342824921147322,0.00672169942362368,1
0.00551687234798247,0.0114595757291311,1
0.0073616860956412,0.0168660417800847,1
0.00837334593710395,0.022051747219781,1
0.00800753005247191,0.0245825414084919,1
0.00607831228816267,0.0132682073423191,1
0.00366905396186606,0.00495579241926302,1
0.00253880659248298,0.00261871856627788,1
0.00358905001147802,0.003193385545168,1
0.00640577337529165,0.00923970298365905,1
0.00910284485578257,0.0187771544465554,1
0.0100903660125715,0.0183343400697806,1
0.00933716175706303,0.0145077944642735,1
0.00742931125085029,0.011217381291603,1
0.00498702071254725,0.00805442849046179,1
0.00273052021031255,0.00550700962003086,1
0.00122804119778372,0.00398739679240264,1
0.000695896360869993,0.00413491996374704,1
0.000889093116521095,0.011279440155022,1
0.00109430131895609,0.0288085625881745,1
0.000914886765313934,0.020853113746931,1
0.000591558715892009,0.0102193651106324,1
0.000476986665218554,0.00504606833861807,1
0.00077646009596319,0.00759780481728522,1
0.00112389921035626,0.00978708985128356,1
0.0012087410998258,0.00780076144309084,1
0.00120389696377193,0.00736934891092596,1
0.00120349840617107,0.00822658480445183,1
0.00121996318608924,0.00693376821702247,1
0.00172695266659738,0.00512547328338377,1
0.00368875370951424,0.00578104143010795,1
0.00718979642734734,0.00989848868318752,1
0.0102505733424161,0.0124637599746891,1
0.0112355068230175,0.00858570832656149,1
0.0109063950343045,0.00583204289193748,1
0.0106674842081955,0.00454271609043745,1
0.0117542655731372,0.00408900069213584,1
0.0147392265059283,0.00482153184924736,1
0.0189171683890956,0.00630353713127894,1
0.0229437605662539,0.00966915261883674,1
0.0244362850950701,0.0177397018618913,1
0.0210745310141213,0.0211207971535472,1
0.0141381185138178,0.0109614827441872,1
0.00758370755186769,0.00738800375177262,1
0.00328777370199512,0.00687397669596894,1
0.00126616089129806,0.00980614607006774,1
0.000784694314537076,0.0354484615155476,1
0.000879022160204848,0.109902401814394,1
0.00101796454549069,0.112698712662957,1
0.00103079924989527,0.0937490770272807,1
0.000890530665959807,0.0610995576979373,1
0.000639680661447611,0.0318238668321036,1
0.000384587034595013,0.0187626255188647,1
0.000225687011946664,0.0136458411905408,1
0.000189393236870463,0.0145052332765899,1
0.000237644861692184,0.0242629118980186,1
0.00030215839177917,0.0492922061007193,1
0.000366923796623015,0.0593472199758362,1
0.000540445727968376,0.0279119262510223,1
0.00100314993804349,0.0191266585184705,1
0.00194146310447114,0.0174129539661293,1
0.00350902373251808,0.0215255910374706,1
0.0052395422868633,0.0316628542000953,1
0.006127225223907,0.0244673818762384,1
0.00589493507122466,0.0150190592928662,1
0.00493721254710488,0.00865470990872505,1
0.0039303607985131,0.00523972766135557,1
0.00360909857163189,0.00424565749694772,1
0.00429572888839768,0.00548751880360667,1
0.00563159945418528,0.00822484293556479,1
0.00691824032327668,0.0143033345451552,1
0.00721463641119378,0.0252195754145561,1
0.00603360718978304,0.0223352244989883,1
0.00405993422508457,0.014073265626636,1
0.0021478641351968,0.00897650656412952,1
0.000795018605962278,0.00604920600912514,1
0.000247565808101394,0.00455274063113142,1
0.000428819550337689,0.00606845681847984,1
0.00143815906163619,0.00690557009797558,1
0.00364537317588304,0.00849041234249038,1
0.00701672455535342,0.0125119694896344,1
0.0108271964363506,0.0214779544420967,1
0.0135646401378538,0.0282293230694328,1
0.0138847891065855,0.0185490529190542,1
0.0119038863915809,0.0106410781675019,1
0.00885395404271066,0.00649421784924058,1
0.0059967445842845,0.00456979079177024,1
0.00417533929022387,0.00389054868670666,1
0.00362825155498955,0.00462452479545173,1
0.00407730259045452,0.00834834816783154,1
0.00469617397106051,0.0182434789501898,1
0.0045087972730222,0.0344303843962089,1
0.00342054024556855,0.0301842035444547,1
0.00216348780733548,0.0237717273801529,1
0.00117406230061861,0.0130525929585971,1
0.000627915387698045,0.006113193989697,1
0.000766095236380054,0.00551033963395137,1
0.00168207255454309,0.0059263359472478,1
0.00357316417862424,0.00788542744688056,1
0.00615795512945708,0.012506939443261,1
0.00847143388041671,0.0187615898356023,1
0.00986675877481919,0.0242279995717521,1
0.0102197376438807,0.0412452495887364,1
0.00938916823919381,0.0545295252427153,1
0.00782111990857459,0.0469482494149949,1
0.006540285026921,0.0440800855390729,1
0.00586326657410155,0.0484573424949089,1
0.00518099057013213,0.0347442485000338,1
0.00428157325954264,0.0176519378983689,1
0.00341437803804195,0.0116770858017325,1
0.00263287559603288,0.00929446650385101,1
0.001855620336237,0.00843323407417368,1
0.0012372364846542,0.00537652700147191,1
0.00142694100086504,0.00329779331529264,1
0.00321914054404294,0.00498046591260609,1
0.00613325107264399,0.00827202688933706,1
0.00897119000841685,0.00985524135270753,1
0.0108382888518137,0.0102291902110134,1
0.0111476592368641,0.00977731433138177,1
0.00986060853794687,0.00946404297363955,1
0.00749833042007402,0.00861027667707084,1
0.00456101871474859,0.00588782409822584,1
0.00220553912425605,0.00370655577840254,1
0.00131817675354549,0.00498824185219398,1
0.00173892809982872,0.00526839828289186,1
0.00356168750007916,0.00560266866233711,1
0.00723830395665112,0.00717978716736179,1
0.0128752650914402,0.010298578376158,1
0.0191916034778501,0.025948546085816,1
0.0218928684757894,0.0294097574530202,1
0.0204842972693365,0.0289515476805103,1
0.0181069655203581,0.0281442828563131,1
0.0163240280508198,0.0229196644799421,1
0.016723601188993,0.014723795119218,1
0.0238443830525168,0.0134225273839462,1
0.0351325501382504,0.021804111262823,1
0.0404649555545609,0.0160269981437782,1
0.0383520737136,0.00900508701452743,1
0.0349767277758974,0.00459290336292327,1
0.0392037412864035,0.00326200475761105,1
0.0573041638071348,0.00357085760304076,1
0.0891869012707074,0.00529390481428942,1
0.124999486517451,0.00886939109408564,1
0.14490974640074,0.0114471526611189,1
0.1354600064477,0.0095735420617148,1
0.103927991727722,0.00436146415840052,1
0.0785139077974555,0.002037898902952,1
0.0808160842528419,0.00321558910196007,1
0.100800878915535,0.00631297450148731,1
0.115881071840543,0.00855842902868202,1
0.115491479019499,0.00996817913233818,1
0.0983825640866119,0.00981860844988991,1
0.0680598252093011,0.00710659995341435,1
0.038110925543422,0.00503162753390526,1
0.0196627178387141,0.00365624055441168,1
0.0129425414256778,0.00409965262199653,1
0.0122580130169646,0.00669517098008667,1
0.0105427897798804,0.00690364170564593,1
0.00794812254401509,0.00438035492541882,1
0.0090428637464199,0.00669117018919292,1
0.00999223138032072,0.00615413881435976,1
0.0114381247883577,0.00329835786474785,1
0.023792079255398,0.00308902530226254,1
0.0596596973629284,0.00397995893538533,1
0.122637771621402,0.00803665341375961,1
0.180931876888231,0.011015571057812,1
0.204818284848577,0.00981884109398941,1
0.196092346510837,0.00766570761502933,1
0.169356199847029,0.00516267563141796,1
0.148828906137827,0.00383356700184181,1
0.152686424340985,0.0041903379376032,1
0.178322745698738,0.00554793981169873,1
0.212996311448471,0.00878117646419205,1
0.226415744959346,0.0152411370991736,1
0.1881041822764,0.0130805530964266,1
0.119021356770428,0.00582514168810055,1
0.0638246519285477,0.00305929810204868,1
0.0478458731454747,0.00189643516308837,1
0.0789198525999748,0.00669523592464942,1
0.124366640291114,0.0200473268728578,1
0.15199707679152,0.0270861869487325,1
0.152594689386444,0.0198638303686743,1
0.126693467439085,0.0105428646340544,1
0.0899317767699501,0.00689842006206217,1
0.0610750858358304,0.00557079447717791,1
0.0402574842846954,0.00478873259521491,1
0.0270562845042331,0.00397194552153042,1
0.0242997650317855,0.00677167522287086,1
0.0238852874046683,0.00969659135859285,1
0.0193251732235421,0.00982476019059153,1
0.0114233488357956,0.00732049704752857,1
0.00587230469322327,0.00426888442761086,1
0.00603766485215741,0.00698089867736162,1
0.00862458629584784,0.0103838997494368,1
0.0111096377763675,0.0115147838220868,1
0.0124758431314557,0.0122591144422541,1
0.0118001329551677,0.00915411514175647,1
0.0108325618503762,0.00810859752885525,1
0.0103520706745269,0.00829095186119213,1
0.00868052071452493,0.00603477240388124,1
0.00796104748124758,0.00338589625461316,1
0.0135539476853159,0.00454986067173743,1
0.0229714229027532,0.00635703356223686,1
0.0327288242394644,0.00800607490335439,1
0.0410241942150194,0.00886156115571634,1
0.046218559849462,0.00986387648174852,1
0.0455580154000599,0.0147082889903033,1
0.0385630844621214,0.0163155508279497,1
0.0269008718150885,0.0145870911012141,1
0.0128088189906501,0.00682843883677711,1
0.00497869125361928,0.00239876076397872,1
0.0102008517779695,0.00315589827889975,1
0.0312910319674798,0.00460393988754323,1
0.0717496343681864,0.00898677279754184,1
0.113092670972801,0.0152824096742707,1
0.131546929847481,0.0121953462267475,1
0.129568903679007,0.00885400140211093,1
0.114013409411292,0.00644723450884863,1
0.0971263909200264,0.00374314413667766,1
0.101438208909591,0.00379518456660877,1
0.128036641983394,0.00564471023156884,1
0.159238619440857,0.00812698341311762,1
0.175728878841644,0.0125499658396082,1
0.156137880405508,0.0123548673587315,1
0.108081443146444,0.00675521088378957,1
0.0627209426700586,0.00531592279782757,1
0.0318618210352162,0.00387420161630375,1
0.0163490196742416,0.00277539419119554,1
0.0172656662781195,0.00411155916277618,1
0.0272427921022936,0.00541669025484147,1
0.0382216518055292,0.00695668887801052,1
0.0450245514249814,0.00717328431778741,1
0.0466584047745193,0.00628964147016639,1
0.0443136449472654,0.00577776604534637,1
0.040070981918505,0.00405137014627862,1
0.0403728835973173,0.00332451731381488,1
0.048984344913093,0.00428990975714901,1
0.062371336177277,0.00733847615250928,1
0.0714655530654645,0.0155119552318507,1
0.0691379630972851,0.027420357732123,1
0.0566830975977538,0.0244096790787781,1
0.0404497749024532,0.0181609998540729,1
0.0283221068139559,0.0229603195400983,1
0.0281288821676962,0.0189945329742459,1
0.0378360771665585,0.0304898902608464,1
0.0461985966585286,0.0282410547635327,1
0.0493960247891989,0.0251744404578676,1
0.0448861648539362,0.0142972733378498,1
0.0366243095399252,0.00459201374122981,1
0.0433162465911366,0.00472410384003103,1
0.0634172331651441,0.00733166615049846,1
0.0818144254757774,0.00865273136918754,1
0.0908819747854501,0.00858018886689608,1
0.087964763903952,0.00691116676431329,1
0.0804735320310723,0.00625694862866804,1
0.0734158902894005,0.00650697040314903,1
0.0625219918901068,0.00547117444919537,1
0.0523716221813936,0.00425688861282185,1
0.0527919411449351,0.00502712519515721,1
0.0603651627973119,0.00530272813973967,1
0.0719239317676592,0.00521544462694067,1
0.0930273682250116,0.00592662748589365,1
0.123578011009176,0.0082756172680653,1
0.148283974851622,0.0208631846311697,1
0.142095320729517,0.0335558757278936,1
0.10650715586997,0.0119278985204219,1
0.0640323674200785,0.00576650158806616,1
0.0310964179083728,0.00385881708536172,1
0.0147629817571695,0.00422825097178156,1
0.0101990158487119,0.00503074644898192,1
0.0091197431359293,0.00543080260628913,1
0.010137613101399,0.00406905435492452,1
0.0156115561264518,0.00423576469160261,1
0.0262625111976472,0.00542863102727413,1
0.0420187697571088,0.00658343190349483,1
0.0608661252819659,0.0104300492371473,1
0.0727315581181458,0.0183344824051517,1
0.0695789755844255,0.0146479153569561,1
0.0546972694495291,0.0085679976747229,1
0.0361138491834464,0.0035862026640585,1
0.0259478667658175,0.00098244304262779,1
0.0331902630777293,0.00256594578013062,1
0.0518623906159632,0.00596356505136608,1
0.0713126401350784,0.0128997434598739,1
0.0807946577975742,0.0219273204350967,1
0.0761573685754821,0.0255780513109853,1
0.0601597018185113,0.0148760790218497,1
0.0396298047248128,0.0078175231091078,1
0.0205778289818365,0.00352569016261902,1
0.00918668558711581,0.00193861880060941,1
0.00901086309327079,0.00229111648001507,1
0.0188656579060302,0.00748197409137971,1
0.0314575154207803,0.0188270197873278,1
0.0403064505254077,0.0260615540203346,1
0.0432994620787675,0.0248267924751302,1
0.0377003158641268,0.0101445357785418,1
0.0291536317841634,0.00373844916684499,1
0.0296815914678484,0.00266016876101908,1
0.0461925947172369,0.00311671930291244,1
0.0797295883888514,0.00611392332033867,1
0.114024492065677,0.0138166771480452,1
0.12641186688938,0.0139488306208899,1
0.114932380383525,0.0101425688015227,1
0.0896366131006806,0.00663403458791169,1
0.0625680922681396,0.00364296460168004,1
0.048673442347788,0.00349115736170821,1
0.0497596066610579,0.00507207431335554,1
0.0562479393023692,0.0074981793694657,1
0.0592420506278443,0.0120136543671095,1
0.0501355238730968,0.0123298762453797,1
0.0315130062479842,0.00561906719583068,1
0.016271883322024,0.00389694985171729,1
0.00897143392108011,0.00350216935930566,1
0.00855487471231831,0.00572159319515331,1
0.0117667122387089,0.0270108519816719,1
0.0128149988239916,0.0633453584884767,1
0.0113700821206008,0.0585098067189962,1
0.00962775966725134,0.0490662604172738,1
0.00680627100099959,0.0211492417802877,1
0.00415835858272537,0.0126854715489702,1
0.00291757859392299,0.0101484849532484,1
0.00290265407064137,0.00766927700301195,1
0.00457954935530363,0.00723337760810244,1
0.00877067489506705,0.0124745719024132,1
0.0151654539312957,0.022217436842108,1
0.0220858646510219,0.0329174280004269,1
0.0268964878677269,0.0553595306716634,1
0.0257634769322704,0.0280471420779111,1
0.0206388036385729,0.0114029568605008,1
0.0149730040081723,0.00403403052078015,1
0.0141910913680747,0.00257538890600977,1
0.0207092327544643,0.0035976538489915,1
0.0332308546012974,0.00582351682238504,1
0.0510480117667012,0.00948331374655223,1
0.0693140585330533,0.0216419232961081,1
0.0790184259431597,0.0428002709507637,1
0.0805816587352287,0.0679348432717367,1
0.0747271500661956,0.0749622096913565,1
0.0578005416285556,0.0236856694454085,1
0.0363614898673978,0.00892499858871947,1
0.0224383942522852,0.00490295574163092,1
0.0195847578817776,0.00349418698131259,1
0.0265360162283644,0.0067353348777874,1
0.0338218018317871,0.00948796248968387,1
0.0349483800136179,0.00595060242840849,1
0.0370835903587538,0.00365913193335326,1
0.0541139144414344,0.00290824697801257,1
0.103592891123955,0.00363738553589591,1
0.178751173557246,0.00674432364997822,1
0.253502852509963,0.0101408424466127,1
0.31427626659836,0.0156481737734637,1
0.337843641214317,0.0267453207364464,1
0.299138738277533,0.0236033358369947,1
0.220804585422745,0.0181295494985012,1
0.140355240382254,0.014111541171141,1
0.0720518995857796,0.00949414586040984,1
0.0272800539553564,0.00852341608352461,1
0.010108390499323,0.0139380465884297,1
0.00465751368906349,0.010485825386997,1
0.00232178966976534,0.00444003597210237,1
0.00596497394717276,0.00558132822253846,1
0.0215236601424437,0.00590842311362954,1
0.0559889587854464,0.00698739831852891,1
0.10895829220114,0.0103447708753806,1
0.161276761684858,0.0213305851917008,1
0.1883992656644,0.0195382011605771,1
0.182939484765711,0.0116269640512971,1
0.152033724568643,0.00691647343318568,1
0.111939254330096,0.00402602279686095,1
0.0827300905241004,0.00383977521839941,1
0.0679418973118403,0.00391265751336692,1
0.0641057273991329,0.00477724185313811,1
0.0640688656402152,0.00540361597794694,1
0.0626224994675264,0.0054854369382371,1
0.0590449245345555,0.00463107487315288,1
0.0570658338371302,0.00454692977653804,1
0.0585798220157471,0.00531304571998514,1
0.0610167609773897,0.00730311005139046,1
0.057164535538915,0.0101471450947378,1
0.0427488331759483,0.00840646661996613,1
0.024865538382679,0.00577904823968183,1
0.0129346185287733,0.00364911356566719,1
0.0100791165775113,0.00462708544054289,1
0.0127352207625589,0.00769283738716343,1
0.0150067229877898,0.00849969621947797,1
0.0151195730547653,0.00493111761083683,1
0.0183783165190351,0.00389109589352729,1
0.0290646572802773,0.00430065973544611,1
0.0515076689754091,0.00463933122727544,1
0.090396683186753,0.00751429461671404,1
0.130775714811366,0.0135469973217531,1
0.150491718231331,0.0187734767011598,1
0.141739875177614,0.0151148476608372,1
0.110014188990197,0.00853281499453566,1
0.0711032323452098,0.00354415619621192,1
0.0483076638862658,0.00322821584962251,1
0.0454346186448501,0.00446518551566607,1
0.050777076633972,0.00634858720834114,1
0.0549390341676633,0.00972561025776709,1
0.0501018892848989,0.0109383251756659,1
0.0368573344317267,0.00897363741368473,1
0.0224939237682374,0.00659088666666877,1
0.0107326248134725,0.00405492252219335,1
0.00535598681792578,0.00341493824578579,1
0.00550124313920454,0.00717633497736093,1
0.00600195904869827,0.00691717314017608,1
0.00627915890143825,0.00349834947674436,1
0.0115722627591667,0.00302220862716871,1
0.0266638409743085,0.00484842237356956,1
0.0487000988106953,0.00739804118930155,1
0.0698135040293475,0.0105687318601625,1
0.0778188896838701,0.00942002866290551,1
0.0729877035583044,0.00535867469706997,1
0.069453115431108,0.00381449506559899,1
0.0772402763374413,0.00384860297273105,1
0.0968396400767415,0.0047679465966502,1
0.12069332652028,0.00681423439729753,1
0.136884479508551,0.00985718088722887,1
0.134946019886954,0.0127309136300323,1
0.108789708376331,0.0122671773595128,1
0.0666118818224854,0.00792123630570063,1
0.0273810692146581,0.003837030658669,1
0.00772511898618891,0.0026907904838186,1
0.00399373450897405,0.00556668320992579,1
0.00480851519633803,0.0161777087059346,1
0.00373508989843079,0.0116462718543096,1
0.00224431266184924,0.00741621355028556,1
0.00212976494614448,0.00662610535730927,1
0.00382718692716844,0.010111420182955,1
0.00555024852581881,0.0127413364941015,1
0.00569644120369696,0.00493299526410892,1
0.00864435672453746,0.004587945096808,1
0.0175293780014337,0.00543815927239519,1
0.038407588372057,0.00597335212093605,1
0.0714250917672072,0.00991454096857386,1
0.104752523270689,0.0153071104951565,1
0.130687638462115,0.0211580925649723,1
0.141680646187676,0.0276885033596095,1
0.125057033317227,0.0243178046737119,1
0.0871982309302058,0.0112662608067983,1
0.0508727976767039,0.00680725228921905,1
0.0265761583867774,0.0042071846429984,1
0.014821044679239,0.00419758824426907,1
0.0145015407501446,0.00897061742603851,1
0.0224327443405067,0.0145964067144687,1
0.0341888805061575,0.0278858243547424,1
0.041827048604709,0.0569290222916835,1
0.0491513067735072,0.0423176471897193,1
0.0658045463360402,0.0393397807518021,1
0.0823895606910371,0.0488140574375017,1
0.0944474441318382,0.052221679540847,1
0.112267870140908,0.051899212117056,1
0.129202970864618,0.0750599844400344,1
0.129550599837482,0.0664105904133182,1
0.120627531211645,0.0585599708535551,1
0.106228925457338,0.0413384873421476,1
0.0746006296305513,0.0139227643374518,1
0.0427180573518488,0.00547757011733328,1
0.0313290127370643,0.00369899377380692,1
0.0393042123253903,0.00329521107025988,1
0.066697981011616,0.00633539968927391,1
0.0991389631819145,0.0129990012925718,1
0.119191241455719,0.0176802285389185,1
0.122098287550104,0.0179688118142482,1
0.107696899198585,0.0184397609834249,1
0.0764688263539552,0.0129028216663347,1
0.0438794114568834,0.0102699877413093,1
0.0260254310519941,0.00786640780914912,1
0.0300313378369633,0.00677099218548921,1
0.0517324264245683,0.0113385744412844,1
0.0789112618692417,0.0135802306593281,1
0.0980155528212477,0.0144095411223335,1
0.0994193182417626,0.0100806081090588,1
0.0872485010748591,0.00581175037638294,1
0.0761662537258965,0.00451121594250723,1
0.0732495002944012,0.00418041744368426,1
0.0823699290211941,0.0040907733332515,1
0.110714351610981,0.00582738620524401,1
0.14848586843576,0.0152555835653203,1
0.169268002335116,0.0319966761774473,1
0.161283020605789,0.0424991094977176,1
0.128878864066567,0.0312644920477702,1
0.0886384176378159,0.0181914182445873,1
0.0601630904660767,0.0318259305241882,1
0.0464707610648572,0.0461470368606575,1
0.0425564395546893,0.0403692514499696,1
0.0388360051742182,0.0351075081516614,1
0.0310873793701935,0.0166735469974735,1
0.0232790087163778,0.00536624806726665,1
0.0268970926990031,0.0022585105681904,1
0.0602883462452717,0.00347289957428643,1
0.117324482734675,0.007552740928344,1
0.170373877067187,0.0101952397641171,1
0.198245489454831,0.0105164881166665,1
0.191452824562775,0.00665592502751794,1
0.171839991433117,0.00423320730854854,1
0.171698569378438,0.00334900378310997,1
0.213817307136148,0.00355609704507128,1
0.297099867199315,0.00563760984052699,1
0.379658220244974,0.0100474049741221,1
0.407787157969544,0.0154107915960882,1
0.359951917046607,0.0136498417983469,1
0.25522942382995,0.00832032527552786,1
0.136303168180673,0.0035912466931662,1
0.0566081693275356,0.00287615414303904,1
0.0241242103199529,0.00299611570010596,1
0.0165491674222647,0.00409361860017056,1
0.0173016721098586,0.00630513356976996,1
0.0193200351080291,0.00532962543562403,1
0.0220866260151112,0.0059291649342332,1
0.0250507457001649,0.00676225169676834,1
0.0267064074568865,0.00765228264162219,1
0.0254141274614577,0.00831416206212555,1
0.020933063481115,0.00422288432365549,1
0.0198012440109539,0.00242522705563042,1
0.0269256322414925,0.00379343951390438,1
0.038758603533169,0.00900807142957172,1
0.0454066801409543,0.0142028924632714,1
0.0409357249675611,0.00743853332319752,1
0.032911109938451,0.00324330186343863,1
0.0331693937404369,0.00230567873119376,1
0.0470070189305378,0.00339776133377039,1
0.0698350923720526,0.00599466607546866,1
0.0910990669522804,0.0100061463575318,1
0.101034833924634,0.0141607562028242,1
0.0933411530385699,0.0147362427608997,1
0.0685784918302516,0.00844748779465824,1
0.038846360598657,0.00347095438630648,1
0.0177323856522066,0.00214603745581569,1
0.00818664663079292,0.00253971860998892,1
0.00592159599984629,0.00515983945639784,1
0.00581657865620801,0.00747486086553444,1
0.00545367310091859,0.00599446734772898,1
0.00525652402295763,0.00535225237207181,1
0.00570397812742601,0.00582254886820927,1
0.00667584221022585,0.00794343738060037,1
0.00745971193801019,0.0132382353564059,1
0.00727567848540221,0.0178720175457986,1
0.00589656516279609,0.0191170116407785,1
0.00352915793279834,0.0121464727866988,1
0.00142317144691112,0.00755083867509742,1
0.000491115457458268,0.00981395689938554,1
0.000235276466895906,0.0130944009159656,1
0.000192276962407515,0.0218787771322026,1
0.000206376111616133,0.0235951706936395,1
0.000241325562745102,0.0310728504246007,1
0.00025841403152957,0.0400334899314843,1
0.000340314335888724,0.0236184831410694,1
0.00064845607804244,0.0211511783981073,1
0.0011874856666037,0.0256808476595569,1
0.00186002919424238,0.0314585459352947,1
0.00259096086647877,0.0375251910953502,1
0.0030723615115173,0.0501795918353643,1
0.00299896173892657,0.040856015906893,1
0.00246966596852682,0.0242210341802143,1
0.00174598753498436,0.0153797489394447,1
0.00099450937332423,0.00941184136487407,1
0.000463656033708003,0.00704549514988977,1
0.000250528164074776,0.00809073526648749,1
0.000224693020117889,0.0128208777114931,1
0.000247994927273653,0.0255035761966607,1
0.000230335007898881,0.0520128057943562,1
0.000187909078918916,0.0284764553194946,1
0.000245316362158009,0.0176065502369711,1
0.000466252497405523,0.0189585950529613,1
0.00102284497870172,0.0152313281272058,1
0.00221445111128573,0.01572002772021,1
0.00380515486600301,0.0263845810411433,1
0.0049605113007467,0.0311241477706905,1
0.00537213125162187,0.0306081097863435,1
0.00484339405531655,0.0169890124071361,1
0.00367327992452836,0.00766448423910588,1
0.00289848022350082,0.00522105814890927,1
0.00307198625605641,0.00548631577761117,1
0.00413860321471041,0.00695058112880022,1
0.00580786343998277,0.0118029627790372,1
0.00717822925353427,0.025095413412432,1
0.0074458047002315,0.0391163595262892,1
0.00668127183741467,0.041654943760889,1
0.00498998222193971,0.0282999670188332,1
0.00295913386521626,0.0157512478569387,1
0.00150415085747149,0.0153940776004654,1
0.000714519346472342,0.0134817550181066,1
0.000317640380134211,0.00819458973536204,1
0.000249689697627766,0.00984456633554881,1
0.000412588981265369,0.015110072904609,1
0.000743399100205301,0.0207240686737597,1
0.00116105212961857,0.0380314529486885,1
0.00145253345970101,0.0661399307718731,1
0.00151565158738065,0.0807018486389315,1
0.00140205346456804,0.0850476442690369,1
0.00108700750363841,0.049872995472666,1
0.000683749088642464,0.0357983841807279,1
0.000423661400487055,0.0210454514445712,1
0.000561192683522285,0.00851302563744423,1
0.0015424343262987,0.00756166518279995,1
0.0039503941837039,0.00814014539046417,1
0.00795170552423181,0.0129488048890481,1
0.0118440607483393,0.0205407404002015,1
0.0135009443753102,0.0161471083283307,1
0.0127632065818626,0.00994559312981382,1
0.0106861710217667,0.00692309470350239,1
0.00820215887171732,0.00566003834567662,1
0.0060440883738182,0.00474487697038624,1
0.00475506588633647,0.00445276817063041,1
0.004336049891264,0.00510803346637961,1
0.00429933791367657,0.00745459579008421,1
0.00373027393235721,0.00927992792311406,1
0.00240015578236648,0.00601846090774314,1
0.00130675256725068,0.00347537525737772,1
0.00117285444551651,0.00401467739966524,1
0.00174853225142282,0.00724395713512987,1
0.0023912404047802,0.00835597223678314,1
0.00273483885242163,0.00789955437057253,1
0.00276465922952184,0.00660876540426642,1
0.00274567014423131,0.00476621313324871,1
0.00331856078985379,0.00353392483570031,1
0.00548699189749981,0.00342755106657545,1
0.00943573361026552,0.00627429557612979,1
0.0139484015359357,0.0127545394426491,1
0.0173058150060005,0.0280396069433869,1
0.0173524154128238,0.0242916352091678,1
0.0138144345617749,0.0093969015579976,1
0.00944514524089143,0.0041822848887822,1
0.00739066175006136,0.00241306093025753,1
0.00914139087051921,0.00361050884146084,1
0.0135243298484691,0.00710153545469276,1
0.0179048810872486,0.0126882516056595,1
0.0200842024468328,0.0175515577804275,1
0.0186325884375101,0.0152187374133407,1
0.013716539245253,0.00787779412897804,1
0.00832355155399904,0.00290357045346615,1
0.00610469596576422,0.00203590909693253,1
0.00790527817971414,0.0041971869393916,1
0.0115630085164006,0.011485604607101,1
0.0138526954268914,0.018593573767258,1
0.0137077899160493,0.0203188980575891,1
0.0116555706270682,0.0189286296807304,1
0.00824848594719022,0.0142337843126798,1
0.0047049062543572,0.00961903412846035,1
0.00214818228030848,0.0069276550910986,1
0.000664026754215202,0.00422129332043772,1
0.000124823764715941,0.00337140094317839,1
7.64929549473844e-05,0.00974602469725564,1
6.34913132501663e-05,0.0080448897132718,1
6.07534917026645e-05,0.0113918269551806,1
0.000104582353427311,0.00666653348257317,1
0.000525272276031516,0.00472417687457643,1
0.0020568466283588,0.00540411890663097,1
0.00504440623019076,0.00997233769007693,1
0.00846676426278766,0.0187448351091611,1
0.0105051761174154,0.0175116122480836,1
0.0103897538539846,0.0103138015727733,1
0.00904619798846209,0.00612755405039494,1
0.00813170182288832,0.00378377081187807,1
0.00946162500105908,0.00347379338291636,1
0.0135329446898269,0.00441678276130444,1
0.0196430243557648,0.00695207738859118,1
0.0261597007126989,0.0141611217324834,1
0.0295364636363895,0.0310881687424833,1
0.0272166630593027,0.0323461997476223,1
0.020593198218311,0.0151940608232954,1
0.0128863484950494,0.00769037280098383,1
0.00646289168236484,0.0038227196845365,1
0.00295760628189616,0.002572015942066,1
0.00261799153931948,0.00342280436660619,1
0.00442377086700712,0.00624537947063167,1
0.00723519126060414,0.013746569058462,1
0.00977761128481973,0.0347058892818136,1
0.0113783820338545,0.0698820045060949,1
0.011538214785503,0.0839818771440999,1
0.0101543387594622,0.0506537550374237,1
0.00790622930068486,0.0371957738070719,1
0.00567467272550259,0.0269881011357225,1
0.00333763121040672,0.0103475530130133,1
0.00178757797324926,0.00337257118729129,1
0.0023491493535839,0.00283374485818742,1
0.00650695238027584,0.00374997967612899,1
0.0170894646176098,0.00602013560003302,1
0.0318355908427364,0.0147745110557882,1
0.044218822888818,0.020476717986278,1
0.0513027609578715,0.0237885015089549,1
0.0500224072855145,0.0176798120732417,1
0.0398685116730705,0.00814946984759939,1
0.0283676287063109,0.00687535700372232,1
0.0195254860209824,0.00585654517594748,1
0.0135424655971187,0.00487044045313176,1
0.0105971522459311,0.00472996083552421,1
0.0117657473734969,0.00456589684084192,1
0.0164328933926006,0.00616184438383896,1
0.021060207055348,0.0073821824869794,1
0.0247610956897069,0.00799333806493947,1
0.0291990792959183,0.00975363945508932,1
0.0312326905202859,0.0167905562662143,1
0.0274317367063015,0.0196674850443017,1
0.0207047903210594,0.0179942691392169,1
0.0120496897734535,0.0116739270753816,1
0.00398902113580988,0.00479447739627224,1
0.00170811539443125,0.00517355247576667,1
0.00293481274658596,0.00822190538667297,1
0.00528958404514746,0.0116677548099317,1
0.00716434056434365,0.0130553438990592,1
0.00726029875555713,0.00684588472569333,1
0.0094521455973972,0.00365464678811578,1
0.020571164493614,0.00368333522348334,1
0.050181823553211,0.00343418875835919,1
0.105907377699875,0.00565115404281699,1
0.168467330261735,0.0146493078356258,1
0.202515160324144,0.015834198820358,1
0.196613902123058,0.0108073757748879,1
0.160704073507529,0.00546942909231128,1
0.126169390704636,0.00329095312472189,1
0.118558659895976,0.00341577627964283,1
0.136158670531356,0.00498543125225662,1
0.157625597146222,0.00646777570200632,1
0.165693074491382,0.00828535487913746,1
0.148398570263696,0.00861201704270062,1
0.108096580521334,0.00552490517718092,1
0.0669936202307885,0.00417577638550142,1
0.0388563052704966,0.00307693297666867,1
0.0290627816336756,0.00407743659227952,1
0.0284622691011904,0.00749577209361828,1
