Activity,Complexity,Tag
4.84045496405876e-07,0.242285703185417,0
3.33460243290542e-07,0.234425604117776,0
3.37217855379256e-07,0.225835549992602,0
4.85566846922372e-07,0.267048904287016,0
3.11328922321709e-07,0.221498083690524,0
3.14656876576545e-07,0.231027362349011,0
3.09197330901899e-07,0.22718723428015,0
3.74792739396034e-07,0.230823212277959,0
3.83882035688136e-07,0.233249154043746,0
3.53559386293033e-07,0.230331283792669,0
3.93041678980748e-07,0.235932332201513,0
4.0138668854659e-07,0.233875856212648,0
3.86386698123831e-07,0.238150099353738,0
2.89833507315715e-07,0.218217054412232,0
2.91926291928652e-07,0.226375074923886,0
2.69081296774437e-07,0.229536620205313,0
3.91197505305873e-07,0.273919520978497,0
4.54414566747644e-07,0.311742400133901,0
4.63227886345443e-07,0.302915674628189,0
4.841135242745e-07,0.301731045081763,0
3.79153944209989e-07,0.26974041101012,0
3.18527507692448e-07,0.2560994525209,0
2.58131129057888e-07,0.231469484482989,0
2.13412081965271e-07,0.21674723896425,0
2.10265019997457e-07,0.208206084541304,0
2.37774253198589e-07,0.220337212474972,0
1.5749935830819e-07,0.183992215097679,0
2.62937607193745e-07,0.216993153096924,0
2.71425166066111e-07,0.222188761165571,0
2.47516462420688e-07,0.214448399738924,0
2.37079595894665e-07,0.220172050296057,0
2.15391074507054e-07,0.203518627728006,0
1.77758212193153e-07,0.191952956390381,0
1.27757728754651e-07,0.172398337793651,0
1.54469025978584e-07,0.182312840675751,0
2.38842909171152e-07,0.207443067924351,0
2.1119808405915e-07,0.202052253377209,0
1.32488139364683e-07,0.178181406682903,0
1.2697958270287e-07,0.179765317878702,0
1.2565072013282e-07,0.185708830531106,0
1.19661175518078e-07,0.183092237236631,0
9.52427266843535e-08,0.16957257599204,0
9.34549852186781e-08,0.168756934408244,0
1.06065496756025e-07,0.170674606706441,0
1.60790670279243e-07,0.199781476261419,0
9.16434339989845e-08,0.177966804724515,0
1.14481780975129e-07,0.196896789075712,0
1.37579561504799e-07,0.206645851749889,0
1.56200644452644e-07,0.201362625857843,0
1.50094370199695e-07,0.18775388637428,0
1.66789491421526e-07,0.198736254507594,0
6.72016392376178e-08,0.153927691700827,0
1.4813454914816e-07,0.186617087858775,0
3.57764745444324e-07,0.254220855812129,0
3.78275302443195e-07,0.249364129394537,0
4.10294783334086e-07,0.238036543825271,0
5.1122463983539e-07,0.249688031701055,0
4.5817712631771e-07,0.234323992112608,0
4.51028015760515e-07,0.238969642176991,0
4.17749246256125e-07,0.230246911967912,0
3.92222252381415e-07,0.215669776987795,0
3.29537663620419e-07,0.204909218270393,0
3.14856012701061e-07,0.203439929605214,0
2.34030710509979e-07,0.184664214910192,0
3.13342701841766e-07,0.209779646830314,0
3.05929983293656e-07,0.216282749674752,0
1.872596955256e-07,0.187670035585708,0
1.89462097772295e-07,0.190307597609682,0
1.74460561261614e-07,0.183074981694333,0
1.60840145092788e-07,0.181689049527409,0
1.4038493804157e-07,0.171176426151924,0
1.53702166368642e-07,0.173819236194485,0
1.78557848867068e-07,0.172930047053944,0
2.95276355240789e-07,0.20386589148806,0
2.29629462018811e-07,0.191430111276871,0
1.9308303568859e-07,0.186091943097382,0
1.76709964581177e-07,0.182135347357414,0
1.70318437106385e-07,0.179830739452659,0
1.60864418673184e-07,0.174617202531619,0
2.29275717101967e-07,0.198014070258084,0
3.2123006938232e-07,0.213769795177084,0
3.32625355811978e-07,0.221471798659204,0
3.37434307688512e-07,0.238193161660538,0
2.57227131449152e-07,0.222180326058807,0
2.65869762940223e-07,0.218158408006366,0
2.66647754383211e-07,0.216246194393283,0
2.88345397689569e-07,0.225298541966277,0
2.88314475931104e-07,0.228744948353989,0
2.9327185224827e-07,0.233934383316703,0
2.03588857735992e-07,0.210146602953569,0
2.40139922329981e-08,0.139177661986007,0
2.55104507339296e-08,0.138302462222837,0
7.36766554602663e-08,0.159193248746943,0
1.03827379878302e-07,0.171540358513845,0
1.10832240432254e-07,0.174726761703967,0
1.1022199952894e-07,0.17653680518509,0
1.28539276199863e-07,0.178590047974418,0
1.59738093621082e-07,0.183131055379537,0
1.61494449501916e-07,0.185738605007299,0
1.28859625617565e-07,0.174676087461677,0
8.65841704876729e-08,0.157887074702449,0
1.2348124955889e-07,0.178385453453806,0
1.03418439622597e-07,0.172486614493304,0
8.30768700337387e-08,0.165751229926886,0
7.74542120831881e-08,0.167210603698142,0
1.12709809606272e-07,0.183241906266775,0
1.48953975747492e-07,0.200795446550082,0
1.56893291842268e-07,0.206897041572114,0
1.54605081715831e-07,0.197255469525869,0
2.68495020233933e-07,0.243370143882365,0
2.82161045996496e-07,0.243575177729325,0
2.71305035034474e-07,0.237095897102024,0
2.82991140602498e-07,0.238361144628898,0
3.07762561309106e-07,0.241104850395175,0
3.08787926819816e-07,0.23651776847264,0
3.35404603462846e-07,0.252930725172688,0
3.00866236127367e-07,0.239538627526799,0
2.58351291978161e-07,0.2328930191716,0
2.42584905771838e-07,0.237369203689737,0
1.33486757554322e-07,0.185904619742262,0
2.15063303867321e-07,0.215935032711379,0
1.97964344479933e-07,0.206032199823666,0
1.95901863190293e-07,0.200743767024354,0
1.90414487933029e-07,0.200918249753077,0
1.94731165414794e-07,0.200383223118225,0
1.92674868476848e-07,0.190635285650122,0
3.33707617358266e-07,0.241518771580421,0
3.81830531622751e-07,0.233038980902912,0
4.7441847073406e-07,0.247336629423379,0
4.48539432639224e-07,0.245221326822163,0
3.65675922738896e-07,0.230542250818039,0
3.51014680180125e-07,0.232664981870497,0
3.25202433083574e-07,0.232020812308667,0
3.07450251548606e-07,0.226630695423232,0
3.16536146447277e-07,0.229365246045429,0
2.92464330525949e-07,0.229611728492657,0
7.48702353370297e-08,0.149263001576288,0
5.42590280143523e-08,0.155482411063622,0
0,0.12281940432525,0
3.77863888446813e-08,0.151726942714224,0
3.32602164493127e-08,0.142942807410636,0
1.17682182976295e-07,0.186753724323781,0
1.19852890420564e-07,0.180921352824391,0
1.28597563714571e-07,0.182651329973243,0
1.46460290536053e-07,0.18812113952064,0
4.07620515053208e-07,0.268963714493839,0
5.84637687304739e-07,0.284344595909221,0
6.95298775803887e-07,0.295196959459943,0
7.10881332156133e-07,0.304561869269541,0
6.82193361522302e-07,0.298652821439553,0
8.59066592988177e-07,0.330349433096068,0
7.48468739485089e-07,0.296284354815562,0
7.7215588873111e-07,0.297294049670561,0
8.5133785406855e-07,0.29655490219819,0
1.22358264056704e-06,0.360013273762894,0
1.05458657246142e-06,0.319823744360964,0
8.96034637495072e-07,0.312027885859827,0
8.61057181189384e-07,0.302220431902842,0
1.24645608373904e-06,0.352200369222997,0
1.27428566635787e-06,0.339729223371415,0
1.18598796662484e-06,0.330653075851855,0
1.17173813806245e-06,0.336551058029338,0
1.18357375033266e-06,0.349594058404976,0
1.10706466179696e-06,0.349627897431524,0
8.39627165702545e-07,0.294190130522852,0
7.30437643688763e-07,0.296399964550777,0
7.34832244001861e-07,0.297450784351646,0
7.09785619644913e-07,0.307247543903521,0
3.6683966311874e-07,0.234332762682909,0
3.17741012765881e-07,0.235430576048626,0
2.9407040666064e-07,0.229436035430153,0
2.6222640674904e-07,0.224073982329179,0
1.33950120104927e-07,0.178949305134104,0
1.01616474148028e-07,0.170588293268873,0
4.83877591257408e-08,0.151765619873905,0
7.22006053199216e-08,0.162317770601923,0
8.49420705043696e-08,0.172952560247174,0
1.0798944856774e-07,0.182428422626133,0
9.7314484501533e-08,0.179420552591578,0
1.10363002747542e-07,0.176737781916865,0
1.68987410013243e-07,0.201748816155042,0
1.72940602224249e-07,0.208386031252794,0
2.08463518349265e-07,0.206009567028176,0
2.13906830100716e-07,0.198856427151154,0
2.20772697350367e-07,0.199244286687473,0
2.4793452459514e-07,0.210293863630037,0
3.56744327414966e-07,0.237590816514589,0
3.64134782296982e-07,0.234258554809107,0
3.64725851710048e-07,0.234282939123947,0
3.49054704519798e-07,0.240140700927625,0
2.1005521586627e-07,0.199651644452657,0
1.73087789794544e-07,0.17652046717843,0
2.12088630702953e-07,0.200750902800806,0
1.78940505628077e-07,0.195607051579639,0
2.9698864761581e-07,0.231407336238854,0
3.56991701482689e-07,0.236622676632093,0
2.075661689186e-07,0.194882589607889,0
1.52584808626496e-07,0.184199968943719,0
2.0606584519786e-07,0.204699247101125,0
2.16701074804439e-07,0.196874725739296,0
2.59960614897491e-07,0.214067352958537,0
2.20068454301318e-07,0.203016377119396,0
2.34072918710284e-07,0.20985477875759,0
2.52633240402746e-07,0.218280623591322,0
1.70966402555027e-07,0.198269129177266,0
9.90716134263276e-08,0.17134190633652,0
1.02612154770613e-07,0.167242563579116,0
6.55560605564872e-07,0.30255224333197,0
9.92562008634869e-07,0.320108475326557,0
1.11092740786446e-06,0.345921413058523,0
1.13198744451126e-06,0.339622434333242,0
1.13707051777659e-06,0.335747854150995,0
1.13222817040091e-06,0.32675278734452,0
1.1615617873515e-06,0.319090305258763,0
1.19556830044137e-06,0.321623333227381,0
1.19174389735438e-06,0.32325295963719,0
1.228181324486e-06,0.327756183358888,0
7.63829277611555e-07,0.27483088834918,0
4.3948801550124e-07,0.230659254045129,0
3.79255367577756e-07,0.209703235818788,0
3.7518127129115e-07,0.211977927164068,0
4.76619326892833e-07,0.235691179241322,0
5.9881593199628e-07,0.255133560192351,0
6.34931309013493e-07,0.261917472393307,0
5.91017464511314e-07,0.249794978996158,0
6.81141557908102e-07,0.263991493635941,0
6.71948519116348e-07,0.265197432129339,0
7.46420327595552e-07,0.284447297072641,0
7.35700372370776e-07,0.283884948015151,0
7.43637369333668e-07,0.286985786056631,0
9.25578522403224e-07,0.330038010543078,0
8.40290128204043e-07,0.301587224503133,0
8.95565863636737e-07,0.316384774405238,0
9.50800936957048e-07,0.342668446397113,0
1.91964889441603e-06,0.444215896743978,0
3.93677275726004e-06,0.642894735938825,0
6.20898535734652e-06,0.765146180286509,0
1.61974387661144e-05,0.566059426640845,0
5.3074493370376e-05,0.935151606594658,0
0.000202282623863397,0.56978455906888,0
0.000406480601279741,0.454115619490289,0
0.000431950754004994,0.4381472096949,0
0.000643670791935732,0.30700579038753,1
0.00102739318044022,0.362718143474325,1
0.00100761901506963,0.267393967027049,1
0.00104235815197151,0.223844049753966,1
0.000897664711388073,0.173288324056678,1
0.000634764817143997,0.125215247128193,1
0.000512406686050854,0.107622856887668,1
0.00045830960997342,0.104558241655297,1
0.000441764899142161,0.108832272714837,1
0.000384859902440278,0.100069211483095,1
0.000458212795957579,0.161676822708717,1
0.000424984904341522,0.0573815506541065,1
0.000821872061442966,0.0636482112453586,1
0.000764172865349177,0.0602984791834802,1
0.000769198851637072,0.0644858872057619,1
0.00079278675069651,0.0690950820716607,1
0.000686693486819818,0.0619254800361356,1
0.000708803774808544,0.0592787479737502,1
0.000730669154894393,0.0583666738922916,1
0.000641551348437953,0.053228011341205,1
0.000455885035665194,0.0356794990672482,1
0.00034222568688432,0.0498976121958919,1
0.000197863617006341,0.0580803892644386,1
0.000189711374919643,0.0697665288784693,1
0.00018908515287851,0.070022161378227,1
0.000239473858994545,0.0701503881161341,1
0.000292028750556891,0.0671736951541113,1
0.000388193316704615,0.0756202225163948,1
0.000555107473524439,0.0931344749073412,1
0.000783195331429567,0.0950108308677127,1
0.00114551540091166,0.0996171293994577,1
0.00144158356343712,0.110261466444838,1
0.00138079382988617,0.0954505792525061,1
0.00132619616656303,0.0883771426192043,1
0.00123954321866331,0.0770943462593268,1
0.000892054602723978,0.0585871322690718,1
0.00133631153260889,0.0536358149822279,1
0.00256086672061257,0.0824810359810418,1
0.00275416191806182,0.0709332178760211,1
0.00279954703328275,0.0631688575312659,1
0.00300405069964728,0.0437852433228231,1
0.00377878902893159,0.0426358627934183,1
0.00388133584772726,0.035660134714759,1
0.00390833366797505,0.0343627418937915,1
0.0035493457064676,0.0322931469429362,1
0.00347451240114132,0.0306838207485104,1
0.00651267732595886,0.041172133895449,1
0.00757336462824733,0.027324000666348,1
0.00800953283799553,0.0283585458401275,1
0.00718660554077778,0.022716357298345,1
0.00684451495538524,0.0263451986530101,1
0.00673190088402684,0.0293503204087487,1
0.00624802111757833,0.0306566639277668,1
0.00473329136222046,0.0217421334922536,1
0.00350182773559077,0.0151201149174703,1
0.00382073728794802,0.0165162968219076,1
0.00316882413493428,0.0118511496966584,1
0.00298679990885991,0.0147085309802146,1
0.00305570999071362,0.0164976087266458,1
0.00287654684471398,0.0183096411597202,1
0.00248810875059631,0.0136877656482417,1
0.00249522555734704,0.012534869946908,1
0.0024783880241113,0.0120637069439556,1
0.00246281221983423,0.0120574013406041,1
0.00365796654286544,0.0187624813047895,1
0.00386456330831719,0.018447535312138,1
0.00340065888868351,0.0259898062495866,1
0.00325690904859635,0.0330359490741731,1
0.00371260014824914,0.0219464439313182,1
0.0044178135277991,0.0300922537916769,1
0.00434114449708618,0.032496697335047,1
0.00453066182173753,0.0300093503987211,1
0.00406237601079292,0.0273718182644064,1
0.00369690895525593,0.026055064361872,1
0.00378192338375737,0.031488211716485,1
0.00371677417129041,0.0347244062574825,1
0.00412427211125619,0.0322694201080784,1
0.0040323210502878,0.0352294239469934,1
0.00395591518105561,0.064715356950024,1
0.00381893859384088,0.0649291880928094,1
0.00378659728253467,0.0648569175676209,1
0.00372132966014115,0.0768688519860488,1
0.00320939102886314,0.078011898200153,1
0.0029477905816295,0.0646563864136851,1
0.00185059454416064,0.0407096296615915,1
0.00102900700556758,0.0239705195847284,1
0.000953941682228043,0.0282011004006181,1
0.00144172005950021,0.0298152420449983,1
0.00296396172870665,0.0477991556114285,1
0.00389788329358805,0.0536734630105069,1
0.00506338549674379,0.0614571622064805,1
0.0104141336947555,0.0677076296522627,1
0.0216214181389342,0.104845013873169,1
0.0237461229920058,0.0532555346088268,1
0.0229171906722871,0.0495433194416426,1
0.0186412815191438,0.0357407488285037,1
0.0148747083365237,0.0270666440418452,1
0.0125366603905583,0.0210885046445354,1
0.0168132224342133,0.0194322809351214,1
0.0191006732992898,0.0200500942787693,1
0.0203116697017452,0.018876601873584,1
0.0344533810060433,0.0323299139554295,1
0.0431286509215279,0.037916926368994,1
0.0427466697237917,0.0465088906596035,1
0.0469530061455079,0.0417015444943765,1
0.0465763365615893,0.0261369585389256,1
0.0319557522612677,0.0173679305465381,1
0.020133287824895,0.0103483302579964,1
0.0186305088505152,0.011303310494153,1
0.0178108300760483,0.0120247085125633,1
0.0146876824705626,0.0110424431744342,1
0.0180296276505604,0.00860091993593183,1
0.0354718527137064,0.0198165063364404,1
0.052893409007285,0.0257417793119093,1
0.0784977114304854,0.0336217347994413,1
0.0669364940829515,0.0389618562882628,1
0.0633453063058782,0.037233385722581,1
0.0596504781915514,0.0243091398458607,1
0.0585729448987716,0.0255934552946657,1
0.0677039396453732,0.0279374610901908,1
0.0660687972123332,0.0146846192859743,1
0.0773408116405902,0.0207871316482288,1
0.0850945670315304,0.0190165411912537,1
0.0876616918545491,0.0214720392696024,1
0.0855604710167247,0.0206984696492446,1
0.0897515790017773,0.0210214716233187,1
0.130656917020968,0.0259238034074885,1
0.131058166683607,0.0220404584181683,1
0.106291042487929,0.0174568840614036,1
0.0614294997244317,0.00875888792995063,1
0.049417183878081,0.0115891037327059,1
0.0613781571321603,0.0137561166178951,1
0.0899676098839547,0.0185041260618247,1
0.170548422775466,0.0336635481070774,1
0.205324340370636,0.0367400564051546,1
0.213616167335074,0.0439595198813925,1
0.140905432097094,0.0400019128666571,1
0.121772995940298,0.0545136352589458,1
0.113859055550364,0.0410247735740137,1
0.0894589430881143,0.0350409809850642,1
0.0375490418821014,0.017098731459438,1
0.0220301928259383,0.0102921266024578,1
0.015962449262939,0.015370169097763,1
0.00998948235331755,0.0110504307088954,1
0.0116198781746013,0.017599753321009,1
0.0129276495852539,0.0167197704958215,1
0.0188929123202006,0.00953449676420072,1
0.0396220628500223,0.0248417435099136,1
0.040308642232152,0.0280745472453576,1
0.0482474479051716,0.0315686365392392,1
0.0566025441221864,0.0282135580337528,1
0.0615245884816311,0.0242851926261672,1
0.0602355458575033,0.023175760347859,1
0.0770781421972447,0.0287422287253651,1
0.106513066363115,0.0360097398741122,1
0.133295441002782,0.0405044125635283,1
0.133900974363209,0.0630343674246372,1
0.118930529001777,0.0494328228440689,1
0.112227866316493,0.0441231803758706,1
0.0854507520461782,0.0464130677973805,1
0.0269804970940549,0.0173322525622018,1
0.021787526936081,0.0211766282655705,1
0.0180744040383434,0.00949229534037322,1
0.0195761047173563,0.0117898246281541,1
0.019966577624438,0.0115271789928781,1
0.0202919910063762,0.010059984453529,1
0.0186681510629504,0.0104146283363482,1
0.0194069484510413,0.0171365924302425,1
0.0187679671789368,0.0142657926133725,1
0.0203837466843485,0.0150877483316317,1
0.0207403643675273,0.0172068969712657,1
0.0192243468852785,0.0151189376143525,1
0.0182433439525357,0.0252298973940855,1
0.0166820612874253,0.0238895354820622,1
0.0169214903593449,0.0190893750346514,1
0.0239472914373476,0.0274516071451671,1
0.0183820455997195,0.019428033517346,1
0.0105694606255967,0.00951120846238627,1
0.00788121562903244,0.00698747874295471,1
0.00790886029768034,0.00719605472584537,1
0.0075313622580089,0.00660611189989309,1
0.00789221081187191,0.00973152319978589,1
0.00829749847938503,0.00767956045695341,1
0.0105424169553385,0.00835396438938361,1
0.0130029771323718,0.0141228776844401,1
0.00958578393246286,0.00806509393687923,1
0.0110798970203339,0.0104191570355749,1
0.0204739236374092,0.0196099831512788,1
0.0209107247085639,0.0157144666997825,1
0.0241915797696079,0.00703502242524206,1
0.0636736115809597,0.0228767752674482,1
0.122574361324804,0.0356259919142033,1
0.181130342168863,0.0406650557582669,1
0.23380584960999,0.023044525442356,1
0.203254338386759,0.0215648476142248,1
0.174002309987393,0.0177459270796702,1
0.163473788024317,0.0161819677954243,1
0.182029292744261,0.0183934740003214,1
0.152080047163715,0.0156812391304167,1
0.112801389310526,0.010357197799205,1
0.127091646649862,0.011421125105002,1
0.123668991273455,0.0103206602909898,1
0.125009474934838,0.0123257164401987,1
0.115455278507692,0.0261861410213471,1
0.103323243064572,0.0214018704231313,1
0.123783630463961,0.0301473037808975,1
0.138414312773018,0.0385016858053817,1
0.104729193875324,0.0285927837888853,1
0.0705022438872644,0.0197634814377546,1
0.0609599567349744,0.0229024937215839,1
0.0550625252112151,0.0306032767481699,1
0.0193995094884238,0.0172462740715584,1
0.0190182833344751,0.0192549589260039,1
0.0199184464106189,0.0195989639357787,1
0.00821897121920271,0.00956415338438615,1
0.00820071788393542,0.00996523021722889,1
0.00861452532940175,0.0111130714225155,1
0.00901580730945296,0.00759010824126236,1
0.0123615439761712,0.0121696063193152,1
0.0134486727977197,0.0106175106320887,1
0.0127336467254275,0.0113880230578978,1
0.0107314609700641,0.0104598243424461,1
0.0107649966002771,0.00932192507594244,1
0.0107808838559267,0.00895108204955222,1
0.0133589359041086,0.0129677086473871,1
0.0206380930099602,0.0197810256966471,1
0.0441075288499585,0.0411660768403578,1
0.0535058373368197,0.0454532162221945,1
0.0446958019119301,0.0399964485516046,1
0.0406253384371969,0.0358348017725933,1
0.0390275292723559,0.028051817622238,1
0.0424271297256357,0.0300571212217838,1
0.0531962347762731,0.0373101436595228,1
0.0680639842890206,0.0523600426843338,1
0.0948408819369563,0.0695745743742014,1
0.105650893996747,0.0831885531726708,1
0.0822817465792495,0.0828174297568807,1
0.0631723563119429,0.0849470864074658,1
0.0507735707717679,0.0772069327800935,1
0.0213413424447329,0.043825593217642,1
0.00936622682123171,0.0299300523507919,1
0.00495903788997411,0.0165052359048498,1
0.00458091470897699,0.0130518559833117,1
0.00577621310699429,0.018294561725846,1
0.00442037703975246,0.0140537483474603,1
0.0039146369292903,0.0119158075872758,1
0.00550447514430459,0.0196450013977615,1
0.0158115629030163,0.0327025772823578,1
0.0442319567042171,0.0738170838330136,1
0.0572534383245628,0.0456512655257676,1
0.0584370103418856,0.0516096337982067,1
0.0552877782004925,0.0522989858058273,1
0.0495628236733618,0.0443852013681983,1
0.0488566385113795,0.0410770975811982,1
0.0408994545691389,0.0341596724060858,1
0.0319237192644761,0.0294710353934019,1
0.0296774413369123,0.026678830320114,1
0.0350710073437827,0.0407091369667588,1
0.026603997998643,0.0288549276980255,1
0.0211354518300481,0.0318441089312376,1
0.0221272367377866,0.0299576033881196,1
0.0281457823056259,0.0350223053901759,1
0.0388575359398152,0.0399724892389795,1
0.0371044233245704,0.0277939674421924,1
0.0726988017479847,0.0396786106058116,1
0.128468152371343,0.0572298377447856,1
0.172509788322454,0.0693700033533544,1
0.179593726635263,0.0771725129911861,1
0.160649728461359,0.0746719811551876,1
0.155630871878917,0.066878772826408,1
0.162793457210797,0.0741964486506199,1
0.160272170710689,0.0440438525782842,1
0.125091041304028,0.0337595672987796,1
0.0616574144226539,0.0196563809292002,1
0.10145695487053,0.0267959688249959,1
0.118068597126911,0.027581256919174,1
0.148033471358256,0.0307441604671351,1
0.174024512069714,0.0347962968299118,1
0.195831251035706,0.0337844093638868,1
0.252116962774042,0.0464348849836084,1
0.20484127529682,0.0378121684744488,1
0.126277786129083,0.0319206949181626,1
0.118572000191895,0.0277897778219921,1
0.0746303532254792,0.0191411853175641,1
0.0689783912055737,0.0224482359939529,1
0.0436596403129138,0.0203108909439522,1
0.0314535517841323,0.017070037509626,1
0.0347802838365198,0.0180910986215365,1
0.0335100750093631,0.024450046580502,1
0.0321915672696417,0.0283356955625024,1
0.029728672880491,0.0272621838022882,1
0.0218303285719323,0.0276792130543178,1
0.0114331912080208,0.0216555675348542,1
0.0102428389018887,0.0145206198035488,1
0.0293956953165736,0.0161246454128606,1
0.0325953304086546,0.00887355233449796,1
0.048624902268323,0.00769818024771747,1
0.0662579861002901,0.00720072503911327,1
0.0663658965275311,0.00760663132126511,1
0.068224841500605,0.00771571448020069,1
0.0660367804593599,0.00691394953667446,1
0.0739764066293354,0.00819280334241476,1
0.0766598099991555,0.00851360441802474,1
0.0820384968561345,0.0086041673806385,1
0.0794042850194453,0.0112777975926004,1
0.0828452693852213,0.0155410563986087,1
0.0585993290702291,0.0228000448363261,1
0.0198885738669981,0.0172137201935858,1
0.018602040188588,0.010763153653478,1
0.0234048835856841,0.0145825915040441,1
0.0201211411125235,0.0130920215275803,1
0.0223353607506888,0.0161179465949413,1
0.0190410446929208,0.0142523377222167,1
0.0178561427343225,0.0198765969245714,1
0.0172533803982143,0.022666099396857,1
0.0160872436351198,0.024878444412426,1
0.0185834506342381,0.0287652263097729,1
0.0165826950589055,0.0263528945175982,1
0.0133633913926109,0.0474242081791635,1
0.0127682289596064,0.0490686472078965,1
0.0159749021395261,0.0555226612313248,1
0.0144853879613029,0.0368915196348797,1
0.0125558927185935,0.0287337645762331,1
0.0118262724928267,0.0259225646342266,1
0.0106796527363085,0.0211446071754799,1
0.0183263741907023,0.02843056377608,1
0.0348459536831177,0.0487933327591098,1
0.040519837885761,0.027610523372474,1
0.04168908963692,0.0217934748331469,1
0.0434467177106347,0.0230491307237732,1
0.043760368495851,0.0183736738970708,1
0.049890469784989,0.0207758583348043,1
0.0462988461680493,0.00704350079965782,1
0.0818740729027361,0.0148998684606859,1
0.0923771006919829,0.0187750539511625,1
0.109181217963331,0.0221580673441883,1
0.213155912727321,0.0312484316620398,1
0.302431410165909,0.0501559752892483,1
0.423344030655789,0.0639976316848195,1
0.506771997387353,0.0748141102135711,1
0.536197755511447,0.0677735457565103,1
0.342397665201421,0.0469641582061848,1
0.280276457469051,0.0380707790670992,1
0.286300225689118,0.0343401169409964,1
0.266917329832724,0.030900289530524,1
0.262772551319116,0.0316396075073258,1
0.30664980146794,0.0349731886525091,1
0.408083011439593,0.0477093128190664,1
0.42790539425551,0.0488210630210469,1
0.368707421136672,0.0468088311853887,1
0.183380277190537,0.0288855385524266,1
0.127193090723456,0.0193991919770287,1
0.13598049267348,0.0272470199063725,1
0.116916764227688,0.0356749698161814,1
0.0830747300966908,0.0253274252621819,1
0.0483551648540421,0.015223607936141,1
0.0194282114166755,0.0205947326618975,1
0.0207074635293208,0.0186177588313077,1
0.0211271855335191,0.0188811655742283,1
0.0213014880754731,0.0205061845107098,1
0.0153107293678235,0.0150341969081519,1
0.0147128918917935,0.0135960636723473,1
0.0159802204036864,0.00859451721839183,1
0.0181534792654813,0.0102814153849056,1
0.0179665116977029,0.00998519098458574,1
0.0171128616258546,0.01130727585139,1
0.032163601976527,0.00579498937194279,1
0.0672862887610761,0.0152637109071439,1
0.0687153586698184,0.0133355884945289,1
0.0687672107592856,0.0130451118689014,1
0.0642551906467003,0.0109412707986991,1
0.0657384997046314,0.0137917147130956,1
0.0684343143284964,0.0180145711129263,1
0.0742716827075172,0.0191555050276019,1
0.0762141613317883,0.0198361214578799,1
0.0798419308711859,0.0202917145811208,1
0.0731839023875547,0.0557962697820138,1
0.0330302154215494,0.035313635615539,1
0.0275227654545738,0.0475130438481914,1
0.0134066895198118,0.0416844106401452,1
0.0102327268282371,0.0465809436890372,1
0.00961235624875119,0.0417029057579465,1
0.00799848879444863,0.0340730456987185,1
0.00978247823003108,0.0326832558214083,1
0.00742305476678663,0.0225103726161725,1
0.0113200649627246,0.0134749115796193,1
0.0253730794497943,0.0349070262890913,1
0.0444729073795932,0.050357596324272,1
0.0557435109772643,0.0555635339816942,1
0.0542190939881696,0.0536448259878538,1
0.0515309006086783,0.0554680751417193,1
0.0391622915060643,0.0462098921695779,1
0.0254937650483279,0.0307974740081166,1
0.0388237748953943,0.0279183219207915,1
0.0321757264196665,0.00939601785818489,1
0.0329641586747976,0.0139737576964969,1
0.038612071520117,0.01468136947022,1
0.0364775311458512,0.0149976304066748,1
0.0355982586592922,0.0140136573866852,1
0.0364619565569538,0.0115049470662152,1
0.042762141948836,0.0132176300601053,1
0.0468702091161514,0.0154606226291519,1
0.061136564821638,0.0217883735755811,1
0.0909640296848368,0.0257981147480658,1
0.178879464819742,0.0769045420474579,1
0.213017392330498,0.0780894396747629,1
0.276807446148463,0.0906383345465598,1
0.269597216311861,0.0746187065036418,1
0.248917887751692,0.0531615601343638,1
0.30386414299643,0.0591606544120552,1
0.263889830435888,0.0412992699567513,1
0.18444970294559,0.0302432891558379,1
0.128570237201287,0.0173642934400201,1
0.0937596035850849,0.0147383333686387,1
0.129330789428506,0.0148429729397483,1
0.193478898514205,0.0244958223751523,1
0.207523625357755,0.0227995283209082,1
0.220941370471782,0.0181868371844637,1
0.317348008907921,0.0334766182247226,1
0.268810621582227,0.0271549516342452,1
0.221703382646945,0.0207465302665874,1
0.203093018578247,0.0167531259023083,1
0.181199280469295,0.0147205609554169,1
0.161456924826949,0.012247393193948,1
0.152852144627484,0.016233544898747,1
0.155119555140325,0.016684917390744,1
0.122130250473172,0.0136887644431359,1
0.067915380137311,0.011926649055021,1
0.0662820080870346,0.0138091768937046,1
0.0687324540732035,0.0121636629188164,1
0.0470167964394556,0.00877832313004941,1
0.0433478382443971,0.0204866114981205,1
0.0400973442411281,0.0194319670049119,1
0.0356804870078256,0.0178233333651527,1
0.031157947165359,0.0147176333990145,1
0.0295071804513828,0.014202285729194,1
0.0263827991264856,0.0152382149320538,1
0.0225266211013148,0.0141713492313127,1
0.0254523172635381,0.0139080075563621,1
0.0263265170929807,0.0164899874206638,1
0.0233706427498277,0.0187866368831747,1
0.0200121763385083,0.0231295739362948,1
0.0219526344961199,0.0161121837685793,1
0.0230826387976163,0.0160799848418391,1
0.0249614688867316,0.0167098441472775,1
0.0253031949206711,0.014235698932171,1
0.0271062388237256,0.0189777493217418,1
0.0336360953446961,0.0231626524444915,1
0.0357807868818907,0.0376611159567194,1
0.0337368052293736,0.0383127302898534,1
0.0340307480219371,0.0356854054916213,1
0.019106220374413,0.0231313448960211,1
0.0190538446620723,0.0367526790233957,1
0.0195767732171717,0.0227251912125624,1
0.0199053265523201,0.0219766090845221,1
0.0129222242444554,0.0151006511226533,1
0.0097609446427327,0.00886242045283234,1
0.00987139696096966,0.00651753856221622,1
0.0208928782472058,0.0173317717013405,1
0.0216693134010285,0.0161835067382476,1
0.024398493825697,0.0186762356636468,1
0.0270013255049309,0.0182804358508739,1
0.0231400967421506,0.0117699429703599,1
0.0443239111225154,0.0221631731205891,1
0.0605631257730669,0.0216729264159789,1
0.0486119331645739,0.0171766299070036,1
0.0417567778807388,0.0121359630021506,1
0.0430148518028428,0.0128110793740025,1
0.0440074489594675,0.0104173596225917,1
0.0469463195389587,0.0045914977092154,1
0.082909924539108,0.0131229275687086,1
0.0786172494568536,0.00930641663901898,1
0.0841298746515107,0.00750873392387941,1
0.104370197649822,0.00865875513438879,1
0.103978539289102,0.00872223667023649,1
0.105545432999187,0.0081603096640199,1
0.0931552952375847,0.00553396059812377,1
0.0934089237852298,0.00534358735464033,1
0.0710038104238238,0.00274490412698765,1
0.0616078086839103,0.00418975434351369,1
0.0595693981489567,0.0035630311949959,1
0.0577529949171372,0.00461080827392188,1
0.0949590726815906,0.0166404053055288,1
0.101054623709648,0.0146433759035003,1
0.0919513529330177,0.013233805115251,1
0.128201453591574,0.0179744381409798,1
0.154102445250559,0.0205300147240052,1
0.157118145219302,0.023519660454487,1
0.17788995102549,0.0148759940773245,1
0.172020168190207,0.0121216203000309,1
0.201342623830035,0.00996731621096466,1
0.300980128276945,0.0169666736329468,1
0.311187372425125,0.0172784824505424,1
0.359712244655789,0.0224655881816801,1
0.399898241660535,0.0272530081709214,1
0.346266428442739,0.0285070323966442,1
0.241642401672831,0.0193088275430546,1
0.137887989174734,0.00754913788494594,1
0.0938561139766233,0.00744481992242102,1
0.0574435327399825,0.00156727693429398,1
0.050896434744332,0.0105357733147465,1
0.0513202009178115,0.00890162754604392,1
0.0619543689748566,0.0115713465334055,1
0.0604915470143592,0.011240802853185,1
0.065929920022945,0.0122532943764336,1
0.0644084988142069,0.0113312581196937,1
0.0629897685930981,0.0148186719388833,1
0.05400926623415,0.0132126532216767,1
0.0551628020168753,0.0113697498543329,1
0.0551291331001232,0.0112736279019222,1
0.0629065834862417,0.0159728804636429,1
0.0631402439086941,0.0145693302398356,1
0.0501511524438188,0.0115478645699895,1
0.0457122475039923,0.0107127549931933,1
0.0326219079004722,0.00639778236494265,1
0.0354752633451676,0.00830863389767476,1
0.0445306709954502,0.0110773636449287,1
0.0449865575116492,0.0138090709799053,1
0.0442672780123322,0.0219828044555628,1
0.0439407417908425,0.0330619428821355,1
0.0233248846735178,0.022743265730502,1
0.0147275941811313,0.0374551668375472,1
0.0122922092662169,0.0371688257617078,1
0.0102918908078193,0.0301397851880845,1
0.00510596113412051,0.00974635530831775,1
0.00502286495035643,0.00622887867802136,1
0.00573795986947996,0.00356852118083467,1
0.0101435057427982,0.0103408005594358,1
0.0131484320048689,0.0145337365155323,1
0.0191242684709922,0.0214787493326547,1
0.0266931662633795,0.0304541586605321,1
0.0370992517717854,0.0384382768048929,1
0.0458075868220558,0.0313808152454736,1
0.0394802281631151,0.026057801766374,1
0.0458980367268897,0.0262212238703965,1
0.0348776514470762,0.0163941861816366,1
0.0371176232074525,0.0182173711526083,1
0.0592410716889147,0.029232135110947,1
0.0650700188164451,0.0203901895615282,1
0.0692664091702892,0.0223353097493797,1
0.0942984864515225,0.0228925728112779,1
0.098993009914326,0.0151153300131214,1
0.0974133661292018,0.0142588637791765,1
0.116011986775915,0.0123459477902417,1
0.152390993332645,0.0193478011324174,1
0.226448496935475,0.0347541733283287,1
0.243690308565527,0.0377258133809875,1
0.195007746227493,0.0299090309812093,1
0.160203544306439,0.027397368227962,1
0.156852395352388,0.0260208071699876,1
0.181736001712019,0.0265056291853711,1
0.176613197309913,0.0387254120323977,1
0.101118768467598,0.0205757827636181,1
0.0842271394076402,0.0231515024874669,1
0.156315742823378,0.0250306173205606,1
0.233038456244579,0.0328201560848445,1
0.273710686749261,0.0248754143642421,1
0.265302190942968,0.0255904103450864,1
0.21769219417946,0.0218254045876896,1
0.193541532515124,0.0193418232548953,1
0.27504975758746,0.0326926312907277,1
0.31987282084533,0.0328552328076961,1
0.342120996622876,0.0353399753575294,1
0.424513267878051,0.0419531236970962,1
0.433204825518734,0.0653057292607336,1
0.341663522017884,0.0553370082857836,1
0.196006716707026,0.0532089149517276,1
0.158577536800312,0.0439271427349304,1
0.105576552792963,0.0308535552892158,1
0.0684806111917103,0.0223616072689234,1
0.0650689950964357,0.0253202731448956,1
0.0481606992620052,0.032087341914958,1
0.0131961728339611,0.00966257188469306,1
0.0132720587400645,0.0291171573259114,1
0.0146140321129756,0.0109212687512238,1
0.0280741875115127,0.019304765075258,1
0.0343028158837658,0.0218081331538467,1
0.0394072143279163,0.0257956583416741,1
0.0493741189494862,0.0307317544145085,1
0.0746306472357431,0.0433673331089584,1
0.0799143896980811,0.046622058695582,1
0.12926500598248,0.0431733605687803,1
0.129718774698209,0.0314073094700058,1
0.112166814558609,0.0260841435261648,1
0.0823290329911466,0.0095332120484777,1
0.0890818561620344,0.00977976331338929,1
0.0833225864317544,0.00807136010524285,1
0.0850522568883718,0.00787851115630166,1
0.0919703057271195,0.00766776527664236,1
0.131269384738638,0.0128092014679735,1
0.145138083924143,0.0133756961073227,1
0.131335050235782,0.0151425520261225,1
0.130349861489531,0.0157918889844956,1
0.0761545066905357,0.00869405113405218,1
0.0517718134010351,0.0136451397043376,1
0.0475295653154648,0.0180465307847296,1
0.0296827045912642,0.0135498901196322,1
0.0250369811253384,0.0150005147220434,1
0.0104685839038082,0.0114401504168825,1
0.0104529300438909,0.0138164307170317,1
0.00924079603396128,0.0103191110184579,1
0.0197406450045944,0.023973119962326,1
0.0225418866725366,0.0217188524543026,1
0.0560220471861108,0.0384813773590686,1
0.0723126679941741,0.0413858632389916,1
0.0715589350465555,0.0420162241979352,1
0.0647007834622596,0.0394486571609321,1
0.0516322526144375,0.0241628199188452,1
0.0508976788826754,0.021701234335679,1
0.0421489615605456,0.0158265335340652,1
0.0334421244946103,0.0128628379176876,1
0.0351012214169888,0.0142314100893802,1
0.035714294227863,0.0157910544892056,1
0.0296438340051712,0.0139023533124112,1
0.0335783882746858,0.0165194602352458,1
0.0425901906306047,0.0191238833217594,1
0.0628230809845417,0.0262485716700851,1
0.0588792789076167,0.0317584133500287,1
0.057658479482426,0.0306710232192752,1
0.0611397906807498,0.0346746900504029,1
0.0582544452260731,0.0309360399998733,1
0.0534397016472823,0.0180065063305773,1
0.0889072358405701,0.030195571054834,1
0.106879007253784,0.0411902090399432,1
0.128867777704579,0.0535807050043684,1
0.190940398985735,0.0507482549497931,1
0.361760388020004,0.0798786108794983,1
0.408451951375338,0.0584832343213687,1
0.375853521323541,0.0458564732121927,1
0.325876412714475,0.041472389073196,1
0.261209721920436,0.0347448302613437,1
0.261709557631355,0.0401762312377514,1
0.337636185614431,0.0475410832110061,1
0.406139777269519,0.0493029587995099,1
0.415327930482806,0.0444219134080411,1
0.416286623259363,0.0587218336989751,1
0.263741819789453,0.0427884445367227,1
0.146537679357275,0.0336743302458191,1
0.126144551589026,0.0406229959488528,1
0.13355958561608,0.038687430593345,1
0.107381238905618,0.0364773700626559,1
0.0739532813075685,0.0302737159741745,1
0.0688608511842997,0.0308524253820961,1
0.0690305416454829,0.037448426964117,1
0.0240334287537931,0.00336545407557818,1
0.0197891933033058,0.00667974970278337,1
0.0216550648823118,0.00727268931249224,1
0.0244430674052422,0.00346945736990812,1
0.0340293941558785,0.00809485846425922,1
0.0351854689081121,0.0065985863146446,1
0.0365825737763476,0.00508452614311109,1
0.0577775964901905,0.010785209574086,1
0.0570294980132525,0.0076540489918068,1
0.0449273799455101,0.00387290677954403,1
0.0487370786157522,0.00968660122157321,1
0.0524888458934687,0.0156663951456274,1
0.0606868535828328,0.0197801496306408,1
0.0550299303016004,0.0132719187525267,1
0.0553176587038377,0.013817390223029,1
0.0578305427279917,0.0129030804966875,1
0.0554768442090919,0.0142570277840195,1
0.057625341719387,0.0176957397868454,1
0.0613973509534843,0.0224672851160363,1
0.058803771911021,0.0247786644332202,1
0.0595239393997524,0.0238204854279407,1
0.061387169478265,0.0259483201600022,1
0.0341695764005565,0.0185879702680356,1
0.0317645139737802,0.030482142727997,1
0.0304018984087076,0.0277942932876714,1
0.030359167270755,0.0479763423153807,1
0.0293359841014901,0.0552609269061707,1
0.0267439984134862,0.051110117186576,1
0.0270006784795037,0.0471501338819051,1
0.0213726540206655,0.0345218661171078,1
0.0171438482816698,0.029747390232581,1
0.017505368694688,0.025698572753961,1
0.0326954086242686,0.046120916843115,1
0.0689883095644581,0.0669289217672954,1
0.0718429893528177,0.0268911223934713,1
0.0630883587131554,0.024316078870106,1
0.0542614178420358,0.020264131324311,1
0.0486645190565906,0.0177696845133623,1
0.0481025933105872,0.0148112329682353,1
0.0489898830897215,0.0160995170176265,1
0.0409390691848438,0.0127364947688909,1
0.0420022551137953,0.014395263773001,1
0.0499196684245987,0.0191079563968923,1
0.0253749981589765,0.00732121810627566,1
0.0264959217426497,0.0109993662142598,1
0.0886197720197407,0.0298724280916849,1
0.112251466278749,0.0368223402581562,1
0.122839498402862,0.04233688245526,1
0.129652186944158,0.0551888779339491,1
0.165034067971476,0.0526143720175189,1
0.23146166213775,0.0745015910454487,1
0.228835421665084,0.051069259237142,1
0.153634246420202,0.0334366505854583,1
0.10370344692756,0.019522510230466,1
0.105626667081614,0.0221007944023503,1
0.177104786403529,0.0375314136379924,1
0.243732830356217,0.0485797890965883,1
0.285293639935739,0.0382054416709828,1
0.234930515477063,0.0277067796660792,1
0.247452199625728,0.0238375732721323,1
0.266167106125126,0.0153506299250807,1
0.299267987066652,0.0167547544474078,1
0.269665555674684,0.0150150793578353,1
0.277980852717623,0.0132988732133915,1
0.504916641982226,0.0270350917534081,1
0.561067825086515,0.0230358010100435,1
0.497496767154503,0.0214068420707054,1
0.420332425676083,0.0160404414423946,1
0.483673703250987,0.0178582079319504,1
0.370113553482884,0.0181950735216425,1
0.197147084475452,0.0115172473639402,1
0.188857800473758,0.0123488805357471,1
0.171244428498581,0.0123028522950741,1
0.129742821760644,0.0140262038217105,1
0.135517566769028,0.0144890268538131,1
0.116245413017995,0.0319493479760874,1
0.0348686271033292,0.00883176868647935,1
0.0145366228356188,0.0261178443927984,1
0.0207294129182584,0.0143070655218459,1
0.050995412027842,0.0244802414645964,1
0.0599598119237412,0.0248049355328755,1
0.109831561767529,0.0450403909239425,1
0.160227466887152,0.0587974381564374,1
0.16316216485719,0.0579863013334164,1
0.171239256655132,0.0600916755761733,1
0.158705968047484,0.0537640722043048,1
0.131577328563296,0.0299649887239335,1
0.105600334901692,0.0242195432124264,1
0.0758299076176457,0.0226119408233087,1
0.0791834446159672,0.0262690060344413,1
0.0682653531879085,0.0259509833230492,1
0.0892007738295907,0.0278751180742385,1
0.119616592541566,0.0342619855311461,1
0.128264812352593,0.0321984837827917,1
0.100175215809906,0.0283416168903606,1
0.0568896616162289,0.0140516023708701,1
0.0476068346265642,0.019589949142013,1
0.048627999046564,0.0203489723947393,1
0.0448850994972893,0.0179903707967085,1
0.0435712287141203,0.0180051164829288,1
0.0354121217521425,0.0133066283215193,1
0.0291684892410037,0.0308122440903733,1
0.0286440494138711,0.0220495199016813,1
0.0298179260644159,0.0229563472795248,1
0.0296181647395127,0.022875048653349,1
0.0204478418979111,0.0220857159246531,1
0.00910116291595938,0.00979017376597306,1
0.0067436877108841,0.0117923065984142,1
0.00643377387413679,0.0118476919595119,1
0.00614936821568338,0.00986504695488769,1
0.0106619808548696,0.0151983203737547,1
0.0110405965228486,0.0125018258353105,1
0.0165817397025751,0.00986709463179104,1
0.0267283836389808,0.0171153873802608,1
0.0421527486954925,0.0200569666338118,1
0.0643229971936109,0.0223946737901211,1
0.0631767841655151,0.0218427856934131,1
0.0580737635224102,0.0166301163332173,1
0.0530496395989969,0.0148430830544389,1
0.0517229567203996,0.0137770843961834,1
0.0524924965706954,0.0137974074143607,1
0.0394574971480364,0.0108563006607471,1
0.0366756295802175,0.0170478584581064,1
0.0350474946761247,0.016954974625926,1
0.0287881806257656,0.0204375834290454,1
0.0127994780483857,0.011514128074166,1
0.0160382071177116,0.0048119185547202,1
0.0462052708662684,0.0291691657403367,1
0.0577174496600417,0.0326523636551409,1
0.0768979139624065,0.0360118705012314,1
0.107545793550911,0.0344033522185889,1
0.129062179637837,0.0244412428426194,1
0.244770124857498,0.0377337934759611,1
0.266892032042673,0.0326684976896612,1
0.248962501792204,0.0315484741211533,1
0.25111779996581,0.0262421064434976,1
0.37370334433937,0.0380370953261306,1
0.525292778469154,0.0492903518690424,1
0.467081380006843,0.0323974461834013,1
0.405407989689,0.0239509658114657,1
0.364171874278371,0.014563149050412,1
0.471107565522236,0.0182512848600634,1
0.533316981650136,0.0187858285440523,1
0.693809788173117,0.0211108441008885,1
0.893311386446997,0.0264289510745248,1
1,0.0335433191333321,1
0.979930174792415,0.035845010674298,1
0.70678312114673,0.0243187545342059,1
0.527363978074536,0.0172534515900305,1
0.406968646673973,0.0158710005442155,1
0.150694097028718,0.00501637349421194,1
0.167423347120881,0.00913467021680998,1
0.0967423429115489,0.00333742084771193,1
0.0789827405647258,0.00957292229839131,1
0.0788203850277394,0.00939048514910844,1
0.0761357452705785,0.00898178841910121,1
0.0819720434252751,0.00886603987102804,1
0.0935000008400668,0.0104541087985879,1
0.0883355764327371,0.014614283395609,1
0.0549065450092154,0.0105866306294346,1
0.0506761208590863,0.0209841961477006,1
0.0397495981672264,0.00952176434307548,1
0.0547152074441756,0.0145244364314514,1
0.0497630521694486,0.0102755802739717,1
0.0540282083783345,0.0079060474646508,1
0.0581627369046193,0.00812652045753207,1
0.0547160312975339,0.0117901119447786,1
0.0503911737201347,0.0116261831382538,1
0.0527870290920591,0.0110160946996674,1
0.055238138653135,0.0109586713177655,1
0.0535381095870067,0.0107970818654528,1
0.0508943025320033,0.0154399532102175,1
0.04095248946426,0.0137976498613787,1
0.0523778376550454,0.0169863680796333,1
0.0515888154041047,0.0250514894856178,1
0.0343537604220958,0.0166150086753425,1
0.0371688225767869,0.0163594105653355,1
0.0257376138480453,0.00985359237753919,1
0.0263310686597156,0.0121031288860914,1
0.0253631212241051,0.0110114315656259,1
0.0244218865121393,0.0109072078399537,1
0.0246068359800095,0.0121490293540761,1
0.0142893879895573,0.00341165891739808,1
0.011722819512363,0.00669831898576225,1
0.00964760211519689,0.00954894006390521,1
0.00866510317417397,0.0141078776287503,1
0.0105410492797772,0.0199374577016776,1
0.014232787956843,0.0292456712467203,1
0.0194274795240085,0.0410255791155615,1
0.021313244837723,0.056558461546211,1
0.0174937572554263,0.0539209357098759,1
0.0176564719962568,0.0648513166554499,1
0.0175292231788853,0.0614883934507819,1
0.0146974717798072,0.0503574100343227,1
0.0086292131646728,0.0335524332249769,1
0.00535119013178374,0.0321928166978572,1
0.00529073377900716,0.0292282480785478,1
0.00504841584628661,0.02850901641217,1
0.00530834533580585,0.0257834807978379,1
0.00633430982200577,0.0307683109462731,1
0.00706338086373671,0.0341063044759428,1
0.00697326567348723,0.0457182443179753,1
0.00192099359526538,0.0282748584619579,1
0.00140278607777256,0.0561973671735688,1
0.00135979826819794,0.051568309801437,1
0.00180684394103271,0.0529648869822074,1
0.00216565685987678,0.0404171706500016,1
0.00190817179040496,0.0320590719699681,1
0.00215407617044859,0.0438328132954489,1
0.00201007385652269,0.0390228738761092,1
0.00205637805638753,0.0362295711723457,1
0.0016151452353645,0.0230298632573114,1
0.00172730985107856,0.025574598426871,1
0.00191300534595166,0.0284510988799406,1
0.00195546445777378,0.0302179442701005,1
0.00197141886064027,0.039839864414834,1
0.00189486688238872,0.0438052377533276,1
0.00175808084509923,0.0508880821106161,1
0.00154360531191178,0.0562828496675475,1
0.00160471415491792,0.0581684814409108,1
0.000812293596537515,0.0435880595429883,1
0.000540470406369481,0.0542604008851866,1
0.000553076588087599,0.0542830676849259,1
0.000624065647989089,0.0568621779294427,1
0.000678391191179642,0.0589543469152994,1
0.000754308063723467,0.067380664484545,1
0.000756622687215985,0.0928910010663972,1
0.000396741611012698,0.0548016576195141,1
0.000367279389850217,0.0593538720075433,1
0.000466742422490859,0.0660364968934916,1
0.000578438666484058,0.0557741503712247,1
0.000661406044890202,0.0437208744742709,1
0.000762359468873547,0.0481492007554273,1
0.000762900359539237,0.0463688429602906,1
0.000757482330654378,0.0460622199022923,1
0.000723545376833214,0.0451133398233514,1
0.000696501168381813,0.0510894208633084,1
0.000657567435265105,0.0473877965649858,1
0.000702287178097288,0.0452662213452533,1
0.000610079995141103,0.0428975973898824,1
0.000487356598302348,0.0505043327030977,1
0.000421227817458878,0.0686124826603513,1
0.000368729432317951,0.0601760138746328,1
0.000428872993418427,0.062328282458028,1
0.000436568479697436,0.0589538996423938,1
0.000460604086239601,0.06241910472087,1
0.000288638313477769,0.0553648276222232,1
0.000284819807633938,0.0902638246040746,1
0.000262925798792622,0.101509283571673,1
0.000283414847389349,0.105390081750787,1
0.000466518066734746,0.14390449884157,1
0.000508817971699056,0.0873192397881742,1
0.00069286911795857,0.0895625498382738,1
0.000685654678383831,0.0730523977739729,1
0.000688931667860191,0.0748068173569049,1
0.000651182156304655,0.0753648814700277,1
0.00061727170722337,0.0709906145154304,1
0.000634093074099965,0.0570720069017474,1
0.000757169023976384,0.0586208647215594,1
0.000762692509663185,0.0545630931755248,1
0.000679912970890145,0.0507594912954279,1
0.000662210830809945,0.0481901975685971,1
0.000978626002061579,0.0480786616168019,1
0.000959721192653714,0.0486296312648677,1
0.00094812973750609,0.047252757368019,1
0.000994626304413296,0.0434109795537017,1
0.00100339194884389,0.0413468852939056,1
0.00118987132884714,0.0496042666080294,1
0.00118695272919957,0.0526240384942257,1
0.00107066590789021,0.0418920687037203,1
0.00134454002234066,0.0432537533915199,1
0.00141328571407679,0.0464092057800319,1
0.00133934846982611,0.051853993432884,1
0.00131053833922946,0.0537173612440604,1
0.000956318563589055,0.0457166759970562,1
0.000855220881098986,0.0465550222885651,1
0.000864154848894834,0.0500920307405094,1
0.000880486450058925,0.0490861525049256,1
0.000986513638621431,0.0473759162226169,1
0.0019037259513466,0.0790920948974997,1
0.00530260904920564,0.113049665154823,1
0.00605926438840709,0.0605592104905616,1
0.0057416920515145,0.0572018376703772,1
0.00781462708168426,0.0437527126430596,1
0.0101026120116029,0.0378136146022529,1
0.00903409111100121,0.0341656733946492,1
0.00694812620825119,0.0247618217605373,1
0.0113288847148212,0.0206530928811149,1
0.0253738288410844,0.0360373346308819,1
0.0270849270986527,0.0239969968359358,1
0.0269563739950155,0.0237961156441149,1
0.0252502167813554,0.0255907224714041,1
0.0219197556191647,0.023098989199538,1
0.0220394017036278,0.0296644034861923,1
0.0225490042783056,0.019831584673733,1
0.0303922880926902,0.0223786421149159,1
0.0317502453093833,0.0238191517440201,1
0.0350288863126876,0.0343511045569571,1
0.0362550151947874,0.0335994136815745,1
0.0439215312940326,0.0434082682832291,1
0.0421893628342893,0.0432241636835448,1
0.036969506044836,0.040585971086484,1
0.02734429901228,0.028406388930303,1
0.0242139750410262,0.0136489858098658,1
0.0169215059402005,0.00588611681437887,1
0.016919285421514,0.00706514627387179,1
0.0201613732801176,0.0100009761301897,1
0.0204086264525777,0.00780750288584277,1
0.0246720231877418,0.0109972053205328,1
0.0345974246387051,0.0168522081155173,1
0.0371129327786761,0.0156411879082108,1
0.0409926203369663,0.0147031924316963,1
0.0536928749493384,0.0189269800367834,1
0.0509902479779125,0.030038703702901,1
0.0431769239944799,0.0264468177396235,1
0.0446887317576094,0.0278885405490297,1
0.0328500059229778,0.0165141483841558,1
0.0250271778765651,0.0171035322731282,1
0.0276689917842825,0.0264130007799075,1
0.0258621459376964,0.019688135646104,1
0.0274974205600169,0.0240250834404806,1
0.0288575111452032,0.0347225449380348,1
0.0261724541191656,0.0297956497107337,1
0.0287633862487455,0.0370443443385165,1
0.0285896671255431,0.046154541832537,1
0.0217496088843987,0.0358298413812513,1
0.0185766912268923,0.0355869822536391,1
0.0182704566301092,0.0364169088062467,1
0.0134168060579469,0.0280340844958883,1
0.00953642195968152,0.0152237581864946,1
0.0125350014157983,0.0212253269953834,1
0.0135917727341824,0.023018672615477,1
0.0133806090054337,0.0243195976732886,1
0.0120534532236865,0.0210775344228837,1
0.0126734380995359,0.0286615434517506,1
0.0116774071227596,0.0260359315471987,1
0.0160951499638827,0.0389844766609183,1
0.0197001104432292,0.0443653998393381,1
0.0227258525707548,0.0504899711570648,1
0.026031653204313,0.105964453826218,1
0.0219243459350374,0.134614350796873,1
0.0168343242993412,0.10905320166257,1
0.00911867714590487,0.0811385389445102,1
0.00740321360478807,0.0808349558369547,1
0.00447842728067515,0.0722286216786755,1
0.00267499368384045,0.105805116251612,1
0.00256408000600979,0.105284860542461,1
0.00199262692670224,0.108489329463149,1
0.00117321133860815,0.103569163807865,1
0.000778255579123245,0.084355523976768,1
0.000687092682856386,0.114501769065839,1
0.000578571112879048,0.165918777173614,1
6.47082669543739e-05,0.117019423622824,1
4.89932529206954e-05,0.294604656496272,1
4.89102787108998e-05,0.269588821793183,1
5.28310496127628e-05,0.255724341755657,1
5.34002998600112e-05,0.224874014619663,1
5.44275795821806e-05,0.243025483002653,1
3.93586274536928e-05,0.239913708644207,1
4.79509583656591e-05,0.310280975846017,1
0.000222083881332666,0.243293503104894,1
0.000393827895766097,0.178198570308502,1
0.000367497836612895,0.142017640463732,1
0.000625987227638104,0.154940779287382,1
0.001178253526506,0.215571997554798,1
0.00184881788814537,0.262900628310248,1
0.0021910489595901,0.182304336883122,1
0.00183939091372752,0.131370377964545,1
0.00169692285736931,0.11534555951504,1
0.00181454694191746,0.117548667292812,1
0.00207069685593217,0.153760401242578,1
0.00225284641778856,0.187103345214365,1
0.00219117410102887,0.176568445439842,1
0.0021955448132013,0.185982888536824,1
0.00198119463481275,0.191392827649639,1
0.00130890096455467,0.182886288527754,1
0.0004002701442013,0.0711698351617948,1
0.00124119884923507,0.0815281978222295,1
0.00158049577434512,0.056767022143697,1
0.00153297217246146,0.0530888315827782,1
0.00150173380564734,0.0522474391226501,1
0.00145034160111514,0.0489257363149381,1
0.00221694997254181,0.0298853582289703,1
0.00711323588503904,0.0532233331001204,1
0.00779216650026537,0.0431203771623928,1
0.00747534288025938,0.0400293915457962,1
0.00673096884038317,0.0346182440188081,1
0.00699929408454764,0.0412285418027038,1
0.00749433397173216,0.04967888937535,1
0.00752262680682013,0.0509537796693555,1
0.00754269375795293,0.0511393087288559,1
0.00744989741964053,0.0505232066237244,1
0.00762551082213517,0.0981363193040195,1
0.00371714428695923,0.124451675234494,1
0.00224077290974265,0.209586776839866,1
0.000779461813420443,0.131271700738053,1
0.000184075505183962,0.112016695975166,1
0.000151115729641989,0.119269531624407,1
0.000169097458077881,0.139716215966872,1
0.000178723623660985,0.141215416136895,1
0.000176861679251521,0.150834937963362,1
9.22309313305121e-05,0.149161208287995,1
0.000110302047303515,0.303226022707236,1
0.00021036770744671,0.433467785131214,1
0.000231713896056264,0.376988175780308,1
0.000234997784795372,0.387653101426647,1
0.000237967584690607,0.447680407351692,1
0.000215832235389688,0.4259494259556,1
0.000191439729911316,0.354144195381728,1
0.000174207722700735,0.318460525463107,1
0.000184093762163204,0.29635632709738,1
0.000220699212409809,0.341091696544058,1
0.000220252752465427,0.466263883470688,1
0.000128326444210087,0.386656546445447,1
8.5168607017498e-05,0.38928372930483,1
0.000103904493951042,0.46654865944799,1
0.000123112604065077,0.507620745835018,1
0.000127264633232586,0.405906899716639,1
0.000113008226839128,0.463796023830992,1
7.57716008856841e-05,0.180665641938923,1
0.000276127870780559,0.25876336312487,1
0.000296859612509213,0.196669701693722,1
0.000291558827182185,0.196871799112345,1
0.000290134283260308,0.185949534516195,1
0.000385957327243874,0.149956021151533,1
0.00409205752643808,0.0407166160847964,1
0.0100634808696511,0.042439739828246,1
0.00974207625606414,0.0331192057637432,1
0.00949330694680528,0.031796289789931,1
0.00955388399818237,0.0324222140212846,1
0.0100360901094569,0.033984212815978,1
0.0103422880321068,0.0348762892911913,1
0.0104576516479841,0.0347713160262352,1
0.0106183076891014,0.0352329305598104,1
0.0110003402871491,0.0370987783707385,1
0.008503330923594,0.106515960680254,1
0.00111979204598565,0.0987193300017385,1
0.000139180420520402,0.261648974239487,0
3.39179415779704e-05,0.279639641428632,0
2.74593225454011e-05,0.237856558596591,0
6.34977538588486e-05,0.316267371434819,0
6.42538564074549e-05,0.239864465826854,0
9.95577852574546e-05,0.250328728402269,0
0.000104206130602781,0.212240348317965,0
0.000104422738293875,0.224150471232216,0
8.63908785755061e-05,0.193471912818065,0
0.000100443682351046,0.239104736355956,0
0.000123814148417656,0.282298301202065,0
0.00013769831589975,0.296630828459262,0
0.000152257255830552,0.339538078069937,0
0.000131812307381921,0.394627187670427,0
0.000123961979160527,0.493002855617798,0
4.47941450667053e-05,0.483473991406392,0
1.54972557439522e-05,0.540421622431466,0
1.13151582585114e-05,0.508569618467292,0
2.53662687585574e-06,0.31120566068654,0
2.94401439545891e-06,0.394465423697882,0
3.01746887808461e-06,0.39340513349043,0
3.38332352858743e-06,0.418239438911209,0
3.88865602734725e-06,0.455639330843708,0
4.32994044240653e-06,0.490429000214698,0
4.38697021458817e-06,0.485542060099576,0
3.57850414176152e-06,0.466872477794666,0
3.13959451775238e-06,0.441597734717505,0
2.54060341399439e-06,0.352587071261423,0
5.47950087686245e-06,0.498490813684752,0
5.70436807886001e-06,0.478847323261362,0
6.1040801995769e-06,0.48976604345426,0
6.02545111528082e-06,0.466949877081885,0
5.4349518994414e-06,0.429042441811209,0
4.67282517385094e-06,0.389789923251773,0
4.86102411778993e-06,0.424358355780359,0
4.67878070453137e-06,0.415623364483598,0
5.23647858281712e-06,0.441313716208158,0
5.47253281320107e-06,0.502874053331904,0
4.24160192595233e-06,0.38027296243363,0
6.18296778977376e-06,0.452873098998576,0
5.67186080722933e-06,0.435306965114795,0
5.97248446216153e-06,0.467844447890806,0
7.14846120026563e-06,0.519635527123824,0
7.42167426240621e-06,0.526727419915108,0
7.28482136222534e-06,0.539252787900284,0
7.52756566966207e-06,0.551188945083091,0
7.61632920568638e-06,0.53022437763026,0
8.50318193622275e-06,0.550805342908277,0
7.29334649103424e-06,0.610347404332533,0
4.22795816385586e-06,0.512219977520752,0
3.97730206068939e-06,0.492458897370259,0
4.96134497025826e-06,0.548614879247889,0
5.16702336582255e-06,0.542485646913057,0
4.63951548258808e-06,0.507728162367726,0
4.48427341264787e-06,0.49428165924829,0
3.7107928357841e-06,0.444538712766654,0
4.08628270622474e-06,0.491370256344948,0
3.70495480778584e-06,0.440212305137735,0
3.64505688789774e-06,0.452690741536475,0
3.55996407382085e-06,0.439032910918414,0
3.58992169185727e-06,0.43913448214126,0
3.41052524490062e-06,0.452084335696252,0
2.13058661726891e-06,0.350256871362064,0
1.92608247548234e-06,0.340936594120323,0
1.74547899768399e-06,0.326176402178018,0
1.20824745828251e-06,0.264272292287324,0
1.34181878684624e-06,0.277115514746433,0
1.22641012616111e-06,0.286164709474943,0
8.53456612958596e-07,0.246258471785371,0
1.07769455717139e-06,0.280756401200105,0
1.47352321424262e-06,0.332874127104235,0
1.41042551078852e-06,0.337242733742031,0
1.37904873864734e-06,0.348836673220621,0
1.62956677616226e-06,0.351443923602698,0
2.08813475350697e-06,0.396501829021876,0
2.50170647019442e-06,0.446900681572386,0
3.28240665922468e-06,0.532184997968169,0
3.26549616795514e-06,0.49465406938072,0
3.25047685143334e-06,0.486761708535315,0
2.76887896681879e-06,0.454491321758498,0
1.90841749330624e-06,0.381833216151056,0
1.8432151003622e-06,0.380291296511789,0
1.51763990548033e-06,0.339135375699706,0
1.73357643980671e-06,0.388963578490697,0
1.81584934412035e-06,0.404544013442941,0
1.55954955620758e-06,0.396571200342888,0
5.4573517758825e-07,0.254388276574024,0
5.15342181192638e-07,0.268820282884894,0
1.1871111995011e-06,0.374202776648414,0
1.51454912111292e-06,0.41171484931299,0
1.98189006516064e-06,0.466430458768481,0
2.4375152187522e-06,0.46365808191311,0
2.60267838028724e-06,0.459407662201544,0
2.31999599344302e-06,0.441022093825632,0
2.14082914054297e-06,0.419064342818119,0
1.97641196643091e-06,0.394210295612974,0
2.0207407809317e-06,0.381851889866543,0
2.00100094876257e-06,0.376366861757892,0
1.74829287770434e-06,0.374459791583888,0
1.68982709905957e-06,0.370338421198644,0
1.41033846603844e-06,0.344242904177362,0
7.98968918540392e-07,0.270466573294295,0
7.44412887035979e-07,0.269037361320455,0
8.60041710641382e-07,0.288021722031191,0
8.06922613252855e-07,0.277739068368792,0
1.18720628390838e-06,0.334299554541138,0
1.50049765563109e-06,0.381346927726944,0
1.1619044004353e-06,0.335382929142729,0
8.01662203702725e-07,0.27372568989899,0
7.59964212412175e-07,0.273393194210181,0
8.14476644237152e-07,0.283066202982878,0
9.39251660170233e-07,0.310361332482368,0
9.35995599003831e-07,0.319767697396771,0
1.0688144465753e-06,0.324067627028209,0
1.21075397602372e-06,0.335512496933521,0
2.21738940458893e-06,0.404218648330627,0
2.78625591281478e-06,0.423851793739539,0
2.93804958825094e-06,0.444785046928316,0
2.84734602110052e-06,0.427556836038119,0
2.86585083823653e-06,0.425335013004781,0
3.2562041795363e-06,0.452923999074855,0
3.73299836897326e-06,0.493202078298127,0
3.76807353803569e-06,0.485489673864772,0
3.45399768130071e-06,0.477640942777845,0
3.22513940793802e-06,0.476409601186058,0
2.57445918351175e-06,0.458234569480133,0
1.96516185765725e-06,0.422438928976109,0
1.64337148601154e-06,0.391379190959744,0
1.56584445318716e-06,0.373079383189816,0
3.35719464268419e-06,0.497994778905706,0
3.47994954013674e-06,0.441715097803498,0
3.08257525896861e-06,0.412884133806159,0
2.95901685962235e-06,0.415744255970621,0
2.94502167174092e-06,0.419553513864241,0
2.70200138760989e-06,0.401132930392759,0
2.55011494689833e-06,0.4105875859322,0
2.0756255107286e-06,0.369411836997806,0
1.84423072551899e-06,0.349823997526323,0
1.72183498429103e-06,0.348545346192661,0
8.76651178592263e-07,0.273854339842096,0
6.21695714128768e-07,0.265758818938974,0
1.01622210134223e-06,0.337707372931148,0
1.24453723401747e-06,0.353280240689899,0
1.25672210754954e-06,0.362512902805684,0
1.73498647199273e-06,0.391081336623906,0
2.04755473839373e-06,0.401444426348647,0
2.23252143092033e-06,0.397835452456987,0
2.51020686159655e-06,0.404117999224138,0
2.74497026317337e-06,0.41166047700106,0
2.82757665865206e-06,0.421351079483129,0
2.79987632898361e-06,0.419985127053791,0
2.35677742513758e-06,0.387717035818147,0
2.09267700521674e-06,0.357141002010655,0
2.73678341840208e-06,0.394064404708905,0
2.5987340007774e-06,0.363537814543928,0
3.06919726938616e-06,0.410266142171296,0
3.10453465496037e-06,0.428190057777329,0
2.72771097446834e-06,0.404797749144862,0
2.58889701636561e-06,0.41600492339552,0
2.29120041508973e-06,0.394300520982066,0
2.42061709618605e-06,0.38463838649924,0
2.56143725797801e-06,0.393056008365344,0
2.57524815217899e-06,0.399990596267403,0
1.86908795410535e-06,0.35619194436875,0
1.6879223187381e-06,0.391948141128101,0
9.53936248656644e-07,0.299297165634878,0
6.39452843145092e-07,0.251219251322324,0
6.18896058117313e-07,0.254915731262846,0
6.67600765267325e-07,0.258849201116552,0
5.91245821697579e-07,0.248283562657453,0
4.29119949887803e-07,0.246518528452525,0
8.88785649658035e-08,0.143620660819228,0
1.08816914824274e-07,0.153537002566737,0
1.31544871122697e-07,0.159079765150818,0
2.35769286379694e-07,0.201072754856504,0
8.21949969431855e-07,0.279092537844023,0
1.44701785593006e-06,0.338456725632957,0
1.5397180410246e-06,0.342433112221697,0
1.45344633490622e-06,0.329145550927301,0
1.45781496094221e-06,0.322647743884034,0
1.46724130440159e-06,0.315361436608915,0
1.57565283497238e-06,0.328304347775136,0
2.00827544705034e-06,0.37838361564815,0
2.25794143551075e-06,0.400103973153952,0
2.08416733728707e-06,0.3932708868973,0
1.66455783804167e-06,0.414225655859502,0
1.15285422016765e-06,0.365247973212869,0
9.63491226631237e-07,0.335960449102669,0
9.35931127137431e-07,0.327124014250946,0
1.82031815665377e-06,0.428328482353216,0
2.08457318536693e-06,0.443871571501721,0
1.94194827514213e-06,0.431928271546852,0
1.75524285213702e-06,0.385192156514457,0
2.07780688617954e-06,0.427664298337522,0
2.3477963550001e-06,0.454507104017688,0
2.40751013581654e-06,0.470585386631969,0
2.31507247645137e-06,0.45762797691644,0
2.30071117494972e-06,0.471943972484539,0
2.29905206799925e-06,0.486831807279308,0
1.20245828666263e-06,0.389443036408453,0
6.37919587751586e-07,0.316953075977741,0
6.24217538140412e-07,0.304962884795837,0
6.68161222139509e-07,0.346739553159349,0
4.68588327784208e-07,0.290131822543072,0
3.52167907162092e-07,0.26113344199985,0
4.04967428176879e-07,0.256775410290958,0
4.33922562803851e-07,0.240069624598685,0
5.82408846954555e-07,0.257043887980993,0
6.54925318037201e-07,0.262786807238539,0
9.03862944476956e-07,0.314114141057647,0
9.8862443191189e-07,0.320196198875995,0
9.366832989121e-07,0.3121001251,0
1.22713323148282e-06,0.340198164333804,0
1.28911651476182e-06,0.342628327721474,0
1.24431877179391e-06,0.324197970443987,0
1.62588832377522e-06,0.367563847683518,0
1.54149666057153e-06,0.35815188103125,0
1.99842624854395e-06,0.394211037100969,0
1.86543918660643e-06,0.370449450009579,0
1.28730125293112e-06,0.305866948811876,0
1.24596891143442e-06,0.294492530518425,0
1.31964804063536e-06,0.281003556318534,0
1.44061380514309e-06,0.297056886327654,0
1.50617164370069e-06,0.306706402926502,0
1.45366526095616e-06,0.286935692816934,0
2.71694417277949e-06,0.344264781268238,0
3.58838055141536e-06,0.385237517830166,0
3.50412185177307e-06,0.391265293341713,0
3.54468485991915e-06,0.401672048433789,0
3.86617358981103e-06,0.417840548881203,0
3.86019517702934e-06,0.426897288292922,0
4.0836177144714e-06,0.477858610809859,0
4.15406134547532e-06,0.481555785407126,0
4.20271472250628e-06,0.478366446585984,0
4.15034686923964e-06,0.487680347155867,0
2.39916682694741e-06,0.499910746502893,0
5.16885640766437e-07,0.283467800371022,0
4.13999209998236e-07,0.247439044846042,0
4.51964945042017e-07,0.246023822297234,0
4.48423630653771e-07,0.247276574257943,0
4.75850148151007e-07,0.242798698433812,0
4.91009076412277e-07,0.226599564874983,0
7.12357073078892e-07,0.276709178604653,0
7.61925888769218e-07,0.287041149776562,0
7.85457346961365e-07,0.300828086835801,0
8.68029573896948e-07,0.305431737291144,0
8.17691270247211e-07,0.276034064652567,0
7.94349053216873e-07,0.279216215508472,0
7.64915404377651e-07,0.283607175322302,0
8.14049460143951e-07,0.285348640360036,0
7.31989297528555e-07,0.284555144428245,0
5.3361678583688e-07,0.26417026468041,0
4.75731253989707e-07,0.243679654107179,0
5.09102170334326e-07,0.24478088420042,0
4.79141305513269e-07,0.251553850429108,0
3.41460320640704e-07,0.217366151013514,0
3.16781819818285e-07,0.219998623843378,0
3.56950884761515e-07,0.229281074433537,0
6.12784063339049e-07,0.294420822126349,0
7.07352077253688e-07,0.331277227086009,0
9.89422831715464e-07,0.379131549547966,0
9.60553504968234e-07,0.357020031593071,0
9.43964599986734e-07,0.373334800311832,0
1.01008413228686e-06,0.396603212057639,0
1.2993669230843e-06,0.431559251765067,0
1.37042141342671e-06,0.419644691107652,0
1.36932925691771e-06,0.41640767060547,0
1.34857843785556e-06,0.424519635790876,0
1.18414874043132e-06,0.38847182010584,0
1.43220308684051e-06,0.411604048944829,0
1.31098190860786e-06,0.392346080672119,0
1.12490899017216e-06,0.355460948366258,0
1.12439924498386e-06,0.347824352977534,0
1.15917957507933e-06,0.346997084118666,0
1.01743423427407e-06,0.325547336189902,0
1.12259341428948e-06,0.336531079783303,0
1.02208533057364e-06,0.308486072529519,0
8.18323310990244e-07,0.28132971868334,0
7.62695067511044e-07,0.273827382947119,0
6.47225800179321e-07,0.26239609756872,0
9.24935349827145e-07,0.294050535392079,0
1.29941902624732e-06,0.312938207759174,0
1.35845716664128e-06,0.3128658551853,0
1.25148844532049e-06,0.301947273719563,0
1.39717862946196e-06,0.315733958541055,0
1.55694470727445e-06,0.354062079661744,0
1.52024057997606e-06,0.351826814544328,0
1.55692924639522e-06,0.350215681259531,0
1.53773116343441e-06,0.339906333529552,0
1.6814140616251e-06,0.348223829390399,0
1.22787040620464e-06,0.3076889447196,0
8.65067269435966e-07,0.275069452414117,0
8.74889256794906e-07,0.273486845773892,0
8.29078053193291e-07,0.271274825784408,0
8.10159966755387e-07,0.273130584151816,0
7.6058249297269e-07,0.258793926713592,0
7.06123246572276e-07,0.253822578852165,0
8.47494897926473e-07,0.281134700464167,0
8.461887628489e-07,0.277965879735795,0
1.07027379896607e-06,0.316482783633524,0
9.93206881907664e-07,0.292770906154889,0
6.85535385177239e-07,0.2605977354895,0
6.30865716210466e-07,0.257396941765935,0
1.0522255415938e-06,0.319066141025116,0
1.36824591310988e-06,0.345669617118389,0
1.38912536668724e-06,0.345169387200381,0
1.41603425394776e-06,0.347533692892732,0
1.43937693480448e-06,0.343497608059967,0
1.29021037196754e-06,0.322001979445719,0
1.25269006485445e-06,0.320855000057679,0
1.24902645491147e-06,0.336911751679873,0
1.26521770607911e-06,0.325616208555518,0
1.39001359419916e-06,0.336886040239525,0
1.32918431094608e-06,0.337877747992394,0
1.28600501281625e-06,0.330819691454316,0
1.13381182826071e-06,0.311995914138496,0
1.24022859619291e-06,0.326177390426265,0
1.27446021968441e-06,0.335003194554168,0
1.41912318300966e-06,0.342140220275196,0
1.53677568109783e-06,0.34104790703441,0
2.01623718142001e-06,0.403646180543764,0
2.04554003122092e-06,0.420699574565242,0
1.67070260988391e-06,0.368675637525131,0
1.46582570629904e-06,0.328160934578554,0
1.43338058740287e-06,0.331926615611436,0
1.38550752094679e-06,0.332489322697095,0
1.37284892607503e-06,0.330991721315688,0
1.35613386031899e-06,0.336437587665883,0
8.94489786442142e-07,0.290219123519589,0
8.37546904401787e-07,0.30872216472939,0
7.08654965546628e-07,0.277709562175456,0
9.40722762829223e-07,0.304810861589502,0
1.08653740704852e-06,0.343255733788436,0
1.03631181320839e-06,0.356729863985173,0
1.01542354692986e-06,0.357436636978345,0
1.08084904036123e-06,0.374198586896696,0
1.06676603468576e-06,0.37213343463976,0
1.02542364361756e-06,0.360699697464562,0
8.42714548676518e-07,0.33122907202318,0
5.42897178596298e-07,0.265336255757285,0
2.73239500244067e-07,0.204066006071404,0
2.22916348255978e-07,0.200719561818545,0
2.31669525033563e-07,0.191936284517562,0
2.55006949191339e-07,0.196275295413701,0
6.3834507114807e-07,0.275913901950819,0
7.02685365466095e-07,0.263000658568452,0
9.62987665794628e-07,0.316348491163154,0
1.04020795477503e-06,0.31273847288564,0
1.13936614912506e-06,0.309877922780697,0
1.57197330032379e-06,0.346595475335887,0
1.78072980233452e-06,0.363650611721641,0
1.88004291469446e-06,0.372664785919845,0
1.76327245976651e-06,0.369543769578765,0
1.69368072320832e-06,0.368983272256595,0
1.10806900051192e-06,0.304338911149172,0
9.92592157349372e-07,0.310082165147251,0
9.90401659979686e-07,0.298460934236752,0
9.93871854323463e-07,0.303422463191292,0
7.19762061187387e-07,0.259456917588984,0
6.97508444663822e-07,0.26487388870973,0
6.23846477038827e-07,0.24778683297537,0
7.38879902184979e-07,0.24984423168022,0
1.32329371595843e-06,0.327715053082141,0
1.36179748959951e-06,0.340748240967168,0
1.32761348561604e-06,0.337456889977246,0
1.34621601550881e-06,0.337883703514735,0
1.14671625111227e-06,0.311630168760056,0
1.11107892448094e-06,0.312100729969505,0
1.01605806141357e-06,0.314054170361303,0
5.80970521359539e-07,0.249527855272635,0
6.62747440667393e-07,0.268893492053692,0
8.88540594722197e-07,0.351003339201713,0
5.01151413188918e-07,0.24947047305123,0
6.4369530840654e-07,0.258199406088024,0
6.62458631443326e-07,0.261487259209029,0
7.97957003994613e-07,0.278525647127147,0
9.92452545609902e-07,0.309059094602635,0
9.00946249609711e-07,0.294456335703321,0
8.49769502479187e-07,0.288313522429146,0
1.40103395430742e-06,0.363685516644649,0
1.51872216702662e-06,0.345108620908239,0
1.4817244376316e-06,0.330010971098283,0
1.43671596287974e-06,0.346307981349154,0
1.23465464001194e-06,0.330721653022444,0
1.23653159075078e-06,0.33285831636613,0
1.17145984223626e-06,0.332199216192372,0
1.29283872143709e-06,0.349278235682142,0
1.47521911808565e-06,0.359644528383709,0
1.40021390927292e-06,0.346289287156078,0
6.75702265985251e-07,0.242921840806767,0
5.78488122589938e-07,0.244831540036608,0
6.12458611831201e-07,0.253967825799035,0
7.33076970382575e-07,0.27251225680481,0
8.97786818938511e-07,0.302518726194689,0
8.48364572383312e-07,0.289887459513587,0
8.76178694122912e-07,0.298360320676256,0
7.96177147577347e-07,0.286104932596875,0
1.04339676111677e-06,0.327821098971074,0
1.06169857690846e-06,0.320731268411449,0
1.16843801339023e-06,0.325159259569723,0
1.13945520378944e-06,0.312979347306324,0
1.03590735660766e-06,0.304442140287918,0
9.25070168694054e-07,0.290144053681022,0
6.76756079513749e-07,0.2573856627155,0
6.70993036779768e-07,0.255855084229628,0
5.85379964116699e-07,0.234648134635218,0
5.08628294385845e-07,0.220101351769177,0
3.20643792841817e-07,0.182622591547486,0
2.8816002174757e-07,0.187159031236505,0
2.04764039166468e-07,0.167737439116048,0
4.71461113754433e-07,0.233737432437472,0
7.90765994454699e-07,0.288318237359561,0
7.80827586675137e-07,0.29280330745702,0
7.39705513136004e-07,0.280964416775252,0
7.20596948665952e-07,0.281605900254385,0
6.90246160470646e-07,0.284399527988766,0
7.08108268856957e-07,0.292035930868589,0
7.67323436318141e-07,0.314116881903049,0
7.87952114434352e-07,0.319324049779602,0
7.55656038413989e-07,0.310604734534824,0
5.65964810411464e-07,0.29304588277251,0
1.90114546875915e-07,0.191461548594214,0
1.62184623150862e-07,0.183471782247363,0
2.05079441102815e-07,0.1870872893384,0
3.13994377901424e-07,0.21535878584415,0
3.16230794082432e-07,0.215395016947801,0
3.47993469769267e-07,0.229718177503329,0
3.61751178545679e-07,0.225575627679261,0
3.77612803768075e-07,0.226777013088755,0
3.34489319412271e-07,0.226004912848937,0
4.64022575538003e-07,0.260775182458117,0
4.59311800244596e-07,0.254302928222933,0
6.88198367016277e-07,0.285662587893606,0
8.68157589976994e-07,0.316674379390225,0
7.25579062389892e-07,0.297891728150961,0
8.22099630742827e-07,0.315632305187849,0
9.59127393467812e-07,0.339548282331976,0
1.03039709924913e-06,0.362603444143144,0
1.02188124696777e-06,0.351260940547751,0
1.00757390393464e-06,0.346104666381302,0
9.20877178246148e-07,0.343751400720978,0
1.09491612133109e-06,0.373542058993374,0
8.03046725438012e-07,0.312639962922012,0
7.60023427579636e-07,0.306555295965294,0
7.77783648771806e-07,0.305109396419829,0
8.09597345360109e-07,0.306657837589847,0
7.42704923707145e-07,0.292454896138323,0
6.99577574131532e-07,0.283947368024927,0
6.896789008116e-07,0.292932925048866,0
6.85506937159452e-07,0.290002854528633,0
6.93451509953165e-07,0.27756592961535,0
4.46015444104488e-07,0.226826354520873,0
2.8415936463732e-07,0.199087216201466,0
1.24445235379048e-07,0.154836786410447,0
1.2813976708049e-07,0.159185068215822,0
1.58628620927345e-07,0.172969039334799,0
1.63951028603197e-07,0.171971882419184,0
2.58743379875502e-07,0.202190383876691,0
2.94131631742402e-07,0.212466117007234,0
3.09729185147503e-07,0.22144181840659,0
3.15581437154659e-07,0.229087806307638,0
3.21627104761016e-07,0.235455600642419,0
2.7211147449525e-07,0.220472601001076,0
2.65094709064289e-07,0.218792969845845,0
1.70506286789062e-07,0.193450443412704,0
1.79591099426188e-07,0.199217507971195,0
1.64037454918108e-07,0.193145387991813,0
2.40874468702327e-07,0.214402440850501,0
2.76738142605631e-07,0.221762818008385,0
3.01411232120319e-07,0.231641749042686,0
2.71476960011541e-07,0.229333522097685,0
2.68528261124283e-07,0.233461290013547,0
3.15834840965283e-07,0.252427374837072,0
3.41750985170278e-07,0.257914710744204,0
4.44778573765873e-07,0.273522288426382,0
3.90537016545053e-07,0.245655750282933,0
3.79815206014771e-07,0.249792484229885,0
3.65792806985896e-07,0.253438173125995,0
2.88335502726861e-07,0.235217665620579,0
2.34013394325238e-07,0.206038639144757,0
2.25527226932002e-07,0.191601900124707,0
2.56252477622324e-07,0.201556440224563,0
2.89184150387943e-07,0.198877907824504,0
3.21446521691578e-07,0.207673784360714,0
2.07358374701713e-07,0.17868312940382,0
2.11393664181444e-07,0.188765501064794,0
2.25384986843061e-07,0.192437820507231,0
2.12913159392432e-07,0.192918946470602,0
2.0011031451743e-07,0.185895121489452,0
1.62030168967328e-07,0.17851012751642,0
1.47468339862024e-07,0.182271016428367,0
1.41885880197478e-07,0.175061708668838,0
1.1346058990181e-07,0.168453628767481,0
7.69965700579006e-08,0.153377569520367,0
8.5326891788471e-08,0.157302279437848,0
1.4480365732627e-07,0.177380432612674,0
3.10532377823641e-07,0.227690929185827,0
3.46119765815058e-07,0.225288459956552,0
4.46155210452751e-07,0.246728960032374,0
3.91820269521366e-07,0.238303510834869,0
4.06400960899334e-07,0.242130473580933,0
4.33908957230126e-07,0.250117178242695,0
4.71152359996155e-07,0.261735694125775,0
4.68223605643109e-07,0.258646603499064,0
4.92419108598298e-07,0.266728981379552,0
4.49814027523166e-07,0.248173007379727,0
3.23134849703787e-07,0.210122935339669,0
3.93498702570866e-07,0.228823993355629,0
5.998511924697e-07,0.273855693352964,0
6.182273750905e-07,0.266057751827427,0
6.2525728226881e-07,0.267505561423569,0
6.24777995012597e-07,0.275949929746554,0
5.94546410196175e-07,0.267316610076914,0
5.88271612359589e-07,0.266026971490226,0
5.80286377453492e-07,0.254795268069507,0
5.75395946743401e-07,0.253931310857116,0
6.38544980316548e-07,0.270423737596417,0
6.27751276697833e-07,0.264259191955075,0
4.27793870276015e-07,0.219137586496843,0
5.50522329625066e-07,0.246310894700603,0
5.62252807916488e-07,0.251161041069519,0
5.2879546525696e-07,0.245996537131241,0
5.5083031033938e-07,0.245272660715116,0
5.50936835797294e-07,0.247049918830005,0
5.51509506764073e-07,0.260721621675278,0
4.63178411531898e-07,0.252989969210731,0
2.31211883008276e-07,0.195427692030555,0
2.04145603997161e-07,0.195671481338223,0
2.19177289222346e-07,0.204766719382067,0
1.04845787993359e-07,0.15786126993495,0
6.9456608473705e-08,0.139036794789588,0
4.5782910192618e-08,0.127242370197232,0
3.97451276346704e-08,0.128887655134616,0
7.86649535358996e-08,0.138590114863507,0
1.32571473503747e-07,0.151274236460373,0
2.09752955677271e-07,0.165248386916491,0
3.33879078508957e-07,0.195699134584631,0
3.31577726635172e-07,0.193885976216048,0
3.17232659056709e-07,0.198706599388396,0
2.92254062568384e-07,0.195203007062869,0
2.82610802973374e-07,0.193959995793781,0
2.78392302074736e-07,0.197470541309028,0
2.94721618893921e-07,0.202047544827944,0
2.9094282540066e-07,0.204359451182115,0
3.18998755291459e-07,0.228915397792903,0
2.80429427522435e-07,0.227736858310286,0
2.20652875536313e-07,0.209709358286162,0
2.33418459692364e-07,0.218806289267379,0
2.42380822165967e-07,0.224475716052122,0
2.36984356878591e-07,0.230558895431206,0
3.30872710542161e-07,0.257248304918467,0
6.23985006516752e-07,0.320596691550552,0
5.96944547173956e-07,0.307976605136704,0
5.89677933934594e-07,0.309005632350762,0
4.89510762605838e-07,0.268917933471873,0
3.94781800938387e-07,0.254000397794479,0
3.85272896383909e-07,0.244534223630184,0
2.9871902921953e-07,0.217816658737376,0
2.8907762493003e-07,0.208261617180165,0
3.15503359714534e-07,0.207793417581436,0
3.35313075057788e-07,0.203333272515713,0
1.81852253013968e-07,0.165447576286287,0
4.14336720991886e-07,0.220942234066952,0
3.57629462751037e-07,0.200031224983576,0
5.87503515879309e-07,0.254612145181282,0
7.0462787033289e-07,0.274753056565911,0
6.88074216156037e-07,0.275521605446408,0
7.11787958114338e-07,0.277218567659779,0
7.68792838280416e-07,0.275225555012261,0
8.71879332825886e-07,0.295769536741912,0
9.02501150234142e-07,0.313737756463183,0
1.00511175891683e-06,0.31959382742378,0
6.53240855244799e-07,0.273855579277579,0
5.01710014755596e-07,0.247845619541928,0
5.99817333144181e-07,0.257243449640989,0
5.53694902043613e-07,0.249419202838522,0
5.3366332308337e-07,0.245240677098904,0
4.79501234781805e-07,0.233455731610287,0
4.7288351464384e-07,0.241264996293132,0
6.09971265580246e-07,0.272596953476388,0
6.11908204530517e-07,0.27951822957493,0
6.23324517755932e-07,0.286867090573126,0
6.08332412381582e-07,0.285756717498049,0
6.27990147281979e-07,0.297560331911023,0
5.54150224937016e-07,0.28633789036224,0
5.7044831078015e-07,0.283624562288754,0
5.3742016212812e-07,0.274964903233517,0
4.72877794118524e-07,0.255307212180745,0
4.52190673878815e-07,0.25537670773867,0
3.3128659827922e-07,0.221259788314894,0
3.1649177372388e-07,0.224071120065187,0
2.58779403724114e-07,0.201943714661342,0
3.3356367657261e-07,0.230076533493839,0
3.23618466006185e-07,0.230720630057364,0
1.34054481039746e-07,0.173104423197259,0
1.75508190438421e-07,0.189325462787687,0
2.18141410313756e-07,0.20657580656617,0
2.28916251659807e-07,0.210250165088369,0
2.2763609085934e-07,0.206729143883634,0
2.42651696770123e-07,0.208976954718988,0
3.50729426958283e-07,0.228414916637947,0
3.77580799748063e-07,0.238285287151008,0
3.96034286765027e-07,0.238886643124978,0
3.84666675309195e-07,0.235408719618574,0
3.67792053279474e-07,0.237474887753338,0
3.50467210446497e-07,0.232924559002446,0
3.26423842542956e-07,0.223739710076225,0
3.30538291724358e-07,0.231285692044994,0
3.32066290418925e-07,0.236399705199886,0
2.91593573807564e-07,0.224109627171105,0
1.14645666294996e-07,0.165030610886931,0
1.14897369408904e-07,0.167008676775167,0
7.65969063297356e-08,0.147449174562258,0
9.87840410725996e-08,0.15202960006293,0
2.39199127828673e-07,0.203727634004161,0
2.58179521609886e-07,0.211478564695293,0
2.50451401125429e-07,0.2153505703038,0
2.76769064364097e-07,0.218556963160245,0
4.79934139400321e-07,0.272505799891043,0
5.36564247853798e-07,0.285086935883743,0
5.23319840267911e-07,0.287361522392342,0
5.61976522004601e-07,0.297993294175175,0
5.90945880640466e-07,0.312387610061137,0
6.05111138193452e-07,0.319085324313957,0
3.81778737677322e-07,0.253459980886396,0
2.46975795473921e-07,0.206962355676388,0
2.54589505452056e-07,0.208349535907387,0
4.19581051227612e-07,0.256837974464087,0
4.34591245830665e-07,0.261798039239314,0
4.30663409461601e-07,0.27165031238275,0
4.30538485557401e-07,0.274975106726443,0
3.5277644736869e-07,0.260757735709616,0
2.40275823458438e-07,0.224344600660905,0
1.56028719475577e-07,0.20393280415889,0
1.43598172572498e-07,0.198746772198626,0
7.36324373456598e-09,0.132298115220492,0
7.30371934952023e-08,0.163279936981657,0
2.48447207350496e-07,0.248296344216556,0
3.2692709416198e-07,0.27943728710193,0
4.55230128127168e-07,0.317074336861541,0
4.59302678325849e-07,0.294782226672326,0
4.36494016237831e-07,0.282116032103822,0
4.21979342814187e-07,0.266597440487462,0
4.68736906833634e-07,0.281780241240386,0
4.45007549387309e-07,0.278929400009649,0
4.15731446907467e-07,0.256004693272638,0
5.6502169677827e-07,0.304000781410271,0
4.91520676906087e-07,0.268934721335629,0
4.83121554262931e-07,0.25158422547617,0
3.56342344554917e-07,0.212255048297558,0
3.39184015391275e-07,0.212436005770214,0
3.52646575983135e-07,0.210803608077762,0
3.59836503261504e-07,0.219999976402634,0
3.34316930608826e-07,0.20619181305031,0
3.84701307678676e-07,0.219061056727858,0
3.82473704198831e-07,0.227137275766672,0
2.94069633616678e-07,0.205242512692303,0
2.90309083960912e-07,0.209543768980008,0
3.05211516235713e-07,0.226277399866519,0
2.33300957010196e-07,0.207469783475905,0
2.21764821970728e-07,0.212449534756177,0
2.31492807183933e-07,0.21588196244661,0
2.23480979565556e-07,0.210703970787713,0
2.32652373126385e-07,0.223844855360338,0
1.87185019478905e-07,0.204149439213421,0
1.78873250803415e-07,0.193481446840232,0
1.9240461230786e-07,0.199368003585675,0
1.96678463154152e-07,0.206520935398904,0
1.17111367315024e-07,0.177439221048702,0
1.05133978782256e-07,0.176234637232442,0
1.18091587058376e-07,0.180224774048708,0
1.05650990583797e-07,0.171334688640868,0
7.5932861566692e-08,0.158194906975813,0
9.62966948216455e-08,0.174355213830193,0
1.02447651015577e-07,0.174533628435655,0
2.10245693898417e-07,0.202791240562042,0
6.3757898458209e-07,0.308199306563415,0
6.43637793935794e-07,0.303728343950822,0
6.87678881474058e-07,0.305031526988612,0
6.96327233490445e-07,0.306671083637655,0
7.10666116717214e-07,0.307174513364785,0
7.38740135836715e-07,0.310255764163824,0
8.68889817217454e-07,0.33855477629924,0
8.78775348790041e-07,0.340367666916117,0
6.45027881587604e-07,0.285298248891809,0
6.75371557778464e-07,0.324301044807359,0
5.54782111071256e-07,0.300920826168572,0
5.70640025682635e-07,0.304470947849747,0
4.39513989778351e-07,0.278498276264055,0
4.22038867199232e-07,0.265431655718203,0
4.42901777635817e-07,0.256901930088554,0
4.49936477686689e-07,0.270302088620082,0
4.06213111216657e-07,0.249820171818043,0
2.96907787217423e-07,0.203904577850326,0
2.69788631999332e-07,0.200012187638816,0
2.74276152196619e-07,0.198027188932414,0
2.5055916345368e-07,0.191031930906805,0
2.69857896738295e-07,0.198311158794249,0
3.54414218305809e-07,0.218199290276908,0
3.12887378948363e-07,0.205778367369826,0
2.87823593015466e-07,0.205201248176012,0
3.06386543057397e-07,0.212336335872357,0
4.43734809808875e-07,0.246428229913304,0
5.7098712242141e-07,0.260520948646961,0
7.3983151930175e-07,0.298843980806229,0
7.67447123352003e-07,0.300753411490068,0
8.02966328866003e-07,0.304306904091389,0
7.96669576580909e-07,0.30262813192629,0
6.90337688875703e-07,0.286982510931931,0
6.7370487499718e-07,0.292154754739598,0
7.11501004195778e-07,0.290529218494561,0
7.57679712896753e-07,0.286206827657171,0
4.58190731891435e-07,0.241141110437948,0
2.47364172760246e-07,0.202312838666594,0
1.96574102219331e-07,0.180907606279205,0
2.04083605871438e-07,0.18994392168616,0
2.27372173650838e-07,0.202563332488026,0
3.04651059363528e-07,0.230883436006588,0
2.92359196547166e-07,0.218179491498984,0
3.41240930764392e-07,0.234279793751744,0
3.16607884926918e-07,0.238893648845477,0
2.79350412760786e-07,0.239916222916322,0
2.68576499067489e-07,0.230895947757522,0
2.19652865867543e-07,0.211697610650015,0
2.73253878861754e-07,0.227475745449886,0
2.85202046332772e-07,0.218821219547393,0
2.68342885182283e-07,0.207485127868958,0
1.94555993653088e-07,0.183356166186176,0
1.84200915178205e-07,0.188482179932251,0
1.58611459351397e-07,0.175484039725461,0
2.42374637814274e-07,0.194005977699908,0
2.98912754036317e-07,0.200769970296559,0
3.03098941697358e-07,0.202807236193994,0
2.99394360424415e-07,0.207710497152805,0
1.71275620139681e-07,0.172731631077693,0
1.5570666936116e-07,0.179821885053919,0
1.25972770247237e-07,0.171541667957139,0
1.15109492671976e-07,0.165225835654774,0
1.43220463292844e-07,0.173267776012338,0
1.58178554732882e-07,0.17704604656224,0
1.21209582573232e-07,0.168906175802712,0
1.16234890071323e-07,0.179575423672964,0
1.04615884719168e-07,0.169923796930436,0
6.1381082032889e-08,0.149171605287091,0
5.980639148304e-08,0.145008761669904,0
1.32082909719994e-07,0.167267271831244,0
3.76259822226423e-07,0.249979572102095,0
6.6048876082029e-07,0.322839689656928,0
6.9772226862361e-07,0.326364138813232,0
6.9584918310457e-07,0.320531001744398,0
9.14452873707384e-07,0.354631854854084,0
8.4734910183531e-07,0.341914028862962,0
9.57286466577576e-07,0.363907210105611,0
1.09862163025679e-06,0.382140590167408,0
1.08794202792681e-06,0.381689403351012,0
1.15290864246255e-06,0.412667290666305,0
1.05952415885317e-06,0.396315058510318,0
6.77031901599262e-07,0.31679479498996,0
5.0787380347929e-07,0.280961993654176,0
2.12662693148862e-07,0.202565558840473,0
1.76880034252737e-07,0.203733936472704,0
2.09200538462287e-07,0.212475297788598,0
2.92856263814498e-07,0.221184285377797,0
2.68439361068695e-07,0.214822894599163,0
2.69115929143918e-07,0.217028652553411,0
2.56894258719274e-07,0.213196125724813,0
2.34754279658069e-07,0.204151466071881,0
2.48150358469228e-07,0.208262988882287,0
1.73318929939072e-07,0.188461842341291,0
1.66601641738848e-07,0.184774920722471,0
1.58041262125296e-07,0.173608488653251,0
9.48712017563924e-08,0.150985416035651,0
3.47469345963279e-08,0.136666748244595,0
5.03628864477164e-08,0.148794994902536,0
2.04426218955234e-07,0.204106637682832,0
1.7363634178972e-07,0.182893148459478,0
2.65096718978589e-07,0.206674663289027,0
2.62399568596447e-07,0.203072873380994,0
2.48722411000837e-07,0.194648200382908,0
1.87818760918653e-07,0.177493026982407,0
1.82298608597416e-07,0.175819784140392,0
1.73814914944857e-07,0.172789080742031,0
1.61041909566774e-07,0.162493238718576,0
2.35620088895099e-07,0.189062882891829,0
1.56596442961001e-07,0.169033528542608,0
2.22478341547317e-07,0.197823703115667,0
1.76319577380552e-07,0.17888881557163,0
2.72269948507385e-07,0.218012266477966,0
3.03651668129927e-07,0.231281733828549,0
3.15414459658947e-07,0.238368365479571,0
3.07949792556615e-07,0.24149846623857,0
3.37457808224946e-07,0.242501243548092,0
3.33290792054153e-07,0.231111626460956,0
3.40467268367588e-07,0.227769430586667,0
3.58744346752506e-07,0.224662097836592,0
2.58483637104393e-07,0.196746054313936,0
2.40677806318487e-07,0.196392281415292,0
4.31732838478126e-07,0.248888617449297,0
5.1989510090908e-07,0.26620085460219,0
5.11925790708592e-07,0.260043832862575,0
4.82085829963134e-07,0.257489114848361,0
4.58391723321459e-07,0.254256389296876,0
4.41922794762804e-07,0.25938213343136,0
4.45982048605346e-07,0.260686936555634,0
5.37265553335793e-07,0.296268740284747,0
4.81177194090629e-07,0.282158398191692,0
4.86774032372861e-07,0.282161262144187,0
3.05849586721646e-07,0.232272276661393,0
2.0767918794579e-07,0.211912095387516,0
2.38468601284928e-07,0.218198505963619,0
2.22646555913368e-07,0.203895141235553,0
2.04025627574316e-07,0.203701945638788,0
2.19318910876118e-07,0.206951234520445,0
2.25314639842553e-07,0.211274070818896,0
1.6072264241062e-07,0.191690547939184,0
1.24659368556421e-07,0.180867629796401,0
1.50474707828819e-07,0.195520541008364,0
1.17705065077559e-07,0.182134288631622,0
1.06057920925201e-07,0.170829989892655,0
5.73623356939373e-08,0.148881995210657,0
5.86437333647421e-08,0.151633009440459,0
2.29380851080749e-07,0.217843769375994,0
2.33296782572803e-07,0.214123189575751,0
3.02177318686298e-07,0.234898798002992,0
3.77790449270459e-07,0.244551136562726,0
4.61115157198297e-07,0.261712582213519,0
6.25994920817001e-07,0.294782464386116,0
5.83652674688824e-07,0.282981373415895,0
6.6188410517104e-07,0.29487487688615,0
6.99843501254335e-07,0.292640385083457,0
7.27676949092976e-07,0.293965326755509,0
8.12570627045347e-07,0.316279484520074,0
8.2537300809397e-07,0.323726169847575,0
7.75639688648609e-07,0.319939034978096,0
7.56500820855262e-07,0.321514134952398,0
7.29781483974128e-07,0.2992952285088,0
5.61213836832052e-07,0.268008719542863,0
5.51091289980829e-07,0.256277608409401,0
5.64237984809965e-07,0.259090696254322,0
5.33280357104776e-07,0.267010015500268,0
5.23257996750981e-07,0.27208253704819,0
4.3137229077442e-07,0.252028743080626,0
3.45232775173479e-07,0.231059893828321,0
3.44000852316217e-07,0.235064072473735,0
2.9434421883185e-07,0.222996565047652,0
2.57525835635928e-07,0.219112954422542,0
1.62706582433758e-07,0.182485291000824,0
4.19467568374043e-08,0.129433109145407,0
8.37831229970875e-08,0.14471323715515,0
1.1254360515452e-07,0.150327925410232,0
1.70626417820701e-07,0.162413729192974,0
2.61690996501213e-07,0.185281437333643,0
3.58622669632945e-07,0.210709137802602,0
3.63109416786271e-07,0.21179544875776,0
3.63140338544735e-07,0.213430954126116,0
3.42226716424268e-07,0.208679369205908,0
3.85536349766034e-07,0.209442299161077,0
5.52417214983824e-07,0.242426143712821,0
5.69030857372098e-07,0.252648953982867,0
6.45248199116671e-07,0.271536148979295,0
5.32977323871815e-07,0.258395586970521,0
5.1477553996876e-07,0.262930486994946,0
4.47055806668055e-07,0.255678158362473,0
4.5472053754766e-07,0.248790832692575,0
4.63675633408022e-07,0.246771590228666,0
4.56714372533505e-07,0.253848337091512,0
4.25593014117242e-07,0.267751068498651,0
2.6687085487054e-07,0.221250703578148,0
6.6190868796902e-07,0.325620182690948,0
4.9073217206522e-07,0.268743925650116,0
5.16147383783076e-07,0.280030375913482,0
5.13972811119e-07,0.276988901068891,0
4.97921480908419e-07,0.263409875605402,0
5.90247048899149e-07,0.284269663158417,0
5.57158138991733e-07,0.280626378108534,0
5.63262094112799e-07,0.280752709303628,0
5.78277236197204e-07,0.286779332171545,0
6.24577622017741e-07,0.290463107527162,0
5.68356763037553e-07,0.273627354195371,0
5.94954577407917e-07,0.278195367347313,0
6.16177880939415e-07,0.285054565188144,0
6.38169590168778e-07,0.29215673480928,0
6.94426782215163e-07,0.295637301088992,0
6.5222167408578e-07,0.285558028446747,0
7.02989017134225e-07,0.295620817912365,0
8.10583131019986e-07,0.313426298160219,0
8.40616661973435e-07,0.304026244234034,0
8.04686351680638e-07,0.306345154662237,0
3.89525101999273e-07,0.236803504865553,0
3.41530822250005e-07,0.239007462108248,0
3.27737244233773e-07,0.224110018461325,0
3.52008505497203e-07,0.227750676927677,0
2.846231910143e-07,0.217818522696778,0
1.96013026911976e-07,0.194577316712914,0
1.5913589237497e-07,0.184952479695339,0
8.9668306677009e-08,0.15419335961551,0
6.46178171002513e-08,0.153205235525461,0
9.36892175390534e-08,0.177624914675458,0
9.18524650862104e-08,0.170442744529383,0
1.24590103817458e-07,0.187687276871429,0
1.61166678862182e-07,0.203456709192952,0
2.01922793389878e-07,0.208570325840131,0
1.38943984097083e-07,0.180856385132261,0
1.43053949623508e-07,0.17849577181519,0
1.09341811674224e-07,0.168187106835406,0
9.75057355776415e-08,0.164804695040957,0
1.10973398259648e-07,0.170789284354741,0
2.02360645489747e-07,0.191664455680316,0
3.18559820930044e-07,0.221994041424311,0
4.24589139228664e-07,0.23675658127543,0
3.46369459014666e-07,0.217734941382115,0
3.13897438188635e-07,0.220147174949712,0
3.52176565254462e-07,0.23435704286374,0
4.37018603870196e-07,0.245008298892827,0
6.01663980559733e-07,0.267707117585611,0
5.68402063413704e-07,0.259956350899697,0
5.00552304118652e-07,0.240715324296724,0
5.09033987856911e-07,0.255129701424701,0
6.66182074988933e-07,0.287205818460992,0
6.13899565775686e-07,0.28694597801358,0
6.10096189484447e-07,0.28861675844984,0
6.39391463454538e-07,0.289880108368179,0
6.16345013043921e-07,0.282785861607738,0
5.57848467249474e-07,0.290100439513177,0
4.41922794762804e-07,0.274696429116922,0
6.26382061232988e-07,0.306896961227194,0
8.53666417089784e-07,0.312561458494482,0
8.35724839784215e-07,0.299710600771717,0
6.53849240842606e-07,0.275929804425723,0
6.47490026605411e-07,0.269976254971833,0
6.75818067970704e-07,0.276083663709838,0
7.44563321390914e-07,0.284012583138969,0
8.11519287257524e-07,0.289424418912893,0
8.3221212802255e-07,0.292892589471089,0
7.71807245904412e-07,0.277082899203075,0
6.12674600314082e-07,0.252395880471193,0
4.03239056487458e-07,0.232706487242094,0
3.97189987487669e-07,0.239898255335662,0
3.45833430331668e-07,0.229255572874447,0
3.3227532150615e-07,0.232139369115237,0
2.93315142710123e-07,0.219263966575323,0
2.42735803953149e-07,0.212995054536989,0
1.79614599962622e-07,0.200147632679376,0
1.32603168306174e-07,0.184520341003159,0
1.00370327281873e-07,0.170012574071915,0
9.70361886753449e-08,0.179586906752727,0
8.09100278092777e-08,0.170129703851719,0
8.74739440875139e-08,0.172428456151885,0
8.49878347068984e-08,0.162693849628228,0
9.69434233999489e-08,0.168356227623597,0
9.77399678980166e-08,0.170784449722759,0
1.05566883400771e-07,0.174703509806299,0
1.74587495080115e-07,0.199448798073453,0
2.13109821776272e-07,0.200615134934097,0
2.14841904076709e-07,0.19817977682537,0
2.0325119213355e-07,0.189545782665294,0
1.98274025890964e-07,0.190689341590145,0
1.35406380319852e-07,0.16922800593596,0
2.74666384788452e-07,0.221535609362082,0
3.15163220371415e-07,0.223585843325832,0
3.2874173755752e-07,0.235275164888858,0
3.80674057856147e-07,0.234497823685408,0
3.84944971135384e-07,0.226152484591376,0
3.67249067200822e-07,0.229035590558354,0
4.22834020218169e-07,0.235114525640275,0
4.72660104938927e-07,0.243348564363017,0
4.49606078697486e-07,0.230605277696159,0
5.04101348946515e-07,0.244827776541438,0
4.67921809280487e-07,0.235206560114867,0
4.10239124168848e-07,0.230224024454595,0
4.72240960502929e-07,0.232344805033571,0
4.0646651502728e-07,0.223118696864079,0
3.57947338428062e-07,0.218998151460546,0
4.15515613033378e-07,0.237578749182141,0
3.94210521450739e-07,0.233865098968865,0
3.60532397435767e-07,0.235492759754917,0
3.89604261700945e-07,0.250052830002988,0
3.56392592412422e-07,0.236350387168341,0
4.31203921799576e-07,0.254401419914355,0
5.29023204008057e-07,0.263822834319454,0
4.83854554547353e-07,0.253606932040171,0
5.87449093584411e-07,0.265955473940071,0
5.30843722537705e-07,0.256274243787248,0
4.25687634698146e-07,0.235863302310869,0
3.410554002136e-07,0.223815086319624,0
3.58739399271152e-07,0.230594300784642,0
3.62681305040319e-07,0.228018691053199,0
4.1445917115541e-07,0.24562164356311,0
2.9177400226821e-07,0.224475223945854,0
1.59445109959623e-07,0.188076972652328,0
8.28828359993684e-08,0.162297762837372,0
2.18106777944276e-07,0.208810213519068,0
3.16722913868408e-07,0.229384833438598,0
2.99487898743773e-07,0.216016698190249,0
3.25484903347155e-07,0.227624842332872,0
4.7701512540119e-07,0.262170352471108,0
6.07743816709194e-07,0.30154629810482,0
6.47912263217255e-07,0.316718061381838,0
6.11541008648741e-07,0.293981315170855,0
5.86223355078843e-07,0.278772413183441,0
5.3855514527259e-07,0.272932133268371,0
1.85286887335509e-07,0.201399334259693,0
2.49028536409644e-07,0.238450530617559,0
2.43810180451029e-07,0.227531419004682,0
2.5831665960868e-07,0.220346289995814,0
4.01750328426142e-07,0.256303663901677,0
3.82515912399136e-07,0.24815111353263,0
3.75800788722005e-07,0.243932005562185,0
4.47055188232886e-07,0.253603016173893,0
5.47714633956411e-07,0.272493863772443,0
6.47330934158106e-07,0.289364267945282,0
7.34548846085527e-07,0.301640620368469,0
7.11872838341325e-07,0.299690999037067,0
6.9909905991928e-07,0.304601948224799,0
6.99141113510793e-07,0.309040171721698,0
5.97721301746606e-07,0.300801871357485,0
6.84139113173735e-07,0.315844237022344,0
6.96337746888323e-07,0.29419075676859,0
4.92998118525562e-07,0.268250387639279,0
2.22872439358958e-07,0.198966481050551,0
2.39762522267912e-07,0.199725469494603,0
4.23650354641656e-07,0.229215086279736,0
7.50739478817994e-07,0.292149549647915,0
8.10592407547525e-07,0.308640207324577,0
8.34710606106551e-07,0.311006003082189,0
8.06804492135517e-07,0.301350369922306,0
6.07325136099572e-07,0.262136181671804,0
6.4574851316864e-07,0.274261987745782,0
6.78450591877653e-07,0.273120677780019,0
6.64963757705398e-07,0.271190481911101,0
3.94029938381302e-07,0.222831689234831,0
2.95673854445862e-07,0.217047470647383,0
2.29130230228387e-07,0.198186943206032,0
2.43429842821905e-07,0.199069592236493,0
2.42766880320407e-07,0.19704449080176,0
2.64668761841428e-07,0.201059057525578,0
1.50816084042277e-07,0.169294601227975,0
1.43212423635643e-07,0.173264647563309,0
6.04404421403722e-08,0.137069231214719,0
7.46483717200403e-08,0.148950854280282,0
1.13059843912099e-07,0.165472688403176,0
5.17654974117053e-08,0.141760431182613,0
2.58345107626467e-08,0.127192103154779,0
5.46741526217503e-08,0.145834482334677,0
8.99365529316961e-08,0.161317370019511,0
1.03866186685176e-07,0.168595862439203,0
1.94207350826391e-07,0.209734570338281,0
2.82597661226027e-07,0.252754441081858,0
3.06034035010891e-07,0.271408063649103,0
3.16851548383624e-07,0.261339136840969,0
2.96022651881352e-07,0.254459802284135,0
4.98361188313796e-07,0.293472128822109,0
5.13539906500484e-07,0.284962741809679,0
5.05902232159538e-07,0.271848047735192,0
3.76166902342235e-07,0.235454749842138,0
3.40333531762225e-07,0.227732278419766,0
3.50910010027721e-07,0.230519842911123,0
3.49197717652701e-07,0.2259959296347,0
3.42619422756777e-07,0.226270042150788,0
2.05854804196334e-07,0.185537264614926,0
3.58087723211495e-07,0.221235237642511,0
4.40007964869835e-07,0.243561145971868,0
4.16189707367923e-07,0.247977001919728,0
4.21482275546856e-07,0.246507734346924,0
5.15314815436397e-07,0.270004128987378,0
5.24028566971937e-07,0.263810691575761,0
5.3743083013479e-07,0.259331386753965,0
6.27857647546955e-07,0.266772826194074,0
6.31905460338864e-07,0.254154767149129,0
5.34864324182165e-07,0.237179587651249,0
5.30651543808842e-07,0.242894577559946,0
7.85401687796126e-07,0.298399548837662,0
7.87135625402072e-07,0.293809096474826,0
8.08892947702269e-07,0.296546958477828,0
7.79952037084189e-07,0.294233557209932,0
7.57426772912507e-07,0.297121884241106,0
5.34018768696928e-07,0.257596950474452,0
4.82342480558395e-07,0.261042953417981,0
4.99415620277465e-07,0.273358542102071,0
4.64795619499637e-07,0.262472523823577,0
4.45103870664928e-07,0.266306820621805,0
2.52000735833337e-07,0.208967422998577,0
1.27861471254302e-07,0.167032417945272,0
4.31050859095172e-08,0.136617766482615,0
4.09070127090065e-08,0.136801351343472,0
8.36099611496817e-08,0.154830737248775,0
1.98204761152002e-07,0.180637075538145,0
9.20637225400459e-07,0.329817957370918,0
9.96866317413249e-07,0.324136920124891,0
1.02973181761575e-06,0.331061776052811,0
1.06751511428459e-06,0.339302493421494,0
1.0752461723361e-06,0.340406535825142,0
1.09442369232753e-06,0.348494112988,0
1.091069454578e-06,0.345397313807966,0
1.11503381738866e-06,0.337117202900531,0
1.026668089787e-06,0.315714206731253,0
9.32439596780313e-07,0.323841317328289,0
3.65615161483512e-07,0.226271320429083,0
3.85656171580087e-07,0.229300596718873,0
4.9978467146475e-07,0.25563344250491,0
5.06676049165134e-07,0.243279431331797,0
5.05085897736052e-07,0.241009571562665,0
5.41838262977653e-07,0.247272028161179,0
6.00160410054355e-07,0.266472202509974,0
5.31091096605428e-07,0.262097063023222,0
6.22816937090722e-07,0.285677669121328,0
7.29042299338014e-07,0.305579261703118,0
6.15629947379409e-07,0.272743046630854,0
5.50650964140283e-07,0.286696076968591,0
4.83616302398377e-07,0.264806437567944,0
3.69667921756775e-07,0.244528820552287,0
4.2369318127713e-07,0.255677589881437,0
4.25174178898829e-07,0.248432040116698,0
3.78403318523242e-07,0.234788079087314,0
4.50234563438295e-07,0.243891952115006,0
6.16521885502343e-07,0.269771749487517,0
6.53689839177717e-07,0.266176649566169,0
8.08184839433412e-07,0.303735534882477,0
9.29573149770572e-07,0.328181924610918,0
9.45588765350127e-07,0.342622926770661,0
9.21098732645553e-07,0.340953337039157,0
9.51698286387714e-07,0.344204365020419,0
1.03979731382261e-06,0.344237257826911,0
1.15831422966867e-06,0.358167883781288,0
9.83930354368054e-07,0.341748569181575,0
4.23273109188378e-07,0.242328641536114,0
5.5734985389422e-07,0.286183869913807,0
5.64832455616462e-07,0.278817888042597,0
5.1723196446125e-07,0.252314059181307,0
5.54788295422949e-07,0.257116176771517,0
5.65276955894402e-07,0.265346033818255,0
5.06570915186352e-07,0.254971778817748,0
1.10066385779463e-06,0.307682738689167,0
1.93457900166466e-06,0.343644982671362,0
1.77872174333977e-06,0.332743598095713,0
1.74919270087569e-06,0.31494566221086,0
3.518030304122e-06,0.408383013597171,0
5.26476704433158e-06,0.500438260156527,0
7.46449409509388e-06,0.593149071971818,0
9.44645126047039e-06,0.646101870906437,0
2.11958699019969e-05,0.343765108156398,0
7.90693829254793e-05,0.40089784995897,0
7.83369701544685e-05,0.289847219080537,1
8.25580499277626e-05,0.203388526481763,1
0.000159178895882902,0.263913183697476,1
0.000209641700581792,0.274414033193693,1
0.000196115707094616,0.219875136692999,1
0.000187701161760599,0.187322710417917,1
0.000270183374375028,0.138714901968776,1
0.00040754747306684,0.16721554736379,1
0.000409905033894729,0.146041818962041,1
0.000855454153762587,0.137505083477624,1
0.000862476478307286,0.0912752164027651,1
0.000763914157838542,0.0857726169308834,1
0.000760596657611808,0.0832083314678297,1
0.000896093242885456,0.0775068645117799,1
0.000790826035851546,0.0569513088654499,1
0.000458088494662985,0.0391456828059222,1
0.000407276117165514,0.0388548591152842,1
0.000410070820902741,0.0395015366581735,1
0.000558827106272533,0.0421158652484342,1
0.00064709187804341,0.0372981663984963,1
0.000630308410420078,0.0407492657168692,1
0.000734980962817636,0.0450766186128187,1
0.000814330730797915,0.0459281120990541,1
0.000796260967806454,0.0459511836216673,1
0.000960004245637834,0.0562087812822959,1
0.00088061689241475,0.0494508728628035,1
0.00079529338655883,0.0434218258908856,1
0.0013251076829405,0.0407158072863687,1
0.00236955338988255,0.0608519107179744,1
0.00360562569898181,0.0907748805586055,1
0.00364275326157401,0.0934540036727955,1
0.00364390958181409,0.0875377887019595,1
0.00366381415026987,0.0905773340014566,1
0.00345523456849168,0.0921603400415967,1
0.00256367187775946,0.0767651180537477,1
0.00252716546232939,0.036428139714336,1
0.002967279299435,0.0275333563609685,1
0.0029232869433512,0.0317144702691542,1
0.00282555646735077,0.0329781745439976,1
0.00237186450731149,0.0290796554457062,1
0.0023860028346412,0.0297925505911282,1
0.00235743632900367,0.0309098820211226,1
0.00220900693393114,0.0275057782018479,1
0.00290439842553561,0.0293878038686684,1
0.00376170058294208,0.0335910806516458,1
0.00363798690612046,0.057014193927441,1
0.00320632924709526,0.0621056037287692,1
0.00601221238632127,0.048318062224103,1
0.00596690575160559,0.0376651508073112,1
0.00537167313749582,0.0307895131058029,1
0.00495864382849553,0.0284316768537036,1
0.00426735368405958,0.0243839707411566,1
0.00402194467785317,0.0233656463266338,1
0.004221337691836,0.0284350726063245,1
0.00406033380103508,0.0267250310342006,1
0.00409642411534863,0.0258125783502196,1
0.00415387890539968,0.0224725630347586,1
0.00288554951725575,0.0237538585798619,1
0.0021073699612856,0.0196055997518933,1
0.00245990045698746,0.0239082668263728,1
0.00238994206243147,0.0179677833592021,1
0.00521680446185848,0.0237275364486097,1
0.00962909022872845,0.0268246279850995,1
0.00870121788018902,0.0225371548402702,1
0.00780158110025932,0.0203952724455444,1
0.00727720149510666,0.0193837407550119,1
0.0066926351494008,0.0208704229768768,1
0.00880771292346059,0.00816141550598558,1
0.0182196295524078,0.0143859361912269,1
0.0180319990797969,0.0113128123923866,1
0.0165494628532403,0.0105159119751317,1
0.0184043208990439,0.01467020704462,1
0.0178866576034178,0.0125646428745953,1
0.0172948897513173,0.0120644129096271,1
0.0166620751789109,0.0113656400542879,1
0.0154466630607557,0.0102951101902422,1
0.0157046554958319,0.0112653227670543,1
0.0244259565162404,0.0109572414181152,1
0.0266524981421268,0.0054366088067343,1
0.0291654718282486,0.00791839544058146,1
0.031624157554258,0.00923025875384694,1
0.0304513858247241,0.00704605370485004,1
0.0305948957721084,0.00846150265841722,1
0.0313828637733692,0.00804710240887054,1
0.033099834757787,0.00863926166132039,1
0.0331445598307573,0.00841833226076181,1
0.032939876577777,0.00712410090109328,1
0.0206697983863917,0.0107740843881205,1
0.00896832144649324,0.0229250689039371,1
0.0125584792074233,0.0271372048997094,1
0.0134383348189772,0.0269715199268064,1
0.0141314505260547,0.0479187271485881,1
0.00900275632751584,0.0203902110556409,1
0.00824825620318463,0.022363665698934,1
0.00818466312001817,0.0241642308711631,1
0.00569386284432602,0.0179783957463029,1
0.00544390341286143,0.0100623535388492,1
0.00827040159401739,0.0125254522162175,1
0.00814000488566567,0.0118455651915695,1
0.00724003461580779,0.00987483436637755,1
0.00696431107546718,0.00895310400019263,1
0.00636021998424198,0.00795882808880993,1
0.0115480559191053,0.0196582421268449,1
0.0155551171531171,0.0273095058025533,1
0.0252875074171075,0.033188723156127,1
0.0282199241628629,0.0391097508484533,1
0.0447762636676254,0.0353926474224559,1
0.0791321835784422,0.0419905442618534,1
0.0714198132277149,0.0407560324690604,1
0.0775129171183206,0.0423739492469207,1
0.0717946523225375,0.0435882047369829,1
0.0840728157794805,0.0395020839430518,1
0.124009790661762,0.0427352272595772,1
0.102019654129887,0.0231818783879493,1
0.096047424233576,0.0231302303771477,1
0.0843283655176243,0.0204152752645675,1
0.0838049946989724,0.02691956593266,1
0.0846735488320537,0.0309822791202912,1
0.0810112901713132,0.0316219740901632,1
0.0810267275190876,0.0329525374535541,1
0.0811928004480769,0.0315928296520844,1
0.0702497362411496,0.0368112119068875,1
0.0234044765328925,0.0145275233765748,1
0.0280484995562796,0.0241732685387896,1
0.0312775852701531,0.02522214401832,1
0.0289029092378224,0.0210351780200852,1
0.0266278539046227,0.017123986234064,1
0.0369547391525236,0.0219421464752767,1
0.0370457928677719,0.0148664857397441,1
0.0465543467678083,0.0113619737817603,1
0.0593688178813797,0.0142290565755082,1
0.0709739748762317,0.0157111702168694,1
0.0503007145417108,0.0096123832918758,1
0.0513152059250205,0.0113266043956103,1
0.0557006407691669,0.0096522372623542,1
0.0631828876023874,0.0117803466490574,1
0.0571465415270976,0.0089514556544645,1
0.0598951428890771,0.00805689206336904,1
0.0835084728414295,0.0111082252842703,1
0.0937035887144909,0.0184486688553241,1
0.0986820713985311,0.0198382813390826,1
0.100862504945497,0.022527224071749,1
0.124504478044611,0.0293508049277504,1
0.126207957590607,0.0305944921609819,1
0.152645460808624,0.0397565339070786,1
0.16892176590298,0.0434376677718666,1
0.123198470379057,0.0322274291108263,1
0.0499533700332254,0.0161643349962602,1
0.0423383275683351,0.024542032103237,1
0.0382491140669212,0.0217955757988283,1
0.0429138796948507,0.0235158558796507,1
0.0624440249656755,0.0278617961544591,1
0.0644163498746556,0.0197191876012913,1
0.0696991473394523,0.0168813093346067,1
0.0532005291814306,0.00853247619831349,1
0.0392095963109964,0.00460657041643887,1
0.0385332976471606,0.0062569328527328,1
0.0399198018073045,0.00776908935380585,1
0.0370387544331456,0.00679113245403939,1
0.0364039145095241,0.0066147650134842,1
0.0391071971315379,0.00750092362593343,1
0.0262287180201513,0.00386900911759154,1
0.0264562050273182,0.00719885038201745,1
0.0143561388444426,0.00874471444160748,1
0.00993326270647029,0.0117016080285745,1
0.0128011428364362,0.015558389207946,1
0.0122359479813666,0.0156058380970017,1
0.0133071823952173,0.0187702992341416,1
0.0132147991326366,0.0149154818722517,1
0.0133474735157624,0.0182941705829664,1
0.0190449459033367,0.0288584663524663,1
0.021394882965491,0.0335920606651196,1
0.0229852750300162,0.0382396287544543,1
0.0202204618905419,0.0319688638974906,1
0.0195355768035508,0.0335817335027269,1
0.0193972095329766,0.0358086136856552,1
0.0231164728563486,0.0442759735445717,1
0.0273526502808736,0.0414992856752449,1
0.0771408769276469,0.066552312658088,1
0.0988985286497041,0.0512235166135114,1
0.0888149308609046,0.0473968057022392,1
0.076064588805688,0.0409124807161885,1
0.0642808453857805,0.0364626121022336,1
0.0518287320775228,0.032784888841794,1
0.04806707520898,0.0329775885552826,1
0.041225708983946,0.0300231107852587,1
0.0417431934591975,0.0306960480834921,1
0.0417979268456943,0.0318412294993236,1
0.0252388452841168,0.0300355101205727,1
0.0175023479790253,0.0417350941511714,1
0.0325551337800558,0.0451802324692012,1
0.0433824762934323,0.0562493343899102,1
0.0603185185743964,0.054476379764873,1
0.065844878226059,0.0193113433456387,1
0.0612798208715457,0.0165042291760091,1
0.0578901555970409,0.0140498453385019,1
0.0571597935885918,0.0133304852728818,1
0.0492273972773258,0.0110342969464702,1
0.0472440454437028,0.0109092058586833,1
0.0478494157660658,0.0114888035045737,1
0.0470161010584279,0.0132180238542797,1
0.0917483687142446,0.0184225112958561,1
0.0980869625833919,0.00780601493129348,1
0.0968317709674491,0.00661852315435825,1
0.086155927173503,0.00584178318769056,1
0.101161337499623,0.00661817581623241,1
0.109516406455243,0.00538512290357151,1
0.10410597279286,0.00477141735316446,1
0.105029023578239,0.00353239009604546,1
0.14868500469931,0.00795292143138268,1
0.16980378846684,0.00973844114500689,1
0.128775730138657,0.00722917380755632,1
0.142564851162971,0.0167754072828244,1
0.165303626684122,0.0301568435419778,1
0.162065930603294,0.0281349094917372,1
0.114663673735647,0.0315850790213001,1
0.0573273636719762,0.0281306282640291,1
0.0353676032529073,0.0189575647841879,1
0.0141845443813933,0.0185103650669654,1
0.0150861475922096,0.0218593451464615,1
0.0151646786050566,0.0216965813593228,1
0.00951896460845542,0.0192752581890815,1
0.00957724616392136,0.0321445806410144,1
0.00784328109945425,0.0176796452458649,1
0.0351623621046133,0.0316399615291773,1
0.036965392308092,0.0223116612055778,1
0.0364942939877339,0.0218676035126768,1
0.0339426391638567,0.0167239573679786,1
0.043937184365445,0.0176204741357006,1
0.0425897896434253,0.0163285774536323,1
0.0427536994664662,0.0147238477569225,1
0.0469114140012519,0.0162220984877492,1
0.0571025417683449,0.0200662023811436,1
0.060820374092878,0.0231406056321164,1
0.0476423021823827,0.0265700259730812,1
0.0524707866967513,0.0351432602760916,1
0.071035676636226,0.0431534185587428,1
0.0719636806210103,0.0649230593285688,1
0.0363639267017446,0.0575777752730423,1
0.0222021992090185,0.0382235012527539,1
0.0125742734165641,0.0331756333675543,1
0.0117006826254776,0.0324741979146582,1
0.0116184552771085,0.0293996496508064,1
0.0126275719405483,0.0239149697205443,1
0.0200831094103916,0.0383567762317647,1
0.0235908928583282,0.0338592645545454,1
0.0180732594168869,0.0282034557380162,1
0.0178291483273731,0.0259972457684385,1
0.0233572009211926,0.0332382142142261,1
0.0310655005448682,0.0333429534293762,1
0.027096407078542,0.0227798520092334,1
0.0414081658847356,0.0196053078152508,1
0.0379752613882068,0.0114965527741772,1
0.0369796108240448,0.0114272232737103,1
0.0371148428934647,0.0109265537704599,1
0.0345891793835051,0.0111967064220933,1
0.0303562714307586,0.0089277107048093,1
0.0311534270157491,0.00971993655084786,1
0.0317577111762498,0.00934507159490835,1
0.031990383275139,0.0106266585436516,1
0.0242866308344206,0.0084784760288797,1
0.020111582823447,0.0124123733889937,1
0.0211004193897538,0.0220710965378463,1
0.0162083551717544,0.0173263339591854,1
0.0180026229361519,0.0145974497562935,1
0.0193742436512176,0.0153567543424412,1
0.0266430612419791,0.00980025669233533,1
0.0914739864521785,0.0322792057800824,1
0.11038077731643,0.0391188734003434,1
0.110788433080587,0.0306082977888721,1
0.110683123476576,0.0213440029471642,1
0.121365356157433,0.0241704111994302,1
0.144320652332968,0.0263256318139002,1
0.141640424122326,0.0219234326354066,1
0.119444166587638,0.0184337736245187,1
0.072150730347901,0.0100967110456682,1
0.0589231483384242,0.0085283058019333,1
0.0769015696169541,0.0120935243382291,1
0.110969135900719,0.018333539536982,1
0.128471171495153,0.0237268925986069,1
0.126937279477527,0.0344689541302647,1
0.140559520685644,0.0332405227477118,1
0.143312066687031,0.0392343424909327,1
0.176555359268167,0.0566194222194653,1
0.17439681113132,0.0844262396566312,1
0.132445776159942,0.0365368431785388,1
0.0748485929770345,0.0240120179795857,1
0.0706330146569013,0.0266798930227934,1
0.0707226957453964,0.0214758464817176,1
0.0649153996212656,0.0185123948251517,1
0.0396148498036274,0.00912511057773395,1
0.0302853142623219,0.00275320949675309,1
0.0703053508938975,0.0123041964445743,1
0.0764118073947432,0.0129678885296152,1
0.0660686618416675,0.00948899096660792,1
0.0628694627298378,0.00519797442128916,1
0.10566171287748,0.00914259809717069,1
0.0933745362862362,0.00718714534646424,1
0.0839078153283932,0.00536319108496012,1
0.0835873809327522,0.00547620357547224,1
0.0717376728996367,0.004506781342621,1
0.0522160797670038,0.00263388393364925,1
0.0481227858502874,0.00346794839337708,1
0.0532714631127843,0.00553341627496686,1
0.0556447560692811,0.00695171630843006,1
0.0597188179030172,0.0198442834097516,1
0.0304938925846569,0.0251854862045656,1
0.0290732469105816,0.0418755808393844,1
0.0249777918461918,0.0435960227881718,1
0.0184297852697096,0.0194390540823191,1
0.0208093069152175,0.0156685803159037,1
0.0188222179822273,0.0109853371557813,1
0.0232041677903589,0.0141070787446426,1
0.0261249631689582,0.0148189191411892,1
0.0274253147993061,0.0166324738070412,1
0.029292680863541,0.0137047310138909,1
0.0388744216193112,0.0189031537704064,1
0.0392532777067452,0.0172507251911511,1
0.0402445444610509,0.0200656591638547,1
0.0395565133805933,0.0187177885550418,1
0.0364621202474666,0.0192048177287185,1
0.0370405806714275,0.0243280096599447,1
0.0338659155840697,0.0241893637075396,1
0.0273474431119434,0.0189530851285991,1
0.0202823200594387,0.0130232526833973,1
0.0226496672577677,0.0170325364127081,1
0.0219783090844952,0.0149815142873261,1
0.0221448855899366,0.0175189807706897,1
0.0194159135765286,0.0157410830868063,1
0.017549859139694,0.0234330795109023,1
0.0187240085912686,0.0235790104893102,1
0.0212475257508531,0.0263814741444028,1
0.0247280075125859,0.0242386993009712,1
0.0327798821590121,0.0225159593936953,1
0.0326519251789494,0.0232007434617614,1
0.0301975312758215,0.0182506686575027,1
0.049466135189347,0.0234982540892609,1
0.0523763747751004,0.0229060434594138,1
0.0481620122615586,0.0185668508716542,1
0.065489859015973,0.0212371054355368,1
0.0938836563083201,0.0262010144505215,1
0.180412829624788,0.0377303132379646,1
0.320790968065673,0.0498012927351343,1
0.321420251087545,0.0437707687356366,1
0.301656750910982,0.0348682095885068,1
0.223483779003415,0.0196471051886237,1
0.244060814901079,0.017148327811005,1
0.211532097172505,0.0139041069941775,1
0.169025920425168,0.00963034454440708,1
0.231698308171475,0.0154535355739801,1
0.323599111834053,0.0222014216552131,1
0.437078313424163,0.0312305521251128,1
0.394915148304519,0.029868204323471,1
0.460111389064152,0.0370260030032254,1
0.441853490567678,0.0417469262263433,1
0.43767106164675,0.056633595291882,1
0.21555508945959,0.0584754223667622,1
0.125991614706031,0.0432016798841051,1
0.060321719563911,0.0246389149059953,1
0.0426158424679871,0.0150848585771729,1
0.0284742751893549,0.0123841502028161,1
0.0335585483071947,0.0156543709337709,1
0.0332023810145797,0.0186553542153821,1
0.0537040752498073,0.0277858454167821,1
0.104613272210297,0.0376665929311118,1
0.104285947432173,0.0315301896819261,1
0.100372731875469,0.0266551588771316,1
0.0866238553958016,0.021758411906142,1
0.0714057208712996,0.0183722316097998,1
0.0773635356512723,0.0163159559138464,1
0.0660182052148268,0.0132387753877191,1
0.0643683707955789,0.0106297244853258,1
0.105823650956967,0.0139597154257865,1
0.137215809134362,0.0188397464038296,1
0.123578510490772,0.0133887847328431,1
0.130962648189878,0.00904822232105738,1
0.159121126118408,0.00954487417056098,1
0.163362688313612,0.00920302293839562,1
0.17406908069683,0.0105175441667413,1
0.172077753724565,0.0116342129458523,1
0.182106489369593,0.0129750156590841,1
0.211571148028739,0.0178338663540209,1
0.181197854716487,0.0191943448997761,1
0.130764821862811,0.0132647842452847,1
0.126172884212996,0.0159250680156418,1
0.117441283062232,0.0297803575457725,1
0.0210127603735305,0.013663039201518,1
0.0253699575598386,0.0433937538666581,1
0.0319245531315367,0.0403862313313311,1
0.0402075733242135,0.0310328636982483,1
0.0657335476739133,0.0451432637206748,1
0.0648275572852427,0.0345400856472798,1
0.0625322617557287,0.033900002136279,1
0.0570729721392175,0.0303780056106762,1
0.0423761747216819,0.0212926599015408,1
0.0328591687782681,0.0133723229315754,1
0.0324649145515401,0.014792704807666,1
0.0400081852591035,0.0109634790519379,1
0.0549087661222182,0.0119209221598301,1
0.055553401676574,0.0140631885284794,1
0.048015560799803,0.00918341473345025,1
0.0546286848438565,0.0121631533255291,1
0.0535849029596593,0.011942902462115,1
0.0503271597572031,0.00810213247805385,1
0.050681095755208,0.00623258005328706,1
0.046940920205369,0.00618458969507861,1
0.0472481828151838,0.00546731603598049,1
0.0495011994608087,0.00909997070885424,1
0.054147537421235,0.0131826854632756,1
0.0767871253266012,0.0201041723422647,1
0.0637414473554257,0.0134586174008054,1
0.0657099554668344,0.0144244991404852,1
0.0882180328625729,0.0127519662104564,1
0.155568502073657,0.0317392320386494,1
0.15538555687934,0.0288877473507571,1
0.151553732299901,0.0294836534445343,1
0.121927343558949,0.0213857150826849,1
0.143787336618687,0.0189020967622573,1
0.153615692253177,0.0149275926601265,1
0.164541873296248,0.00882856198990094,1
0.267860847825424,0.0147549608390394,1
0.391837759055958,0.0228856296284833,1
0.511974516582304,0.0349040006496237,1
0.450809128815011,0.0269686145251341,1
0.390158073676013,0.0239550657978406,1
0.345444407708244,0.0202412623703104,1
0.285313871887694,0.0166604031534549,1
0.283939694910436,0.0176450605745163,1
0.151522479997732,0.0128337839696332,1
0.0375457750249123,0.00511725242158908,1
0.0350142090297758,0.0147625399841478,1
0.0284663385750488,0.0109237844194243,1
0.0196596475077885,0.0053372135291391,1
0.0164681850172985,0.0152075194431834,1
0.0127007966262707,0.0232791666931004,1
0.012121362900846,0.032116591692719,1
0.014907796956385,0.0120827387810665,1
0.0365805803091761,0.0346440191557044,1
0.0471937349622145,0.0452866768914993,1
0.0527542862423931,0.0471008674248682,1
0.0443450302421392,0.0367776137220847,1
0.0375144241718529,0.0323708342516816,1
0.0383578297483919,0.0352670185704614,1
0.0371839119108378,0.0408858490006165,1
0.0470522552022083,0.0217145685884424,1
0.0490079165456211,0.00923853719522926,1
0.040982873655221,0.0102177389950464,1
0.0411244212057713,0.00766242100301735,1
0.0529626095466471,0.0104037247380054,1
0.059307343727946,0.0124118717430855,1
0.0650853772828137,0.0109538142970411,1
0.0677562708834125,0.0101352708202519,1
0.0757217703816256,0.0104796899754896,1
0.0869192015896892,0.0118787305856722,1
0.0706701360386979,0.0157338235531316,1
0.0374335470497421,0.0127633162674428,1
0.0367205120492675,0.0106638938186152,1
0.0356680860913883,0.0129346209497783,1
0.0419834989404875,0.0162255922636539,1
0.0438867794291164,0.0174133413406238,1
0.0503179140314455,0.0239557920617681,1
0.0871838164833536,0.042877081260803,1
0.091150300400021,0.0446519836758173,1
0.0777358389602908,0.0333623610376243,1
0.0647563335386256,0.0289164872959444,1
0.047225754493044,0.0212296479929512,1
0.0335271241010761,0.0184057495401438,1
0.034994494664767,0.0153258077867152,1
0.0486519992810883,0.0208266589310557,1
0.0557126912871947,0.0228437932596468,1
0.0594251922154059,0.0329646340474776,1
0.0335473829532603,0.0176161531538243,1
0.0356278044526912,0.024114477756098,1
0.0440799581368803,0.0382415609487963,1
0.0455818365206108,0.0387940266780629,1
0.0463875863514978,0.0335317054840676,1
0.0450745746339941,0.0319805999110908,1
0.0446013650642497,0.0319236410812299,1
0.0481120372539384,0.0333632728909671,1
0.0504719225149379,0.0318523466075586,1
0.075885129470059,0.0368365814396947,1
0.148652294032856,0.0541314989190117,1
0.168619280459639,0.0497016442295121,1
0.198328026162766,0.0525858707752395,1
0.196606301487983,0.0390573385209932,1
0.172053660095198,0.0231962443413166,1
0.153712615835166,0.0117936279527771,1
0.117368044412708,0.00746700657251109,1
0.125558667978884,0.00643057131580847,1
0.241639108713813,0.0160072208448622,1
0.370696103134076,0.0266840514282904,1
0.41402044870838,0.0301479499228301,1
0.445777898068709,0.0320659398799849,1
0.410929362135052,0.0303381193748232,1
0.379072957692417,0.0290081844828162,1
0.340780454296115,0.0392229846703137,1
0.131781022348608,0.0328221581030436,1
0.0814557182121599,0.0219699207706829,1
0.0137253521835729,0.00660042103787919,1
0.0119789939867574,0.0199791104553154,1
0.0112476081842413,0.01906898562149,1
0.0096150130015566,0.0139344075178913,1
0.00983808240339506,0.010045002113364,1
0.0183650825345032,0.0197132698421827,1
0.0318515136787432,0.0382928537182352,1
0.0391805487832374,0.0474529721163041,1
0.0546205376706191,0.0516180006662942,1
0.066499672037568,0.0523290667134494,1
0.0689694817800683,0.0567380844704381,1
