Activity,Complexity,Tag
0.00167975999994793,0.0695028360847779,1
0.00160871906167424,0.0729080857429029,1
0.00185512205170462,0.0671861024246296,1
0.0017747612589726,0.0412397610198219,1
0.00964073841394888,0.0340225988193036,1
0.0205816188135022,0.0379450270424679,1
0.0200805229380961,0.0308985626355452,1
0.018527147845244,0.028638280452088,1
0.0164369458593813,0.0242881728063412,1
0.0161987701945541,0.0248307073863703,1
0.0156087542074252,0.0267409305266342,1
0.0281958507652316,0.0247506646560223,1
0.0327564468960959,0.0109756875023084,1
0.0308906610966646,0.010688377158871,1
0.0302902469736909,0.0140330044962036,1
0.0280095356641398,0.0143494250962599,1
0.040240409054502,0.00795245775959306,1
0.0836955886491898,0.0202317205229245,1
0.0839286993714995,0.0100237281314578,1
0.0880276553454844,0.0108012920580329,1
0.091503588923948,0.0106525601422483,1
0.0863500588955424,0.010797013271237,1
0.0823532443407754,0.0130833272032318,1
0.0839510301334543,0.0133592656915116,1
0.0805769707203572,0.0104899825929814,1
0.076398875262069,0.00897918562310784,1
0.0703292255966797,0.0213806049919227,1
0.02924465841122,0.00636973661602765,1
0.0226344770263745,0.0224246000512191,1
0.0195774482104442,0.017243490784051,1
0.017573972241731,0.0140279777681986,1
0.0174299864395941,0.0130511206593875,1
0.017873148180228,0.0178737670811099,1
0.0103655265840179,0.00760264780737006,1
0.0102427790996134,0.0117350517011033,1
0.0107558059330105,0.0123461500761798,1
0.0105398049461735,0.0118061503162594,1
0.011014099584788,0.0139698359330792,1
0.0148826081675889,0.0207296999205899,1
0.0163104354621843,0.0202828702717313,1
0.0126648553867932,0.0184523556136839,1
0.0118453573622765,0.0184226690400558,1
0.0115809803353908,0.0166047344385967,1
0.0105618960631722,0.0216924707393422,1
0.00873861216766014,0.00879378733399581,1
0.0265906902110802,0.0185574182983498,1
0.0288301318727994,0.010593509205245,1
0.0296568523773872,0.0101001946724188,1
0.0282422217350773,0.00889870353194728,1
0.0327660901782848,0.0118016900602224,1
0.0353526893890456,0.012303336254106,1
0.0381501861866478,0.0131967000722587,1
0.0420475305024101,0.0153637043725337,1
0.0420319562384714,0.0151970884645936,1
0.0420151081912567,0.0199314057574488,1
0.0124139327718882,0.006249759604176,1
0.00974141178068941,0.0190946925990695,1
0.0107732366546628,0.0267546556442686,1
0.00727804088529863,0.0110252798351552,1
0.0102407477219655,0.0203223023144395,1
0.0130096880307873,0.0269512742241498,1
0.0138794549114497,0.024138288619165,1
0.013737029083326,0.0231729617406464,1
0.0173030639017217,0.0175477782757992,1
0.0252465483942191,0.0253405629468285,1
0.0243706989918776,0.0209861488084697,1
0.0269522484160411,0.0221705793515131,1
0.0347361546502449,0.0267772845700114,1
0.0608464680198567,0.0461670355604629,1
0.0809900882841822,0.0485476133549089,1
0.0859133336054006,0.053457162257984,1
0.0880275448328116,0.0679330817187991,1
0.134091943350651,0.0532452475701091,1
0.18044706462883,0.043975952380217,1
0.189811886896805,0.042830659627436,1
0.19117351834943,0.0372970443552419,1
0.15791623162476,0.0176077124278518,1
0.154508921146307,0.0144574446768203,1
0.155532354977029,0.0146181871152635,1
0.155375790721368,0.015306399865249,1
0.148202186992469,0.0145152722287198,1
0.132532433673169,0.0119719673236311,1
0.189689180687783,0.0208591381555705,1
0.205438916483967,0.0205368979896985,1
0.198672938059925,0.0234114061796877,1
0.192888729177366,0.0248899849317525,1
0.158369854869994,0.0394499907127507,1
0.0762384281659116,0.0283073894213605,1
0.0643847105800008,0.0235210206121981,1
0.0626384834490371,0.0211612023732176,1
0.068763087710302,0.0221896901009089,1
0.0760603048504937,0.0246524007148494,1
0.099508729464743,0.0143332921743355,1
0.205171630987558,0.0337906420604505,1
0.229849696028418,0.023035067203861,1
0.229873969497398,0.0233097506938898,1
0.214573899726587,0.0207305398131748,1
0.197858482697926,0.0170768492053901,1
0.226325026222935,0.0178732803114717,1
0.243584218481604,0.019697769395348,1
0.200961377512568,0.0169781385498167,1
0.128813055366051,0.00995915169865987,1
0.125150634757146,0.0189025396547602,1
0.105435698893175,0.00769006406378291,1
0.123323953205637,0.0133592756399175,1
0.150860784157127,0.00732960582946069,1
0.194546123827754,0.0084936248152778,1
0.195320217816014,0.00939833818527738,1
0.195846427345826,0.0106165486921262,1
0.186760702093728,0.0075805559161465,1
0.219064208719413,0.00931318301538193,1
0.323645910458142,0.0147483092156653,1
0.471224830526161,0.0271692296401161,1
0.586783709864347,0.0362320486673404,1
0.700684466396427,0.0426482697042234,1
0.654268344401593,0.0835666138674519,1
0.484286271799363,0.0796548936659535,1
0.374973379927644,0.0701966112954999,1
0.163310436241606,0.0361892838558605,1
0.078570339458463,0.0330404241494631,1
0.0451150534650528,0.022099214515839,1
0.0714122403652347,0.0348561524104505,1
0.095247476782721,0.0463141133947737,1
0.0885735601336084,0.0489342940682012,1
0.0628134756572525,0.0316656409160713,1
0.0448043819074607,0.024427113799074,1
0.0422062193088283,0.0219695063739183,1
0.0339241256505336,0.0183469257957619,1
0.0350287946155585,0.021129479015621,1
0.0358323329499604,0.0228459801629178,1
0.0400776255519556,0.0285178292809473,1
0.0362378736333461,0.029021943429101,1
0.025896017341429,0.0221414707875175,1
0.0186121127631758,0.0159589927053645,1
0.0160339431965772,0.016166533326789,1
0.0137307156117501,0.0135403755432513,1
0.0146194579665915,0.0156834535717207,1
0.0143293509031252,0.0140344829524428,1
0.0164560774202366,0.011033312169276,1
0.0205333361819047,0.0149898928545511,1
0.0177717769661235,0.0103517338606835,1
0.0179511792797222,0.0141543027293982,1
0.0158905527836346,0.0110067382817015,1
0.0162490385296547,0.00906093285945316,1
0.019336268630822,0.0104173526004505,1
0.0187648056479157,0.00462863320608935,1
0.0225201902561996,0.00340671552647701,1
0.0263181883391456,0.00556836880998699,1
0.0259962911489873,0.00686778944957061,1
0.0371941724933276,0.0110383339566898,1
0.0560019304317988,0.0190029109834904,1
0.05844014483998,0.0173181828720148,1
0.0555012137360335,0.0182695712762949,1
0.0718222594259082,0.0149088658079054,1
0.183559504452896,0.0359278525963737,1
0.180310626797562,0.0294449989801493,1
0.16737762835373,0.0204230644296423,1
0.291887934560741,0.0340277712073172,1
0.332749051772418,0.0380323854706044,1
0.340263885934898,0.0352258473174381,1
0.321198842501322,0.0338603528626247,1
0.260013878008305,0.0311575310952124,1
0.17661943380634,0.0182452779007942,1
0.158396124963794,0.015885740546045,1
0.165055343786824,0.0120095926752898,1
0.140034094280861,0.0129507720156851,1
0.126994011193534,0.0103133030641489,1
0.14160587983504,0.0114248446127999,1
0.132325470982704,0.00945462520684158,1
0.129991627191541,0.00925040072950579,1
0.135418764929768,0.00744412719263279,1
0.204342716591488,0.0106961062750873,1
0.233077411950044,0.011612032393204,1
0.254669146744111,0.0132141959822198,1
0.288498132536588,0.0225517460989542,1
0.217224207546581,0.0123543822620942,1
0.201825308118864,0.0160556714712701,1
0.233567738687562,0.0185396752317257,1
0.231955624006325,0.0118002825009411,1
0.199212280301184,0.0105088042415464,1
0.14710820677642,0.00698961568131384,1
0.132872913663478,0.0119830490548038,1
0.122557005311866,0.012914909539859,1
0.129295413861108,0.0161198805504769,1
0.112445710021021,0.0136755848011272,1
0.104284623385266,0.0141354354037869,1
0.103932208388117,0.0163821106948934,1
0.0583415791622837,0.00762696831066244,1
0.14832591726989,0.033734767062003,1
0.274202335330172,0.0517422820922801,1
0.353295512661143,0.0641799047579154,1
0.424218787809041,0.0669585278144514,1
0.479388676364641,0.0719135073697259,1
0.444312950106263,0.0719685065037051,1
0.339870644714017,0.0529521400129559,1
0.254737337756914,0.0442402191830934,1
0.156958974776118,0.0324992245747211,1
0.0232866683096648,0.000847073364401449,1
0.00940608576127808,0.00794705392453499,1
0.0232459301527046,0.0273015930093434,1
0.0309324257779086,0.0294200038169511,1
0.0310053635628237,0.023970922968975,1
0.0308167833508579,0.0239723332758278,1
0.0329596404886347,0.0254103521203919,1
0.0338146907722306,0.0222612692487953,1
0.0341863215675196,0.0231119066718749,1
0.0331497693442097,0.0240222472096974,1
0.0294171588157377,0.0202781819969756,1
0.0279279748733316,0.0482210673255836,1
0.024476641669506,0.039369793714398,1
0.0229799966032928,0.0464279027943298,1
0.0220797922815987,0.0627807261154058,1
0.0186219817459753,0.0486050590085857,1
0.0115972181899227,0.0311653112254873,1
0.00597026172669897,0.0212244171011307,1
0.00601935089331991,0.0165171595545092,1
0.0113880199702836,0.0176261089879215,1
0.0120595554473672,0.0139223154290359,1
0.0190577700174833,0.0172837995498899,1
0.0257563425179007,0.0207161320283645,1
0.0280952615145213,0.0198987018543955,1
0.0496549113501405,0.0309175692620073,1
0.0458396623974871,0.0155226860053767,1
0.0437847938257085,0.0145939404806729,1
0.0405041403477229,0.013828105502509,1
0.0265520802418293,0.00712791516252421,1
0.0449191475037401,0.0128768250999404,1
0.0469852267380169,0.011328672661834,1
0.0710593713995071,0.00922908598543926,1
0.1308598980553,0.0204414615233708,1
0.13229310722064,0.0212800521615108,1
0.153370558607239,0.0248565991479301,1
0.146299434734483,0.0297140824118269,1
0.153600465922802,0.0208545228169907,1
0.267163772408858,0.037349623478666,1
0.291305711844711,0.0428986871020188,1
0.314974604020352,0.0359580425691659,1
0.275531306885492,0.026813413751747,1
0.233421771161234,0.0254209393338848,1
0.231584021872772,0.0252637028432195,1
0.202280469689563,0.021875804281904,1
0.204599815416319,0.0216384416138732,1
0.17518998726499,0.0194713034298266,1
0.185246165578711,0.0280034028407527,1
0.224714158644372,0.0311519084518583,1
0.246580597338292,0.0258968200776368,1
0.244737916663829,0.0309043780558681,1
0.142505884343536,0.0299621973178959,1
0.112650389230096,0.033109809322385,1
0.099190453626331,0.0139998693705023,1
0.185927167046035,0.0223706191673266,1
0.326310595962267,0.0390650957753338,1
0.385855137478169,0.0360296003032391,1
0.366754313371596,0.0394366525823822,1
0.374218522004818,0.0335643246217565,1
0.387256018872288,0.0352232096727913,1
0.367786560169978,0.0161768720912058,1
0.363402891543023,0.0165112113411444,1
0.27598860889272,0.0135512121136187,1
0.18689200412133,0.0115975346250519,1
0.193611870416824,0.0165700474377334,1
0.187235938071679,0.0169242213036877,1
0.208737576372843,0.0184627199665364,1
0.242873472578865,0.0200365004893366,1
0.194248484836278,0.0239499488306029,1
0.0979780238174439,0.00815671352555317,1
0.0825402258293483,0.00901302151742433,1
0.110355661953784,0.0132349832698075,1
0.19098385216892,0.021246162374649,1
0.356922719576315,0.0361194144255247,1
0.483928832996101,0.0451742977103909,1
0.588961746130235,0.0523682447857406,1
0.575175531128046,0.0602583252445473,1
0.454750182482246,0.0548402146825551,1
0.423260415463229,0.0497658987737673,1
0.359851403638939,0.0632837021864456,1
0.109526066213143,0.0501869562792729,1
0.0407327286701576,0.0199637535353491,1
0.00389277420133808,0.00857418570180139,1
0.00361404109393142,0.0159600458833063,1
0.00396875459289968,0.0158341973492437,1
0.00413620404776637,0.0113030725007799,1
0.0120447387199819,0.0276977030203469,1
0.0139164625515409,0.0204638578114369,1
0.0117400744756805,0.0173595733118878,1
0.0120631085441575,0.0176183315308759,1
0.014112945222101,0.0251055826613709,1
0.0124634399177938,0.017674114930817,1
0.0112201323511595,0.0150706372126663,1
0.0151205219780629,0.0103656844681431,1
0.038386006722332,0.0207660932854883,1
0.0353286368484652,0.0152730511554683,1
0.0452683370476451,0.0169850356635457,1
0.0477686328181335,0.0131554437376347,1
0.0403281450631197,0.0113809293236589,1
0.0381906189686335,0.0110092392418335,1
0.0546513521800383,0.0129728681393377,1
0.0613284765431376,0.0110040462887329,1
0.050061872470046,0.00897015278220529,1
0.049121154673253,0.0080085235444611,1
0.0616749234437665,0.0128073087013788,1
0.069430203445866,0.0161664577523746,1
0.0742336143536692,0.0200779862862689,1
0.0877095297035192,0.029506620566714,1
0.0984047706392887,0.0318612271268625,1
0.100454724487272,0.0227005525725565,1
0.0856717250746228,0.0270763874270675,1
0.0857327097888045,0.0322263787269492,1
0.107734166307868,0.0296861095831466,1
0.133420677059837,0.0204533010948485,1
0.376322175287916,0.0401627739933009,1
0.457018538949764,0.0236485997013834,1
0.44573003923493,0.0228075815837116,1
0.486087701941081,0.0250038051780432,1
0.401116287012646,0.01671060884183,1
0.304875330144684,0.0128929801683295,1
0.268565216434712,0.0104731868672523,1
0.228667613371214,0.00787540792493674,1
0.185539436357111,0.00549539638516338,1
0.129455407791077,0.00431347424761053,1
0.125357324748355,0.00623582375216141,1
0.12044338047865,0.00700444878878824,1
0.146523852868634,0.0132916275931971,1
0.135396955069075,0.00642477482447269,1
0.16081657452364,0.0124298788334544,1
0.146295909204652,0.00958259816074157,1
0.163413960543656,0.0105284957620899,1
0.196785406170187,0.0128484252893631,1
0.233388542323483,0.0142079083997241,1
0.225607185016746,0.0114794322940737,1
0.197880632789663,0.00905946148683067,1
0.191070225819423,0.015157107567155,1
0.161759452850703,0.0089995856453924,1
0.149795777244056,0.0146297682901696,1
0.111541636744583,0.009211421006163,1
0.101029098117339,0.00766550850853122,1
0.108504315883416,0.0104543799177043,1
0.108971601753693,0.0119234305912426,1
0.080655476374065,0.00535844801175383,1
0.107628040286518,0.00993109612397333,1
0.128307316013571,0.0134875222386922,1
0.134409995029312,0.00813147442075959,1
0.170334606016537,0.0135079999717201,1
0.175350194019463,0.0112733084843734,1
0.164671547908276,0.0109881134189473,1
0.167062171084437,0.0120314420655091,1
0.175990596505495,0.0120593036667412,1
0.172505679458634,0.00921491518877122,1
0.196472281785483,0.0124860745174551,1
0.304197313564134,0.0208586186655916,1
0.3932966052143,0.0252796945858318,1
0.46823127220481,0.045513931684568,1
0.391191440842152,0.0411173003065303,1
0.385853780505509,0.0501212217337176,1
0.359623412608288,0.0465520912943842,1
0.305272181687719,0.0466919657172472,1
0.10110001306006,0.0202560159679601,1
0.0636352274938119,0.0323599125063012,1
0.0505754700133127,0.0348684183252145,1
0.0487726719335526,0.0391824113647945,1
0.0485308233490213,0.0385850488698646,1
0.0543679506056398,0.0250635713948657,1
0.0495735888407581,0.0115500412169688,1
0.0452176761152205,0.0102894081548572,1
0.0479961939444464,0.0116881544303227,1
0.058073942753409,0.0141510904673371,1
0.0564787266465131,0.0146144668915067,1
0.0515988994571845,0.00607506607413057,1
0.0952812834871559,0.0156837544027375,1
0.0968471021895111,0.014903667251556,1
0.131885331755072,0.0170407554319,1
0.158105416486962,0.0177661212579815,1
0.157103833246768,0.0199442454171615,1
0.140189470293628,0.0172790635308674,1
0.127887087332484,0.0149979182311157,1
0.10086561721148,0.0115000199449728,1
0.0927073622584212,0.00974732392669301,1
0.0888376477805353,0.0136317826075055,1
0.0797029819448638,0.0116466498098422,1
0.0987893185771234,0.01584456856127,1
0.0837746691976881,0.0216734380896107,1
0.0504631407746684,0.0188625572548066,1
0.053011710881292,0.0262629917189032,1
0.0479057623241261,0.0302837961701562,1
0.0514875220163535,0.0355724798865289,1
0.0490320337787822,0.0330515735322585,1
0.0434593826575196,0.0427771659236166,1
0.0129636188563952,0.0198832328899823,1
0.0100625583348474,0.0245200802098274,1
0.0323676293331915,0.0551476880635266,1
0.0589330918946169,0.0932211168250854,1
0.0973412428916736,0.0897759037028157,1
0.130216442284202,0.0856222350309174,1
0.165447344237278,0.0905755638556667,1
0.154354110469771,0.0572239342842736,1
0.202571012768509,0.023197578836413,1
0.414471173094726,0.0436000399923649,1
0.477290931292368,0.0425592599681208,1
0.395853224876619,0.0329023610601172,1
0.337515827347982,0.0299007997938008,1
0.319734709818767,0.0243994863445702,1
0.315384004121518,0.0214983417902597,1
0.263997377665244,0.0192658898062125,1
0.222985741675611,0.0152300837812948,1
0.147438454957935,0.0090601450531156,1
0.111344036280671,0.0222176740997873,1
0.0786310789197726,0.0154324112113828,1
0.0595356758135507,0.0127787926797774,1
0.0658695314243851,0.0176030121012047,1
0.0662746001404777,0.0153315930431907,1
0.0693299208067889,0.0256271953390463,1
0.0684507333440846,0.0262424722007726,1
0.0824675515304901,0.021771867702386,1
0.153516239685794,0.0376280486828965,1
0.212143435837861,0.0508033938327002,1
0.22646125405787,0.0480804751160434,1
0.190905791822338,0.038847975730168,1
0.151813265474493,0.0314305583489759,1
0.139382429949831,0.0267663047133392,1
0.108553844983523,0.00990772476578203,1
0.127245556555594,0.0156921317597318,1
0.125804721284429,0.0124267600936217,1
0.118086723815198,0.0149248124400488,1
0.106652661507729,0.0129465841017412,1
0.0889543123694254,0.00994471138955994,1
0.0783851274878581,0.00897679072990573,1
0.0938442297797722,0.0113207016216315,1
0.109688889182523,0.0136662061236084,1
0.0885725068130851,0.00946717698163032,1
0.083471677510016,0.0185170885228945,1
0.101339313610648,0.0119205626915112,1
0.192261551381167,0.0260954303206429,1
0.26120643660809,0.0326831981065471,1
0.284207367857222,0.0331051401206713,1
0.333288514312795,0.0388951292460119,1
0.361918176491883,0.0408090323799827,1
0.291985743882564,0.0370548888213863,1
0.172575578166353,0.0237066797192777,1
0.13204149604808,0.0198478117011746,1
0.0717016933508591,0.00502506417479512,1
0.0857958085701828,0.0289929672007366,1
0.0836195732031162,0.0207817240705231,1
0.0860021559169796,0.0159798123403579,1
0.114222641827014,0.0222859269454093,1
0.102572223029332,0.0186660347048459,1
0.0791904317996403,0.0132536895120369,1
0.0674326621493152,0.011974074788053,1
0.0623196873765527,0.0103444793796645,1
0.0582604985583015,0.00913841703440006,1
0.0797739695281311,0.00702985104662026,1
0.110875342767175,0.00908267352615906,1
0.106492862571388,0.0108765942880132,1
0.103650540270821,0.0132094492806213,1
0.0977561522713835,0.0114006840328362,1
0.103034969926823,0.0128543493183505,1
0.120195684593162,0.0150844215778738,1
0.122445799398947,0.01176615912434,1
0.11589025977544,0.0117610228647186,1
0.0991295424511601,0.00926159648540476,1
0.0920703438404436,0.018039504009446,1
0.0833592376139103,0.0249090923487558,1
0.108060668711319,0.0293451036607568,1
0.117439939573096,0.0315322824044037,1
0.135278739965269,0.0361833227660425,1
0.151779391724062,0.0444163611158326,1
0.125207936912195,0.0550576840323804,1
0.0866733220072595,0.0651187260855709,1
0.0727215518754904,0.0486476462918172,1
0.0414013961381205,0.0336780119763389,1
0.0226763222777342,0.0190308448651524,1
0.0175557391808234,0.0188022134755087,1
0.0186882422604762,0.0132593751948718,1
0.0209776169210728,0.0139739138617999,1
0.0234486923574761,0.0157552100289104,1
0.0481273236483315,0.0299855314117081,1
0.0876301979599116,0.0405741166171322,1
0.151305563742633,0.0606851079056585,1
0.191609444576798,0.0703099004314201,1
0.245541425227967,0.0856293826873054,1
0.271911150404631,0.0598689904452684,1
0.240664285347325,0.0452766056393856,1
0.366819652931822,0.0397781833022239,1
0.540833701225577,0.0501345363764218,1
0.474327270706777,0.039608811985988,1
0.394705988870466,0.0346442252265506,1
0.312782467684165,0.0300409373427461,1
0.275674963113505,0.0218878439580009,1
0.248904790651809,0.0194495364244227,1
0.238320651437878,0.0157472066078721,1
0.31564704233823,0.0207082132927307,1
0.292595209810244,0.0208960293373147,1
0.28557349385425,0.0363464482715876,1
0.176330977503358,0.0229163544198861,1
0.151458927347276,0.0161799842372132,1
0.228473384373041,0.0235709838062212,1
0.272501958044653,0.0272146671152825,1
0.278414469075116,0.0253364739482824,1
0.253999034751467,0.0243579661694287,1
0.196883375502504,0.0205505805271311,1
0.25611952358222,0.0214987189549583,1
0.377891626228469,0.0323784261499095,1
0.393537083965755,0.030144902779046,1
0.40996285603519,0.0309976258190195,1
0.415885523777919,0.0398646894226267,1
0.393505049727744,0.0436876283860967,1
0.283771519711737,0.0324889678101825,1
0.15803643990461,0.0189155080712532,1
0.116125171245392,0.0115253995140643,1
0.0859751638203448,0.00800768969482527,1
0.0901362426292996,0.00966723718483362,1
0.0855208848293439,0.0099146247139166,1
0.0817882204971663,0.0138664388341686,1
0.090956330932799,0.0191907782967707,1
0.179352565328107,0.0265659438068585,1
0.355021717186508,0.0475703191521622,1
0.464192834384476,0.056428260620266,1
0.546089807946433,0.0617270276346978,1
0.473515325378368,0.0759773598109972,1
0.374536833774705,0.0612683239920077,1
0.298176471488104,0.0579304371432193,1
0.256166683480127,0.0373559305557775,1
0.196490490776631,0.0271216222456897,1
0.161888535154613,0.0111122864921194,1
0.423159821576962,0.0387267299112756,1
0.410032399157793,0.0217295510452894,1
0.360087854702297,0.0193838788452545,1
0.320164563253761,0.0164928463435109,1
0.300554350195253,0.0150270697984065,1
0.271881066561093,0.0132757555858656,1
0.235205834925707,0.010981622347629,1
0.22317882803172,0.0113876427151127,1
0.235047825140561,0.0124985318272527,1
0.235461140930333,0.0173944142149143,1
0.0523554956263696,0,1
0.0358137783172302,0.00965009045145132,1
0.0403126018341892,0.0059128356134755,1
0.0489420382861889,0.0108539261597401,1
0.0424339972712076,0.0110046850558473,1
0.0418675380537457,0.0109020903059218,1
0.0627827494159972,0.0137889809581589,1
0.0753696381961718,0.00658454362177904,1
0.102527244788615,0.0100263723418011,1
0.105659782667627,0.0109167534458711,1
0.119643129290671,0.0133580413272325,1
0.127090408796462,0.0149648312697878,1
0.137585665136341,0.0215690505915654,1
0.113610322182729,0.0173936129366731,1
0.123536317612656,0.0177025988779857,1
0.128512680913293,0.0183068159838234,1
0.0465411573157125,0.00462477948936512,1
0.0288234058351895,0.020811879150018,1
0.0307197791416442,0.0258106350503191,1
0.033314114752413,0.0155465660197288,1
0.060974183617735,0.0274330545329733,1
0.11662276793996,0.0430305071646823,1
0.136765583660758,0.0455102495196594,1
0.196635654838131,0.0608658721851996,1
0.21770110938399,0.0665547318516994,1
0.20569367946258,0.0673199662652521,1
0.201811868235322,0.0633609606591726,1
0.217793593970362,0.0627684699016251,1
0.264760568424592,0.0685493851553639,1
0.286021533401092,0.0679026911512997,1
0.269306591418248,0.0504663751248764,1
0.246915770207667,0.0509354590357155,1
0.192811875411653,0.0449694665870292,1
0.179771445741278,0.0446351767374688,1
0.145881061450715,0.0177752335741209,1
0.167487463852578,0.0172427296995422,1
0.234055790515752,0.0271547817284164,1
0.298476880188819,0.0402080209976944,1
0.311596148162644,0.0474463422357385,1
0.32888823438936,0.0478437006495097,1
0.301994946892316,0.0241771012263144,1
0.344450770517518,0.0182563347020562,1
0.471383761816649,0.0257253925455414,1
0.490833580639497,0.0231181214827297,1
0.468949504846432,0.0135051416652204,1
0.564918707386765,0.0158489950872376,1
0.622942922273511,0.014818726889093,1
0.62575913623143,0.0165603172768038,1
0.672324462233493,0.0183519023263565,1
0.665881740274164,0.0104280163892277,1
0.751228933339027,0.0168907182365725,1
0.729263580140868,0.0150588634154921,1
0.542783256145475,0.0108117549979719,1
0.412094024179163,0.00741226191954717,1
0.400141953241291,0.0127095352514363,1
0.395880523440292,0.0149086982804922,1
0.364506001963712,0.0131141237941266,1
0.382892820374338,0.0140732884048192,1
0.321216572131278,0.00514189575389415,1
0.442194351533837,0.0147936629843919,1
0.450489911047926,0.0156258453054179,1
0.425639218531201,0.0171646140691172,1
0.479574543694878,0.019757260995366,1
0.527842575580921,0.0218507056665931,1
0.576000924884651,0.0251506031349616,1
0.482008572892216,0.0229705983680166,1
0.373408025487508,0.01923491102655,1
0.198119708724248,0.0104695336111178,1
0.0301406098588596,0.00966084289385831,1
0.0312024632278343,0.00680050362705909,1
0.0837623644263354,0.0195682129682381,1
0.086394640941303,0.0153318623486984,1
0.15047544938897,0.00963109161818496,1
0.373627564109368,0.0273400601740405,1
0.410535082137095,0.0275715793246513,1
0.418534241137441,0.0281014903402115,1
0.392641001825893,0.0271829126822388,1
0.343558709065155,0.0222858820400463,1
0.265870670651861,0.0167660874305383,1
0.191446791237584,0.0128777100027723,1
0.185845654852357,0.0132288363909804,1
0.157456463325088,0.0116728777613185,1
0.153686991200398,0.0354834353242085,1
0.0856171414153207,0.0246348131025467,1
0.0875140957930798,0.0262578173182763,1
0.0817440627606122,0.0241998659522214,1
0.062117594797005,0.0130908839449464,1
0.0934889259697645,0.0164646508203417,1
0.108063488417439,0.00569306351549889,1
0.149043176304189,0.00992690355623965,1
0.157538312256582,0.0112430046126719,1
0.190650878719915,0.0140237284853214,1
0.213702360923983,0.013900062459868,1
0.202028650613178,0.0124509027125836,1
0.201862599410615,0.0130446044772007,1
0.202464653596962,0.0125852638070199,1
0.207761800803867,0.0149483728406981,1
0.0959680034749076,0.00588310826286719,1
0.0573123032259465,0.00695409005905566,1
0.12498937058168,0.0191446785013567,1
0.138557945245981,0.0203972663185594,1
0.164821638408948,0.0261682848273782,1
0.159013957654706,0.0273960020278263,1
0.232973691907083,0.0324851314226448,1
0.344468394451464,0.0421950156749651,1
0.343342896485861,0.0216393482939252,1
0.289497614236941,0.0189745414194975,1
0.232166841989636,0.0133999230633045,1
0.193623195144302,0.0133945799894976,1
0.196752177413789,0.0128761289132489,1
0.173155268444633,0.00961024410182553,1
0.200513470000946,0.0117021012695504,1
0.216318341755108,0.0124000713408882,1
0.253066553130184,0.0182513995314048,1
0.235472724981416,0.0154848391571788,1
0.226191948768348,0.0294116773874807,1
0.216285951412001,0.0248414818755291,1
0.253426278190902,0.0398918008116152,1
0.201611876418406,0.0378547769409805,1
0.143939498951024,0.0257828040790932,1
0.0767927330692807,0.0161951728811745,1
0.0674046817706773,0.0139241510828474,1
0.0470918467100122,0.00721265101157007,1
0.0451214315407833,0.0148004424841571,1
0.0881478846530829,0.0143124176658903,1
0.127801350690757,0.0144899392762645,1
0.123193591044113,0.0160486627707621,1
0.153548318552567,0.0197280235129102,1
0.145531819860808,0.0102229926241643,1
0.137573661928005,0.0105182540262614,1
0.13255086094236,0.00967771028383228,1
0.112032047601036,0.00720169892658825,1
0.109698435427056,0.00645062940362406,1
0.106099495446766,0.00449366030359157,1
0.111627610743801,0.00835752205250562,1
0.11527259310757,0.01425382528095,1
0.114187217823255,0.0124614357119681,1
0.100625526716405,0.0138117689215089,1
0.0922658315069392,0.0297913191344221,1
0.0885315451424505,0.0103307102551208,1
0.122681457254412,0.0167275116366619,1
0.149167277329233,0.0236290553842223,1
0.136728077280766,0.0133964654341863,1
0.187198345573507,0.01770760404229,1
0.306889457790313,0.0303131037613456,1
0.388550275669024,0.0360023094008646,1
0.453502501730914,0.0403706587457459,1
0.463106841413921,0.0374424909844492,1
0.476017366932063,0.036211472776377,1
0.435948794245014,0.0491194262426107,1
0.306588393385573,0.0333484364069544,1
0.183819007822466,0.014148583786977,1
0.121156324134222,0.0162641365904771,1
0.118154336734595,0.0221310520594738,1
0.111025767739892,0.0195076999182084,1
0.0973372941112879,0.014885273532265,1
0.0790416303428575,0.00964351168830586,1
0.0899449733399034,0.0127075580864029,1
0.0997690608697058,0.00881954952975706,1
0.13559885422549,0.0157263530580482,1
0.120585395807003,0.00938135666149922,1
0.106640414131805,0.0109256031987259,1
0.103075854010179,0.00978578653488911,1
0.1294998525502,0.00704705086981601,1
0.20672352799772,0.0171814034146448,1
0.248083985709623,0.0230065267085231,1
0.250074122733798,0.0191368627746614,1
0.1954306486351,0.0151039274689199,1
0.187714183068342,0.0202224754873294,1
0.192281067057063,0.0199800172897227,1
0.180775879269543,0.0263387438661102,1
0.153040148279527,0.0223513233759081,1
0.141748192232736,0.0199250497694821,1
0.158346011206954,0.0497215455020887,1
0.141607672909955,0.043261588026857,1
0.133837944778249,0.0404224616985835,1
0.121555306059069,0.0579206563668005,1
0.134645100009947,0.06257775698727,1
0.114988849204389,0.0618681950437682,1
0.111255367161645,0.0678140599793564,1
0.0962016300094773,0.0602019198089353,1
0.065910133563133,0.0480996755348312,1
0.0362259827252163,0.0376217774772227,1
0.0322733209262783,0.0385284624650921,1
0.0474245004992756,0.119083990353824,1
0.0469402775712236,0.0789739431010279,1
0.0968706891986725,0.0417881238656495,1
0.156689653194836,0.0599609929979356,1
0.254627658835861,0.073974501658103,1
0.328634015382098,0.0870160555922729,1
0.48860749131356,0.0949604664781407,1
0.580889800567144,0.096385100544084,1
0.626364850970217,0.102356735929713,1
0.557337453772953,0.0780717777594411,1
0.432508070623868,0.0557624072159646,1
0.240272859274394,0.0367980595064999,1
0.164534627277886,0.0359902456657061,1
0.149275534397259,0.0346064247021703,1
0.178554261294922,0.0461425040852372,1
0.253250775982402,0.0587327551585297,1
0.275594667112426,0.105660609124862,1
0.311786203524824,0.085974036989465,1
0.295279313137531,0.0567671429110456,1
0.208252873356751,0.0427387729234545,1
0.193458289369844,0.0415848322032008,1
0.182107440139128,0.040894356730747,1
0.142859344731253,0.0294472223965128,1
0.109559989963361,0.0238771455945159,1
0.0691451692230101,0.0143460977536796,1
0.0580672769516985,0.0115346560041201,1
0.0453971793658861,0.00790790170740113,1
0.0399313672779735,0.0122019981928415,1
0.0472120823074371,0.0096944985470664,1
0.109558294710283,0.0281741800580259,1
0.129633805009287,0.032160075840137,1
0.127863787187738,0.0216264645905073,1
0.110481965106016,0.0147008793500445,1
0.184389751227915,0.0195709826281103,1
0.193181669481144,0.012200109421062,1
0.187006025261706,0.0104994522302414,1
0.192909572849912,0.0100422492123201,1
0.277835057014907,0.00459751428707443,1
0.550961923723832,0.0159970325895415,1
0.590886225960513,0.00720722548281344,1
0.647013158342195,0.00872679272895721,1
0.715565071041743,0.010190447934152,1
0.753389310590793,0.0111471499937428,1
0.758876704791314,0.0121877912099359,1
0.83433177231872,0.0148820083554137,1
0.938796689103682,0.0172529555671279,1
1,0.0177834601152712,1
0.855934801901387,0.0384073811741873,1
0.233252289741817,0.00739937290971041,1
0.057898316434609,0.0285495626660826,1
0.0495956142110803,0.0185727791813567,1
0.0466256755152422,0.0199336524435604,1
0.0666270121121762,0.0214665264776492,1
0.064683419298525,0.0153839913120975,1
0.0692901268224683,0.013777078271889,1
0.0867499017048597,0.0139713363920554,1
0.075004674918749,0.00998393646055442,1
0.0677595654162075,0.00753578372762946,1
0.0677573383230224,0.00678526604856773,1
0.0578385991950881,0.00429823346954505,1
0.118420016029066,0.0105896265403228,1
0.120449824848929,0.00478053810383036,1
0.119409399780858,0.00550797292213238,1
0.112098999875198,0.00650671519011127,1
0.116129984926943,0.00708626692636028,1
0.118936075620778,0.00840891120841863,1
0.102842484450735,0.00500392575609473,1
0.135525563109802,0.0091266975634579,1
0.137530594680108,0.00867347504495132,1
0.127285883803017,0.00807996402236179,1
0.0882317405787718,0.00643136729829594,1
0.0738743824431444,0.0113890982259056,1
0.0959639842469156,0.0157688458527466,1
0.113572773210021,0.0178925953995886,1
0.107612961713787,0.024301925296234,1
0.115336244700923,0.0253100005667503,1
0.126040788216088,0.0397632314825794,1
0.15860461535399,0.0493134068627596,1
0.155767325840298,0.0870277332875373,1
0.115258501197534,0.0727346193896708,1
0.0880837495551649,0.0597750019917824,1
0.0418093080806717,0.0320491595864671,1
0.0299600818951711,0.038737190217419,1
0.0213080415547622,0.0263883330207246,1
0.0209952063630029,0.047433678428672,1
0.0415170287903478,0.0269314954062309,1
0.164061161919071,0.0549434791408486,1
0.253066909273148,0.0575820769102968,1
0.271938187700175,0.0611970904278234,1
0.305670179414761,0.0593167649905003,1
0.355117731147791,0.0658917590101798,1
0.40069392249214,0.0401878737898545,1
0.328847568346866,0.0261921955760423,1
0.262421824816072,0.018329966257306,1
0.21559059921862,0.0127154120165015,1
0.209218534739545,0.0135962838257339,1
0.235723146129359,0.0156967080703359,1
0.237996893377879,0.0110840131186875,1
0.26776091947886,0.0125186465991006,1
0.279595357171512,0.0139860743891029,1
0.271514297748516,0.0139545189910938,1
0.26011157117322,0.0133015217745007,1
0.280915589188841,0.0142871227900333,1
0.289770892509194,0.0238562234431347,1
0.312953527338769,0.0362188952069963,1
0.238446454355837,0.0259257436985221,1
0.115260033697369,0.010265277749772,1
0.0823485474393515,0.011782188705381,1
0.128501083284534,0.0190709256465926,1
0.143408595593566,0.0125156542286695,1
0.135301891355739,0.0114161615359041,1
0.171913990171951,0.0116086090408505,1
0.21199502998642,0.0140472797797961,1
0.226713601658269,0.0149183006362736,1
0.194180925922709,0.0150211001417681,1
0.133340345641452,0.00931742200733212,1
0.111284672284276,0.00694462685947735,1
0.104378932628563,0.00720005118228963,1
0.0983665899790485,0.00716952650346947,1
0.0958367916844528,0.0112280687968445,1
0.0794533380891175,0.00915885674178631,1
0.0954734467642307,0.0354742783005448,1
0.132694320343015,0.0380331228797847,1
0.183926038932464,0.0409448293761236,1
0.180966439906672,0.0400314018722119,1
0.225836949243285,0.0423164860307166,1
0.243088848361306,0.0541741085339485,1
0.21590757534925,0.050140921957009,1
0.15829456870279,0.0413216837278115,1
0.073690011728916,0.0226902630466959,1
0.0710806709678209,0.0158340674225593,1
0.0840200217284877,0.0177275351608691,1
0.0871995998988519,0.0267814963912872,1
0.107786841910894,0.0313726180025053,1
0.114459719224409,0.0227755699074459,1
0.107890185872883,0.0218697324590938,1
0.108854103706959,0.020990040092862,1
0.0896291196785676,0.00942669384863654,1
0.0991204563113329,0.010762696646884,1
0.0868093007944096,0.00825748183750258,1
0.0970141419480619,0.00757224955698655,1
0.124538554210236,0.0101242760744748,1
0.128353397408792,0.00900829217720489,1
0.124082593815204,0.00809103312274568,1
0.12701833465281,0.0103849679283942,1
0.125225981383388,0.0109180720939613,1
0.115537528918109,0.00945019576406692,1
0.110198898767409,0.0134794630557384,1
0.0898663694751237,0.00859777688995795,1
0.096528465244843,0.00962969878787666,1
0.090356419167987,0.0121545346559531,1
0.0844463834415289,0.00924646947846166,1
0.0887944020225295,0.0102097561556999,1
0.148612578844074,0.0091578275491731,1
0.258306699762006,0.0136731729728311,1
0.258599915474765,0.0129437723029961,1
0.302358920329637,0.0138835418807564,1
0.275823255464303,0.0101481280615865,1
0.235475039811894,0.00639232410606546,1
0.241190892541769,0.00469008817129096,1
0.24128986988752,0.00474644552633452,1
0.306759484863532,0.00870561191458362,1
0.410768086593636,0.0128832050243704,1
0.439554598577018,0.0203905514116495,1
0.356417729176124,0.0185171761204746,1
0.35803187691688,0.0192115514457393,1
0.265780794209718,0.0168890797472941,1
0.272104107719881,0.0161124073585341,1
0.218687554784813,0.0163586523906446,1
0.160519021925394,0.0254818983894063,1
0.164164491162798,0.023900245818981,1
0.308919436320533,0.0336824689705467,1
0.315446307618571,0.0254271290356601,1
0.256318834777635,0.0167699606052319,1
0.237165654515389,0.0151399002692641,1
0.214837636194521,0.0119452756485903,1
0.209782210154954,0.0116198159731166,1
0.206143929098915,0.0139214399809218,1
0.297406857396976,0.0184191919272919,1
0.274367717285802,0.0148848430756265,1
0.233784549050183,0.0125637219836977,1
0.203021087866686,0.0129597277911838,1
0.226809845823715,0.0171164022604944,1
0.22168947499472,0.0189060310366503,1
0.127814893172415,0.0095430550213724,1
0.0977524518075757,0.00604290160699011,1
0.110608034783317,0.0073228183226122,1
0.127446278778212,0.00850541282702742,1
0.135079521694257,0.0129599228497863,1
0.126820629552509,0.0144729422739105,1
0.157962539914153,0.0160056318274077,1
0.222057483247511,0.0278340932400307,1
0.185475318434986,0.0179775143311987,1
0.197771525988497,0.012010228380397,1
0.300429507850067,0.0175440322525831,1
0.283553923566017,0.0122757674022258,1
0.284496284151113,0.0114841755191525,1
0.295709073808698,0.0113462948386531,1
0.344986598810479,0.0143286531222617,1
0.341460140241196,0.012860022551735,1
0.348184234924439,0.0149970001467063,1
0.365478104026954,0.0157171472806923,1
0.35930338071356,0.013985869543317,1
0.295468125098297,0.0201679702943567,1
0.127117998641811,0.00784087767190452,1
0.113421948792888,0.0144759342768357,1
0.112349844668451,0.011916572782743,1
0.117759594975438,0.0175595930096927,1
0.103237295265591,0.0157700203455847,1
0.106855111653913,0.0155132828053328,1
0.120739332833757,0.0209085848592287,1
0.0989069718925512,0.0110133238047289,1
0.101187492844709,0.0254909264637845,1
0.100595326355877,0.0225298925365712,1
0.0947464945665958,0.0177973620144365,1
0.0821063538032385,0.0145593428821489,1
0.0838146996482029,0.0174875767395035,1
0.0842636410955381,0.0137757029993974,1
0.0916603971750969,0.0149921021925559,1
0.10072571710069,0.021996157498482,1
0.0679583411845367,0.0197652919599678,1
0.0567010512251112,0.023060018272095,1
0.0553895612384604,0.0221796790261536,1
0.0536677223652056,0.0236932976041096,1
0.0569261312195606,0.0218807710620856,1
0.0724124167629534,0.0258901057310475,1
0.0507654435339496,0.0277391656049425,1
0.0382826066149375,0.0339988882447183,1
0.037388841667011,0.031595086746203,1
0.0339662370358854,0.0264772849831743,1
0.0341966762690352,0.030529043321798,1
0.0361659931243442,0.0388491914909409,1
0.032349917852841,0.0378364704715662,1
0.0124856086187782,0.0171552290813941,1
0.00191020907213161,0.040726606424524,1
0.00187013236444398,0.0553191625927682,1
0.0019469858706027,0.0590392919662152,1
0.00198455016183998,0.0612397708553545,1
0.00196096459184743,0.0735107121371296,1
0.000920153456753287,0.0737366703266332,1
0.000142693371552077,0.0983655350937676,1
0.000170645379871627,0.132388865060991,1
0.000195115486968282,0.145102444187372,1
0.000207114018005006,0.1849279220954,1
0.00020594318731038,0.197004435597349,1
0.000235268067425247,0.21192550658025,1
0.000234907738184783,0.209028211730936,1
0.000240599103355266,0.230816297841707,1
0.000110683056479224,0.257139026102111,1
3.14204224189116e-05,0.399963129129534,0
2.76829648045783e-05,0.400655945863387,0
2.89213313550803e-05,0.424102459741827,0
3.06376408484962e-05,0.468316786045812,0
2.13838116998299e-05,0.433577257530618,0
2.27713999168207e-05,0.543621764173046,0
2.41490404359324e-05,0.646481431076532,0
1.461636864003e-05,0.82932686056804,0
1.1019361219463e-05,0.924399418517271,0
4.47722140087241e-06,0.617890755953244,0
3.14703626437531e-06,0.594801195642288,0
1.89565772913092e-06,0.477010555888728,0
2.99937366520413e-06,0.337812196496312,0
1.6038076974566e-05,0.647242789006845,0
1.78669695682656e-05,0.510940684509748,0
1.78793039039819e-05,0.497093767817759,0
1.87024444761226e-05,0.499250077731778,0
1.89368372405618e-05,0.466514648750173,0
1.82931457234352e-05,0.432271714846753,0
1.93990786187559e-05,0.436918650503201,0
2.11341293642334e-05,0.451019158509072,0
2.07664629774838e-05,0.451253876172289,0
2.09592564981758e-05,0.637689650224224,0
1.06330828734129e-05,0.535971298438891,0
8.53530724272278e-06,0.663872003610183,0
9.41653028765626e-06,0.765897630663255,0
5.95933298905173e-06,0.68598411181693,0
1.03733587031856e-06,0.364858469113858,0
8.59666600376796e-07,0.459775700327861,0
9.34990722898945e-07,0.484274378600897,0
9.21028557422799e-07,0.483402561316282,0
2.59800486853379e-07,0.322563695003841,0
6.69865504953566e-07,0.454885362967532,0
1.29336546357794e-06,0.505521631805185,0
1.40160568296625e-06,0.517962092826555,0
1.33700917937585e-06,0.498497889426657,0
1.40969640751019e-06,0.50005030770688,0
1.41566566543772e-06,0.481026309744891,0
1.45865090821464e-06,0.479791302313391,0
1.43423898218256e-06,0.467912394522481,0
1.42085209685713e-06,0.458603294128441,0
1.65481417597137e-06,0.49187862960131,0
1.68856588178373e-06,0.516446608166639,0
1.33694496881358e-06,0.46904231827478,0
1.32760296151756e-06,0.483574935544931,0
1.33418895075819e-06,0.4689877967955,0
1.40926175139632e-06,0.424610243404774,0
2.15366603430264e-06,0.503680004832954,0
2.11186854165509e-06,0.491843523420052,0
2.28512868632049e-06,0.516180758212864,0
2.34315673025062e-06,0.52492773484316,0
1.8047255007014e-06,0.480559636999794,0
7.69960377238171e-07,0.334804061176152,0
7.0694618460778e-07,0.341581808705342,0
7.31213709511117e-07,0.333279107081546,0
5.96017450575705e-07,0.323000418790725,0
4.88153778195136e-07,0.347002524798295,0
1.58719696734715e-07,0.258333941762852,0
2.78381357782014e-07,0.316614528710219,0
3.33306181747605e-07,0.313949315318282,0
4.91617758860245e-07,0.360422432110878,0
6.55500933917444e-07,0.394561599927371,0
7.76883592991387e-07,0.41530552115003,0
7.62807630515727e-07,0.427149122475559,0
7.46264258545142e-07,0.442275305886949,0
9.02366236897067e-07,0.479460765955045,0
8.9114498110871e-07,0.478707994492049,0
8.58277792740211e-07,0.485422290025692,0
7.05485321679591e-07,0.427741641822104,0
6.35500263828955e-07,0.419306519752551,0
5.32235346107764e-07,0.384438276291253,0
7.91360895693407e-07,0.439669178251695,0
9.08810924161278e-07,0.457043285608509,0
9.44467155927148e-07,0.477460117840133,0
9.05707897893767e-07,0.47058122194037,0
7.0491304383269e-07,0.43101932621925,0
6.19526070552944e-07,0.422130344159598,0
6.33347127749699e-07,0.416737899867841,0
1.23064239756927e-06,0.488018431911723,0
2.1702555061641e-06,0.668177049346777,0
3.03793641761027e-06,0.719172184137585,0
3.18696070683518e-06,0.7179856013193,0
3.53358539886e-06,0.728424868082894,0
3.79703261951727e-06,0.700314373926043,0
3.91523273969681e-06,0.577779909772848,0
3.93463343326447e-06,0.507682050109078,0
3.79686836444393e-06,0.485683218741413,0
3.57435697523877e-06,0.472807219281959,0
3.74978371792634e-06,0.5211927548227,0
3.33266231737139e-06,0.471604448138609,0
2.76035851506906e-06,0.42450457821648,0
2.95418918645709e-06,0.446247703339274,0
2.5655821179787e-06,0.408587195597912,0
2.47927547124589e-06,0.396563658285498,0
2.17036271746491e-06,0.449055307726799,0
1.07487047894018e-06,0.371626688246049,0
1.05148475972242e-06,0.385275784047214,0
1.10367254794063e-06,0.371390940596082,0
1.36472770724393e-06,0.399674048816559,0
1.26144177339602e-06,0.41301378418805,0
1.11478756091327e-06,0.414825073565728,0
9.68080759689466e-07,0.39879679426182,0
8.46524935479246e-07,0.400782692721539,0
8.2434352748609e-07,0.450177415943879,0
7.66285266820777e-07,0.419421454667274,0
7.41207991523473e-07,0.412330504423607,0
7.1579039056125e-07,0.398756958472443,0
7.15739157699343e-07,0.442479798196272,0
5.24385871202785e-07,0.373088932021737,0
4.57505098650293e-07,0.342681015501296,0
4.82475259495291e-07,0.349361580807683,0
4.9166860432811e-07,0.338549041711928,0
4.89088075773247e-07,0.335023645277279,0
2.86794103622445e-07,0.274635911667947,0
1.96797819195705e-07,0.2476752313406,0
6.77901316392213e-07,0.351828821925149,0
2.66072299526843e-06,0.606830940745994,0
2.80150014960539e-06,0.582406139268492,0
2.4688459520286e-06,0.56301448648002,0
2.47540918186932e-06,0.570782594689619,0
2.14479471076631e-06,0.534642080267007,0
2.607424548335e-06,0.591759889089377,0
2.56122006107831e-06,0.601001053313034,0
2.54596496799069e-06,0.602912790602222,0
2.94090960928099e-06,0.654047462022904,0
3.14250375409692e-06,0.724569284150146,0
1.39402196037332e-06,0.556999401605856,0
9.5217784691698e-07,0.500108114172175,0
6.87269666483005e-07,0.433696585794891,0
2.88152985069369e-07,0.306676897719744,0
1.76771774797538e-07,0.272374639234175,0
1.4513921123735e-07,0.269802489771689,0
1.63530743328501e-07,0.278835559383052,0
1.49078524390628e-07,0.264011169351604,0
1.23926578891943e-07,0.23861400336533,0
3.17484621723704e-07,0.270751265519333,0
1.09284062316336e-06,0.377076239188053,0
1.07304478767399e-06,0.332468754802097,0
1.09675436830994e-06,0.327650936099027,0
1.47941765001899e-06,0.366144575347039,0
1.90977514276896e-06,0.413918781541208,0
2.44562245406545e-06,0.46337127254188,0
2.54092574630682e-06,0.440937357428101,0
2.78326735222249e-06,0.447226824929986,0
2.79581117126644e-06,0.452064361644805,0
2.69851105644131e-06,0.476335255914474,0
1.97295446210928e-06,0.460319835247554,0
1.87394894186765e-06,0.482683745653612,0
1.72731690769374e-06,0.478819701131811,0
1.59096456809181e-06,0.474016505034426,0
1.36878488503415e-06,0.43886985025211,0
8.51581202500915e-07,0.355611215099244,0
7.5360692519613e-07,0.362260099109752,0
8.6475647383151e-07,0.423178600419879,0
8.68994564638824e-07,0.414622986329219,0
8.65721084993321e-07,0.414471702285566,0
6.81667851803254e-07,0.382010018025239,0
6.31978367754733e-07,0.392379479762804,0
8.46690062189175e-07,0.451806660463222,0
1.00126996935445e-06,0.491462596391906,0
9.90335772550392e-07,0.469764755623725,0
1.15417052335248e-06,0.496247690993922,0
1.36091729945776e-06,0.561691469939815,0
1.6380406919405e-06,0.597714652962181,0
1.69713455372561e-06,0.567366725426183,0
1.69743982022983e-06,0.548239938762584,0
1.81656784598581e-06,0.516012038102189,0
2.27475843839146e-06,0.559490700494984,0
2.02293604126463e-06,0.504333097538147,0
1.95729676976467e-06,0.479335067930141,0
2.11564766737246e-06,0.489315642101905,0
2.66590632753551e-06,0.551832282400073,0
2.82918671746509e-06,0.577839128301623,0
2.13082266674212e-06,0.511722597860795,0
1.85748324240226e-06,0.525146512507194,0
1.76407595344551e-06,0.530507356051739,0
1.64036399085221e-06,0.555376480477809,0
1.5235701110411e-06,0.557617627456564,0
1.28050001063155e-06,0.600926102659629,0
1.34260702326668e-07,0.300169823664369,0
1.04862918139852e-07,0.320845579578972,0
1.16246879425383e-07,0.304759938111729,0
7.21920417015749e-07,0.328008540730582,0
3.36550558415785e-06,0.639900390640383,0
5.67529170748384e-06,0.804963585443739,0
6.14987274806242e-06,0.646203670053609,0
6.07935841310343e-06,0.637673361240756,0
5.7442044586293e-06,0.613035641096926,0
5.40731497885199e-06,0.590346050455528,0
5.17657776143112e-06,0.56697549330121,0
5.7224206137706e-06,0.588444338359765,0
5.37051331975573e-06,0.57242789289267,0
5.40129952418509e-06,0.65341055784339,0
4.26082696357287e-06,0.57599337903827,0
2.41719315498085e-06,0.443870679155486,0
1.49151983985632e-06,0.424818465439297,0
1.35109686052125e-06,0.421058315351133,0
1.34092573312923e-06,0.422552059061477,0
1.57518290965412e-06,0.461311446938651,0
1.53804654210653e-06,0.468297253819893,0
1.55369464644862e-06,0.49427620886501,0
1.64258482404012e-06,0.519489871319911,0
1.59427998314224e-06,0.54157409247094,0
1.82168415908382e-06,0.534210060567839,0
1.78251784676197e-06,0.505488903466259,0
1.67648228686035e-06,0.4986081907165,0
1.73066592917721e-06,0.497660906447393,0
1.7429315024513e-06,0.503427968212102,0
1.62981321730012e-06,0.494706436850775,0
1.54953742414734e-06,0.485578745621893,0
1.60109928044398e-06,0.462775862283995,0
1.46246257503145e-06,0.414510135086984,0
1.38989476111021e-06,0.427269399864518,0
7.12052038066681e-07,0.36194250989931,0
6.7997261548033e-07,0.37549963965416,0
6.81224673020479e-07,0.364473514498713,0
8.10524891502088e-07,0.396072579361527,0
6.89057780527232e-07,0.364874282592411,0
9.92685317408377e-07,0.374992532325093,0
1.61956587013056e-06,0.44423614057084,0
1.57755811936731e-06,0.448503803315787,0
1.5794434693158e-06,0.445724331673764,0
1.46433833697742e-06,0.428025781973055,0
1.61606227842477e-06,0.434177521312558,0
1.57549524609958e-06,0.407545012654945,0
1.74705802377483e-06,0.430529437672429,0
1.96608490043072e-06,0.41108836978455,0
1.93343639599831e-06,0.397353172326737,0
1.98077139591482e-06,0.412644100151734,0
1.59614092726615e-06,0.35984590159114,0
1.84156677083834e-06,0.392077048154317,0
1.90223229024734e-06,0.383116996422098,0
2.56061185243411e-06,0.432440003032851,0
2.69232824754874e-06,0.412263381168413,0
2.80975125528226e-06,0.423040401602291,0
2.38641750703911e-06,0.394442055198298,0
2.29115692499075e-06,0.421830066899588,0
2.25695739166713e-06,0.427564556811053,0
2.4104780666761e-06,0.459050325164629,0
2.42009861028752e-06,0.468392916950167,0
2.3252970901776e-06,0.460770772535356,0
2.23483719193243e-06,0.503813692534926,0
8.88613748445548e-07,0.353922799305441,0
7.21543870008006e-07,0.370748870052661,0
2.03600952481098e-06,0.53540063508757,0
2.18836230363519e-06,0.473432630551047,0
2.20433794963886e-06,0.482566505702957,0
2.24118464329238e-06,0.489339800480701,0
1.7887769722806e-06,0.448322138539835,0
1.74119210320771e-06,0.457239139146596,0
1.8867334294595e-06,0.483591311224267,0
1.91140529689301e-06,0.481464331477125,0
1.91357402558241e-06,0.480009433588696,0
1.90544804818075e-06,0.494622958925423,0
5.88391211486785e-07,0.311057527609812,0
1.40923879829939e-06,0.502127881957416,0
1.46707914981671e-06,0.446914258131288,0
1.45668343072948e-06,0.434263040104081,0
1.49474983452074e-06,0.439102515527926,0
1.60936036151741e-06,0.455794873606893,0
1.81756422345897e-06,0.478270650160849,0
2.015909488151e-06,0.494782784407996,0
2.06781689993212e-06,0.491530142299012,0
2.09758348324586e-06,0.490697280260289,0
2.03745014640053e-06,0.522553006423218,0
9.37977530954193e-07,0.410258010707676,0
9.07689902655458e-07,0.448182885950051,0
9.80029154092571e-07,0.419648581531999,0
1.64286839647804e-06,0.487930781607129,0
1.6611936841882e-06,0.459010107157642,0
1.46928109754511e-06,0.406983410635246,0
1.3062401171328e-06,0.380786260631608,0
1.26968057931209e-06,0.379547768039829,0
1.28032926670802e-06,0.383151747057354,0
1.29783947735615e-06,0.381889264958707,0
1.30299210864549e-06,0.386523095296145,0
1.13354062849308e-06,0.37255314934194,0
1.13139059156615e-06,0.406232820354432,0
7.02135912802075e-07,0.362459980761007,0
7.8695971199488e-07,0.429585025084982,0
7.2179034946652e-07,0.455668968168068,0
4.60142767826188e-07,0.392929206617846,0
1.3294574167913e-06,0.571177275879617,0
1.79009178765537e-06,0.616856512347335,0
1.81322647553464e-06,0.610788355141174,0
1.83560632612524e-06,0.573807418577197,0
1.94213339221624e-06,0.543439808353278,0
2.07096060257392e-06,0.574725420460455,0
2.00285043503267e-06,0.538992864396797,0
1.66949321412018e-06,0.476924434440311,0
1.68572889837379e-06,0.495992705040213,0
1.72763418341323e-06,0.494946270994159,0
1.0554449921539e-06,0.415531433642999,0
5.76541215170068e-07,0.324956053270101,0
5.46932204382458e-07,0.310268471225355,0
6.2912327367339e-07,0.342791715361913,0
5.10414892512205e-07,0.334920856752801,0
3.36306935988323e-07,0.289361775508605,0
4.68458277762356e-07,0.334104134490979,0
5.23028442483514e-07,0.35936058464815,0
9.86049257487968e-07,0.401557152607933,0
1.24977501446064e-06,0.374574463699976,0
1.91130457444238e-06,0.452546599187632,0
2.29126888186856e-06,0.509873991030089,0
2.34377472059434e-06,0.52167936682772,0
2.17597993105779e-06,0.471545730491961,0
2.82973381469934e-06,0.50606863776981,0
2.93132470592134e-06,0.490557991313611,0
2.84899465901824e-06,0.489546728068569,0
2.82758106601413e-06,0.494732124656314,0
2.04577185464136e-06,0.473903226833358,0
1.6723792997248e-06,0.507328217599209,0
1.49073875662138e-06,0.464054506906281,0
1.13756875173023e-06,0.409137474304257,0
1.24242072598843e-06,0.424102393113558,0
1.41435549879144e-06,0.483228383160198,0
6.46917056759451e-07,0.374928374101606,0
5.38167511055881e-07,0.388894549117523,0
5.33165769745467e-07,0.387480138077602,0
5.90845352735811e-07,0.384869521720079,0
6.50980045460282e-07,0.370302911858922,0
5.59737998646557e-07,0.364433737115444,0
3.6536061741832e-07,0.315220982929659,0
4.44569527382496e-07,0.323332135544108,0
4.18085818019749e-07,0.319933873581488,0
3.58688142458067e-07,0.306489240429788,0
3.39298295923548e-07,0.308606608457515,0
6.96929627438073e-07,0.3988048305075,0
7.93211767572259e-07,0.39117722388741,0
9.52702668993872e-07,0.429030708990352,0
1.07468917852905e-06,0.443590671369411,0
1.88780990065062e-06,0.492353822418456,0
2.23522022779036e-06,0.528717486406679,0
2.21537093192335e-06,0.525770882921885,0
2.04087480657049e-06,0.509859692782802,0
1.86656337132663e-06,0.502992862140302,0
1.86955356907974e-06,0.507589200919369,0
1.78052354223948e-06,0.500355284216275,0
1.74731757778222e-06,0.501235418710159,0
1.41045531243629e-06,0.418633267966984,0
9.71138460854194e-07,0.351036182876294,0
6.42335831680421e-07,0.334337723281857,0
4.49601775973629e-07,0.306210106384364,0
3.1630888080961e-07,0.279089479919177,0
3.37696905807028e-07,0.28807274247704,0
3.63948953533324e-07,0.278915951971375,0
4.39933970289232e-07,0.291127002324226,0
4.58872115372075e-07,0.295030381039769,0
5.18023311475243e-07,0.317135958489476,0
3.69151655502448e-07,0.289961456067388,0
3.27114753337625e-07,0.291396669299107,0
3.05383206674449e-07,0.291952188095036,0
3.97461637222451e-07,0.305807435495522,0
5.16458239550056e-07,0.319299624309584,0
6.93253354838558e-07,0.348501487829013,0
8.09507885296248e-07,0.345255087675232,0
1.03516491411342e-06,0.393585947044487,0
1.17546828553837e-06,0.399324465991396,0
1.28846492896071e-06,0.417392051205174,0
1.51842551817811e-06,0.477962961694293,0
1.59029679761382e-06,0.512360052008407,0
1.8345646235493e-06,0.549991264657892,0
1.76668311534068e-06,0.522807145381346,0
1.9307370343214e-06,0.556429860362755,0
1.94710297982126e-06,0.589010249833635,0
1.83295538870345e-06,0.619509064675848,0
2.06011269779247e-06,0.577920246653924,0
2.33851584648929e-06,0.622282761129447,0
2.15022597521956e-06,0.593228512618607,0
1.8606745945111e-06,0.549234450267031,0
1.63979016342915e-06,0.498466272704238,0
1.14563574838917e-06,0.399664039507788,0
1.39756438833171e-06,0.46474515764387,0
1.7057344108878e-06,0.51939630978562,0
1.78160892349354e-06,0.519679646990097,0
1.83583295163917e-06,0.549957012738316,0
1.30952947993398e-06,0.51392570804801,0
7.24956811508228e-07,0.388729669359209,0
7.60519584461734e-07,0.418796682200087,0
7.88380963882387e-07,0.404507491783241,0
7.76624329529524e-07,0.42369556639699,0
4.75234186931526e-07,0.357828003777651,0
9.2075815638226e-07,0.421697684196974,0
9.31756273203065e-07,0.368637701639983,0
1.01101370427086e-06,0.385590843339499,0
1.19851890891077e-06,0.413605023803231,0
1.0850756970078e-06,0.407662844553821,0
1.01085593804771e-06,0.408579954246761,0
1.04738487173919e-06,0.413189672527415,0
1.15888162228372e-06,0.445627784971597,0
1.09325310096839e-06,0.434785593484069,0
1.24693929008134e-06,0.4571656749108,0
8.88777325579314e-07,0.44231178348683,0
6.77134276191255e-07,0.442718285881606,0
7.86605633841509e-07,0.460771687202146,0
7.65889737505031e-07,0.429181987495972,0
8.02814587906297e-07,0.411818213117871,0
1.06198962708066e-06,0.451457858724017,0
1.0374196442799e-06,0.439083349002619,0
1.05585766365596e-06,0.434017250820229,0
8.52882071690216e-07,0.395939781194644,0
7.87772755238195e-07,0.404435846585556,0
6.59305918187043e-07,0.390245666432895,0
6.21192639716845e-07,0.39791061707081,0
3.33015636216939e-07,0.306229364605643,0
3.51068585916354e-07,0.308028881518554,0
4.83750657526405e-07,0.376724970103668,0
6.73968492089119e-07,0.465520525353981,0
8.17951525811439e-07,0.518431073176708,0
6.97768819779147e-07,0.470814826345563,0
1.12523606243857e-06,0.536223263066805,0
1.17512418278155e-06,0.510074319587542,0
1.22577914962848e-06,0.508561477335482,0
1.19149235579715e-06,0.516050708687989,0
9.63961889398237e-07,0.488308285781194,0
9.04064572372319e-07,0.508677050036166,0
7.56576397368048e-07,0.48362646797536,0
5.85873150221015e-07,0.414395692717058,0
6.2489525511114e-07,0.422074411647824,0
6.76697683107172e-07,0.453551558192975,0
3.52181568995825e-07,0.341376412982886,0
9.00549455693813e-07,0.499884025657806,0
9.08036136079502e-07,0.457767692264606,0
1.12897828887354e-06,0.497834240552308,0
1.22336636269332e-06,0.503607375792266,0
1.20847183660926e-06,0.502410751623339,0
1.23473105112532e-06,0.498362516223408,0
1.21643588330183e-06,0.50256838783118,0
1.09886953977319e-06,0.493941765140035,0
1.10974068819709e-06,0.48058238822558,0
1.07031365968573e-06,0.523979858266049,0
1.5586799235123e-07,0.283280561485451,0
2.99104033514205e-08,0.245000618220578,0
9.55129692660046e-09,0.235833409006751,0
1.20797209829652e-07,0.299420975750108,0
1.58569678392381e-07,0.318304872191273,0
1.41837064432822e-07,0.306837892865664,0
2.910723865615e-07,0.353868234794128,0
3.42567901628642e-07,0.340469763898239,0
4.44684292867109e-07,0.386235105701952,0
4.00141338651783e-07,0.351701861944002,0
8.22317166106715e-07,0.437482981579286,0
9.80251808817571e-07,0.418089397024339,0
1.04463757004972e-06,0.421428430796258,0
1.10997312462163e-06,0.4290229069885,0
1.27581564188912e-06,0.437365969713247,0
1.70877884380662e-06,0.474724126948062,0
1.69758935432962e-06,0.484706849638804,0
1.68075165973647e-06,0.495018042456281,0
1.37454930836256e-06,0.406730831517477,0
2.11225022163388e-06,0.446692947914984,0
2.14714696738258e-06,0.413064552582282,0
2.08219657933584e-06,0.417442078053202,0
1.86723462835098e-06,0.382916932149577,0
2.26966391620825e-06,0.425390726723114,0
2.37670040546301e-06,0.444587706459168,0
2.17488360592208e-06,0.431899938900499,0
2.26030399193785e-06,0.438560857739582,0
2.29523579684726e-06,0.441029456843313,0
2.24784627121948e-06,0.468113397020714,0
1.11082529466307e-06,0.376360129397952,0
1.38373199985926e-06,0.481217241469979,0
1.35156521991668e-06,0.506121264735941,0
1.38734570832117e-06,0.538762411996168,0
2.42449553265159e-06,0.657729451774497,0
3.03199757011495e-06,0.729325780398667,0
2.53347954859841e-06,0.583771310926327,0
2.3531778393003e-06,0.574997039744628,0
2.37425672385309e-06,0.589250920920268,0
3.17779535122181e-06,0.688867652931468,0
3.35263354551276e-06,0.719443302775553,0
3.21857428808736e-06,0.717092605094599,0
3.33809619673441e-06,0.711271010173853,0
3.52581233742958e-06,0.737223280022307,0
2.23617447616157e-06,0.621073870092745,0
8.87744920460348e-07,0.398951221815311,0
6.81019354178809e-07,0.391889119792099,0
6.7735460655201e-07,0.393478945925688,0
6.0118567447519e-07,0.384869779148725,0
4.14054498781759e-07,0.311706754512087,0
1.84100417784246e-06,0.556213459333326,0
2.68168643639704e-06,0.623758120661824,0
3.59656985899774e-06,0.676984891128074,0
3.26157473608038e-06,0.575673327755214,0
3.70996784264644e-06,0.621326150881736,0
3.804718614137e-06,0.630359811605412,0
3.77713034751517e-06,0.642486466790507,0
3.62180935554967e-06,0.621803517303148,0
3.34776216229711e-06,0.588692546697985,0
3.37749029675229e-06,0.61687772356502,0
2.59775064119446e-06,0.586123273900339,0
2.10939125361212e-06,0.546655716052203,0
3.80759530543612e-07,0.297560543802348,0
4.65101121004022e-07,0.350459259189168,0
1.56858481434971e-06,0.52762744805539,0
1.71445416650563e-06,0.471737791677318,0
1.84778986871117e-06,0.485588693176701,0
2.10592204312746e-06,0.520502903877309,0
2.21224776116571e-06,0.487176263380524,0
3.21932360501095e-06,0.564481604369226,0
4.59124851244351e-06,0.695224910608464,0
4.62977717417405e-06,0.594414972815901,0
4.8225638186219e-06,0.595300520266947,0
4.86542664488189e-06,0.608966906974948,0
4.19033684074142e-06,0.586701990444564,0
3.96377243823198e-06,0.64534488271418,0
3.71214063897327e-06,0.626654855645966,0
3.31121492423719e-06,0.584820077394388,0
3.49941482324093e-06,0.669544679054667,0
3.04861725871159e-06,0.648626539434743,0
1.53213151934472e-06,0.478780298161843,0
5.95966217713801e-07,0.383071612134802,0
7.55120183168348e-07,0.435219761060181,0
7.11917128091943e-07,0.486885957122043,0
2.93632770626238e-07,0.350634314150198,0
2.44317509221214e-07,0.312454050242562,0
2.6310805717448e-07,0.269485825461622,0
1.10082820404392e-06,0.426393670806783,0
1.0723087389963e-06,0.394483197506768,0
1.08378286624485e-06,0.394290602524691,0
1.10285824566668e-06,0.396862926689401,0
1.07226031474119e-06,0.398093798314972,0
8.50849027763636e-07,0.361481687720026,0
8.91465840223075e-07,0.364704412387081,0
1.15917207096587e-06,0.423731222538901,0
1.24499069805568e-06,0.437793814074671,0
1.25160196475747e-06,0.486908665702322,0
7.74923379144495e-07,0.454298525610415,0
9.21157172244373e-07,0.53433284415234,0
9.60702355938205e-07,0.529936781570781,0
1.13666883537325e-06,0.540652612191803,0
1.29665288940891e-06,0.535078239390129,0
1.35527722961647e-06,0.554543345774869,0
1.30856254440793e-06,0.519171278039881,0
1.07352622161831e-06,0.454650867994075,0
9.24298163127893e-07,0.421001321596216,0
9.90752608538386e-07,0.449686675025298,0
7.86812018016792e-07,0.404958405821845,0
5.70776307599106e-07,0.348001118524663,0
4.39583766076269e-07,0.32886598253902,0
3.46376759838651e-07,0.311271224978316,0
2.59388977533447e-07,0.282449244369451,0
1.18250016532006e-06,0.448356517668698,0
2.25023562081517e-06,0.571328553362936,0
2.20913940823013e-06,0.57160197600892,0
2.22418414635354e-06,0.583170475871516,0
2.10553474593509e-06,0.560398334547825,0
1.96724669515935e-06,0.530932406276197,0
1.76695467856334e-06,0.492002998708,0
1.68817800350029e-06,0.469200744677715,0
1.84048894376808e-06,0.496532057039656,0
1.63430863459909e-06,0.472757725547141,0
1.25627626125482e-06,0.455495944070684,0
6.05355971325348e-07,0.366058064049891,0
6.88236214615019e-07,0.394377718896978,0
7.76902962693431e-07,0.405362709153974,0
7.92346329284916e-07,0.38141663979749,0
8.01701895372358e-07,0.369923203019772,0
1.06888601579655e-06,0.380678641188478,0
1.86226329747278e-06,0.484646291363197,0
1.87142700666147e-06,0.480403972878847,0
1.94208303099092e-06,0.490086011066696,0
2.05142625806215e-06,0.527415170155356,0
1.96230354719762e-06,0.514348752170049,0
1.85737932395079e-06,0.491108359779198,0
1.58511036619442e-06,0.463270605287848,0
1.52991514118829e-06,0.486611205915007,0
1.48762962889772e-06,0.509213216740528,0
1.21837672744668e-06,0.577676321947157,0
5.2673551290928e-07,0.424037766760764,0
4.41993841253143e-07,0.337260034232499,0
1.07468065586015e-06,0.514762917923772,0
3.02741392382316e-06,0.748288147513256,0
3.48448465690511e-06,0.604616534272869,0
3.48156496486744e-06,0.59397969220404,0
3.73391925401241e-06,0.618357698299759,0
3.71532501798937e-06,0.573726559916524,0
3.95129060223457e-06,0.47972126601909,0
4.70393649966377e-06,0.506582946500236,0
3.59594111846938e-06,0.435542413697299,0
3.41208158229976e-06,0.428442564223832,0
3.70080393976073e-06,0.43662010343398,0
3.25708435490394e-06,0.418822065687826,0
3.01054804631354e-06,0.451233710052454,0
2.7909702953315e-06,0.440389966705906,0
3.0851635282864e-06,0.459075379453802,0
3.83327178246616e-06,0.505535346282917,0
3.43843512726477e-06,0.578806248814802,0
2.0559621580384e-06,0.460983284931448,0
1.63384569872023e-06,0.418295489298072,0
1.60897451705268e-06,0.431531884447453,0
1.58213130601999e-06,0.444697756876233,0
1.07196240872375e-06,0.383087660625273,0
1.12852891178611e-06,0.390668500698081,0
1.40153740476654e-06,0.426856912867012,0
1.52278951204871e-06,0.45608907032291,0
1.27628826261901e-06,0.441395119670474,0
9.27645247641165e-07,0.395150775248092,0
1.50224823357616e-06,0.490607136911761,0
1.7411541385917e-06,0.488532541052578,0
1.87821415025782e-06,0.510556485820746,0
1.47470761642136e-06,0.45047070358573,0
1.22875888774248e-06,0.394640010945097,0
1.57602907508793e-06,0.444553540613908,0
4.0860502680859e-06,0.649137160395801,0
4.66427461351512e-06,0.639246153598699,0
4.96673638487872e-06,0.640034574182729,0
4.91465822917408e-06,0.647163983090112,0
3.54991396083491e-06,0.548934635751142,0
3.18210268871393e-06,0.539484873035887,0
3.34347448505256e-06,0.545398963637797,0
3.0510372124365e-06,0.540504288556333,0
2.70613342158982e-06,0.502284543167756,0
2.8237834422313e-06,0.503914795170924,0
1.56360147425624e-06,0.404125862574816,0
1.19958501731129e-06,0.385880956655276,0
9.99478659309388e-07,0.360248115424242,0
1.24124198277052e-06,0.366239479173792,0
1.57232442587491e-06,0.409029294263606,0
1.41606390651176e-06,0.390790498012589,0
1.41465621341568e-06,0.381838516092473,0
1.45276174400506e-06,0.376975757053678,0
1.16180605989838e-06,0.338922983508384,0
1.12031422114909e-06,0.34479643277404,0
1.31205480483802e-06,0.350817264035733,0
2.02313438701357e-06,0.409019194200677,0
2.17345102275887e-06,0.420926666452108,0
1.78674266932338e-06,0.416029457360395,0
1.86677217671467e-06,0.424510451780503,0
1.72094195135689e-06,0.398584732450907,0
1.59174061520422e-06,0.396789684140061,0
1.56695466022566e-06,0.404739906151434,0
1.53942643968017e-06,0.408727833803965,0
1.5887796657012e-06,0.439768275633693,0
1.34190971399308e-06,0.456061129254432,0
8.16863432799096e-07,0.394226836791042,0
8.84218375657635e-07,0.417035234653334,0
1.43592637377616e-06,0.532460341028829,0
9.54143871674486e-07,0.44864634930808,0
8.56395735641069e-07,0.432877590573415,0
8.31063361367841e-07,0.407692243660259,0
1.22620673580111e-06,0.457917100155383,0
1.33717818002619e-06,0.462062974192076,0
1.33684802345484e-06,0.462082820809633,0
1.35068031507879e-06,0.455643816664921,0
1.32267095113451e-06,0.459979955754468,0
1.30364602978651e-06,0.472792381373045,0
1.09612756475178e-06,0.424889493707055,0
1.12083943062002e-06,0.428071234043224,0
1.72108635248563e-06,0.52264955974882,0
1.61163446138593e-06,0.501557784621501,0
1.32054028390963e-06,0.485870763094892,0
1.08631099975568e-06,0.468967408608831,0
1.08673325926025e-06,0.46228040103703,0
1.0490041788301e-06,0.449963835970445,0
1.08885617860432e-06,0.427834012100018,0
1.27469684789904e-06,0.445506801362168,0
1.02309652440616e-06,0.401702905863819,0
1.07507967172226e-06,0.420565509555356,0
6.47501246973109e-07,0.343272081307194,0
7.43442577199825e-07,0.385296699003235,0
7.05877654994501e-07,0.369617343409706,0
7.20095016295084e-07,0.363177718375166,0
1.13578325259578e-06,0.411575202615147,0
2.41894039895377e-06,0.59082164759732,0
2.62671367241889e-06,0.527907946325084,0
2.69068608420942e-06,0.539906493795197,0
2.74375625920426e-06,0.553024295865344,0
2.69354311526096e-06,0.549163413474462,0
2.6329499416891e-06,0.555877676951887,0
2.49062572924986e-06,0.528775452269599,0
2.51244569860288e-06,0.538195947262012,0
2.62782859246856e-06,0.539726059752989,0
2.32442235443328e-06,0.534011800119648,0
9.91970478554429e-07,0.336135576514592,0
8.80480507405619e-07,0.388418065378067,0
1.45527593133043e-06,0.506969453695003,0
1.65908132133175e-06,0.445545199301424,0
1.87592465147618e-06,0.456427787397156,0
1.87279373283772e-06,0.458135035879939,0
2.03181201352945e-06,0.484273653503541,0
2.27940881330678e-06,0.514311830619425,0
2.2698254595233e-06,0.517320389068466,0
2.27405105687279e-06,0.510044692537166,0
1.89614584562244e-06,0.498595735528616,0
2.19391704993898e-06,0.55699541462121,0
1.8003832977456e-06,0.477136082502353,0
1.74058776850392e-06,0.558017870281792,0
1.44942289161516e-06,0.529941394395921,0
1.49977326989744e-06,0.504526141689294,0
1.51869311061185e-06,0.502658422721805,0
1.38844203345688e-06,0.465239629183614,0
1.02324712383955e-06,0.387687090886774,0
9.3580308820269e-07,0.397486628852413,0
1.06164571802087e-06,0.408530111471992,0
7.36099135760754e-07,0.331317608488973,0
6.99190555909204e-07,0.338073440423383,0
6.23534436694011e-07,0.326105348002058,0
5.07020545925946e-07,0.30025557501651,0
8.74073009969333e-07,0.389761102650286,0
8.80727955349235e-07,0.388415489719538,0
7.89165921057737e-07,0.385111608261685,0
8.1021061808642e-07,0.406807881162302,0
8.47840525642101e-07,0.425819479679192,0
5.63165564271823e-07,0.378319400841296,0
5.32083487643736e-07,0.390587082595818,0
5.24751571177383e-07,0.389315839707869,0
6.40545974363009e-07,0.373416017984499,0
1.54212086208305e-06,0.547318088701872,0
1.21275254076107e-06,0.473790545449738,0
1.07899128620162e-06,0.4332361677135,0
1.10465333280364e-06,0.434901976847176,0
1.09164928963912e-06,0.438548510385285,0
1.13545193384231e-06,0.438664201605459,0
1.15506734055714e-06,0.433486110042561,0
1.0452380308131e-06,0.413494880702524,0
7.13792890037922e-07,0.354427495916926,0
5.33044128016628e-07,0.341778061491371,0
3.44695953943749e-07,0.294787694793917,0
3.94428826124849e-07,0.331796717557415,0
3.84464567150664e-07,0.361944779817223,0
2.77289003435221e-07,0.306217473858286,0
4.4693621442679e-07,0.357455143707957,0
4.75947669906331e-07,0.382275534659655,0
3.45257191060485e-07,0.336924704890926,0
4.33236024170791e-07,0.363629409618457,0
5.0103143405382e-07,0.373254787358376,0
7.82859920860164e-07,0.438333301210178,0
8.23272479811545e-07,0.431504346179193,0
9.05599137016786e-07,0.445248953762823,0
9.42729693653767e-07,0.443912478339119,0
9.58265356875492e-07,0.462852039218874,0
8.25118799810416e-07,0.42623737184816,0
7.72392533875374e-07,0.403299135963815,0
7.5049082437974e-07,0.409465730384079,0
6.67700456507554e-07,0.397606730858362,0
6.38409108833472e-07,0.386746960143389,0
2.30237575956635e-07,0.271552151996122,0
2.06265729555004e-07,0.270666748336358,0
1.86696810125085e-07,0.270661550781547,0
1.65700149957473e-07,0.257347136702044,0
1.82474699321958e-07,0.24991564801885,0
3.33712558096496e-07,0.300913681637775,0
3.0769594909855e-07,0.289015846346024,0
3.12675027857571e-07,0.288795713653775,0
2.91296300317134e-07,0.280408523865808,0
5.56170486924021e-07,0.355498215613895,0
6.86690028149325e-07,0.396906019984771,0
6.91902899212023e-07,0.399412149899447,0
6.52414178199649e-07,0.379297428921147,0
7.26454573718811e-07,0.405216963488272,0
6.65823435530942e-07,0.404210146096594,0
4.818462284214e-07,0.328977355641844,0
1.31465044176048e-06,0.497301307582792,0
1.92091969453722e-06,0.599510778942984,0
2.18236544388225e-06,0.638932998177156,0
1.78495988194722e-06,0.603372371699933,0
1.26112110797868e-06,0.514750489368127,0
1.09889404244627e-06,0.46729452859924,0
1.17798005165098e-06,0.481869824551248,0
1.23261965675397e-06,0.503585324049642,0
1.04792654545686e-06,0.495283954168843,0
8.79501175270253e-07,0.494748246196979,0
7.12274402246152e-07,0.476258950006023,0
4.33520274548293e-07,0.372109661871775,0
3.58443309424226e-07,0.326424986644768,0
3.08053513798289e-07,0.297697326683242,0
3.76401444432134e-07,0.310097625899626,0
6.93345457771779e-07,0.400760008107174,0
7.23789690111543e-07,0.367774611949973,0
1.11651611312371e-06,0.44772058052844,0
1.48335502620206e-06,0.51601636815396,0
1.73949580155117e-06,0.55565070627591,0
1.84547857901472e-06,0.583579369724514,0
1.79734951816289e-06,0.549664129560845,0
2.07830171964875e-06,0.623382539503776,0
2.99480977600843e-06,0.736675656622596,0
3.06644619780686e-06,0.659964820565142,0
2.5888572361978e-06,0.596384367957227,0
2.51555066184059e-06,0.639242921100279,0
2.24571473235801e-06,0.596420518529419,0
1.81971687529568e-06,0.541848245875498,0
1.38679318757035e-06,0.472538772014133,0
1.23936273427817e-06,0.442542471489578,0
1.46225958055402e-06,0.513620377928632,0
1.39375320575745e-06,0.443911138083782,0
1.04654035273006e-06,0.388489592675731,0
9.84325354006017e-07,0.432138485146478,0
1.02354309288679e-06,0.453170974231159,0
1.3551164610895e-06,0.504761784311393,0
1.62270066270942e-06,0.54065860786136,0
1.59273185970634e-06,0.526388842099268,0
1.59692346322874e-06,0.52303199859609,0
1.60065406784249e-06,0.526943316458166,0
1.53975882376725e-06,0.505666462721039,0
1.8552902047368e-06,0.529723894908481,0
2.11400075845614e-06,0.549510626835718,0
1.90940372873226e-06,0.531812951970024,0
1.91964255323292e-06,0.535206777219868,0
1.79755793615689e-06,0.524446780156867,0
1.40465592679569e-06,0.474600568444337,0
1.28769314318275e-06,0.460309321217845,0
1.23738305388072e-06,0.442367946643275,0
1.34510958877082e-06,0.445035500502107,0
1.19276223346318e-06,0.423393387998164,0
1.00965007724694e-06,0.453844762452635,0
5.86506539477867e-07,0.360819813243878,0
1.07459087729117e-06,0.464726980072012,0
1.16804107013796e-06,0.446739255233802,0
1.23884207668722e-06,0.433953790002264,0
1.29254225124105e-06,0.418944979286092,0
1.62524351719381e-06,0.463401886598277,0
1.63902854674476e-06,0.474017632366947,0
1.47530507488092e-06,0.461720342437285,0
1.58237216826491e-06,0.456554661608615,0
3.39892945776311e-06,0.610449475504928,0
3.67449262074617e-06,0.588874514177551,0
3.32404473693183e-06,0.566303197132385,0
3.19070516078589e-06,0.584194942850854,0
3.11860890226092e-06,0.592853263261642,0
4.155352834485e-06,0.417221376090353,0
1.69355882924941e-05,0.644690689382661,0
1.82293395036883e-05,0.468457770699034,0
1.80310456655552e-05,0.464435875705101,0
1.76888036591634e-05,0.455288511490923,0
1.74972868923816e-05,0.458225850841246,0
1.74946660748465e-05,0.464094193301687,0
1.70143850151988e-05,0.457089584162028,0
1.66603161592843e-05,0.445877891168992,0
1.5933658784785e-05,0.381365900860031,0
2.66706184648067e-05,0.441232008611538,0
2.15492111351631e-05,0.316141572608834,0
2.05368156931969e-05,0.356411760494825,0
1.96028969864576e-05,0.337066799343494,0
1.96104984323279e-05,0.341596517542188,0
2.00546651667564e-05,0.338046849713054,0
2.08278536985373e-05,0.349071787537316,0
2.06029593517381e-05,0.347463207666299,0
2.00450620558769e-05,0.346906843115478,0
2.29822759260078e-05,0.390858020765069,0
2.24743011317106e-05,0.500459472369726,0
3.04142960778606e-05,0.949553611755051,0
2.84654395589133e-05,0.903773800818368,0
2.80191533916871e-05,0.781350449395596,0
3.36221225056776e-05,0.683784710384751,0
2.92506898947027e-05,0.526172835231739,0
2.07129642478312e-05,0.444774319419675,0
1.43667188455329e-05,0.372127587592228,0
1.35407675359286e-05,0.357085609528868,0
1.33461082286872e-05,0.358422314223316,0
1.41960175353561e-05,0.383056330851178,0
1.27775175982667e-05,0.385933841227369,0
1.59756576254853e-05,0.434088728544704,0
1.95711949825156e-05,0.564701908213863,0
1.04672201148068e-05,0.580144784814695,0
7.95263028703612e-06,0.674732023216941,0
8.28505737485645e-06,0.700649497601272,0
6.62965552212503e-06,0.624147786074714,0
5.97597146625936e-06,0.635918521440969,0
1.94881438984539e-06,0.454795906891943,0
1.51797614109068e-06,0.465907910274268,0
1.29624031475537e-06,0.417319662293503,0
1.36786511473257e-06,0.405421079564249,0
2.19361875652749e-06,0.496254804912821,0
2.16285502095251e-06,0.523298883257835,0
1.8789150429263e-06,0.515097903941473,0
2.14579273466415e-06,0.555840581284463,0
2.04366016972448e-06,0.556702825553227,0
1.66351804843353e-06,0.47336655274942,0
2.64989843097794e-06,0.605022976703621,0
5.73919390410445e-06,0.802150513403926,0
8.20893444582198e-06,0.894883344803993,0
9.2500740413795e-06,1,0
8.55195201508357e-06,0.847830692770052,0
8.05901944084855e-06,0.798760677817021,0
7.43057381620119e-06,0.722619279176891,0
6.73827771203767e-06,0.624808322866572,0
4.94625486193698e-06,0.468614102785435,0
4.95875190315049e-06,0.432474913789474,0
5.5473176356527e-06,0.456400702950549,0
4.98694140532378e-06,0.381180630247234,0
6.91909204050038e-06,0.433571832134146,0
6.70905241504756e-06,0.403459603048836,0
6.25577698138418e-06,0.417121361654112,0
5.66000126468999e-06,0.39686904385447,0
5.84096386822185e-06,0.412472609287304,0
5.14009831732837e-06,0.41704032699065,0
4.96435313673918e-06,0.471866827867546,0
4.72077525959053e-06,0.501184642245266,0
4.34235181196198e-06,0.4299479575648,0
4.93349177786589e-06,0.575224561618268,0
2.33295906636679e-06,0.404304032438746,0
2.15700198123724e-06,0.430093702198364,0
3.23285372928299e-06,0.481667783685968,0
9.71336680700066e-06,0.584977497233912,0
0.000179659458015177,0.178999044521737,1
0.000653936574797292,0.269315834251221,1
0.0011230409348791,0.268173140953164,1
0.00162104122934375,0.221592071255647,1
0.00163948377551603,0.165141052714632,1
0.00287877976218835,0.096193309099149,1
0.00717365012524332,0.101205940972977,1
0.00706265169330923,0.0502374517305203,1
0.00608802434961674,0.0435276124394235,1
0.00494743448376458,0.0334559335185226,1
0.00680681496988717,0.0306698189343855,1
0.00729367199689166,0.026976366153187,1
0.00659401112137318,0.0242040744953269,1
0.00741797915372319,0.0214242228450435,1
0.00907650257136708,0.025229311111113,1
0.00919406778418937,0.027822532228343,1
0.0102854233666782,0.0322805030020421,1
0.00898299918011787,0.0326059056899645,1
0.00751332663367845,0.0285762848267124,1
0.00589950269506883,0.0208618607920586,1
0.0067329442573161,0.0277153543368587,1
0.0066404692026768,0.027804164883378,1
0.00673681234536321,0.0138670686656312,1
0.014190992462949,0.0239055544210765,1
0.013983500524237,0.0185799176432621,1
0.0149380313263386,0.0199749583873469,1
0.0167813889767304,0.0118929595570043,1
0.0215811641603714,0.0150876152646426,1
0.0182467101843003,0.0127000619919449,1
0.0152931643377034,0.010647667499317,1
0.0154399467621179,0.0109974936967387,1
0.0171929901397522,0.00509982131762035,1
0.0379396490227962,0.0168289495928793,1
0.0377100044449409,0.0138217341925632,1
0.0370180819098872,0.0147466065703027,1
0.0314399461449527,0.00873622968304264,1
0.0340685055095016,0.014083511208574,1
0.0353349537654269,0.0151766392088973,1
0.0366750552208856,0.0156784003073222,1
0.0374773018937767,0.0155760969445941,1
0.0377804294541946,0.0150380813780325,1
0.0381477272443276,0.0146306084560378,1
0.041344036099526,0.0151877506173491,1
0.0404359547536902,0.0146413650793818,1
0.0477129111247227,0.0157329247620214,1
0.0494359185646445,0.0143141518884371,1
0.0462254959800222,0.0136367121538491,1
0.0492416007549349,0.0144850158850594,1
0.0529735153190685,0.0155244605208348,1
0.0569748996029964,0.0158876428425784,1
0.0560291599839354,0.015891073297505,1
0.0535055648810665,0.0225000013414691,1
0.029116450598318,0.01593769873659,1
0.0293414943210634,0.0196160943472192,1
0.0189425873734082,0.0189858457738032,1
0.0108987107498473,0.0298753072946351,1
0.0113823743526691,0.0272376158166066,1
0.0115978095266847,0.0250344894323184,1
0.0114800620242406,0.0254349252531032,1
0.0106220436584426,0.0392828912319025,1
0.00891222519885485,0.0329774063211882,1
0.0106912820991187,0.0412276138156288,1
0.0197477360153502,0.0548653622215203,1
0.0331243742745691,0.102366988693954,1
0.0351134411423665,0.111095123088009,1
0.0316242981356524,0.0795843696920497,1
0.0354835411703442,0.0509116196695727,1
0.0317272962400861,0.0265491465965758,1
0.0271940686946583,0.022966974844593,1
0.0244799775442885,0.0132526806732132,1
0.0488700382971169,0.0212506452068652,1
0.0451446600628597,0.0156679471442371,1
0.0499394934799862,0.0147559348597994,1
0.0777157101049322,0.0239076658544064,1
0.124418940476901,0.0342142814978298,1
0.153241766455945,0.0415459355608275,1
0.166417314697351,0.0424436638881763,1
0.14274109842673,0.0458159255863861,1
0.147078006682904,0.0422814086211886,1
0.152667156229712,0.0366318740141621,1
0.146598489054204,0.0326631500215387,1
0.108071491453308,0.0262549937910586,1
0.0753549379671816,0.0195870339439238,1
0.0703623220487155,0.016222989777896,1
0.0764782584470533,0.0170328622919844,1
0.0899758750396677,0.013951240133514,1
0.139046123667086,0.0245154281579071,1
0.162255836031889,0.0289237439505266,1
0.19631611975292,0.038801333183432,1
0.199242249040267,0.0182953468323612,1
0.299827831606121,0.024067690392622,1
0.342903517097258,0.0238922895387783,1
0.366208188492036,0.0271353782762295,1
0.376905332459968,0.0230416445511594,1
0.375660976303666,0.0153543059541968,1
0.442655045643864,0.0212345501431007,1
0.417408588775942,0.0178587262064408,1
0.348593262146348,0.0142741301673849,1
0.225524517330659,0.00577917281500444,1
0.246445205158694,0.0128981508266022,1
0.269406475298305,0.0162905991963096,1
0.24634043721553,0.0119847941887698,1
0.245279236633891,0.00938590946389538,1
0.228032568166381,0.0107824197782617,1
0.205091617935019,0.0168635598008617,1
0.167660125258737,0.0147143474622014,1
0.143687745696083,0.0133146541138634,1
0.139552543993885,0.0126979637605213,1
0.148365977617928,0.015714571250289,1
0.129706059277609,0.020923067826613,1
0.0661192427249497,0.00601024691590454,1
0.0774910258526715,0.016474230321325,1
0.0893051433976648,0.0210948178622491,1
0.0716331523473934,0.0175785754851917,1
0.0703595175274735,0.0177606029758545,1
0.0837421896458692,0.0204992472273129,1
0.0913862080894794,0.0117714719605312,1
0.179072451528678,0.0221077822711737,1
0.249981375835463,0.0295138901170253,1
0.317107436464134,0.0350029070411984,1
0.3625354568755,0.042405024870887,1
0.326553430300474,0.0466342749922505,1
0.277928409452257,0.0442677640269554,1
0.259161522182461,0.0355009288253634,1
0.188111421334935,0.0312773761069506,1
0.0597405199411108,0.00965900596020103,1
0.0403722337909458,0.010293412743587,1
0.0630988305672199,0.0251627643355394,1
0.0930606298153302,0.0330743962737741,1
0.0872843615670136,0.0173694516804245,1
0.0823511827841631,0.0172533838227011,1
0.0801245219703719,0.0168655164448259,1
0.0655266628797032,0.0133146591860465,1
0.0646529821729289,0.0133888481149223,1
0.0677463631260795,0.0118361215707435,1
0.0596598432159481,0.0050008253473731,1
0.0760349332815316,0.0109677225070755,1
0.07303835230365,0.00704248946378796,1
0.054599236367599,0.00231518141772909,1
0.0533024053680658,0.00654974683715972,1
0.0508568488735498,0.00559673219737515,1
0.0511906778451052,0.00535727621343446,1
0.0487509552737645,0.0046510785430012,1
0.0528274923970385,0.00560152973292218,1
0.046925199224827,0.00585369596196602,1
0.0458721692517727,0.00857750491323928,1
0.0417505678491156,0.00867642398554307,1
0.0345307279352171,0.0103875028010119,1
0.0343640743820854,0.0135806064920618,1
0.0368674857014505,0.0142155426984699,1
0.0274128920492061,0.0147729484539178,1
0.0240529106285295,0.0158182603314048,1
0.0206103216694361,0.0128594978210716,1
0.0220724404987912,0.0138860996832956,1
0.0141374297070369,0.00975001683175734,1
0.0146105954341881,0.0309736542405135,1
0.0146555371697953,0.0334067354710572,1
0.0184119678861002,0.00896125479212406,1
0.0932431960393029,0.029306681112296,1
0.149651457940684,0.0382547762055824,1
0.148773075126007,0.0334311241245549,1
0.175076738113483,0.0271705938544165,1
0.217082184181739,0.0357100900473204,1
0.274370852908179,0.0418515611821127,1
0.258681185110284,0.0325712216309096,1
0.254584151077067,0.0275451875107424,1
0.206250804066064,0.0218789133881998,1
0.116890000071,0.0136615831201164,1
0.116220540314429,0.0159814817530359,1
0.117337655280631,0.0163706494356199,1
0.0642482592481469,0.00725499221849583,1
0.0482673288658068,0.00859346614429957,1
0.0606380673307508,0.00825036572881235,1
0.0780191880848572,0.0093029939246218,1
0.0595116153524086,0.0068244170588464,1
0.0532193457492291,0.0114991929796874,1
0.0516047906931774,0.011014802457236,1
0.065705169519394,0.0126750494674149,1
0.0946384508339493,0.021144613716224,1
0.119354938166174,0.0261546889814347,1
0.16048745250929,0.033774037559385,1
0.189522281108541,0.0419843601941948,1
0.168622458761013,0.0641074171171686,1
0.137004651933948,0.0694192534211159,1
0.138825470321876,0.0451103914701801,1
0.105555263578647,0.0358344328030998,1
0.0677731983943722,0.0218088378462933,1
0.0596883956661456,0.01630289848277,1
0.0559652473950822,0.0183833796098816,1
0.0565423835921986,0.0196688858261584,1
0.0885554648808671,0.0126901688697091,1
0.129214851724972,0.0162794405285633,1
0.129217755475745,0.0175835373029173,1
0.0976322167863994,0.0140544849968505,1
0.0733089103534449,0.011631070658195,1
0.0928371076012753,0.0073184212354513,1
0.168273141357608,0.0176703976606636,1
0.191915658057228,0.016660795862367,1
0.191490962224661,0.0128426299676073,1
0.20682352530375,0.0127261929782603,1
0.289631220435098,0.0294837933779811,1
0.323134261504868,0.0326179677778436,1
0.369717015353344,0.0361113372968048,1
0.389854519456435,0.0343683527457281,1
0.387221952390997,0.032152633056453,1
0.346144772986937,0.0547153432963545,1
0.182821740595938,0.0318682019084383,1
0.0760375728285032,0.0211493426068366,1
0.0806851864582822,0.0366887423756972,1
0.141711713879147,0.0406742977644987,1
0.214926857828875,0.060640499663017,1
0.222955281612026,0.0429693544716322,1
0.175080073651039,0.0238350481082728,1
0.163569569872715,0.0254798848889805,1
0.188592233321699,0.0292164130190159,1
0.188093900140891,0.0251466144964527,1
0.184304241893128,0.0219097924878241,1
0.186491696793726,0.0226865762259064,1
0.195733303635221,0.0217712269382394,1
0.177797405703346,0.0247025774233818,1
0.102382868332323,0.0143373231005648,1
0.0508343860997152,0.00626008133529978,1
0.0488577258726981,0.0106485335994024,1
0.0428600701365695,0.00847772086847806,1
0.0333317401717245,0.00470069164691027,1
0.0384938963377167,0.00902143847680755,1
0.0377798544741774,0.0126216277209468,1
0.0385765743737136,0.00897094760382194,1
0.0574015171727564,0.0156116857740347,1
0.0580304926402042,0.0146968756830153,1
0.0566342534911493,0.0135284515746012,1
0.057780865717064,0.0108291266908469,1
0.0714176995947921,0.0132572172435034,1
0.0913757528956252,0.0163243658930517,1
0.0914076464388028,0.0197727155359711,1
0.0725305658607229,0.0113789768154046,1
0.0854536957550549,0.0122256739718304,1
0.0897048227499405,0.01730309690619,1
0.106040465507225,0.0208184903116458,1
0.105795819768427,0.0212586436543436,1
0.101854482361193,0.0205420369510944,1
0.101509468804472,0.0267732409322432,1
0.0836976048012835,0.0235780675331483,1
0.0545904020068777,0.0148425051252995,1
0.0411440631715567,0.00827028423636818,1
0.0777319172342742,0.0136489824380969,1
0.142125688120246,0.021332607648238,1
0.142958885930289,0.0224645273529485,1
0.147966112603571,0.0241740676106353,1
0.133131427484267,0.0235281091582656,1
0.140594608584915,0.0231236618109245,1
0.140133211171757,0.0133768717225888,1
0.136449051993219,0.0127712959120836,1
0.134345789917959,0.00814852947916647,1
0.158887553329097,0.0123240786693788,1
0.159844595417717,0.0214468267947588,1
0.145289266330304,0.0212914120577538,1
0.174942894522678,0.024442096296184,1
0.189333729819027,0.0235174470076356,1
0.172486742167368,0.0212169677808768,1
0.17007507290353,0.021195487622529,1
0.146247146620505,0.0424984119404917,1
0.0556231088167011,0.0191114252511493,1
0.0239572580308293,0.0243707921519564,1
0.0244610977354216,0.0276034488946738,1
0.0203607975199011,0.0247282889223224,1
0.0256083234198476,0.0259161886745903,1
0.029791786567353,0.0337908832182673,1
0.0250757117231409,0.0377821697678268,1
0.0300949115510195,0.0369399953404979,1
0.0256086269899534,0.0216575742230998,1
0.0184910080913831,0.0154414054323243,1
0.0150082394219501,0.0114664575795584,1
0.0135219694818285,0.0103029952734546,1
0.0139046459950778,0.0108774581008049,1
0.0333414585540253,0.00269928714991926,1
0.110531901587857,0.0219996929291659,1
0.127285680467633,0.0240802922647047,1
0.1710308425418,0.0297599393692696,1
0.158239349459354,0.0214488987018714,1
0.140929490601169,0.018804196296944,1
0.140128967866626,0.0186845916236229,1
0.129487337844206,0.0177804359589596,1
0.110104736572982,0.0100554815516996,1
0.0831140468921781,0.00565181794194311,1
0.076335770726727,0.00900803105660205,1
0.079791772082593,0.00714964219178417,1
0.0980506255213706,0.0105295665411459,1
0.10363001145559,0.0117839992347692,1
0.110101636917915,0.0129878581798453,1
0.113382802049776,0.0132217191162199,1
0.142528648034215,0.0163537410242501,1
0.159302457591428,0.0184950826099291,1
0.204534259662325,0.0220463504560045,1
0.330821953760919,0.0303919314800966,1
0.346076995071381,0.0299116934576243,1
0.3272956923261,0.0321575790610654,1
0.293266985428825,0.0274677508757261,1
0.22289310935284,0.0219068410004914,1
0.174645373683383,0.020250126558157,1
0.17202004775133,0.0197222986462943,1
0.184213912518782,0.0189295642400355,1
0.196958032156715,0.0169054204895793,1
0.205426371694501,0.0227166314179872,1
0.160664377399354,0.0194402304158099,1
0.176901568651424,0.0231754363947388,1
0.183741046236087,0.0248581497950079,1
0.183994877735898,0.0247212643043553,1
0.189118987133069,0.0267744101893619,1
0.193411544078279,0.0183604159395188,1
0.205282023401561,0.0214224629565127,1
0.154253151185018,0.0170094238726013,1
0.0824903815673374,0.00893939687133648,1
0.0783496793657206,0.00995699656526653,1
0.084723255799574,0.00938027321691121,1
0.0867841213581708,0.0088343071409129,1
0.0800140529173339,0.00778133016007519,1
0.106524054120923,0.0121821046314263,1
0.127006121448915,0.0138573353727533,1
0.123702592879574,0.0217613717842427,1
0.0721911721612689,0.013073611289376,1
0.0684938561767314,0.0201877615291905,1
0.0696783989972242,0.0207762852557847,1
0.0618864289667204,0.0302773165916995,1
0.0188523413115407,0.013984351101285,1
0.0148873048748315,0.0163728679503826,1
0.00601009521678591,0.00641872673408192,1
0.00502264280888124,0.0195887248674075,1
0.00484258880543433,0.0275180132794976,1
0.00510449034565938,0.0226017867985731,1
0.00558854312860227,0.0155461357477011,1
0.00594504414357521,0.0183606612766733,1
0.00618448452878848,0.0184691144540758,1
0.00704199444804315,0.0126743575022343,1
0.0077979819638557,0.0142735945695663,1
0.0113463468211478,0.0148607281287224,1
0.0231916689874167,0.0286627567792135,1
0.0446601583536593,0.0184447815191068,1
0.238849788886719,0.0231828661758976,1
0.5574270558576,0.0496980978940025,1
0.606509172230083,0.0325515612552916,1
0.559840138271463,0.0307616114355151,1
0.482534554377878,0.0304290215014851,1
0.412499926835018,0.0287493285611075,1
0.358141660192203,0.0219017884195623,1
0.308048541016717,0.0193889613307808,1
0.246998577601411,0.0157573308637274,1
0.189579217930477,0.0128419105131724,1
0.176208334442277,0.024073920989776,1
0.13613905038171,0.0141648852256582,1
0.172592679659339,0.0314791857746291,1
0.152967006971826,0.018759482114905,1
0.124110793242025,0.014733957394839,1
0.106273308481659,0.0105564419486306,1
0.108817938560775,0.019944685214622,1
0.130073631774764,0.0220805314826684,1
0.1446428325418,0.022201495039065,1
0.139064518345495,0.0171753417931116,1
0.248704431294507,0.0248409485916068,1
0.290460336556446,0.0346064513456493,1
0.200677333886879,0.0243091048933143,1
0.207309431397217,0.0310172042841994,1
0.190951068689141,0.0251736122274367,1
0.159961753786897,0.0203904918308799,1
0.152836066250666,0.0172367714058734,1
0.148063900917693,0.0152186243960675,1
0.110257998691911,0.0121255017142062,1
0.0483705164836958,0.00443871186646776,1
0.0450440619117714,0.011220940048104,1
0.0416257793184827,0.0128828794765308,1
0.0406850976474429,0.0129568097071486,1
0.0400084893124131,0.0127437438873837,1
0.031598060667985,0.0199444663585613,1
0.0221227233891576,0.0141995802903448,1
0.028956045099758,0.0330967203742317,1
0.0333664306131011,0.0342534931821404,1
0.0283221040891958,0.0258536812514191,1
0.0291200341743998,0.0226252048865625,1
0.0333508808255895,0.00918480113516155,1
0.0442707991816351,0.0145702507945955,1
0.0654048253159132,0.00949772646725423,1
0.145468075768702,0.0186681743262191,1
0.148051813987307,0.0172754607482986,1
0.214284407971245,0.0221504738781553,1
0.218495407056089,0.0124974287173904,1
0.264552409023574,0.0157804520407672,1
0.292515872464337,0.0162860662608381,1
0.291667216605953,0.0138591270425137,1
0.27307055303316,0.00962511149106815,1
0.290263413946783,0.0080044003866814,1
0.405203638669029,0.0120632929915853,1
0.405681813435123,0.0106438554488628,1
0.427176639181579,0.0118695019562068,1
0.446901837935743,0.0118565901212016,1
0.573483601695565,0.0215741354571354,1
0.457311649383834,0.014637273145405,1
0.31106972735432,0.00925080946967644,1
0.295562574079661,0.010792994898111,1
0.267278802038195,0.0124907665814964,1
0.187541331131721,0.0106132575038688,1
0.170503037686138,0.0175510727526677,1
0.178016031225539,0.0263835743243046,1
0.200029201753214,0.0282090483336902,1
0.230307924572171,0.047972037231354,1
0.136698609507357,0.0366712222510914,1
0.0972643145719777,0.0312912268551757,1
0.0871708760873217,0.0307948981945007,1
0.0589660217121084,0.0198951925606237,1
0.0668330744695446,0.020268525480135,1
0.0927104805407503,0.029837107899433,1
0.0784833210771616,0.0203282398249585,1
0.0686607210121518,0.0149713163423375,1
0.0693508391250345,0.0172230869169431,1
0.0728219170849923,0.0166197054971584,1
0.0907120668928655,0.0193395875402987,1
0.0828321017198654,0.0147857030412642,1
0.0684630291693468,0.00633433048792315,1
0.0664514573317874,0.0053052701229475,1
0.0689664816235244,0.00697149624314193,1
0.0692416017771128,0.00700868153843592,1
0.0629221218795419,0.0066759358930119,1
0.072756441714875,0.0107571251127375,1
0.0797437295771918,0.0126074105022395,1
0.0838539901939197,0.013662059968747,1
0.087627958690157,0.0128636954739478,1
0.0493800040452687,0.0119830939480331,1
0.0158043940748412,0.0122581222911853,1
0.0160751151006312,0.0136491040694179,1
0.0151403423837288,0.0181377508144621,1
0.0096201837685418,0.00962361765988977,1
0.0106278792184545,0.0157748790209635,1
0.014898327545074,0.0244606379105442,1
0.0214974025661968,0.0306310321355847,1
0.0207594595223524,0.0287967516327755,1
0.0413765996387604,0.0411562169256492,1
0.0650485886761633,0.0585708707225611,1
0.0687197442307935,0.0695372411149358,1
0.0629604214721737,0.0526979448721149,1
0.236114116846163,0.0319198297442771,1
0.393864879682372,0.0408643595783518,1
0.474487205473057,0.0467991810770915,1
0.499199563588955,0.0463448684763246,1
0.544734445063607,0.0486996253133925,1
0.446595890650029,0.0364760526820605,1
0.376639699906428,0.0291606976915411,1
0.344461460885026,0.0272947926238653,1
0.322486995067495,0.0264665508019544,1
0.258224353268677,0.0197654561272706,1
0.248960122486966,0.0422641055187388,1
0.258253829827892,0.0432548284076537,1
0.263028935450644,0.0432901059719022,1
0.232259378838564,0.0482224220374685,1
0.107342929463851,0.028144187651573,1
0.0778144861275204,0.0185080340797871,1
0.0892261697354437,0.0208106085235791,1
0.0913066451884286,0.0188681335979648,1
0.119011296037916,0.0189889663982193,1
0.118744947118124,0.0273281051571593,1
0.0854947787660258,0.0199675724617917,1
0.0761642014253361,0.018959574827803,1
0.0708629019478971,0.0184036711572128,1
0.052325551380759,0.0131837898307706,1
0.0272385653738807,0.00345733531361143,1
0.0257804880742115,0.0135209612533558,1
0.024194870743159,0.00912321869597122,1
0.0237513341753532,0.011106755172241,1
0.0239118884861042,0.0177554849127138,1
0.030281233175149,0.0229380177496787,1
0.0421668928589475,0.0386135523539856,1
0.043006437291327,0.0375994268727696,1
0.0372818246660009,0.027606539439727,1
0.0353007524276218,0.0263718080788333,1
0.0699969231413671,0.0188062157342961,1
0.135180195125498,0.0316495352615664,1
0.16032156812015,0.0278935223726788,1
0.156459362442462,0.027582792449181,1
0.160924061164771,0.0272002289808338,1
0.145963323647585,0.0178117283807368,1
0.128279837507302,0.0163545282871599,1
0.124591865459477,0.00566019601236788,1
0.171547299681926,0.00954326422730003,1
0.156413413784419,0.00555937413579082,1
0.152182343703329,0.00850831060945409,1
0.14284362867877,0.00733190316716956,1
0.141788050265785,0.00719484489402819,1
0.135350890377316,0.00754070573871124,1
0.147100744879665,0.00991562862866631,1
0.142605495308656,0.0081363542838041,1
0.130493685311712,0.00664238685172527,1
0.132456167837572,0.0171091933087744,1
0.0813821745222712,0.00913074419427718,1
0.0855463967669534,0.0103762172545145,1
0.0895914270794217,0.0109557914854502,1
0.0870229602308458,0.0119246457752257,1
0.0841321189662352,0.0165613237027501,1
0.0745167262326732,0.0133402576800478,1
0.0464031585708065,0.00682645017790928,1
0.0356149206372397,0.00876981076757564,1
0.0388325953084256,0.010241240767765,1
0.037914752539649,0.0104764873111614,1
0.0272925236322815,0.00831912027254305,1
0.0271822290041853,0.00891359296253772,1
0.0346330154105111,0.014183511793021,1
0.0411827371115729,0.0177157651089481,1
0.0412457016982996,0.0142667272851212,1
0.0450349111493884,0.0118709881493953,1
0.0578982992975557,0.0148848071470048,1
0.0639962799045227,0.00809039260231588,1
0.0874379903452014,0.0133104260594944,1
0.108431353284363,0.0195141684259115,1
0.0975264939479161,0.016510353282844,1
0.105741652109892,0.0260933467759247,1
0.119144311956122,0.0280453065202255,1
0.129218421535878,0.0286432946174987,1
0.13215475092682,0.0343234503809751,1
0.0993282064511754,0.0428142440891082,1
0.0236426832156221,0.00882968489345388,1
0.00156411665951898,0.137599986436199,1
0.000932106562642717,0.270482971675026,1
0.000761289923807192,0.0972630470236097,1
0.00267506243372876,0.182236398807672,1
0.00572248835010289,0.321754195515963,1
0.0102789012975512,0.265151893171082,1
0.020613500101082,0.265700985717421,1
0.0349108379020279,0.15395476164518,1
0.0729976000218188,0.128808028690166,1
0.0814914754912383,0.0843161818836324,1
0.100360332566629,0.0593460856985604,1
0.113115800647528,0.0507526413993762,1
0.134150307704906,0.0305039829948786,1
0.200227880223559,0.0381296382076787,1
0.207154451291573,0.0391084205696529,1
0.218461584328552,0.0394748381089126,1
0.228748779410885,0.0365190530944758,1
0.238279366864142,0.0273570955479406,1
0.21543782204759,0.0271923373094861,1
0.159025804106368,0.0215824156667019,1
0.115415625942738,0.0167872624666966,1
0.0782223008782335,0.00889722321340181,1
0.0592794335387353,0.010219995073588,1
0.0614092416459555,0.00862805954622861,1
0.063127617340354,0.00577751597668481,1
0.134028341791853,0.0152275292667374,1
0.158741527127002,0.0217697912221434,1
0.168445551246733,0.0236696799151114,1
0.239143781744077,0.0298066663905785,1
0.262453025865284,0.0311743074468831,1
0.258476038491995,0.0347750237195814,1
0.209574430984577,0.0296521008727809,1
0.195579281149632,0.0275300363378641,1
0.130414386308615,0.0256111056759082,1
0.0568233388107092,0.0172935442681064,1
0.0534383611512735,0.0199754012204122,1
0.0365817222791404,0.0171064722971299,1
0.0214264622346397,0.0160012630085185,1
0.0215321173219729,0.0132843720684031,1
0.0204654971957125,0.00761884737706848,1
0.0342118636180426,0.0144781265039049,1
0.0610730246737105,0.0262344998735121,1
0.0681737634370241,0.0214983963204544,1
0.067954796795977,0.0299834433236381,1
0.0590409726863275,0.0190596212550558,1
0.0663265947872954,0.0219413743712544,1
0.0607583972194011,0.0180277774747836,1
0.0609387360286517,0.0164568161440285,1
0.0603561958230614,0.0190298334671245,1
0.0590854135738349,0.0205988774452701,1
0.0578058646853047,0.0220901323517567,1
0.0551230145617591,0.0132985090264338,1
0.0654352282453656,0.0175218418471537,1
0.0660364513653488,0.0149257416851043,1
0.0717656846629269,0.0200129179811375,1
0.0568333715733465,0.0157761570261806,1
0.0495369816675134,0.0118755280524456,1
0.0505505180444919,0.0142038460684136,1
0.0503555911553731,0.0134743794150111,1
0.0468897659812355,0.012770771254163,1
0.0479396870396329,0.0139852398814409,1
0.0373475974892721,0.0219923377381471,1
0.026832787618804,0.00959877361620011,1
0.0603787693203113,0.0322023904058614,1
0.0633436456391489,0.0218346622175427,1
0.0556272644181457,0.0164614537440324,1
0.0548765526250767,0.021781468093986,1
0.0530311859487046,0.0213508212774737,1
0.0524166091127517,0.0213472289897373,1
0.0518627011624683,0.0221631403806238,1
0.048520587619799,0.0143985751607029,1
0.0464422055231504,0.01318143576617,1
0.0453407993625472,0.0255685348194574,1
0.0275956552016467,0.0125690268042265,1
0.0200922405400782,0.0123452250878188,1
0.0208847666186485,0.0161643822755681,1
0.0223570152033585,0.00591056215894333,1
0.0481298086235312,0.0175876142635962,1
0.0719390358200113,0.0253938293440096,1
0.102487195802167,0.0332525393275739,1
0.124961302547974,0.0515400324979478,1
0.124052502544451,0.0500850120714056,1
0.111764571335144,0.0483855691067966,1
0.0933470373190695,0.0503714464082062,1
0.0841585152055101,0.0524966504288442,1
0.0396723340133963,0.0339237828481718,1
0.00454714556967728,0.0512214126499971,1
0.00219098403203055,0.132289295421121,1
0.000189928641037252,0.0939865353465938,1
0.00012369242631181,0.204801165874749,1
0.000707015419670767,0.264635048995588,1
0.0010639067275542,0.150861702670063,1
0.00357135933564614,0.121716557754901,1
0.00696215523867699,0.181765817802347,1
0.00877930342408285,0.188840828753616,1
0.00898135761869204,0.192044707043345,1
0.00838334856682946,0.16187777883792,1
0.00666452682538271,0.0954175295775298,1
0.00520501057572924,0.0812595758859853,1
0.00413916326174408,0.0709985225313795,1
0.00458003910752311,0.0798752164154507,1
0.00518157944666624,0.099004040898818,1
0.00591633675513109,0.220794504449451,1
0.00479544545089942,0.0765030515248334,1
0.00501805414273747,0.0712134803430131,1
0.00462816308189118,0.036438803367087,1
0.00408755774662327,0.03305252651047,1
0.00393563791550521,0.0364572916534461,1
0.00399460778020572,0.0359086660621356,1
0.00407070241272041,0.0331203349029015,1
0.00408913165762144,0.0336591078592198,1
0.00382548021134848,0.0317025539081679,1
0.00343574931672826,0.0230572036100054,1
0.011556925248082,0.0292206525401762,1
0.0182254676164678,0.0289373641073583,1
0.0182885090716633,0.0332866429187514,1
0.0165543232545657,0.0302473613269397,1
0.0163001314366517,0.0301918780433851,1
0.0155505642010197,0.0282651397771472,1
0.0160635516310194,0.0287622341238775,1
0.0125426190832561,0.0161041926107659,1
0.0110730750922701,0.0134089521600916,1
0.00890337855861408,0.00945940380177402,1
0.00679667436139769,0.0136636290724818,1
0.00604138515046142,0.0174358848324557,1
0.0187083905190748,0.0188324698021177,1
0.0445872827493616,0.0373756213265839,1
0.0542758619522473,0.0441224189787788,1
0.0532654528759375,0.0270588545192398,1
0.0577949677027344,0.02652813075503,1
0.0667474564664681,0.0146464456397204,1
0.109971133842389,0.0260654612640208,1
0.119087147228335,0.0240373886648949,1
0.129989216602002,0.0241397293111299,1
0.153714841473522,0.0284800794978579,1
0.159846190658341,0.0168163983998534,1
0.17130685189972,0.0198014436517594,1
0.174112647900584,0.0197396423400177,1
0.16179080273041,0.0179402694117486,1
0.109030169399267,0.0100316211417772,1
0.137328475600097,0.0169782574557482,1
0.191348094257326,0.0242614668917811,1
0.237279122656873,0.0288588661944031,1
0.241084373840193,0.0347263910836878,1
0.176760112442498,0.0272300522515605,1
0.130138932456609,0.0374923051640687,1
0.130705992475644,0.0339623391651682,1
0.116756318219047,0.0298058902335177,1
0.0889746278960544,0.0450681543938967,1
0.0127440664541548,0.00611248127471389,1
0.00210322904100798,0.0133472002446987,1
0.00807084527307458,0.0301023590853275,1
0.0200912821318697,0.0566028551713129,1
0.0272037129770018,0.0714336721571553,1
0.0351707689375739,0.0763117719426988,1
0.0325008496779743,0.0312704056952681,1
0.0336388951352141,0.0335640182263688,1
0.0376795553023817,0.037368372851975,1
0.0383165862099432,0.0396134862470085,1
0.0371259156176292,0.0394769444047083,1
0.0370356257308423,0.0399718760485655,1
0.0357782295021808,0.0618735991288645,1
0.0283994728713643,0.0497357075934374,1
0.0207674935867408,0.0405536690454856,1
0.0079810784715802,0.00746230577762345,1
0.0196300579024424,0.0377587041822134,1
0.019940331640542,0.0230803484890401,1
0.0176414637220067,0.0200611945606208,1
0.0157034188423351,0.0179578527793492,1
0.0150681947706033,0.0165263898890369,1
0.0173650694922726,0.0174067141324648,1
0.0160059527591562,0.0143257023347628,1
0.0177682125760222,0.00980305588467475,1
0.0290578811455509,0.0186001501928763,1
0.038890315387652,0.0266517873173246,1
0.0416306637248207,0.0292893741863276,1
0.0600802154219753,0.0214877937425274,1
0.109657061949099,0.0323218828449912,1
0.105087279350808,0.025594986844608,1
0.0954724411001476,0.0234891857281969,1
0.103520005217854,0.0212824000216918,1
0.128046336212577,0.0276032325097834,1
0.117645270454489,0.0277098068282008,1
0.11361211294897,0.0152095444844142,1
0.121802766147199,0.00620147477801484,1
0.150296440265602,0.00828963076828529,1
0.137357294253436,0.00830035452278911,1
0.142974625482868,0.00909803187365537,1
0.151310396710306,0.0103512135945458,1
0.155616041803379,0.0110558468800467,1
0.165998857405733,0.0137452499198461,1
0.148594270582332,0.00973264790735419,1
0.150567375968899,0.00801425186945328,1
0.145992150898264,0.0103415822445302,1
0.163620386569117,0.0250686375126659,1
0.121668834014968,0.0189189659688227,1
0.12514323153393,0.0104916925381553,1
0.151664157200564,0.0126105805131425,1
0.155377897562794,0.00996641836318384,1
0.162452190725084,0.00997362697644849,1
0.169750718698434,0.00939042546628211,1
0.155110054143716,0.0129080527334191,1
0.132144995317986,0.0127185625604809,1
0.128270443516084,0.0113284575861149,1
0.132964030311712,0.0126722578817437,1
0.14602912994974,0.0162439297444838,1
0.131680658099291,0.0334797754301607,1
0.0469283873850994,0.0136584524049089,1
0.0341659083011803,0.0166999802479501,1
0.0355219498437437,0.0176234573752342,1
0.0311975947643106,0.0107000170851944,1
0.0333891279126732,0.00709116823568658,1
0.0459967321783529,0.00972020400362036,1
0.0461381074621159,0.00411167422042053,1
0.0556469818858544,0.00981003075265793,1
0.0633998323837069,0.0115094972429813,1
0.0742009584159199,0.0146921586164818,1
0.0882273661562537,0.0184175905231579,1
0.0953571937079042,0.0218038224133223,1
0.0821519136026005,0.0178746313475863,1
0.0812447074338479,0.0230646679847969,1
0.0799185891960196,0.0328394127147427,1
0.0322903857127109,0.0207791816978764,1
0.00160674761582137,0.0174980094810223,1
0.000746139850822851,0.192087030267225,1
0.00109981403520888,0.17130644712419,1
0.00115097748811339,0.137120456073457,1
0.00109033216897926,0.130582884531686,1
0.00106471945584616,0.129990046819425,1
0.00107670267067839,0.13262777904305,1
0.00115790386267761,0.141085504151952,1
0.00126976488555285,0.158250933550713,1
0.00131535495859706,0.185915251543629,1
0.00126701956548075,0.183012213033423,1
0.00116102156759588,0.188417348864476,1
0.000417591724038179,0.175580549027011,1
6.83715323252403e-05,0.346680060817952,0
5.72659964635638e-05,0.501557617098826,0
6.63747755984707e-05,0.567535345662275,0
6.09502041520674e-05,0.550710829184178,0
5.76048639773139e-05,0.557211158919509,0
3.96439683994708e-05,0.5319695963876,0
1.86617681018293e-05,0.52668873160401,0
1.99211250173458e-05,0.76086713007853,0
1.44822319037964e-05,0.727290930314571,0
6.09560959311867e-06,0.495879998450035,0
2.87499848401284e-06,0.532368701594172,0
3.64149623646504e-06,0.583148235665244,0
3.56430652109048e-06,0.579098321723565,0
3.61772573811616e-06,0.617903183906177,0
3.02035560439818e-06,0.559195680251129,0
2.27816799019382e-06,0.48656943902769,0
2.2094555217675e-06,0.461179087808284,0
2.42649681026682e-06,0.476452820366455,0
1.43858002295624e-06,0.384288943493452,0
2.19038372574055e-06,0.510366265941045,0
1.86732033928253e-06,0.440048076044281,0
1.93855048158058e-06,0.39416842407985,0
3.9511942379669e-06,0.555784031830182,0
4.30951619620782e-06,0.549291338006276,0
4.21144739475706e-06,0.547657299350904,0
4.16183229036438e-06,0.548730369394863,0
3.6389007932396e-06,0.540820849343411,0
3.16883444281352e-06,0.502771991618607,0
3.61253388318018e-06,0.551360640165138,0
3.36954329539752e-06,0.540460568526772,0
3.09389006329995e-06,0.504967521435745,0
3.14562953976434e-06,0.622130448713972,0
1.51737364650859e-06,0.447488384380276,0
8.18187933024892e-07,0.379901187619843,0
8.2501294438874e-07,0.377854920018075,0
8.58212613692832e-07,0.377298474190469,0
8.17051318908926e-07,0.368122119821745,0
9.9417862458749e-07,0.413490135710609,0
1.10365511520879e-06,0.44497460215539,0
1.09147350959307e-06,0.486499474965752,0
4.92852867911106e-07,0.404223853855999,0
5.69782254490188e-07,0.390196527251142,0
7.03539054018171e-07,0.405391937719805,0
7.15767824858369e-07,0.377608193374679,0
8.84818836421011e-07,0.412103162598157,0
9.73268643836526e-07,0.413809758438166,0
1.18957862923516e-06,0.437156569961471,0
1.37022095474372e-06,0.427041616707122,0
1.34560709956783e-06,0.395367045367563,0
1.18047022054581e-06,0.372376141073956,0
1.09093890581664e-06,0.353519514019351,0
1.28827036030367e-06,0.395262528436464,0
1.29549370959007e-06,0.408850951329791,0
1.32516818997059e-06,0.432439096948136,0
1.07773845387339e-06,0.382529086193895,0
9.79140472162773e-07,0.37982912878825,0
8.1866355605859e-07,0.367144611914912,0
4.77608040765576e-07,0.347532353258356,0
2.71735322465052e-07,0.309800928776185,0
3.80070065999341e-07,0.338599627572612,0
2.88139038883898e-07,0.313158917782336,0
2.20351376881686e-07,0.290716548756427,0
2.1514751273044e-07,0.287510692431873,0
1.70985657402837e-07,0.280297897249827,0
1.91287429509606e-07,0.292022876256429,0
2.19015254834665e-07,0.288583937079496,0
1.57665500700949e-07,0.265868171163167,0
1.78551947263928e-07,0.27007938091983,0
1.79502902785798e-07,0.260889196668583,0
1.30745488799652e-07,0.234223137945067,0
3.58922612701315e-07,0.307528070274938,0
3.37186320461138e-07,0.295454739033123,0
4.36815448260085e-07,0.321961155534946,0
5.05738271650608e-07,0.3382184622392,0
6.41706606909509e-07,0.369105938095893,0
6.16703420722526e-07,0.35686846497434,0
6.9428421038136e-07,0.340902193206629,0
6.62842825780351e-07,0.318282970488402,0
5.94618086451508e-07,0.301579356875433,0
5.53558192057804e-07,0.301643509437463,0
6.43767543207033e-07,0.333241721155848,0
9.92938963656649e-07,0.410239854624027,0
1.01426975118453e-06,0.404319026524001,0
9.30857519028206e-07,0.386403394295287,0
6.99294280663652e-07,0.343471478646851,0
6.81115427900949e-07,0.356811397189374,0
4.24626191612059e-07,0.313283303938961,0
4.08768991336397e-07,0.330659929151117,0
2.86860638548968e-07,0.302742315779326,0
3.88498113904388e-07,0.341945978085312,0
3.38938794253605e-07,0.333686242977249,0
1.57173219723491e-07,0.255005286979867,0
9.46047239371419e-08,0.238097228012681,0
9.31527710718943e-08,0.241045586092182,0
1.25449037472633e-07,0.250983037955984,0
2.33995395001758e-07,0.290251444267356,0
5.17333750082462e-07,0.379112186697856,0
5.35404229362227e-07,0.376333501792752,0
5.45541556624181e-07,0.376415778728622,0
5.25382345524458e-07,0.369424325363618,0
5.41262305200024e-07,0.361753292705254,0
4.53022465354669e-07,0.332387900478469,0
4.87453757163251e-07,0.348071839724902,0
4.45913784704377e-07,0.333865138288878,0
4.7215585703412e-07,0.340233557152078,0
5.43569720956062e-07,0.331785120788979,0
5.72398423296813e-07,0.318187266503433,0
6.14770324458495e-07,0.327170375291934,0
5.99753478706027e-07,0.324420335252827,0
8.26731521202633e-07,0.368269040080525,0
1.1076212553994e-06,0.429133035910778,0
1.09205372901781e-06,0.431662389404916,0
1.10206786497476e-06,0.41290400044557,0
1.75965142925601e-06,0.513837103411206,0
2.03106056593864e-06,0.556451373076043,0
1.9694935805965e-06,0.57870063177429,0
1.90637769703037e-06,0.612579821813898,0
1.89276002170508e-06,0.625146332287934,0
1.95541219460426e-06,0.616863327927547,0
1.98205899685822e-06,0.621334711026876,0
1.62090480078438e-06,0.554840487656488,0
1.60801116492151e-06,0.568895230332425,0
1.59308216076781e-06,0.594310707566388,0
1.04225819585059e-06,0.457231961803233,0
4.83566257962941e-07,0.316476019369582,0
3.53368447488595e-07,0.286566849483482,0
4.39526141212688e-07,0.307694164869969,0
4.7844335916624e-07,0.304656590793566,0
5.03222631597592e-07,0.311629152402375,0
3.43901408765888e-07,0.283079945029474,0
3.55824525707824e-07,0.283841657413367,0
7.2171170847622e-07,0.352986518203024,0
7.97341388048124e-07,0.342767016787185,0
8.70779676379234e-07,0.381049068838993,0
1.01529005023971e-06,0.422284013505043,0
1.18760214483855e-06,0.421775297733398,0
3.79433722862928e-06,0.681510162420923,0
6.51903205459718e-06,0.784792397496041,0
6.95573912937433e-06,0.724647072571898,0
1.06292809882957e-05,0.814393126530756,0
1.3172617681416e-05,0.898117484577231,0
1.56562930773297e-05,0.979031252157876,0
1.51730644332734e-05,0.952256772392718,0
1.10993956661283e-05,0.793099702972718,0
7.48542832814836e-06,0.606535468329566,0
8.42332944562798e-06,0.66530187147214,0
9.31637265753705e-06,0.52881651254215,0
1.16372322458248e-05,0.619394179638481,0
1.17379926610716e-05,0.505672007113409,0
1.54434267344091e-05,0.593176306793196,0
1.78414187037533e-05,0.64856273582398,0
1.85543322093184e-05,0.650187971798548,0
1.60836244415293e-05,0.606327809371605,0
1.53554317275976e-05,0.592250278104071,0
1.56941879624094e-05,0.606068583851297,0
1.63058792790309e-05,0.613598397303381,0
1.56248180862957e-05,0.852238629392779,0
6.87550042920097e-06,0.563851882813017,0
2.78559868956056e-06,0.575552422724914,0
3.15146989232476e-06,0.663063665034358,0
4.11155406422222e-06,0.74756929611559,0
5.40818351629166e-06,0.846408905396202,0
5.75283027119222e-06,0.853113867272306,0
5.77327450745752e-06,0.849348378197535,0
5.53819731459659e-06,0.851431613130377,0
4.84848677511046e-06,0.785891283247576,0
4.04259937767184e-06,0.707079954219331,0
4.2724686387441e-06,0.747977349956225,0
5.1655738336997e-06,0.873429716940628,0
5.79788410129896e-06,0.958535464308555,0
5.23372303119056e-06,0.993584403810669,0
2.80514736765184e-06,0.755368753600719,0
1.50903973535547e-06,0.617489703257336,0
5.72311937577185e-07,0.408641354983541,0
2.46080442652784e-07,0.358936455774117,0
3.03026591875217e-07,0.40242229275473,0
7.17071212108936e-08,0.2978680147666,0
1.27739311042363e-08,0.266574930339944,0
2.67611803445328e-08,0.25998480684587,0
3.45203924379864e-08,0.247579780689685,0
1.57084119094087e-07,0.296538158195026,0
5.45445482902041e-07,0.412874589783278,0
5.944616761075e-07,0.398755684650444,0
6.25495715874516e-07,0.383601501757225,0
8.78410661045154e-07,0.428092533101367,0
8.53192471165478e-07,0.435604725183913,0
6.86507952950108e-07,0.387352906541149,0
6.51547965124226e-07,0.380283370787639,0
5.9202719510605e-07,0.36260169409327,0
5.7805205192953e-07,0.338668370597393,0
7.04173605457145e-07,0.385337837713564,0
7.12950792241541e-07,0.420854796282909,0
6.36871154491148e-07,0.420650050211389,0
6.47089156562115e-07,0.458999246328936,0
7.91184147162253e-07,0.504638693482816,0
8.68043124874403e-07,0.523779201381076,0
9.76261650196427e-07,0.556891038728637,0
8.29487345560999e-07,0.502006993151078,0
2.91351310270939e-07,0.368121400854351,0
3.87429874836639e-08,0.284769470034231,0
3.19111967240966e-08,0.272990115627105,0
5.20003863509283e-08,0.271197558712459,0
6.89810293451658e-08,0.270720826356929,0
9.65241161369759e-07,0.515961366688127,0
1.43629207375076e-06,0.546795279858852,0
1.7032767830924e-06,0.559026711901699,0
1.5219007332704e-06,0.487374141697598,0
1.63776031550341e-06,0.520097209145709,0
1.95311291412309e-06,0.567069549446379,0
2.03415729705299e-06,0.563614490940668,0
2.01467137679633e-06,0.548047874717835,0
2.26140264143781e-06,0.541360661964115,0
2.23928486291586e-06,0.52212435563628,0
1.79444997061536e-06,0.521535500070129,0
1.43904412101723e-06,0.503352342562396,0
1.45415374764248e-06,0.500553777453765,0
1.48827880446174e-06,0.504502382366051,0
1.34827614766103e-06,0.484701250838664,0
1.05865309905501e-06,0.406408667388576,0
9.52473331721667e-07,0.387546204171938,0
8.44536151321838e-07,0.378101650318728,0
7.06114740147524e-07,0.379295313118956,0
7.13859231267424e-07,0.400346251900902,0
7.50199407212482e-07,0.38957943713223,0
7.3268919656435e-07,0.368902470274511,0
6.87362544204306e-07,0.386187345985418,0
6.81232420901296e-07,0.40540255979479,0
4.82193236633525e-07,0.342128559944417,0
4.00690953947292e-07,0.356806925524689,0
3.98894995173737e-07,0.353049944174895,0
4.49812518331872e-07,0.350545518757846,0
3.70870232316337e-07,0.322376367578593,0
4.73068266848922e-07,0.350136441917685,0
3.55825300495906e-07,0.313737379029061,0
5.2300907278147e-07,0.364246542436208,0
5.38628509964537e-07,0.361281790468445,0
4.81944529659275e-07,0.359871709874869,0
5.29937324657219e-07,0.376132469748558,0
6.02256818998245e-07,0.392831965816785,0
6.02302918889111e-07,0.388173808286612,0
8.89449066846214e-07,0.472350521693485,0
1.22055388195647e-06,0.558098775164469,0
1.15377150749037e-06,0.524240196276594,0
1.14992313508819e-06,0.539573376512652,0
9.19144369656431e-07,0.500242013768831,0
8.52605472345022e-07,0.477490755919789,0
8.64066137650648e-07,0.480226689303104,0
7.1883676045028e-07,0.451147429357645,0
4.90386620598303e-07,0.372737480393081,0
4.2542063994141e-07,0.36675050030201,0
3.66172595328021e-07,0.34626634532215,0
1.36585066571995e-07,0.24581965529172,0
8.47904833052889e-08,0.235299490605068,0
6.50969198427138e-08,0.228619497626017,0
1.36793194020463e-07,0.267221726622777,0
2.72930820475233e-07,0.326223571893375,0
3.46192457123699e-07,0.313135675090679,0
7.51779974899303e-07,0.411249451722214,0
7.85704071059852e-07,0.424288636084548,0
8.21700725339153e-07,0.419512581426086,0
1.17011372510522e-06,0.47651025555373,0
1.13689274912888e-06,0.462661407659729,0
1.15225950854878e-06,0.461662877677238,0
1.2102344794953e-06,0.452577718322254,0
1.85363167399925e-06,0.513134574489824,0
1.2573144772844e-06,0.401226960268834,0
1.1630379729484e-06,0.393163765150206,0
1.19068434867637e-06,0.401971895598236,0
1.19081054228518e-06,0.400342248649338,0
1.14455491901509e-06,0.403687896075539,0
1.02255523808253e-06,0.402993366958819,0
9.25661790151819e-07,0.40272102966741,0
8.47757623317352e-07,0.38252550021643,0
8.70900252774461e-07,0.392510798623065,0
3.79166275701951e-07,0.306050154638172,0
7.66653291159621e-07,0.439588670561674,0
1.13911590668103e-06,0.510281108160316,0
1.15228420491889e-06,0.505347496798721,0
1.4537805903326e-06,0.525961141374596,0
1.5674249565913e-06,0.509194389028113,0
1.89275847212892e-06,0.559271759973055,0
2.16594497267114e-06,0.583828970195162,0
1.8052825733322e-06,0.542294949502706,0
1.4061842931355e-06,0.489776009392088,0
1.47986460589366e-06,0.478465816133421,0
1.39364977154854e-06,0.474498874231631,0
1.2782958353874e-06,0.462538405252176,0
1.36144764189973e-06,0.46656686573834,0
9.93522379082225e-07,0.409517681827075,0
1.02531890717022e-06,0.409379560784482,0
1.06547694823674e-06,0.422054306361395,0
1.10427417088613e-06,0.432480901180743,0
1.10686922671752e-06,0.4263428040173,0
1.143189742415e-06,0.438683780536803,0
1.24553237177335e-06,0.483217931996559,0
1.42664828649689e-06,0.5239720770769,0
1.55874045383118e-06,0.581166970678946,0
1.3755805512994e-06,0.548077262564982,0
1.28998312620695e-06,0.574472465303428,0
1.24471952222706e-06,0.610702132964387,0
1.13808398580461e-06,0.527110490162239,0
1.04239523649256e-06,0.47525053511657,0
8.9704044047145e-07,0.445764211329441,0
9.25751665569304e-07,0.449162169768288,0
9.31990356052272e-07,0.439627826701346,0
8.57101664432077e-07,0.391025142313854,0
6.46931777733005e-07,0.321419026891998,0
6.71396970445706e-07,0.341961285749194,0
9.38295968855803e-07,0.391990016162811,0
9.92212212435943e-07,0.394727470910351,0
9.62228688459305e-07,0.41559593008038,0
7.01307180100106e-07,0.374210984387099,0
1.00440350290268e-06,0.428145826434477,0
1.49008715984461e-06,0.506164935411377,0
1.419036477836e-06,0.502251749170802,0
1.36845056397686e-06,0.501627726814043,0
1.67969794794525e-06,0.531559871953833,0
1.77904127579054e-06,0.51676904001067,0
1.8050258279316e-06,0.528390656926764,0
2.0346482221513e-06,0.583711035412362,0
2.08118199434275e-06,0.560116156325691,0
2.06747550893359e-06,0.5653215588751,0
1.88483054993066e-06,0.574238042961396,0
1.44609934128987e-06,0.473286769752724,0
2.00489171108262e-06,0.519980883653432,0
2.08442167385819e-06,0.51853717340564,0
1.66506994896133e-06,0.509645530996754,0
1.80308459639271e-06,0.548769004948226,0
1.69667355481696e-06,0.519391342698828,0
1.58981633215461e-06,0.495812623792375,0
1.63527702285281e-06,0.503178446763322,0
1.70323910902192e-06,0.503574673428131,0
1.77178925934511e-06,0.494010921858071,0
1.8020878315255e-06,0.524690090235637,0
1.62658089827146e-06,0.536276455754717,0
1.97380130548266e-06,0.647318895480764,0
1.791409992728e-06,0.557700952382282,0
1.83921906610206e-06,0.56318226098691,0
1.88130022803605e-06,0.51011196648438,0
2.27069777405487e-06,0.530858397242517,0
2.25314185090991e-06,0.5351171458827,0
2.05646354277582e-06,0.518495894565742,0
1.91872597893218e-06,0.514056219965363,0
2.11465932832565e-06,0.53806623989788,0
2.19260688329269e-06,0.430043452245743,0
3.00995727040119e-06,0.465081298374228,0
2.83005680448093e-06,0.464219992768512,0
2.42162881674902e-06,0.425055469506585,0
2.63688131326454e-06,0.47458886263313,0
2.29603808990593e-06,0.452896258663843,0
2.35588804801035e-06,0.447529979004707,0
2.40192411570777e-06,0.451605206586457,0
2.38155290321917e-06,0.448744920198477,0
2.15851620769456e-06,0.428558347167125,0
2.23881766570255e-06,0.502434656996848,0
1.67802682690137e-06,0.461390035672384,0
1.69049432931926e-06,0.460015782703319,0
1.70419442272675e-06,0.4748904710424,0
1.21231294537318e-06,0.401655455084225,0
1.24266633381035e-06,0.415161206130699,0
1.25035688031006e-06,0.416451471793112,0
1.01152119046443e-06,0.357322654672902,0
1.08478079329418e-06,0.363377542087513,0
1.16223490510164e-06,0.367397810146421,0
1.77915516963856e-06,0.498466096838439,0
1.93385991453351e-06,0.52763738954404,0
1.95485473457942e-06,0.537504014787754,0
1.86451977091244e-06,0.533655973159084,0
1.78216677091242e-06,0.528700943206761,0
1.47033132278996e-06,0.493078546547221,0
1.58656222221116e-06,0.540999836330911,0
1.25198751867666e-06,0.490915981813018,0
8.04430698996372e-07,0.390450183876073,0
7.82542935686209e-07,0.40077038862811,0
6.50504325578072e-07,0.363114255558572,0
5.45285779708684e-07,0.354141546100394,0
5.7278504254962e-07,0.351238148353027,0
7.12865178158505e-07,0.376968296537378,0
7.17309653141101e-07,0.375701701168371,0
7.12194599073728e-07,0.374580730243511,0
5.94446083497353e-07,0.348288763038095,0
4.99459485884407e-07,0.357651030695724,0
2.52416756434056e-07,0.294937964379486,0
1.90394195699829e-07,0.279196704966566,0
1.1116242948724e-07,0.255483372959599,0
1.1412938359789e-07,0.259307867123918,0
