Activity,Complexity,Tag
1.8732372745455e-07,0.164208644732681,0
2.10067785122364e-07,0.168796155680374,0
2.21305861022326e-07,0.172883951832074,0
2.60245177667839e-07,0.186202000848564,0
2.51412091100326e-07,0.189868254626499,0
2.35650021940452e-07,0.191232897763166,0
2.34958479646499e-07,0.190977389333865,0
2.34819493205067e-07,0.182122807977983,0
2.51864901324888e-07,0.177425268074222,0
2.76411468296326e-07,0.198821525814882,0
1.29565050836232e-07,0.143739763115706,0
9.72540417542015e-08,0.134896645100629,0
9.07885527492326e-08,0.133366306485106,0
6.63716242767489e-08,0.118946672236481,0
7.30717363654065e-08,0.123030012867718,0
8.49360216866314e-08,0.131914205828893,0
8.44150022993864e-08,0.131612412097501,0
9.05760154637021e-08,0.141409633042901,0
9.3315578957085e-08,0.156118260633015,0
6.6655144290313e-08,0.133123731039581,0
6.19158401795206e-08,0.133374962104725,0
5.649033545619e-08,0.135843964372349,0
6.08085712569825e-08,0.139137367753519,0
5.95753619226218e-08,0.139616591890681,0
5.31020658448154e-08,0.1306258296198,0
4.38297287055635e-08,0.114560584518851,0
4.01357505578244e-08,0.108884780690418,0
3.11617257806702e-08,0.105588791335162,0
1.63323963755647e-08,0.0958592174400879,0
2.64595052658551e-08,0.102409116005682,0
3.30836011189919e-08,0.097228688388664,0
7.25194886868123e-08,0.113881739489987,0
9.01270060509166e-08,0.118299298981968,0
9.29437157508889e-08,0.111494464381419,0
2.3102114682045e-07,0.16232712858643,0
5.45035586886764e-07,0.230073720692902,0
3.45109518098868e-06,0.466936601887055,0
6.24885506069201e-06,0.519303971333192,0
7.14911996057337e-06,0.504497260016853,0
2.77970047663645e-05,0.386022008153007,0
0.000110182854842297,0.509907459234061,0
0.000205932384906666,0.50393913531747,0
0.000316616121613622,0.168464793879399,0
0.0011314713595944,0.170614866533274,1
0.00143886236001259,0.115523182034818,1
0.00131345230853479,0.0917540706897379,1
0.00155557804962192,0.0586552328055815,1
0.00160230823603865,0.0472620245631097,1
0.00128342268515356,0.0381695784758042,1
0.00108839838514857,0.0338563210450728,1
0.001021488433615,0.0339366753419946,1
0.000962337488825722,0.0317921037577191,1
0.000884880232018623,0.0353741422871536,1
0.000796089000618742,0.0385914697147885,1
0.0008974368937579,0.048588633190623,1
0.000984492566948142,0.0567700387855403,1
0.000714713101117967,0.124921403947722,1
0.000383707756059078,0.141090689836905,1
0.000294400888762296,0.157988141103097,1
0.000303919777473459,0.178325463960785,1
0.000294838724712982,0.171328350995239,1
0.000227161405615042,0.183661969345279,1
9.52780091625064e-05,0.0563893442766224,1
0.000447912252481424,0.141623430579177,1
0.000613628843275132,0.130935530679808,1
0.00101327860755243,0.129399414831977,1
0.00120839752825296,0.106619621476793,1
0.00116861529181477,0.104178400529827,1
0.00102999276516713,0.0838569851450432,1
0.000923641981312337,0.0520290478085705,1
0.000969120585270582,0.041715963935,1
0.000645699852254782,0.0283505968180269,1
0.000450440446873912,0.0239034411809986,1
0.000463896648585268,0.026384187416442,1
0.000462507560769247,0.0234112192786706,1
0.000612204884449211,0.024482499686969,1
0.000600912871640233,0.0211214788529526,1
0.000675944218214173,0.0207989316909143,1
0.000612380212403802,0.0180608747783323,1
0.000699713459597119,0.0264596107282596,1
0.000970784219075389,0.0394077287376361,1
0.00133725679505078,0.0511199239185635,1
0.00149408546732815,0.0503592104656229,1
0.00155051523273971,0.0422755941736275,1
0.00192489483879309,0.0504208547427903,1
0.00175609842104346,0.0486421572192961,1
0.00213899657871853,0.048701910846942,1
0.00203605523982477,0.0459243202920199,1
0.0021175887919645,0.0379268739572953,1
0.0025664091228903,0.0394314133994663,1
0.00212698265944395,0.0335384712041041,1
0.00162451703760827,0.0235905392842929,1
0.00215567297372737,0.0244358698168745,1
0.00218860737962995,0.0178647755661529,1
0.00266144517936042,0.0207868790638926,1
0.00282080234845162,0.0221012159351157,1
0.00285389915995965,0.0233726658559637,1
0.00314826401938898,0.026424077518786,1
0.00337015831356433,0.0258329786518363,1
0.00487093967099833,0.0195450455813047,1
0.00667678738580272,0.0210835278033998,1
0.00684005912722637,0.0235463124716443,1
0.00645998232158332,0.0243159444630335,1
0.00650392557663309,0.0292785001722819,1
0.0068660623912646,0.0299792876073221,1
0.00712735203765835,0.0306206260239059,1
0.00637114750072767,0.0301167703176806,1
0.00540203799287165,0.0182360244889779,1
0.00966285975873544,0.0248174841497724,1
0.0106882043653127,0.0267313322262279,1
0.0118894762290309,0.031385548882251,1
0.0145192355086523,0.0353561600095778,1
0.0142713129776672,0.0218811493424776,1
0.0123197150818014,0.0181844865910366,1
0.0133496359849175,0.0156657882033042,1
0.0136595415189943,0.0131419383693881,1
0.0123824682485195,0.0113872469459658,1
0.0115791961152974,0.0138432226711567,1
0.0116750137660785,0.0154534123215676,1
0.0124614409674633,0.0101320400309748,1
0.015763334377385,0.0123751416432797,1
0.014330349161773,0.0109616616094001,1
0.0158641631270943,0.0142379419776795,1
0.0157290959811712,0.0150931359702945,1
0.0136708490958194,0.0165991921425922,1
0.0131792455904296,0.0214206763974067,1
0.0118372870413366,0.0186675840044655,1
0.010110754949681,0.0131638714546054,1
0.00943767611590325,0.0106851458527501,1
0.0111512295122062,0.0244305146622079,1
0.0110050631557122,0.0266084444708025,1
0.0113168698919984,0.033438957628831,1
0.0096864960382718,0.03541713516886,1
0.009281893267598,0.0331114463871072,1
0.0101743899031903,0.0325197393943296,1
0.00990312517452198,0.0271886985153883,1
0.00918365658831297,0.0216783383152999,1
0.00937647799112665,0.0232465845275491,1
0.00804113162419091,0.0261676649377945,1
0.00663758695421,0.0226530054161255,1
0.00680819248769047,0.0169447990845892,1
0.00891844713371175,0.0175931915694617,1
0.0110705208496298,0.0190182218878639,1
0.0112372071684458,0.0198889993078765,1
0.0107840650467275,0.0190827490749108,1
0.0108838948945133,0.0180080106081786,1
0.0106594239368638,0.0212437687292897,1
0.00967365310216311,0.0231532336030673,1
0.00822878648730443,0.0202171796862993,1
0.00692225278627583,0.0160660746897975,1
0.00627082431897574,0.0199261566530409,1
0.00535459549734721,0.0174514519090238,1
0.00567667596130342,0.020167458530077,1
0.00736950626511066,0.0254908096229676,1
0.0081163162659272,0.0255626452843215,1
0.00788461504078019,0.0355462431609097,1
0.00623694895986687,0.0328563826407241,1
0.00559779365617284,0.0259361323223832,1
0.00588905853253049,0.0269112656661554,1
0.00583119925766968,0.0237790358653443,1
0.00682423432690083,0.0276046510797464,1
0.00705099043695839,0.0360911140750942,1
0.00554475768952655,0.0318390571459773,1
0.00387991817754491,0.0238403958079373,1
0.00292923528685009,0.0218020273305821,1
0.00299212143934965,0.0216064700305606,1
0.00324026154667489,0.0147269161286794,1
0.00825141585331969,0.0246706950437266,1
0.00979969000200945,0.0295108347053162,1
0.00930038681428102,0.0282106234368357,1
0.00939703089220801,0.0269399321962705,1
0.00994598194882969,0.0308791268234952,1
0.00809007718956209,0.0253220933516121,1
0.0077173580012104,0.0213129844224378,1
0.00618093243401758,0.0136841515281976,1
0.0258409969664112,0.00394877162284522,1
0.101108194858213,0.0225482497936533,1
0.175801502643504,0.03245685038596,1
0.201866514549147,0.0375657867540742,1
0.209449803876764,0.0388455137347314,1
0.186324999883533,0.0292650429672358,1
0.165775347329286,0.0257617756787478,1
0.148079530426414,0.0212032525709939,1
0.137288899285248,0.0186464925583134,1
0.0782352051452471,0.0105261765238482,1
0.069899259972715,0.0193768559048168,1
0.0737956076649779,0.0186667393835025,1
0.0648957040419827,0.0162465891176995,1
0.0670073334248792,0.014126976025311,1
0.0672606992103787,0.0148432722549162,1
0.0594526769360815,0.0166131791810845,1
0.0614104566449001,0.0167494507030679,1
0.069092594876598,0.0254519565329411,1
0.0496575808792182,0.0202377498792512,1
0.0505813077981958,0.0173473763546651,1
0.067401361439995,0.0165946899058888,1
0.0832565493133146,0.0188175902141992,1
0.0852402029951899,0.0199150538776018,1
0.0858722757353492,0.0255299713092394,1
0.0922497768910234,0.0250388740877449,1
0.0925700906362769,0.0237562711172404,1
0.088521024575603,0.0297737215648193,1
0.0733612621510596,0.0246788456730563,1
0.0519502760416315,0.0165681006773267,1
0.0332247028556834,0.00820797737816552,1
0.0413544327778568,0.00683532417172178,1
0.0479842975693646,0.00574705206859677,1
0.0913838609643728,0.00933785225247682,1
0.17516631743399,0.0172364681897092,1
0.25367979580913,0.022178454434224,1
0.251946779526216,0.0223843129781902,1
0.235638385424426,0.0169680406713476,1
0.216400436183095,0.0146011533573141,1
0.184927246351437,0.0109737925707167,1
0.243946525548955,0.0123844097495091,1
0.33032241665612,0.0174075790282559,1
0.305888190817855,0.0183944807791446,1
0.365597277432079,0.0254996777270641,1
0.353139680043536,0.0248065644393682,1
0.285631323080384,0.0214478309510223,1
0.263536269549234,0.0183312934112198,1
0.257523249811356,0.0178597747790308,1
0.218649495559798,0.0155684378653924,1
0.0847252547978599,0.0066496024233062,1
0.0809674345527807,0.0130518465404106,1
0.0990911445017368,0.0205686289355273,1
0.0818297683887588,0.0169089414543275,1
0.0782835134490528,0.0195328941971339,1
0.0618381838346521,0.015806946048508,1
0.0357852218136192,0.00804936805954517,1
0.0296471274488819,0.0135722860903902,1
0.0329180973465383,0.0141997241301806,1
0.0279548157163283,0.0219315540550165,1
0.0146594537648288,0.0122578479368468,1
0.010305752876983,0.0119370578723103,1
0.0107103633818979,0.0122364474630827,1
0.0110698812991538,0.0123560467784008,1
0.0110062383831492,0.012167098769696,1
0.00960677599755308,0.017618099643471,1
0.00468098551471069,0.0126603224298307,1
0.00400788858495992,0.0262385186939604,1
0.00319870867238341,0.0137127306727244,1
0.00389303331669873,0.0112009280938535,1
0.00495670596132155,0.0116393788289119,1
0.00560656795507099,0.008461040382739,1
0.00563684634661647,0.0085960179288565,1
0.00492298064501012,0.00846734203658413,1
0.00487377216362056,0.00800916247780505,1
0.00487676015895771,0.00784596130953186,1
0.00458744964892103,0.00731480379497927,1
0.00513922469143457,0.0059793331084551,1
0.00646294060710478,0.00647274268075113,1
0.00618764408824708,0.0062473432991807,1
0.00569064542638333,0.00566334398892183,1
0.00502443750115669,0.0068828216334102,1
0.00460444890902242,0.00626123242005747,1
0.00638574496777386,0.00397471924269106,1
0.0205006634368111,0.0141470929252263,1
0.0278596761084876,0.0156581154617043,1
0.0546570858846256,0.0265464796257795,1
0.0739904739024727,0.0338407785187133,1
0.0806189041216445,0.0443436349478936,1
0.0682302597410505,0.0421984904651011,1
0.0729540398773456,0.041583987577048,1
0.0584789569862208,0.0243949594708955,1
0.0368730925777814,0.0112070226581482,1
0.0332399883531762,0.0089252119350177,1
0.0305945195591438,0.00722331313663861,1
0.0238948231164761,0.00562179606178901,1
0.0237322594186221,0.00593285282621646,1
0.0246520713338238,0.00645953433777542,1
0.0261849928515905,0.00556023109200379,1
0.0255133702379291,0.00553969464700706,1
0.0281324819678182,0.00755885545622067,1
0.0317984762074125,0.0114842569452842,1
0.0351983212686079,0.0223647828822553,1
0.0204328789435527,0.0208955227111248,1
0.0210763138434814,0.0281907214854751,1
0.0194246681204408,0.0208816982149071,1
0.0242110067510112,0.022665119685072,1
0.0676549154853516,0.0316774204392735,1
0.0768966867873197,0.0260108149549472,1
0.102080119796642,0.021768726044054,1
0.182626275988793,0.0305769958875453,1
0.185698371631405,0.0271277389983729,1
0.15757083865345,0.0209536652060972,1
0.14409903624513,0.019368556671945,1
0.152204513781623,0.0188617830498413,1
0.137386167290568,0.0165545283549763,1
0.139398778804707,0.0159264418111559,1
0.153369460131237,0.018048393303983,1
0.170805802633129,0.021815440369679,1
0.16076578089579,0.0268144421367099,1
0.0779499586411832,0.0177533805796786,1
0.0434511025634554,0.00926944732914941,1
0.0549282045853864,0.0127595291580531,1
0.054602514871184,0.00937781531164751,1
0.0531093430368271,0.00796031572917172,1
0.054632703904412,0.0111733367891732,1
0.0530083973163136,0.0113402699316858,1
0.0572314690929534,0.0119403406562426,1
0.082465997966945,0.0166594904766505,1
0.0765569162024435,0.0142847486967552,1
0.0472866989776926,0.00795817899073625,1
0.0414501743800441,0.00900231463218481,1
0.0449636039203076,0.00929560939193356,1
0.0341477550873237,0.00999473912594704,1
0.0192311616289061,0.00687092276009285,1
0.0196548306140596,0.00632732541431207,1
0.0203847170134258,0.0068122667246416,1
0.0192143452748589,0.00799893200277588,1
0.0138122415373942,0.00542905422586488,1
0.0157588844247603,0.00736022171408457,1
0.0238846594225125,0.0116737004216712,1
0.0248403828540453,0.00855989540708612,1
0.0231748365798812,0.00860685959775157,1
0.0236650240847286,0.00824784425539959,1
0.0292566940721509,0.010325895853738,1
0.0329014144035526,0.0125118878992544,1
0.0318913988127357,0.0113204785369212,1
0.0319405669238544,0.0111923367793321,1
0.0319975722931383,0.0114406841450115,1
0.0265167536562705,0.0179707537398881,1
0.00905568511050718,0.00512574526367457,1
0.00701163200428471,0.0116142710444215,1
0.00563898213831865,0.0154178614486507,1
0.00465644656374425,0.0190272237984682,1
0.00495059560291119,0.0201520183325146,1
0.00458626081498868,0.0165171739365908,1
0.0037485637949222,0.0177563687349795,1
0.00357684850411745,0.018075063183718,1
0.00411706131942323,0.0127621165420024,1
0.00471535268530372,0.0144957452327936,1
0.00450264742186967,0.0152041215938769,1
0.00608347250136495,0.0151560857013969,1
0.00665243165851508,0.0128673619469719,1
0.00972034755088214,0.0057390334094719,1
0.0465084221942442,0.0209417245455222,1
0.0638546255225565,0.018771862436058,1
0.0629799411519015,0.016802805285146,1
0.0799045359704927,0.0236564983003824,1
0.114253142340341,0.0316312961228638,1
0.139716693754616,0.0344947081160939,1
0.168504301922056,0.0402294295782033,1
0.285325390360327,0.0448786070718621,1
0.323174735935074,0.0285247610090342,1
0.256008800910948,0.0233294550456909,1
0.254370608871632,0.0240681090466895,1
0.232365766144571,0.0242230525472378,1
0.183754835121206,0.0200411940818945,1
0.163447917509965,0.0168672439585066,1
0.167616243844871,0.0153888373899872,1
0.198383568143791,0.0189981965236876,1
0.219787296266093,0.01723189404081,1
0.139316300587714,0.0131577812491427,1
0.0666145713962713,0.0111994996023606,1
0.074049495662395,0.0115420754480946,1
0.0695634374953498,0.0114229167681053,1
0.0706923064198089,0.0109569659519642,1
0.0772318674731681,0.0137673246039231,1
0.0983461335997658,0.0172045005408856,1
0.115958086932487,0.0202760464617215,1
0.116677571324731,0.0210950924427182,1
0.120540362442549,0.0277098337696524,1
0.104511253475975,0.0263704107432447,1
0.0890460273713744,0.0205999757186351,1
0.133217687874475,0.0310419457288683,1
0.165930600978036,0.0321844149705597,1
0.184162915566651,0.0334750673473341,1
0.182168929685623,0.0334932173791248,1
0.156848654774191,0.0328208289518228,1
0.13976935100211,0.0159205959655027,1
0.162725968542652,0.0170491918798649,1
0.129548648213284,0.0115291179754817,1
0.118673851604309,0.0110804293063919,1
0.154998283616685,0.0149779688567825,1
0.158492544992575,0.0142924349744253,1
0.144437641968513,0.0126385679301229,1
0.151567094325,0.012854569325308,1
0.168621344917955,0.0137852981560096,1
0.168682740292536,0.0113393498614466,1
0.153945739754387,0.0181625970941146,1
0.0704962895199345,0.00884037953168842,1
0.0469701221227791,0.00614964441734391,1
0.0414877132705385,0.0048807170316382,1
0.0450734979233165,0.0055796003849484,1
0.0469168225793895,0.00758589710089869,1
0.0478987979299223,0.00790659035535231,1
0.0537941329138724,0.0097392856079897,1
0.0591191251660879,0.0113377863434187,1
0.039652843828846,0.0136273128279077,1
0.0242059920099808,0.0198511553821686,1
0.0270348888942659,0.0201036528087319,1
0.0254171003167414,0.0218165150320838,1
0.0101931279800297,0.0113525569790846,1
0.00657851832185504,0.0143279311622204,1
0.00364969653959679,0.00848346604287574,1
0.00404562576801633,0.0169169053299016,1
0.00391564784711837,0.016064704167289,1
0.00383251945627787,0.0156238766216628,1
0.00379586933107057,0.0165034959732146,1
0.00372373427014916,0.0118868587288364,1
0.00658580404329902,0.0129198264592165,1
0.00812729687268024,0.0168199354342785,1
0.00817579404437014,0.0103534215305071,1
0.00906757378265855,0.00586259049582065,1
0.0120638897370713,0.00865631925665397,1
0.0122847857485472,0.00707884313389805,1
0.0142077466467873,0.00860037565430012,1
0.0143277072866411,0.00909909844338188,1
0.0150444938060855,0.0101755031345979,1
0.0143859273567443,0.0105289331933011,1
0.0122515290517829,0.0102516138369827,1
0.0128146659090137,0.0100151431087362,1
0.0129044061732211,0.0119651765324745,1
0.012234566616925,0.0136759451749008,1
0.00994051919204197,0.00729817598806822,1
0.0127751893630323,0.0111310987281171,1
0.0121894736298726,0.0101515014270434,1
0.0127587252564072,0.0101603730158782,1
0.0128158832717365,0.00901601003334066,1
0.013225923606493,0.00898404902066971,1
0.012636066527929,0.0093976154986125,1
0.0101669290658154,0.00772120552639272,1
0.00970597906055693,0.00870623981264495,1
0.00952179063722061,0.0119596022484807,1
0.00827681529122538,0.0165565378786659,1
0.00526239497753866,0.0127642298977228,1
0.0062214019361174,0.0176164138994807,1
0.00792880524761708,0.0256263327110029,1
0.00703607224334126,0.00946049893036359,1
0.012492033974799,0.0165589929830331,1
0.0130839406317653,0.0127635660384062,1
0.0139046158205583,0.0112104923554047,1
0.0138360738813951,0.011334065441984,1
0.0171560716861335,0.0134832220925881,1
0.0191506005128156,0.0154670177628448,1
0.030978549148221,0.0190758655027215,1
0.0367433568807689,0.0172799347431743,1
0.0641452348217503,0.0271530521306058,1
0.0947936006258588,0.0385682913841146,1
0.104214322550762,0.0355124582115369,1
0.112120390069269,0.0375695368904579,1
0.109946012912595,0.0322766192724631,1
0.0844621558885308,0.0281252817549917,1
0.0659335745289627,0.0239330205377764,1
0.0401366424091653,0.0167173360510405,1
0.0288806430843893,0.0128507889304915,1
0.013899387770164,0.00663011647941142,1
0.0206071986509484,0.00920073455779054,1
0.0298960999324453,0.00995086011508604,1
0.0284708221201615,0.00955116884371219,1
0.0252624972090804,0.0112528822130048,1
0.0243399566504257,0.0100200992544023,1
0.045395544604014,0.0164307252610547,1
0.0487658840563578,0.00977024301717428,1
0.0480921789605638,0.00807602076591223,1
0.0452032370269863,0.008153590647727,1
0.0345703441921016,0.00640097164854031,1
0.0363651474570958,0.00778309009083768,1
0.0354797299461253,0.00950722787123551,1
0.047470752183041,0.00168453588828031,1
0.191917307932848,0.0155477483189379,1
0.258516247533297,0.0139375723096095,1
0.230826768772061,0.0105495634164978,1
0.28214864085086,0.010904201775121,1
0.289187812842342,0.010070863437569,1
0.284987340184036,0.0102135175288749,1
0.282207047895838,0.00944225143153471,1
0.251978530121729,0.00801212402525348,1
0.228256743703127,0.00720330178910811,1
0.258983021888448,0.0124998348347203,1
0.195895298308727,0.0094303546190989,1
0.156008837829784,0.00946430249822445,1
0.164904864361073,0.0149740686266518,1
0.0720663173971509,0.0124548538248462,1
0.104566189493801,0.0252100872472198,1
0.118507942190219,0.0249235387770737,1
0.0925541759281597,0.0252929032299504,1
0.04956674286291,0.0177644378083957,1
0.0341002955091021,0.0110362638589235,1
0.0394690825209112,0.0160997502938623,1
0.0343945823472136,0.0170498458032686,1
0.0328727384415453,0.0101696897436301,1
0.0478349236765845,0.0108279929422406,1
0.0517119064423041,0.0105433092776369,1
0.0495483958340283,0.00888128115969599,1
0.0526432169148501,0.00850595938513635,1
0.0510900064304324,0.0105371233703104,1
0.0422989444550357,0.00793027696582812,1
0.0433598805270958,0.00879139404447763,1
0.0411575658292022,0.00761438119559048,1
0.0389340776781602,0.0070850709275917,1
0.036024975756425,0.0079059011031183,1
0.0201049596561102,0.00557285552306862,1
0.0139308261039252,0.00444194855656108,1
0.0128451556134697,0.00422994191130721,1
0.0120216983997468,0.00399788651864169,1
0.0138457247419955,0.00522054315631798,1
0.0133287006016755,0.00492707291619271,1
0.0202332894343877,0.0103010304256223,1
0.026483948479201,0.0140202036880726,1
0.0269730808722276,0.0146338226926401,1
0.0196334569762639,0.0121092436473518,1
0.0193172587509261,0.0135073814422428,1
0.0231121476680434,0.0167768557402691,1
0.0264765053905898,0.0257996507968652,1
0.0243910272202816,0.031959392876349,1
0.0243786738732095,0.0381578401841941,1
0.0244168972549783,0.053608548567804,1
0.0178594825904241,0.0452979250559665,1
0.0178641464146248,0.0354704725711022,1
0.0185396419068435,0.0229448867967191,1
0.01864545054907,0.0189139422528265,1
0.0241535369622826,0.0157525584633303,1
0.0249195853819852,0.0140377079682867,1
0.0201703022583656,0.0106268432566421,1
0.0182083351455974,0.00838210462471734,1
0.0210080298981826,0.00979723450787148,1
0.0187241707744377,0.00776761167371481,1
0.0170251834596182,0.00747195799918938,1
0.017631815238825,0.00600738966029963,1
0.0190322028617844,0.0100515449457201,1
0.0115022561604782,0.00647319964459429,1
0.0125186002791776,0.0119486558895048,1
0.0156962178474169,0.0177341879522047,1
0.0261520777415875,0.0257911497643019,1
0.0323676114757926,0.0315271449200714,1
0.0275542749477776,0.0288092011225741,1
0.0266222413834264,0.0291188684099038,1
0.0400398943479107,0.0289216600774678,1
0.0958095378699176,0.0370302236740677,1
0.212450413339923,0.0757018870072696,1
0.241424095758934,0.0388525570690102,1
0.223535205850192,0.0308853904706973,1
0.221944986900443,0.0314938263720649,1
0.212741668219016,0.0298098431093193,1
0.190203894796259,0.021221456169412,1
0.145645990339018,0.0169937219776028,1
0.105569410346801,0.0122546935126173,1
0.100292043236989,0.0112449938605389,1
0.0996750719209058,0.0117611951231648,1
0.0794711771988791,0.00795036950974897,1
0.0729826979365022,0.00718866815334436,1
0.0718020222433339,0.00819061591466112,1
0.0656354383627401,0.00677203501719163,1
0.0603328262110856,0.00617722589726535,1
0.0777605360454747,0.0118802599104011,1
0.0910987409619054,0.013448503029346,1
0.0790276161804354,0.0115269658534695,1
0.0851983263528562,0.0133072256608742,1
0.138352682123828,0.019012534224476,1
0.172583360606031,0.0240326401286821,1
0.217377893617558,0.0188285906722094,1
0.404822413819472,0.0342333710225251,1
0.436841505507942,0.0273894392343591,1
0.384174538269582,0.0246085620404265,1
0.323938048233791,0.0175966390375806,1
0.255696097853669,0.0137674490341103,1
0.184710461616938,0.00942647600078456,1
0.146955494943544,0.00733638490310566,1
0.161908444447062,0.00915939434397285,1
0.164324641503875,0.0101470948180737,1
0.163326585245074,0.0171623166294416,1
0.184225640588564,0.0156280319411842,1
0.231121108611568,0.0175897439603652,1
0.281071141143502,0.0168140169395026,1
0.368114320575644,0.0341342195381607,1
0.341280879687345,0.0312259424355615,1
0.340134461516486,0.0306129362155516,1
0.332537312863816,0.0276644571347451,1
0.292031408157616,0.0244749680386379,1
0.214960462233664,0.0195481019345953,1
0.108698815601044,0.0106634256523421,1
0.0810438546662589,0.0116948675665812,1
0.0502585633515292,0.00911454718423834,1
0.0227835945806504,0.0159091240052497,1
0.0232392081877249,0.0110359358295727,1
0.0278054063413266,0.0103332235939655,1
0.0275544779053739,0.010482200395845,1
0.0238615683933603,0.0093807965396216,1
0.0244809529271229,0.00828769612651201,1
0.0225704902812877,0.00689699874403461,1
0.022208826846155,0.006398912463065,1
0.0221873846429476,0.00637913260256185,1
0.0230335434478683,0.00302219102767073,1
0.0396038605556212,0.00927692767582255,1
0.0482754331255669,0.0152566338013293,1
0.0488744426731175,0.0162189961396984,1
0.0839706348670228,0.013506469936252,1
0.103819771818323,0.00938125356402962,1
0.0944494109880331,0.0089028356700365,1
0.0881331703299976,0.00831531561645906,1
0.0830249524224026,0.00799947909103393,1
0.0715409854571405,0.00653915985591171,1
0.0616887734539762,0.00690436595002841,1
0.0597972906418796,0.00667028620772937,1
0.0573472241024243,0.0058744299351312,1
0.0557804746177679,0.00582374906192733,1
0.0298969971423143,0.00494607967709046,1
0.016765464399048,0.00859566730145733,1
0.0177170528469136,0.00914793564173095,1
0.0178709600267601,0.00851997887261327,1
0.0217461723613084,0.00971111617657469,1
0.0200487819432779,0.00880224986990523,1
0.024711684638634,0.0117005314466058,1
0.0343806605525314,0.016179694240089,1
0.0391046050295588,0.0189138004352022,1
0.0370625943003303,0.0179503007271617,1
0.0371774966706137,0.0239037597579585,1
0.0215674191639393,0.0271498476150345,1
0.0127554824864932,0.00879594914328756,1
0.0293464713649967,0.0170955542068682,1
0.0843042588618909,0.0404829177781087,1
0.0950780825107562,0.0262880626521112,1
0.121011962133699,0.0145354597717551,1
0.173258997386134,0.01844094378107,1
0.170866181789904,0.0196023795728934,1
0.151738570008419,0.0179089363232601,1
0.138095704505687,0.0168859358773505,1
0.121286998730448,0.0156197227119104,1
0.0803195397129267,0.0109094080703176,1
0.0835834416456582,0.00882364111567387,1
0.110539163160659,0.00926489671377006,1
0.100808482444704,0.0063635292901667,1
0.103357112208647,0.010318589647814,1
0.124212961117219,0.0130442830577227,1
0.122361207605395,0.0120447766976694,1
0.116849904121303,0.011512009232629,1
0.126598195634415,0.00935156051276719,1
0.184511032944465,0.0131658233267934,1
0.201946843578117,0.0135331656688598,1
0.184956444770977,0.013897280637344,1
0.177178844824145,0.0144215237723797,1
0.208672218744189,0.0279323300320643,1
0.170186687691253,0.0250806145229429,1
0.105793627831703,0.0161686559304919,1
0.0821838562830507,0.00886777667477393,1
0.0604136728649071,0.00661707534315353,1
0.0606017939410374,0.0104082588822353,1
0.0857160161493739,0.0157721658375183,1
0.107240087369345,0.0161036270559999,1
0.123801731720071,0.0134679936395684,1
0.156937315097929,0.0176023634218312,1
0.116798220526631,0.0135848869241623,1
0.166968063327786,0.016039973640756,1
0.248964874835848,0.0176420747377929,1
0.1914548079133,0.012440852275255,1
0.163988299986832,0.0104824569116697,1
0.140911913072839,0.00945321905801408,1
0.150633417324974,0.00895476908582806,1
0.211762429653994,0.0123332427211777,1
0.319599486666785,0.0220391253187362,1
0.40606346231076,0.0268533289785727,1
0.493764523689464,0.030953395687863,1
0.459316150226314,0.0398858143776928,1
0.313629458306602,0.0429877170784215,1
0.317634837242049,0.0548275725283987,1
0.264457898625971,0.0433258553054032,1
0.153225283347264,0.0274699447888957,1
0.0625812366268107,0.0193459791872934,1
0.0377345475529771,0.0193253130390334,1
0.0353474824442316,0.0184614262241522,1
0.0296383742452082,0.0144761546863331,1
0.0258184136728091,0.015235838398907,1
0.00608045091465877,0.00499983579667632,1
0.00573721219361056,0.00949826923679981,1
0.00639790160218895,0.0102824763511379,1
0.00620797659668949,0.0104291683258994,1
0.00635643368508044,0.00978196835737642,1
0.0144483905219348,0.0115632884877409,1
0.0238647059737538,0.0196054030938122,1
0.0322204527066963,0.0228703357818258,1
0.0331602187852092,0.0207941578747173,1
0.0330415855567823,0.024811556264902,1
0.0322233393866702,0.0238657241609698,1
0.0336597922933483,0.0261659437565392,1
0.0244946954158388,0.0172555842819599,1
0.0173539249358905,0.0107271448918277,1
0.0109638736771373,0.00462720205919998,1
0.0101197497503117,0.00637528065497642,1
0.011190665779547,0.00677551394449142,1
0.0162505477940655,0.0117450953976359,1
0.016012134488998,0.0116661582870928,1
0.0140881973520479,0.010808562500713,1
0.0123560957581139,0.00988129676713436,1
0.0135644846273986,0.0117424072806222,1
0.0131739184368472,0.0133247813060273,1
0.0146623033028592,0.0198308304819053,1
0.0153577776938667,0.0210989101991929,1
0.0152514226564926,0.0238133674242655,1
0.0143372618141262,0.0254610648493316,1
0.00922392894775037,0.0196986267708329,1
0.007468712277339,0.0217327132433438,1
0.00810214571253135,0.0185049935189345,1
0.00944319137402311,0.0137526617571347,1
0.0118770324177077,0.0178592759281151,1
0.0150339514258423,0.0208649399519284,1
0.0178304726475935,0.0212722232557522,1
0.0176109386162358,0.0256400231868571,1
0.0154563855935071,0.0257657548359655,1
0.0157364789836735,0.0255489453589583,1
0.0158864079709402,0.0259769773435464,1
0.0171668569542743,0.0257091066986389,1
0.00941854696552769,0.0130224024768553,1
0.0120005756990435,0.0244521612015953,1
0.0131596295392187,0.0232738927996122,1
0.0166290377016226,0.0279187299919628,1
0.0205581234049612,0.0271730675587845,1
0.0469894976668388,0.0365312466976499,1
0.0995290151436643,0.0526223747541572,1
0.139677505462199,0.048487013760742,1
0.124208995991727,0.0395405260944806,1
0.10825225343101,0.0211281159416971,1
0.144543828126677,0.026541644365644,1
0.144431173151743,0.020175156974106,1
0.11346335340764,0.017662843286261,1
0.0882064897103088,0.0133002162654191,1
0.077895745648494,0.00781988064281818,1
0.109771765857511,0.0126871074589823,1
0.11314620130613,0.0111950027062082,1
0.11229951209279,0.0120537850341336,1
0.0974539555330134,0.0109633180183602,1
0.0863234310592414,0.0149226915380445,1
0.0785061658812915,0.013252575638687,1
0.0865191832622631,0.0115081280576583,1
0.104458068465323,0.0130500840388403,1
0.094113554971483,0.0109355103847096,1
0.0840148618589379,0.0152294355142134,1
0.053926450009246,0.00672283390194332,1
0.0747199124700614,0.0121353222854807,1
0.0967136518827019,0.0149525538802784,1
0.104641463238071,0.0157041295946926,1
0.109394334431245,0.0158755179500023,1
0.0957280020971792,0.00999271889336413,1
0.116924491613187,0.0168963776897793,1
0.117116673214157,0.0141458231620303,1
0.122821398049546,0.00765186281617198,1
0.264056641366393,0.0180947827978861,1
0.311816702548083,0.0208387951487718,1
0.370399764985417,0.0186620294171644,1
0.482800892588763,0.0224724313602915,1
0.473908716925016,0.0240131738387384,1
0.397742220275751,0.0213096499144203,1
0.302452021270521,0.0167910936016857,1
0.288079902397528,0.017260748348826,1
0.210601860506077,0.00918619257491092,1
0.413122286236403,0.0226260084343474,1
0.66350584504643,0.0340157779321142,1
0.881044873102116,0.0425602694648157,1
1,0.0768886591557403,1
0.898252015419945,0.0723995673204003,1
0.764403079492199,0.0603344135533024,1
0.571448488389317,0.0437939198842024,1
0.362920436032237,0.0306431171357567,1
0.18647796362249,0.0165662504013474,1
0.0104449646173882,0.00155514022904683,1
0.00823919966871021,0.0496233655904077,1
0.0219454078328691,0.0846903586984178,1
0.0265297678638403,0.0496900285018245,1
0.0254680707517456,0.0475891049102657,1
0.0279747659176528,0.0284799598229583,1
0.0407509912965083,0.0352261924630311,1
0.0396006514343966,0.0334807901899092,1
0.0421768038569169,0.0349444033483994,1
0.0334327548689807,0.0231703474541756,1
0.0231847826397734,0.0166671150270218,1
0.0237887803635564,0.0184649004364584,1
0.0526479666191119,0.0151152527192873,1
0.073494665433691,0.00956432919156536,1
0.0602066428271317,0.00811907569411517,1
0.0623741182880625,0.00931591036148986,1
0.0658364043450324,0.00766861664939954,1
0.068655227028138,0.00800467646376508,1
0.0709548659868589,0.00768560385978669,1
0.0728240316822628,0.00667685397311794,1
0.0832298326640253,0.00784799375388274,1
0.0902565934866853,0.00507136865001569,1
0.0907557321067627,0.0074201134831663,1
0.0645005807477591,0.00701045290440532,1
0.0671788788296701,0.00604766129168807,1
0.0672457902217113,0.00592268213217966,1
0.0658129346911325,0.00837423993315074,1
0.0577600464539954,0.00685800795128828,1
0.0587104335997251,0.0078682749686863,1
0.0608465401118437,0.0120489122569598,1
0.021017847602093,0.00248659541927451,1
0.0135484499612446,0.0109082881031738,1
0.0142829488918292,0.0112265912962547,1
0.0096254270061154,0.0105104434731458,1
0.00792491606100922,0.0132217434452748,1
0.00810766199461045,0.0121107508951561,1
0.00644724648094805,0.00755641504879987,1
0.0060349425552751,0.00843719434006984,1
0.00601481412217578,0.00436420148857657,1
0.0131118317013842,0.0119626522363425,1
0.0169431385506793,0.0164443713439933,1
0.0170535139341012,0.0171640859071593,1
0.014650511105994,0.0135694343545048,1
0.0259760774208254,0.0161377202961827,1
0.028509191329833,0.0134584077320104,1
0.0284200438706366,0.0112785481067011,1
0.0485194899161248,0.0144549199607495,1
0.0944722662937152,0.0251032724316977,1
0.157231971302524,0.0368199769228835,1
0.234612156675068,0.0554148084285065,1
0.270627173403951,0.06614747310661,1
0.270640783169963,0.0688676442755334,1
0.205645471337794,0.0526985900970399,1
0.177450371091705,0.0550919679707051,1
0.138539412808258,0.0444336317933187,1
0.109862234222069,0.0385784885630551,1
0.109366293201826,0.044597776661591,1
0.12410387573445,0.0256469886950655,1
0.140358098965071,0.0296151116771446,1
0.147965049259934,0.0219093629108271,1
0.144269441671829,0.0168241329375539,1
0.145787096811624,0.0139251761051794,1
0.179742750902306,0.0173586078880054,1
0.211679870945977,0.0186013538188633,1
0.199071661702765,0.0180753301887572,1
0.138079391421545,0.0115575560230678,1
0.145528339577702,0.0126183314755182,1
0.173844918795805,0.0178821209818388,1
0.167647697145099,0.0145606552090847,1
0.160044787566889,0.0122889116944626,1
0.173500427200947,0.0136213109000694,1
0.228464809444134,0.0221558565609869,1
0.22979117323837,0.0210834329742657,1
0.155474644204871,0.0104384418426573,1
0.130974246416743,0.00879810560584754,1
0.124067456660899,0.0102521206914164,1
0.122155611443688,0.0095240991281701,1
0.157264188730792,0.0130361841286482,1
0.273899423672236,0.0220667371076137,1
0.318049389411577,0.0176178368040943,1
0.303670407983498,0.0185597250498156,1
0.261092164938887,0.017447620793127,1
0.191353162264053,0.0131014878841068,1
0.200657242119119,0.012438907927067,1
0.218190455057722,0.0115682013536173,1
0.197433394823924,0.0103907018250296,1
0.19621056496835,0.0100568793712754,1
0.273718612695853,0.0152873960150443,1
0.241194243457885,0.0151038156332961,1
0.273075341904705,0.0224604256001163,1
0.349163747241427,0.027542638292763,1
0.333333087240941,0.0324166612472267,1
0.26471771823753,0.0264620722857773,1
0.260916710619016,0.0332516249776305,1
0.224926233179269,0.0627822032142119,1
0.123188171976478,0.0400466017131522,1
0.0399289251935579,0.0307223303326849,1
0.0232984582614861,0.0410019727065416,1
0.00416954020992182,0.0608257473341863,1
0.00246725230847231,0.171260373967117,1
0.00166850756160779,0.0598536268325914,1
0.00218125041361282,0.0307690967001051,1
0.00283505197434656,0.0254195296882396,1
0.0150736949223524,0.0222729394363955,1
0.0211309227672469,0.0170756325819373,1
0.0220789440042072,0.0177236620342199,1
0.0209029628461068,0.016012855031421,1
0.0189630349170057,0.0143401885719877,1
0.0170791399324388,0.0130966733191552,1
0.0164946051729273,0.0126311549643564,1
0.0157331195468148,0.0122423077941097,1
0.0148912267795032,0.00978681728421796,1
0.012462102738615,0.00744896708471176,1
0.010971646994657,0.0092820828283239,1
0.0189264989743476,0.0201015665158665,1
0.0186206023697073,0.0155694523349805,1
0.016022814497252,0.0118166981443384,1
0.0171628397941285,0.0133016095688552,1
0.0155223387959688,0.0105925936721986,1
0.0200462547042246,0.0122010431799852,1
0.0210243120136192,0.0123328818312497,1
0.0260087154024448,0.00947516998449979,1
0.0488098079506887,0.0186397314368701,1
0.0652621509208751,0.0227660623011447,1
0.0668774994178156,0.016586300541932,1
0.0618451170084099,0.0156980095154842,1
0.0740004677599356,0.0200019419171682,1
0.0914528888330071,0.02329871737947,1
0.0975771779822801,0.0242314545044702,1
0.102493173745235,0.026680597161351,1
0.106707852875738,0.0259326652731889,1
0.114946459808982,0.0488698497894242,1
0.0810052894686528,0.0267948114311233,1
0.0245302800386278,0.00974776952223337,1
0.0110883849073046,0.0102909746840957,1
0.0121206178643582,0.0129320459804551,1
0.0143760496632862,0.0153143312089521,1
0.0156510335176124,0.0163114212315584,1
0.0137346789168457,0.0145479207650327,1
0.0122023721800755,0.0128352182623102,1
0.0122450232179827,0.0159819232497048,1
0.0136752191220978,0.0255145447866059,1
0.0147617421728482,0.0526208489642604,1
0.0185845137585577,0.0690361294404615,1
0.0186398813218883,0.0547241189137139,1
0.0141403007651792,0.0393123640770162,1
0.0131845769563387,0.033310308731716,1
0.00832870381991579,0.0157400451846331,1
0.00625665754964755,0.0133881569337282,1
0.00595280615720136,0.00816072810324299,1
0.0264211586432781,0.0180631242375873,1
0.0493070220919745,0.0290791043903512,1
0.0949347925448223,0.0313250044257992,1
0.27233069276821,0.0520413160494988,1
0.384946626186901,0.0673529504067601,1
0.40197427620325,0.0563002564149214,1
0.39688587402354,0.0568343513998189,1
0.367377642147001,0.0585862621293519,1
0.277938980878547,0.0302876620921302,1
0.173439181676555,0.0214967832011211,1
0.125510451219303,0.0161194487399365,1
0.122036088115376,0.0147399279382516,1
0.13816326732492,0.0192906487454515,1
0.16875496795171,0.0269350696947404,1
0.176247965320613,0.0217088686593009,1
0.155399283015119,0.0182850992297047,1
0.143139718601931,0.0160039027118926,1
0.104821484469558,0.0115141395802817,1
0.0837123702228269,0.0122914770860719,1
0.0752221060026708,0.012607585891336,1
0.0495693477671348,0.00852153527134715,1
0.0534359304082643,0.00897258344004094,1
0.0623067122546787,0.00878478918488056,1
0.0642094035826321,0.00716630562105349,1
0.0623386639673737,0.00834903462625314,1
0.0454131943288793,0.00589435613824098,1
0.0486167937464587,0.00570809710218639,1
0.0734310583506099,0.0077863456597725,1
0.213447681072862,0.0148913451609982,1
0.221454335880128,0.00919419320633251,1
0.225786691061522,0.00718823284229113,1
0.30152935613235,0.00931289633116439,1
0.343458953802517,0.0086302922857188,1
0.30828394379432,0.00897915964035998,1
0.267262149562021,0.00680006195843199,1
0.23113836119146,0.00542046034800977,1
0.215090453605018,0.00474735037492123,1
0.210965310713201,0.00548960533070362,1
0.170215117599801,0.004073867539623,1
0.156500507525694,0.00590782625538152,1
0.221814871323594,0.0143163876606603,1
0.23679636635964,0.0207053218478771,1
0.268258951730033,0.0286925659657376,1
0.378891081673775,0.0336975857379297,1
0.462662649099633,0.061299586931358,1
0.41398936249552,0.0624945532161912,1
0.390031110386799,0.0644363386190835,1
0.283823900818796,0.0673761479189478,1
0.131898513691995,0.0478778864893127,1
0.0583533190765906,0.0296055032199141,1
0.04026507356064,0.0294620152324255,1
0.0205840190193265,0.0118252586003149,1
0.0237698637090683,0.0305206936940486,1
0.0407211983683723,0.0371866270218326,1
0.0728758924440714,0.046848282212274,1
0.0707858144842013,0.0251036449984758,1
0.061701124192767,0.0209930140129604,1
0.0540781102656604,0.0167908346791782,1
0.0467500535562447,0.0141805191875737,1
0.042013778607793,0.0135339956809386,1
0.039158626266774,0.0135432081074203,1
0.0343190535116673,0.0127224436417292,1
0.0402031710587417,0.0147442861283569,1
0.0394514120308759,0.0193464987279447,1
0.0335006255136988,0.0160141694209268,1
0.0333132266685411,0.0236164686262363,1
0.027180822659056,0.0193615584879286,1
0.0223373261102311,0.0143015476935897,1
0.0244107198938035,0.0124834533269502,1
0.027097859356475,0.0132997743830533,1
0.028347636551096,0.0139013796972075,1
0.0298529050035092,0.0135590894562837,1
0.0259835944198169,0.00824669879203825,1
0.0302582925841862,0.00370109733819399,1
0.0395669424127816,0.00514487395839307,1
0.0394735361005377,0.00491639239241739,1
0.0362744233800848,0.00394416585480865,1
0.0396108640300154,0.00453099167505774,1
0.0445978385702137,0.00609683273691386,1
0.0564327584739887,0.00815739523223025,1
0.0722422852846616,0.0106931697359883,1
0.0771628980017467,0.0123805541513224,1
0.0762304194885851,0.0136284374431505,1
0.0665389172289566,0.0220719170024617,1
0.0478621756867511,0.0144360271102586,1
0.0736674448096221,0.0201227881270533,1
0.0646268009445269,0.0134861931638661,1
0.0642989647830979,0.0147488934275313,1
0.0988511705016881,0.0179183480679861,1
0.0978926074765893,0.00958905213018105,1
0.0860378295511397,0.00759200353065219,1
0.0834879784724511,0.00721618704206494,1
0.0731350149506947,0.00271221001058831,1
0.0791737274361502,0.00270227469543033,1
0.0777161365171472,0.0034558012132172,1
0.0699174729233386,0.00258767522162652,1
0.0739855827614785,0.00412339448973319,1
0.0670513303165739,0.00395908893978625,1
0.0730572114502073,0.00305283450208415,1
0.123526837426228,0.0116854654459026,1
0.126143455970283,0.0127670092443952,1
0.167457101584875,0.0179156912617548,1
0.187597741584959,0.0255253488408192,1
0.131378404825267,0.0177435577086817,1
0.155446229800657,0.0173192510363084,1
0.114459548855253,0.0115050406434413,1
0.126325674404626,0.0118950928546549,1
0.0847941752231951,0.00681559756263811,1
0.0595158940024576,0.00599324049403196,1
0.121914624004741,0.00878341775724289,1
0.242869956640575,0.0159896079878255,1
0.245204978519167,0.0119884770948859,1
0.239336429272992,0.0117960484901537,1
0.243975021745612,0.0123903948154653,1
0.292904700270988,0.0162594220888078,1
0.285820955111093,0.00994747567810273,1
0.343060124687227,0.0101848383472055,1
0.361663113907794,0.00890631664583953,1
0.386889501786884,0.0090277651930925,1
0.355604791531422,0.0110861473361326,1
0.233938381197794,0.00658511713275597,1
0.226220146751268,0.00749865617648332,1
0.241913496105082,0.00796575411527263,1
0.225408735322415,0.00681973209894135,1
0.194756473854704,0.00323671368479106,1
0.224354571557322,0.0107511756212669,1
0.158270849265237,0.00870105913039237,1
0.195751947437763,0.015174782539471,1
0.220807875868497,0.0167892472805043,1
0.234847390386904,0.0198241034495158,1
0.175090140968161,0.0158338717185313,1
0.133234561008747,0.0129132290350076,1
0.129095264912493,0.0133425067963917,1
0.0704237246195595,0.012898557361496,1
0.0234491199908192,0.0103370418852597,1
0.0499106351226543,0.0187938094715551,1
0.0899339357061287,0.0151688552237699,1
0.246555542111874,0.0339111581820613,1
0.347919455134082,0.0437315294710094,1
0.419678363405976,0.0449905402500118,1
0.401019374206753,0.0342070434918913,1
0.318058816136458,0.0293752362695191,1
0.314824359884459,0.0148359070556668,1
0.464220773119017,0.020242429629498,1
0.642989676272351,0.0278344778009972,1
0.81607778441269,0.0322674015361425,1
0.942289153417118,0.0480984865558248,1
0.891895122657616,0.0469391650318591,1
0.756517176730122,0.0420969929917345,1
0.483027864449025,0.0297493300223264,1
0.33503423198949,0.0228155945683604,1
0.093602552260953,0.00191189000236142,1
0.00272325770895598,0.0164424467255575,1
0.000716366303440769,0.0386545660669911,1
0.000754490409135977,0.0256987102816944,1
0.00094209757781429,0.0238004060307378,1
0.00106350989714976,0.0226624617957506,1
0.00108049014004351,0.019447181913322,1
0.00119840955136492,0.0207832296306632,1
0.00135596652779863,0.0177540077058611,1
0.00320260911915297,0.0321910568115992,1
0.00856109650753971,0.0576894142709866,1
0.0183861141685081,0.0736772197774494,1
0.0335648829744332,0.110893382473424,1
0.0522851338521148,0.094130262762707,1
0.0513425391454806,0.0429152810861264,1
0.0446671319457873,0.0237073002005159,1
0.0475764025930562,0.0183089592903904,1
0.0376755488124145,0.0144980975111692,1
0.0267496326040361,0.00962544567358934,1
0.0218286452937347,0.00700924597804548,1
0.0344883128600732,0.00521156375165316,1
0.0525224135988664,0.00682535058120214,1
0.0568653265652966,0.00686171037488618,1
0.0923605123850279,0.0103816015924312,1
0.179134918473471,0.0216833716731211,1
0.223286813840881,0.0240151915374852,1
0.230542994072366,0.0260061094230356,1
0.224339068206852,0.0202089841317902,1
0.249495548259836,0.02095363550346,1
0.170693944415998,0.00814955575036699,1
0.177139418911037,0.0119692416042093,1
0.169240238661625,0.01181220143355,1
0.13457888786975,0.00921666658756451,1
0.157282598650884,0.0105642836259427,1
0.201696505171042,0.0143544597098972,1
0.18401957081294,0.012399043298917,1
0.192470651151984,0.0123619339579846,1
0.170649081985777,0.0147817739385192,1
0.0908552222093319,0.00807090645908758,1
0.0932302253454477,0.0140839701785945,1
0.0986109404423881,0.0122868381875469,1
0.0870547050475684,0.0122618184965964,1
0.0573806926661958,0.00655392595542186,1
0.0518920913823562,0.00819606003822362,1
0.0480254257570759,0.0091845065575328,1
0.041729887240948,0.0097179459636904,1
0.0419789440791115,0.0103902418807449,1
0.0335045635149541,0.011742979793006,1
0.0310389806147469,0.010690017027376,1
0.0257774161205393,0.0087959723445144,1
0.0299886046163252,0.0180448079005718,1
0.0149911519312062,0.0100612686382259,1
0.0110873547074425,0.012087423138489,1
0.0140887262455871,0.017598128350727,1
0.0146227089354108,0.0174801956231664,1
0.0182235452695,0.023869041758943,1
0.0193598251694089,0.0334418426087167,1
0.0132769787013951,0.0267378823866985,1
0.0112835378592411,0.0232487375206027,1
0.00975059851083906,0.0214216439861903,1
0.0108173571290495,0.0246971627120442,1
0.00858518702856307,0.0273667158367347,1
0.00512211076433454,0.0303547646548949,1
0.00573115044563105,0.0106382377049768,1
0.0109181070342057,0.0215814715798918,1
0.0111957854446573,0.0161674220446359,1
0.0128224175866629,0.0159212622069475,1
0.0129365533816971,0.0136561909799354,1
0.0128773534480394,0.0130595046970702,1
0.0151363859124124,0.00827786814345181,1
0.0182446019208262,0.00772117330843416,1
0.0186956791132798,0.00695712990169426,1
0.0221706766884632,0.00846493771005031,1
0.027488318133312,0.01547164575108,1
0.0261647699278451,0.0140158689828154,1
0.0269637052967198,0.0161164115341504,1
0.0301311791124168,0.018977682292278,1
0.0292381392281328,0.0202041467771386,1
0.0296985871679333,0.0206303444993626,1
0.021259470869289,0.046099818826792,1
0.00306617625948174,0.0484714356756139,1
0.000954702064757245,0.290655328848706,1
0.000218664495712887,0.231038002598844,1
4.70500185642058e-05,0.517511571483444,1
2.91535411976396e-05,0.611720643446377,1
2.85478841010701e-05,0.648914295985285,1
2.62995046497367e-05,0.64979657635887,1
1.50831234752183e-05,0.61021957677254,1
1.27450464068401e-05,0.832206598656064,1
8.839845848996e-06,0.607539916146311,1
5.92545898446672e-06,0.445115774840695,1
4.84492199294642e-06,0.392753962730188,1
7.56562935093448e-06,0.392797568822407,1
1.4813914134339e-05,0.559371851782257,1
7.50683541536808e-05,0.235317157811462,1
0.000194074790965935,0.247895289724908,1
0.000267464610591776,0.2220688927113,0
0.000307901228376285,0.135896634314728,0
0.00029016985960869,0.118949955457418,0
0.000306632448066309,0.124759482986057,0
0.000318667038004378,0.130961616631844,0
0.000328589837442111,0.134491221676635,0
0.000354258563581207,0.145265740034484,0
0.000389499569153556,0.155009023306126,0
0.000382775522223174,0.219030898817484,0
0.00028644612100202,0.218646553868083,0
0.000169614261737974,0.249802250643455,0
1.35897837066156e-05,0.221786302264104,0
6.82834038371964e-06,0.420937988233844,0
7.40914890286855e-06,0.450236955288224,0
6.36600892020983e-06,0.459342837522113,0
3.09826366660154e-06,0.324064725721032,0
2.32133777969332e-06,0.283622083325975,0
2.26914225881941e-06,0.276592806856618,0
1.20176901934917e-06,0.220293250483564,0
8.83509997050808e-07,0.231798393001625,0
1.0010146612231e-06,0.229918779660328,0
1.12189331628145e-06,0.243161990418722,0
1.07203354833088e-06,0.231946088236506,0
1.40262538304535e-06,0.273570477894163,0
1.63372778505809e-06,0.297239025209318,0
1.53774280353851e-06,0.29446509125584,0
1.52952236673944e-06,0.302194137126012,0
1.09101706228255e-06,0.26989023735385,0
8.42358505226998e-07,0.258866547590538,0
8.23358555332509e-07,0.247291154913553,0
8.79873236528994e-07,0.294871441882289,0
2.86987997497972e-07,0.164627355474512,0
3.49383459033773e-07,0.188751417177223,0
3.46216561027192e-07,0.185362135295601,0
3.2795016780548e-07,0.182173860051183,0
3.21293919139211e-07,0.189017725148521,0
3.1831541812715e-07,0.193837039684043,0
3.41695033158702e-07,0.203845565056101,0
3.5198311156394e-07,0.205459315993332,0
4.14534714556486e-07,0.229273725505584,0
3.05502265282269e-07,0.18705342745296,0
3.06020819278092e-07,0.187566260133777,0
2.93292927886565e-07,0.179957506536389,0
3.2897166165145e-07,0.203215551300188,0
3.40624334208929e-07,0.195317280046065,0
4.67676534837987e-07,0.21866064154356,0
1.21818246546775e-06,0.324343969346346,0
1.86717497976272e-06,0.381904965388026,0
2.04121671910358e-06,0.399481256276034,0
1.81303241601305e-06,0.380854702905258,0
1.70662211596573e-06,0.388517998457407,0
1.6959337196283e-06,0.403171633944622,0
1.49733493540245e-06,0.372357805208198,0
1.494847458182e-06,0.360631891745749,0
1.58732994028763e-06,0.388609637858222,0
1.70140113600581e-06,0.403269759812079,0
1.35182917725287e-06,0.375582853075025,0
9.57126584920542e-07,0.308082382970559,0
8.06054075664063e-07,0.268105826089683,0
7.4484816548952e-07,0.259267873431581,0
5.99866816640392e-07,0.221830395270552,0
7.37600017432615e-07,0.237250621068625,0
7.98780246446509e-07,0.241993516258874,0
8.62886176006168e-07,0.251599122681895,0
9.76342770187694e-07,0.265889348073048,0
1.0135208728359e-06,0.270869552811763,0
1.01750042549006e-06,0.276908331999397,0
7.37227640603206e-07,0.233277955865922,0
8.79971338562674e-07,0.270512256593899,0
9.64517828404583e-07,0.285642108777257,0
8.26926798517713e-07,0.259469925851149,0
5.16206943188725e-07,0.215690591352558,0
5.17637692010797e-07,0.2282634318338,0
5.18714348989842e-07,0.22534016742281,0
5.07753629624888e-07,0.20787713670542,0
7.529256095861e-07,0.247827892210219,0
9.02965222561281e-07,0.263161841430201,0
1.53113719812104e-06,0.346472491681485,0
1.28334306893293e-06,0.297830180374389,0
1.07882046274253e-06,0.272049138650535,0
1.02521658701863e-06,0.273759534667649,0
1.08138282622743e-06,0.287376275747699,0
1.17931505607205e-06,0.298126300475055,0
1.05726431284169e-06,0.284448240207952,0
9.64521937390287e-07,0.285131846077708,0
9.17621974566824e-07,0.28209172706314,0
8.22257860787098e-07,0.287248942047128,0
1.62508843716651e-07,0.143689192211173,0
1.65419238290671e-07,0.158651504538119,0
2.15593549096868e-07,0.179087646420215,0
2.62087646857435e-07,0.196936473891089,0
2.81152416001401e-07,0.180137300772921,0
2.47654834572748e-07,0.165907613473167,0
2.20892497060521e-07,0.156538925594819,0
2.1845021868281e-07,0.161104646607819,0
1.86430947585751e-07,0.153201448862496,0
1.8787936504635e-07,0.153677999433578,0
1.90388311717106e-07,0.150795215466479,0
2.07470906157546e-07,0.161209896102003,0
1.87815162144727e-07,0.149012344694657,0
2.03162223748515e-07,0.146504375894347,0
2.46571192318007e-07,0.170292894017951,0
2.30615281757555e-07,0.171333405553972,0
1.93852905737928e-07,0.15750042406626,0
3.15252888357446e-07,0.186535410561918,0
3.30936886788947e-07,0.181415632303387,0
3.27679796546168e-07,0.182102447698365,0
3.24084434055321e-07,0.182784666385629,0
3.64431797376892e-07,0.184334916928654,0
4.29485156315211e-07,0.193398925378012,0
3.75175048673471e-07,0.192209962344945,0
2.66487959647661e-07,0.160516525098767,0
2.23980810715516e-07,0.147403986300575,0
2.25753529872788e-07,0.148506870423495,0
3.24842541917677e-07,0.179818876504021,0
2.93873835740443e-07,0.177920618659984,0
3.99113177586817e-07,0.195351389399479,0
5.51020838187598e-07,0.217535614055024,0
5.75603153334661e-07,0.213542792643165,0
6.17290559618892e-07,0.217892839461378,0
6.32653954440852e-07,0.22260462499054,0
6.74681584741361e-07,0.23534396274093,0
7.13826967019921e-07,0.249616149417667,0
6.80175298627376e-07,0.239818373740089,0
4.08696256769921e-07,0.187957977039963,0
2.87755556027448e-07,0.162735979583885,0
4.7027803641172e-07,0.200958265133611,0
4.94204660165095e-07,0.206221196100353,0
3.93366042007519e-07,0.198112779911776,0
3.77664272212849e-07,0.214606598182666,0
3.97828400481873e-07,0.214396275739173,0
4.43100383169479e-07,0.216678996807731,0
3.79379054671698e-07,0.193666783985004,0
3.59017695088889e-07,0.197329471288519,0
3.64512230772045e-07,0.19873674208643,0
3.56909785422827e-07,0.204648870705572,0
2.65863701994607e-07,0.199268595885699,0
2.20299159524889e-07,0.194998436599456,0
2.53083215586071e-07,0.205711445183324,0
2.76422973456298e-07,0.1903237118412,0
2.48491424062047e-07,0.18668770131142,0
1.22352445505665e-07,0.143873124057205,0
1.77844297435825e-07,0.164450750546932,0
1.80235727115452e-07,0.155895950574561,0
1.91419667128766e-07,0.156614608973186,0
2.86077548990648e-07,0.179238309344658,0
3.22602733810521e-07,0.179329139097879,0
2.95159229193243e-07,0.166189510006958,0
3.380824129279e-07,0.171697225934251,0
5.6149546454379e-07,0.202771928684267,0
7.83004206735242e-07,0.235184037373997,0
1.26430778176139e-06,0.286629122279342,0
1.56105677752345e-06,0.297191035023245,0
1.53654698597406e-06,0.294864780626081,0
1.53362138815293e-06,0.293901009994761,0
1.32091070342587e-06,0.272049061608705,0
1.16021289515818e-06,0.262442298229888,0
1.21371394351484e-06,0.258073716480068,0
8.94028692278674e-07,0.218809346567056,0
8.06636729836865e-07,0.224332937146569,0
8.94493829460346e-07,0.220079316367792,0
1.9211842069263e-06,0.318739740637762,0
4.1902343217413e-06,0.385292304690311,0
1.1865997227394e-05,0.633194462830544,0
2.46505653996031e-05,0.850827315145913,0
4.44135577401033e-05,0.887306895376787,0
4.51988900981383e-05,0.68116234251961,0
4.61591200972363e-05,0.393328801950534,0
7.20208678942621e-05,0.289048555929456,0
6.0474763524607e-05,0.222109743922533,0
4.95823235859921e-05,0.185458149161374,0
3.83703289591617e-05,0.149121118627595,0
2.9404883744157e-05,0.132915175825404,0
2.71222016583709e-05,0.122275249882674,0
3.70213982604244e-05,0.127324567385551,0
5.6396470300395e-05,0.16387360906623,0
7.24016183229125e-05,0.186824257302077,0
8.46897431568204e-05,0.265143797029244,0
5.86613452748364e-05,0.343094314753464,0
5.79173163383715e-05,0.427897143648486,0
3.89249064326499e-05,0.42936582453421,0
2.7940466406851e-05,0.44129940608839,0
2.13352754833144e-05,0.37189544347161,0
6.21966811344059e-06,0.231157203093674,0
3.61369370331831e-07,0.177377620526209,0
7.71174436893929e-07,0.263537270910577,0
8.60392843481087e-07,0.271513732838671,0
8.98995223298888e-07,0.281678640343335,0
9.24325065670116e-07,0.285613155990036,0
9.4093358588498e-07,0.295030781250783,0
7.3815226511121e-07,0.27358569000538,0
5.95856343868816e-07,0.250367326462527,0
5.60149258102574e-07,0.253082582209714,0
3.43897963119166e-07,0.20106512636524,0
5.23681188183984e-07,0.254425687411808,0
3.39147153848403e-07,0.202183719374375,0
3.81615472865647e-07,0.211811944602489,0
5.9608490619859e-07,0.265462675882289,0
8.02290963831858e-07,0.307696829485849,0
7.73816514701488e-07,0.287118505642047,0
7.35914408772263e-07,0.274829730494818,0
7.58452195357745e-07,0.287061245499655,0
9.82980014795082e-07,0.308583720580142,0
1.07200725082237e-06,0.31262717405315,0
9.22938282995077e-07,0.292239666692029,0
9.35447679071803e-07,0.299710159325857,0
9.85067687706554e-07,0.317394575661656,0
7.15361262281728e-07,0.256908067238941,0
5.03652348269258e-07,0.209747397334072,0
5.5056063178877e-07,0.219970683215502,0
5.80161662074485e-07,0.223455247737852,0
6.90570210660912e-07,0.239756932629217,0
5.75025429944704e-07,0.236567673378544,0
4.95091687453908e-07,0.232594864591953,0
4.59254860464067e-07,0.231111467826968,0
4.12123048122268e-07,0.227350143078024,0
1.95710680899271e-07,0.160469114852134,0
9.54550250884244e-08,0.123867780028963,0
9.11101836051995e-08,0.125035282715176,0
5.55141431776037e-08,0.113849099942003,0
7.55346623962793e-08,0.133392022627093,0
9.60064509698776e-08,0.149432347440704,0
9.93881462041258e-08,0.144255673547222,0
1.05091418361036e-07,0.14307109360108,0
1.54908761034213e-07,0.159859520790714,0
1.55468096713146e-07,0.159079414455105,0
1.64057931326993e-07,0.169595887367226,0
1.63877855028523e-07,0.167148170996061,0
2.08809613699852e-07,0.190106772856703,0
2.22216514978936e-07,0.18621052216317,0
2.16528856967701e-07,0.17206141574048,0
2.18013741676421e-07,0.162631075405725,0
2.20011530525621e-07,0.158595035544346,0
2.16619151928543e-07,0.154382763014194,0
2.16593368043251e-07,0.152906831938335,0
2.55474645265698e-07,0.159957758710619,0
2.77507745682108e-07,0.158943789661183,0
2.3786065624911e-07,0.150108053153835,0
2.70543014914124e-07,0.156585683273171,0
3.24530978076684e-07,0.175163531782228,0
3.4775835518791e-07,0.179532164917312,0
3.33384301398788e-07,0.17594604722387,0
4.22492587169084e-07,0.201019583330736,0
4.81651708839908e-07,0.220252599641535,0
5.21351906913128e-07,0.227372831460211,0
6.2949250084033e-07,0.269779451903096,0
5.34876633357269e-07,0.250704561420333,0
5.14552357370437e-07,0.237222497929226,0
5.09594044321632e-07,0.238198945783919,0
5.11622136940397e-07,0.241060041964865,0
3.01339143691796e-07,0.201882823141782,0
2.77052161892195e-07,0.203736409336804,0
4.45942568580815e-07,0.269838652756806,0
4.88282276345528e-07,0.280381941520743,0
4.8119150244108e-07,0.286565373267438,0
3.68815982398232e-07,0.247493979333997,0
2.59486556182271e-07,0.217903498340509,0
1.20393281122081e-07,0.156122075191857,0
1.28296504224818e-07,0.157384998274993,0
1.14003808352633e-07,0.152275412358778,0
1.65598390067357e-07,0.170589507028256,0
1.66715520555585e-07,0.164013636458095,0
1.04762391330802e-07,0.128663903358165,0
9.77979687367456e-08,0.129945009880628,0
1.14400839096264e-07,0.139995119621201,0
1.14061436877128e-07,0.143665417425442,0
1.18515988278646e-07,0.142014293220572,0
1.10774659212639e-07,0.142053206789834,0
6.45773329445314e-08,0.119606864311465,0
5.56320710673033e-08,0.112965373644697,0
1.4579348987349e-07,0.148808571783399,0
5.13729738432532e-07,0.254718007562287,0
6.99908702469996e-07,0.294829654160742,0
7.64066405249524e-07,0.270420057030238,0
8.62965582154894e-07,0.272768852600634,0
8.46936428924271e-07,0.257777010958035,0
8.18160688417173e-07,0.251801867877062,0
8.10367586131296e-07,0.245386553452822,0
8.06099993579303e-07,0.239947128453992,0
7.80566037343235e-07,0.236140895968154,0
7.42489710420167e-07,0.245087841969197,0
5.4776857600302e-07,0.223061483936803,0
3.96180697214639e-07,0.18893804213452,0
2.84684500112409e-07,0.178828925582296,0
2.76953032612091e-07,0.184367989362634,0
2.97317679383461e-07,0.19370016794922,0
3.33069963992446e-07,0.204408625316093,0
3.0976821423998e-07,0.188827255873699,0
3.2146249027771e-07,0.19197495116632,0
3.66107030848342e-07,0.19990944711743,0
4.25140006658059e-07,0.216438489254408,0
3.4179744962737e-07,0.186676843131637,0
2.72987142335401e-07,0.176771269050955,0
3.44878675282026e-07,0.19848407871088,0
3.25306857302208e-07,0.199156760084737,0
3.33949595106992e-07,0.202719499524014,0
3.32204919777148e-07,0.198278010134738,0
3.4860686073575e-07,0.215909052717116,0
3.25278813474781e-07,0.219229891436677,0
2.55960224651247e-07,0.207891189264109,0
1.62031276853224e-07,0.171878472383266,0
1.68918861414618e-07,0.188222651728284,0
1.97444159243071e-07,0.198293253758581,0
2.25967094404745e-07,0.217658878452794,0
2.36644396480778e-07,0.205299014636048,0
2.23095837919555e-07,0.206194487106261,0
1.70561633899008e-07,0.199099969677906,0
1.82206499383649e-07,0.198094109303509,0
2.43506402606166e-07,0.209461512364131,0
2.51874249267364e-07,0.211359150542773,0
3.00303679294432e-07,0.226761607571707,0
2.65058032622729e-07,0.210496336077019,0
1.92926843084929e-07,0.182661457633269,0
7.74584895028106e-08,0.124178733797654,0
7.0932598407995e-08,0.121081280751388,0
8.85848009916286e-08,0.124201368787875,0
1.02798604338301e-07,0.12993893667505,0
9.08168020259463e-08,0.13145486086966,0
8.28938557918305e-08,0.134678463630687,0
8.86469494003989e-08,0.13417214682499,0
1.35715688811645e-07,0.154486541489922,0
1.67514307376408e-07,0.15633931164646,0
1.73554516361032e-07,0.15166408689694,0
1.69882418562165e-07,0.150247784164165,0
2.19290095360672e-07,0.170203067396346,0
2.78132311509089e-07,0.20476634729291,0
2.4618587218363e-07,0.195329524194757,0
2.88348585389152e-07,0.20249251723355,0
2.83909545408667e-07,0.185578943964647,0
4.58219396066704e-07,0.229515164558604,0
5.32930515003295e-07,0.250910031341377,0
5.00673333633985e-07,0.249956777941373,0
4.80902538021459e-07,0.254773117509393,0
4.89065449020678e-07,0.254094348791098,0
4.49098269601353e-07,0.238326679797183,0
4.41773591685714e-07,0.23142817884832,0
4.09538187940634e-07,0.216366055196216,0
3.77709471055591e-07,0.2081276108516,0
3.90653289645854e-07,0.226956559696773,0
2.46945931814195e-07,0.190941237560516,0
1.4401337454195e-07,0.148688251367692,0
1.06373113726701e-07,0.130949220664385,0
1.10537981636098e-07,0.132896926607031,0
1.06939640130616e-07,0.132780752593352,0
1.0151629262478e-07,0.133491638213533,0
8.13329548475897e-08,0.122725598264532,0
8.75909400745157e-08,0.133442289954595,0
1.4543097460977e-07,0.164525285625553,0
1.52899467025043e-07,0.160186064759462,0
2.37873805003363e-07,0.185547859348228,0
3.50746306867089e-07,0.214528029665633,0
2.89965471263607e-07,0.191443560161397,0
3.47791946146039e-07,0.212082145426785,0
3.62119979295278e-07,0.2061681291281,0
3.75279519634991e-07,0.214538665274253,0
3.78915971982876e-07,0.21585836245393,0
3.85184229674062e-07,0.200334241934932,0
3.94593293312609e-07,0.199920943648449,0
5.18036366348711e-07,0.224031911065179,0
5.56547423959243e-07,0.237364577170091,0
5.27811232439541e-07,0.237698543272013,0
4.1568060794464e-07,0.214366449472999,0
2.41529466859413e-07,0.158027179306628,0
2.21826161337073e-07,0.152716280858775,0
3.20693185429311e-07,0.175674750166409,0
3.02819919414812e-07,0.174178762982742,0
2.90579764626329e-07,0.183866809727734,0
3.09235689692764e-07,0.193553444298136,0
1.90642657932173e-07,0.15417494577749,0
1.42267055617824e-07,0.132734500212769,0
1.21032742022238e-07,0.123293255246096,0
1.5777118320014e-07,0.135361983215125,0
2.28056924533711e-07,0.158008097858724,0
2.50241851971877e-07,0.164913016279303,0
2.3509941785614e-07,0.166655747779658,0
2.66568084868885e-07,0.175045010549453,0
2.93860789710834e-07,0.1752965463226,0
3.17348984689609e-07,0.18438005203262,0
3.01048946576463e-07,0.185149075865451,0
2.80265388712586e-07,0.184833839993614,0
2.61363540851778e-07,0.182479008741857,0
1.91904527441817e-07,0.164242031891446,0
1.06997679553682e-07,0.136351204620326,0
1.60373712020301e-07,0.166330098042213,0
2.38102572782423e-07,0.197816012115115,0
1.90835266637039e-07,0.181783645068159,0
1.30656705613096e-07,0.154133103436141,0
1.98882304239411e-07,0.187378406012223,0
3.53302917772009e-07,0.234606809211297,0
4.60651812878726e-07,0.237357925006221,0
4.78241250705734e-07,0.231062588800545,0
6.59759289534706e-07,0.266199513196711,0
7.73861816268873e-07,0.294070977773218,0
7.09663434530878e-07,0.27879614951333,0
5.27757302002179e-07,0.22725378712052,0
4.97749893030355e-07,0.211110616351204,0
4.47801884611796e-07,0.209761660573345,0
4.63834325030981e-07,0.209945068630934,0
4.77914586342279e-07,0.204272509161867,0
7.36463471986938e-07,0.268022928053245,0
7.7970469121507e-07,0.267601984577026,0
6.86685472851874e-07,0.245866912014558,0
6.9165292839387e-07,0.234077257182111,0
5.57415960812389e-07,0.205061944808829,0
6.23701399114001e-07,0.225272120085258,0
6.50617309966908e-07,0.229239445110379,0
6.48185920401312e-07,0.220970381241019,0
5.73137453738438e-07,0.207177242278815,0
5.23082098068366e-07,0.205363954867273,0
3.82060886915942e-07,0.179643143354626,0
3.54044281517622e-07,0.182964169172052,0
3.45314227766632e-07,0.184112482190843,0
1.9403421473211e-07,0.151563031635337,0
2.58876063631325e-07,0.177840655882018,0
2.4813260688546e-07,0.170955310782571,0
2.25426351886122e-07,0.174338347594305,0
2.11694121663938e-07,0.173365627575305,0
2.03326583176668e-07,0.189228292248769,0
1.43235132649645e-07,0.169842568008751,0
1.58047204314795e-07,0.174364113244786,0
1.01598780512784e-07,0.148385263998823,0
7.15407282921611e-08,0.138908790682364,0
9.27595304667149e-08,0.145253374335706,0
3.88233405240227e-08,0.114981668479994,0
2.48667596824098e-08,0.104843884042338,0
4.07151175420638e-08,0.107043376277184,0
8.22389861952832e-08,0.135451851493854,0
1.66762362992608e-07,0.166281594379133,0
1.99158428078708e-07,0.166826732273615,0
2.37782893694665e-07,0.182820931174477,0
2.29575297475917e-07,0.182145857850277,0
3.49257210448023e-07,0.200526960937051,0
7.58423432457819e-07,0.272179510188722,0
7.9109069060037e-07,0.264885952098468,0
7.82461820622337e-07,0.265692290510798,0
7.1536013231066e-07,0.266289509581495,0
7.31867982375778e-07,0.256492386218205,0
7.51898363160144e-07,0.257632160044675,0
5.95502149301146e-07,0.23664801612029,0
3.22972131625295e-07,0.175113685042411,0
2.11133656013936e-07,0.142141666063655,0
4.15816204472866e-07,0.203125173199573,0
4.16603588858362e-07,0.208287816226832,0
4.62427819224562e-07,0.206197288541132,0
6.17201702803047e-07,0.22093862005247,0
6.77136190076183e-07,0.222307434500467,0
6.87315893983483e-07,0.227896283583562,0
6.72304536511699e-07,0.228112696205909,0
6.44074469306065e-07,0.231613361577051,0
6.06800730015596e-07,0.223172560145045,0
5.92950982802284e-07,0.217355363997453,0
4.93266989627483e-07,0.212095274329662,0
4.52755266877758e-07,0.212845418621648,0
4.92413142398227e-07,0.239621106767449,0
1.61422016997989e-07,0.150279926344683,0
1.58818563656045e-07,0.156488589012326,0
2.22328176665437e-07,0.180249109276156,0
3.09988558598348e-07,0.204426799819947,0
2.51044747778404e-07,0.187566300717263,0
1.81395282881071e-07,0.167947222609354,0
1.69979698798703e-07,0.172218484459756,0
1.59247541763525e-07,0.165097010547587,0
1.72118939480758e-07,0.164128576597432,0
1.85005540445094e-07,0.173849656609238,0
2.18071781099488e-07,0.176765224241045,0
3.15003062026653e-07,0.222279300345846,0
3.25813803413418e-07,0.225823743316395,0
2.25985995738983e-07,0.198224823506127,0
2.22199668137551e-07,0.193859092626743,0
2.88915111793067e-07,0.205296549701848,0
3.3698418377391e-07,0.212589053649589,0
3.28960464665407e-07,0.213759644008421,0
3.08477170931839e-07,0.219787648984118,0
2.47148915707964e-07,0.206631403369272,0
2.28350306112964e-07,0.212569208818701,0
1.67093649964979e-07,0.168781621645819,0
1.17112358762219e-07,0.147281583742215,0
1.05596515428678e-07,0.141408660684438,0
1.08881546774244e-07,0.13468384054467,0
2.25988563855048e-07,0.186598916319806,0
2.15417684508744e-07,0.17944948496397,0
2.12064752174423e-07,0.167642196679991,0
2.30127031531298e-07,0.172049819915146,0
2.26131556557541e-07,0.170681462124709,0
2.17672695863004e-07,0.173535144520113,0
2.72454515063543e-07,0.196302792982347,0
4.06925181206929e-07,0.247157724808686,0
4.59398674963702e-07,0.250683451147831,0
4.56010816250897e-07,0.251676128254462,0
3.1503100312944e-07,0.220046612126519,0
2.40157065634335e-07,0.183583382734633,0
2.82598778969147e-07,0.202956697597973,0
3.28133839466441e-07,0.217473140201798,0
3.56212079650317e-07,0.22064028449947,0
3.78829683283097e-07,0.238872921848621,0
3.38710368668086e-07,0.226543704742949,0
2.24856538293644e-07,0.182742982772576,0
1.64817682783631e-07,0.169934478661783,0
1.77060302963535e-07,0.175899881158829,0
1.36832511125945e-07,0.145083092099763,0
2.24284978382242e-07,0.179306366267225,0
1.89629690231537e-07,0.171235276661004,0
1.70516332331623e-07,0.163560814127845,0
1.46015375101496e-07,0.150959142433771,0
1.29221026008179e-07,0.138360810880112,0
1.30848287071536e-07,0.142394420327182,0
1.3473004586594e-07,0.145924506435666,0
1.39801766920172e-07,0.141248741893449,0
1.65616469604454e-07,0.143180331966233,0
3.5949896003945e-07,0.218232433670466,0
3.94122095377023e-07,0.233744644926695,0
3.98340688274497e-07,0.229979536566951,0
3.94094565172807e-07,0.226382246578988,0
3.89967397207242e-07,0.23028801343668,0
3.71052914215394e-07,0.227661823154984,0
3.07340317312233e-07,0.205896683401751,0
2.45154414047327e-07,0.176615622232659,0
3.127736291084e-07,0.199159689663772,0
2.73838421448591e-07,0.207500923787787,0
2.27908179251232e-07,0.196119732110125,0
1.93318737596431e-07,0.177410666975534,0
2.00853076507608e-07,0.173692874995832,0
1.92581585561165e-07,0.170266326654458,0
1.80612212930564e-07,0.1634707135893,0
2.10977617281834e-07,0.17020142477893,0
3.25797367470603e-07,0.203330071482723,0
3.74488026263791e-07,0.235460809705834,0
3.30245447219636e-07,0.227261525400939,0
2.69262346794883e-07,0.203538691138674,0
3.41798271424511e-07,0.20757389602986,0
5.25538449722113e-07,0.241803732857329,0
5.52530890433754e-07,0.246522479853671,0
5.75007350407606e-07,0.239069379301049,0
5.9953552966802e-07,0.234935549909727,0
5.94967981159648e-07,0.239097772674689,0
5.55087501338674e-07,0.230957067551969,0
5.49309753815883e-07,0.225970883099477,0
5.53480066131338e-07,0.226811626152739,0
5.5374252759317e-07,0.226864439802569,0
4.15644962493659e-07,0.20645445309135,0
1.83290038913747e-07,0.151345486517724,0
1.62995244899341e-07,0.152637925753784,0
1.87525067754038e-07,0.175829240912624,0
9.39195998555473e-08,0.131293386603343,0
1.04635012773983e-07,0.135149679046567,0
2.71558756180109e-07,0.202142996947377,0
3.96346186613861e-07,0.243200623335099,0
4.38874188648452e-07,0.256058138298747,0
4.3482940584625e-07,0.251663615761697,0
4.19280901218332e-07,0.261066438604145,0
3.58751946438494e-07,0.236310900896928,0
3.42033716305341e-07,0.219004026754084,0
2.65590557169946e-07,0.197205934338322,0
2.01293559775058e-07,0.171561352234771,0
1.99387709480981e-07,0.171908844424686,0
1.47344221078114e-07,0.155673484645494,0
9.50261497055873e-08,0.126919787249325,0
5.79605305410186e-08,0.108199567594544,0
1.04004283468446e-07,0.129694678769327,0
1.51389003880316e-07,0.143374897478518,0
2.30140283010193e-07,0.160275610599212,0
2.36521435083591e-07,0.167063463521217,0
2.40798067404132e-07,0.172001816358875,0
3.42229714923413e-07,0.207410278192903,0
3.84491762858324e-07,0.214213302994215,0
3.90255539829723e-07,0.213677215567744,0
4.04972591200471e-07,0.21412752499554,0
4.00516807103243e-07,0.208905946801382,0
3.61627722807959e-07,0.202888945021981,0
2.76808499039958e-07,0.194296633657714,0
2.02793339556954e-07,0.186456329781246,0
2.19853026402096e-07,0.187911841069241,0
2.48822916483703e-07,0.191909300821608,0
1.75263854413823e-07,0.151478346804052,0
2.00497135621014e-07,0.164410389274194,0
2.07006282599086e-07,0.159254619669934,0
2.02587890271763e-07,0.152626822428754,0
2.38061482925385e-07,0.164425790631314,0
2.46000043305175e-07,0.170165921506267,0
2.86014681509379e-07,0.179855062618694,0
2.31861845295453e-07,0.165599816069132,0
2.24323500123215e-07,0.173886852652851,0
1.67580975669453e-07,0.153254798802668,0
1.61186469392517e-07,0.159518905757738,0
1.33808811271142e-07,0.145682489567813,0
1.21571738221938e-07,0.147821173607223,0
1.26645616493664e-07,0.152336069466245,0
1.39484142325266e-07,0.151916285045851,0
1.43793954705366e-07,0.156061919314367,0
1.55644269475198e-07,0.161409995922184,0
1.6220683326742e-07,0.164301808184017,0
1.51473751710458e-07,0.149686320171484,0
1.4486229098836e-07,0.153343027134099,0
1.29367819522448e-07,0.151241121790815,0
1.43515057300719e-07,0.157942603444981,0
1.39573204590396e-07,0.158287573162279,0
7.41874287086375e-08,0.13364520314351,0
1.08336695269917e-07,0.1686651997565,0
1.20778703981099e-07,0.16086736744587,0
9.70116115976758e-08,0.143125161833279,0
7.76307587284433e-08,0.132529906374796,0
1.03593795796634e-07,0.151412430474231,0
1.18517220974357e-07,0.156003358089984,0
1.28360707126441e-07,0.157530504478958,0
1.15417402159391e-07,0.143345573088121,0
1.23092062932353e-07,0.1442289344944,0
1.15975299693328e-07,0.136477298064582,0
7.02570811582862e-08,0.116649650652572,0
5.53184527334589e-08,0.110351164485953,0
7.83485985309016e-08,0.127990003557587,0
9.10748463281467e-08,0.133403445910193,0
1.02204445005528e-07,0.139476435369313,0
1.16242897387289e-07,0.142821875976954,0
1.51964261878852e-07,0.162035889924528,0
1.40679343541866e-07,0.162417782525929,0
1.43974852800977e-07,0.170253238035194,0
1.64250129133289e-07,0.174779659960655,0
1.78615245878505e-07,0.164763392294379,0
2.11403308200749e-07,0.169898742174884,0
1.61084566547062e-07,0.146906900178931,0
1.2556659684784e-07,0.132059634788717,0
1.80530855013628e-07,0.159856959280185,0
1.90130678313476e-07,0.165421700495963,0
1.57410311530702e-07,0.155889320650953,0
1.60189321286842e-07,0.157069858733222,0
1.78296285863246e-07,0.168888289785997,0
1.69457857614318e-07,0.175236084839495,0
1.74770057056865e-07,0.197666921696569,0
1.17763530271633e-07,0.185964099311617,0
3.71346501243931e-08,0.123953984475409,0
6.24845238009303e-08,0.140667870591969,0
9.80450215021878e-08,0.149366718548034,0
9.19361924563109e-08,0.147107190585976,0
6.62302751685373e-08,0.120648793630805,0
1.11544683133536e-07,0.144687810950261,0
1.8233675423046e-07,0.175332214499098,0
1.98331700155098e-07,0.177172475273481,0
2.42154854483535e-07,0.184700476798179,0
2.53254971188492e-07,0.183811266027898,0
2.74772496623713e-07,0.188747274375794,0
2.25484699483116e-07,0.179064610146279,0
1.4079028615587e-07,0.150569269876765,0
1.3307576822158e-07,0.148032428018674,0
8.58857110074281e-08,0.130513329018355,0
1.25447333537786e-07,0.156502416342833,0
1.41315414528818e-07,0.161642212601097,0
1.46971844248704e-07,0.16177028788962,0
1.23108498875168e-07,0.148384000555954,0
9.40686533119536e-08,0.134090831795088,0
8.74890372290608e-08,0.134319670541296,0
8.0839362939918e-08,0.125794169188746,0
6.04144168033432e-08,0.109076546332263,0
8.05982682037459e-08,0.116304985889061,0
1.47344631976684e-07,0.148042757902188,0
1.51013134413059e-07,0.149779047163122,0
1.3379525161832e-07,0.135558476155108,0
1.47068508137387e-07,0.142785698248873,0
1.44595206917612e-07,0.140235940776493,0
1.50407059021745e-07,0.14246858132264,0
1.35448707465539e-07,0.135144068806957,0
1.68852193121574e-07,0.149795333439171,0
1.69494838485652e-07,0.148412100118253,0
1.7011252176158e-07,0.151983515525201,0
1.52992432826591e-07,0.140585187436814,0
1.68050940909328e-07,0.139785137715597,0
1.5825676258569e-07,0.145782951402862,0
1.30526553490927e-07,0.13127070634189,0
1.50038791178039e-07,0.135007393994927,0
2.9376011956109e-07,0.176732409397386,0
3.91806681932917e-07,0.197510278897627,0
3.7752302582928e-07,0.194961070144706,0
3.5778335578346e-07,0.183887623604935,0
3.62785634979297e-07,0.180416807642139,0
4.15424720859934e-07,0.202272080278298,0
4.26552984116962e-07,0.208576401184454,0
5.25020717523431e-07,0.227304574582256,0
5.86067918125163e-07,0.231577552509243,0
6.04550135820969e-07,0.231329954479692,0
4.27615567819971e-07,0.200636895465266,0
3.02112865699826e-07,0.170772809270121,0
3.16096052223871e-07,0.172259256213906,0
3.07610688571544e-07,0.172934784062095,0
4.60258993845441e-07,0.213967014791218,0
4.34188814975023e-07,0.201564105542088,0
3.95707650235487e-07,0.195985534785318,0
3.14446397188428e-07,0.172554348559543,0
2.59194818197299e-07,0.155022371530851,0
2.90072304891907e-07,0.167524652217543,0
2.6978696154462e-07,0.161914965027577,0
3.2613841328402e-07,0.187286600203636,0
4.10108823330253e-07,0.214513565405157,0
4.20014868789678e-07,0.229035594199163,0
2.56346469307408e-07,0.189593787178348,0
2.34725808331019e-07,0.188454808246934,0
2.43455862082009e-07,0.189250769468184,0
2.33288176957893e-07,0.190437978772571,0
1.88095086795801e-07,0.198020478351115,0
5.33075151300068e-08,0.120626489539848,0
1.45577254500826e-07,0.169214179807799,0
1.7541927679807e-07,0.169984370329336,0
1.24641150542695e-07,0.15106623914473,0
1.34406668691049e-07,0.153659137378734,0
1.39777113005949e-07,0.148374801268568,0
1.6148776076925e-07,0.150251195104694,0
1.6681824519818e-07,0.150771444837592,0
1.70004352712926e-07,0.15728837167793,0
1.92925096766004e-07,0.164384264783149,0
1.86087744554839e-07,0.163727971615503,0
3.17042865254675e-07,0.20906651759397,0
4.0833096794085e-07,0.232938993848034,0
4.00977938023855e-07,0.22322077180183,0
3.52583023476699e-07,0.20783256868333,0
3.70440675345524e-07,0.215369994628036,0
4.24905794472941e-07,0.230899267590174,0
4.26485596751419e-07,0.225369939981211,0
4.16573593262725e-07,0.218147237538535,0
3.74755932131681e-07,0.20754641947349,0
3.65810362080525e-07,0.211687591452678,0
2.13638493698988e-07,0.170706982854352,0
1.06799934616686e-07,0.132711656170866,0
1.28520546670319e-07,0.138048340916416,0
1.9439991445975e-07,0.169178839219091,0
1.9549495914982e-07,0.166481284287423,0
1.83168823835484e-07,0.165001875616032,0
1.93547299926206e-07,0.164866397246189,0
2.03811957112932e-07,0.176856222545052,0
2.17586407163223e-07,0.173504023043494,0
2.27658044746512e-07,0.171205457221949,0
2.31255461730211e-07,0.168786859336113,0
2.85303313359404e-07,0.18619072744068,0
3.45982451566717e-07,0.221727125126569,0
2.51708759868142e-07,0.184865434770853,0
2.29773658760769e-07,0.179987333521431,0
2.51229241236505e-07,0.192223914307284,0
2.36467196472301e-07,0.202333948341747,0
2.04062194342295e-07,0.181614830108785,0
2.0724902092954e-07,0.185327096256952,0
2.1029840194499e-07,0.181645540084223,0
3.63741385054007e-07,0.241283364972813,0
3.57357664864544e-07,0.232638768417614,0
2.54403843591281e-07,0.198289755116946,0
1.9101852739943e-07,0.176321874937748,0
1.91690449286648e-07,0.176596117426061,0
1.94580709830719e-07,0.171049549718279,0
1.96990629946011e-07,0.167859730619293,0
2.03698035484294e-07,0.172475407210679,0
1.53373746699906e-07,0.154221481844857,0
1.52903576010747e-07,0.167353947097372,0
7.11303433449915e-08,0.118475606410002,0
9.64378944687794e-08,0.138552404383197,0
1.18786770436528e-07,0.146237809472171,0
1.15460957407851e-07,0.143558939928624,0
1.10295962378143e-07,0.150278470239178,0
1.13223101068906e-07,0.153047289453593,0
1.80434293849589e-07,0.177357959612687,0
3.95337019725002e-07,0.251016248263183,0
4.30013263702795e-07,0.238796058499334,0
4.22670814423988e-07,0.226550335047911,0
4.46026802787743e-07,0.232500965634625,0
4.18388429523461e-07,0.22094341417021,0
3.96139093734388e-07,0.213138773376585,0
3.74026689893894e-07,0.201232968935753,0
3.48322827098973e-07,0.191139217258681,0
3.24415207404478e-07,0.186313899454557,0
2.95184602179964e-07,0.181893330203063,0
1.29170588208664e-07,0.128408752150899,0
1.11038866993395e-07,0.129154818208324,0
1.11804679203945e-07,0.136926657334704,0
7.67887248330869e-08,0.129092092439635,0
7.42608768280935e-08,0.125717594824467,0
9.98606795600658e-08,0.144593007171351,0
1.01806387015469e-07,0.147898813439585,0
1.0288047587845e-07,0.150925335338699,0
9.49098654101694e-08,0.143982602728373,0
9.22423118912462e-08,0.149685638535413,0
1.00481136401343e-07,0.154754059707325,0
5.90699566810512e-08,0.132809889022935,0
4.57540694353075e-08,0.118439852982723,0
5.12292928856547e-08,0.114326752686921,0
1.19910988925094e-07,0.146994901572216,0
1.27813801129261e-07,0.146543473539728,0
1.53967803308037e-07,0.152778454648104,0
1.73267709158905e-07,0.158550022750486,0
1.82240912138918e-07,0.164150673855721,0
1.91006200442318e-07,0.158345172514495,0
2.56236348490545e-07,0.171644153375952,0
2.71330296574976e-07,0.169745002460888,0
2.9694992516297e-07,0.179170599859351,0
4.85841538837457e-07,0.225294192720958,0
6.49934807441503e-07,0.258468922267984,0
6.47147271540027e-07,0.26028657260614,0
5.85092444919074e-07,0.257554963478243,0
5.36235474929523e-07,0.244155718813277,0
5.41014225303072e-07,0.247717105250533,0
5.43279509121592e-07,0.250985982495209,0
3.78601120953321e-07,0.217395601882535,0
3.77644549081471e-07,0.221962139653116,0
3.89977361497574e-07,0.223965879966675,0
2.29186895602263e-07,0.184062675588805,0
3.79593235551508e-08,0.0985255607667675,0
4.1958599340684e-08,0.09859746469491,0
7.84759770877201e-08,0.116480137839567,0
9.08020096774127e-08,0.118905611072302,0
1.49964110362872e-07,0.139225900049131,0
1.33165652283851e-07,0.13690703208648,0
1.61222320292783e-07,0.149278927870233,0
1.56914459680893e-07,0.150147307085688,0
1.64605659121313e-07,0.151671930067085,0
3.2276493602118e-07,0.200651157395229,0
3.53639546425795e-07,0.215365883239332,0
4.12570927563985e-07,0.235263015252271,0
4.10293727686925e-07,0.247929990095383,0
3.9448491881467e-07,0.250002186526298,0
2.89502696748714e-07,0.219007499273841,0
2.57228360364091e-07,0.213401683244549,0
1.63106701136558e-07,0.17673585696507,0
1.52608242663283e-07,0.169243460019779,0
1.44344558789678e-07,0.176187445538057,0
8.67366819466905e-08,0.148912996381984,0
8.48235382029894e-08,0.142739208795884,0
1.08243524019082e-07,0.152120185190916,0
1.06910158158191e-07,0.14650105678236,0
9.80142041094093e-08,0.15062462934306,0
1.01446748041742e-07,0.158036698513903,0
1.07764827184587e-07,0.153697762428605,0
1.04861315161621e-07,0.14730621893779,0
1.14615739048574e-07,0.15267796368872,0
1.12940094678554e-07,0.13667686079081,0
2.18996611056776e-07,0.177455661573818,0
2.58461056075238e-07,0.192484830805466,0
2.55346444911739e-07,0.189959225778052,0
2.54214727524262e-07,0.195454062354111,0
2.5373654431298e-07,0.1905254270354,0
2.52844072618109e-07,0.195009012102967,0
2.71923634110609e-07,0.204296210678411,0
3.80302241034705e-07,0.246005042541764,0
4.15023170232028e-07,0.233415591904454,0
4.2089162361423e-07,0.250870589024782,0
3.51735442450643e-07,0.240170674007339,0
2.21400367693514e-07,0.198117510559844,0
2.10412118124344e-07,0.197711132449018,0
2.09592786375002e-07,0.197271308141521,0
2.0868685775195e-07,0.194006467662926,0
2.14330960514725e-07,0.190783664402725,0
1.99012148187651e-07,0.170789622344922,0
1.51311035876586e-07,0.143717885567753,0
1.61147844926901e-07,0.156637726851838,0
3.26874435348218e-07,0.210795953815715,0
2.69797747632092e-07,0.179379485735812,0
2.6149184393038e-07,0.178610817046259,0
2.6183853959914e-07,0.176901991443495,0
2.99435758789142e-07,0.183348173073773,0
4.72060000786827e-07,0.224434789136527,0
7.9368767228983e-07,0.288176751725618,0
1.05039655413631e-06,0.355167228676287,0
2.83885631111871e-06,0.490552257050593,0
9.96768651118517e-06,0.305932939037172,0
8.08164339778934e-05,0.292757433910067,1
9.32590661249322e-05,0.180079162369288,1
9.29575564583337e-05,0.168349473745341,1
0.000181583185256437,0.16583955884403,1
0.00030503266902931,0.219620763652083,1
0.00031751800124216,0.171957584979817,1
0.000357275889474661,0.133398944429804,1
0.000369559088456507,0.121565350376926,1
0.000490088311158888,0.107359200480155,1
0.000536560591848962,0.0892606145321889,1
0.000510061224182823,0.0697589679289436,1
0.00059399989755345,0.0519900345489727,1
0.000447004421397992,0.0305247639105464,1
0.000422341463297506,0.0309826803874703,1
0.000429714215524083,0.0290776814902314,1
0.000409818749484492,0.025103670349585,1
0.000410149424731616,0.0252526465514654,1
0.000433656803229223,0.0262372551873156,1
0.000442852502032519,0.0213345662727603,1
0.00046805115517359,0.0197498563258314,1
0.000459953246787335,0.0211088054869311,1
0.000329067920907766,0.0215243555011099,1
0.000291952349933967,0.0264273622399595,1
0.000324341290860653,0.0229250734463517,1
0.000820258447347675,0.0275702717487031,1
0.000906090229458611,0.0212468596393005,1
0.000927519921215428,0.0211312157090486,1
0.000939167132109108,0.021079810748873,1
0.000942326978377148,0.0240511728534292,1
0.000958023157383145,0.0263999888260968,1
0.000943724600145578,0.0262030273333468,1
0.000949273968599356,0.026557299319592,1
0.00100119195491645,0.0215850359672902,1
0.00169434085406247,0.0227687431088879,1
0.00144445187849565,0.017514944199424,1
0.00149986655709992,0.0229129887501517,1
0.00155258318940235,0.0183388270614529,1
0.00184248817978631,0.0207609123187295,1
0.00230503783249148,0.0244225255374236,1
0.0022056271636013,0.0231304585700678,1
0.00329325599325334,0.0140746993764384,1
0.00757712101288715,0.0263438392061221,1
0.0073545993786004,0.0176518280865812,1
0.00757947860917849,0.0197846907428368,1
0.0076862091841165,0.0232537375643804,1
0.00647327209786851,0.019399348037921,1
0.0063218814461822,0.0199047172379208,1
0.00642751497751132,0.0175348735386342,1
0.00661176763045767,0.0157569316123765,1
0.00642436760489117,0.0151737757558821,1
0.00680145410194085,0.0180342340551322,1
0.00534264219290521,0.0120240382498533,1
0.00502355043740063,0.0144034006337042,1
0.00469992559462898,0.0136344091956775,1
0.00391899256887746,0.00990520859365958,1
0.00364252111760783,0.00868062796991126,1
0.00387559139998463,0.0101203322085875,1
0.00429543820715004,0.0126961229581087,1
0.00425388412070778,0.0138438348335498,1
0.00492831901458261,0.0142371106670764,1
0.0265631698266036,0.0016743546288705,1
0.148624297487489,0.0217874498053627,1
0.159659138062793,0.012294641836873,1
0.154001115022066,0.0114766767313492,1
0.184399299129342,0.0103772701426171,1
0.276082629868229,0.0167802228504659,1
0.274914696488375,0.0163821459518235,1
0.245963850096815,0.0150717615083007,1
0.190695622892669,0.01089334514343,1
0.142397349454904,0.00751474437939448,1
0.12159823052071,0.00916811304176287,1
0.115325474550606,0.00995720464686194,1
0.116155937850497,0.0158757955731696,1
0.0971374660002095,0.0147167154069791,1
0.135431231771833,0.0327441809787803,1
0.123124412565079,0.0361851494057779,1
0.123399828989892,0.0387210540198706,1
0.103248512373111,0.031720069842612,1
0.0910452548571079,0.0308030154005179,1
0.0759301692354528,0.0381496997181998,1
0.0319045192478585,0.0258469938606271,1
0.0229527915446891,0.0202557596953894,1
0.0188204209824583,0.017558011840494,1
0.0124994187748798,0.0128289332793363,1
0.0115098873497233,0.0231688796086473,1
0.00934616410277274,0.0202795131676443,1
0.00802147989671162,0.0167504513473594,1
0.0073619661223599,0.0191123511990016,1
0.00802238656854746,0.0246355176266775,1
0.00452194252678164,0.015036682648332,1
0.0042979144796801,0.0330226625302145,1
0.00578357137939992,0.0476281562920262,1
0.00613444953077766,0.0469383236960511,1
0.00789973318914682,0.0521928033188861,1
0.00795007471933795,0.04231890399548,1
0.00598265291808364,0.033536109740434,1
0.00367012544463837,0.0226586057216145,1
0.00283982171073545,0.0159665413605341,1
0.00226027054121191,0.0158247886051914,1
0.0028401997070137,0.0146989645998684,1
0.00265657482325959,0.0117706613332058,1
0.00317266772514547,0.0107952735579978,1
0.00323841408722488,0.00914096763361702,1
0.00312423509997112,0.00812679148480365,1
0.00279865973575913,0.00769071365573633,1
0.00297049679388983,0.00697124822068524,1
0.00305515776418243,0.00789702697387689,1
0.00263928484337989,0.00685643854579829,1
0.00252414306253085,0.0062189713239685,1
0.00204846955551317,0.00642081857561712,1
0.00199061901686959,0.0081916740802635,1
0.00173500930842201,0.0106165555700238,1
0.00215985250455225,0.0179009945422401,1
0.00232363800601809,0.0106099366099065,1
0.00544957696542864,0.0223788508976272,1
0.00775667964048522,0.0351953173828035,1
0.00687633303596257,0.0307176416256662,1
0.00675946257401053,0.0286941480082682,1
0.00670751336679826,0.0262372203102369,1
0.00670257613490061,0.0220880410581007,1
0.00744569977511527,0.0201106264186316,1
0.00723719891666196,0.0197357034606874,1
0.00555709051344781,0.0121399963640739,1
0.00701658124911024,0.0218802913963128,1
0.0147451685369975,0.0286275036970547,1
0.0202479288490416,0.0330239844157328,1
0.0255293421949005,0.0396968749221993,1
0.0337529694351326,0.0454489935657992,1
0.0406982267268269,0.0547228194456729,1
0.0734973002295541,0.0454700548071276,1
0.0962392918919597,0.0503947353401304,1
0.093185249408092,0.0359275842261988,1
0.0720368479385392,0.0307368529906719,1
0.0588982444042905,0.0264412490682995,1
0.0576671229084335,0.0253355391138231,1
0.0643060507556526,0.028008264619488,1
0.0723888262015,0.0273630922644666,1
0.0634681845490243,0.023966804078489,1
0.0659804142540558,0.0228230118775185,1
0.066100263637061,0.0206515117505954,1
0.067951743178976,0.0171602774276069,1
0.0798657418673537,0.0227768108203459,1
0.0598808000939935,0.012176363036648,1
0.0499521022816549,0.0094209076799918,1
0.071460800181549,0.0145322347623957,1
0.0903285864196402,0.0195800818358729,1
0.108620331642251,0.0227528199331833,1
0.133559649022292,0.0267597981615155,1
0.113557665070886,0.0231194164006192,1
0.107681346553309,0.0300002450795696,1
0.0990518793991263,0.0389655135104486,1
0.0464202586551985,0.0284374973291988,1
0.0173408594256824,0.0314663177134976,1
0.0122260861695713,0.0169169763915831,1
0.05203828707783,0.0287008502917405,1
0.107651566152649,0.0489610798056534,1
0.111961427372975,0.0446836318229806,1
0.107847806679859,0.0432932928591993,1
0.0981579726357594,0.0401861610378481,1
0.101739350486632,0.0405852269314679,1
0.0979541143494218,0.0215972839797666,1
0.0936763717829977,0.0194218316407687,1
0.0775269778818586,0.015954535580607,1
0.0757836801367249,0.0177315118315176,1
0.0924681917518842,0.0291092526267087,1
0.0895655011526554,0.0255230903515778,1
0.12396272674658,0.0306758665401711,1
0.133558804629839,0.0341682430176652,1
0.146364686854723,0.0375374394394819,1
0.122234173782718,0.0333098457112392,1
0.123317423372,0.0556288879011725,1
0.119438098241177,0.0782985708077856,1
0.0863337616993424,0.066334820271547,1
0.065980800312164,0.053622190028656,1
0.0439003605212872,0.0398928882448493,1
0.0184663494956545,0.0273850488944358,1
0.0233088247002005,0.0220059286341582,1
0.0226483313938893,0.0122077565938048,1
0.0224808696912888,0.0130340402360835,1
0.0207152957273271,0.0128385018142154,1
0.0175786017742688,0.0110189519985301,1
0.0157092121695505,0.00931142119465549,1
0.0152665350522793,0.00911306425754282,1
0.013357770091927,0.00794551479329949,1
0.0125721833363146,0.00728231506075967,1
0.0179629235360616,0.00742702087888911,1
0.0406678115149945,0.0203345826276532,1
0.050710234158464,0.0211071858982545,1
0.0452295933753443,0.0188591868218095,1
0.045155730633447,0.0170093956334622,1
0.0447175918565756,0.0146031221462514,1
0.0424549396543867,0.0134993211871664,1
0.0359263857688805,0.00997178789464318,1
0.0377364556706095,0.010173562840976,1
0.0411167675950974,0.0109834711040005,1
0.0411192676475604,0.0147959421709314,1
0.0240066710024865,0.00792475565333408,1
0.0151921696624753,0.00773618846479781,1
0.0173748078869341,0.00985762036164084,1
0.0114683566446424,0.00652283293810593,1
0.0132406876120652,0.0103129105755982,1
0.0125639154649736,0.00862801517546322,1
0.0126590870481192,0.0103703967167265,1
0.0115560589587744,0.00988355778524528,1
0.010365130817654,0.00889348284728997,1
0.010546945324835,0.00962234629123082,1
0.00959465531152394,0.01024190615511,1
0.00797209903679741,0.0112960245107217,1
0.0149927322939503,0.0198335275593283,1
0.0155027381695821,0.0101652357953139,1
0.0143519039870396,0.00872417096925829,1
0.0220675720739889,0.0132162294675629,1
0.02771229028886,0.0133620959817,1
0.0270070045653353,0.0120972321566495,1
0.0270548574979911,0.0109048625648792,1
0.0252639480566978,0.00838312379305271,1
0.0228703532497796,0.00647458462075386,1
0.022317811055937,0.00687033450280114,1
0.0435587595153838,0.00745611160088972,1
0.0674081214825647,0.0134545284969419,1
0.0581092600652288,0.011781771305978,1
0.0652081649664929,0.0116232891369218,1
0.0844528716153017,0.0136943096656962,1
0.0735684663580556,0.010610546454079,1
0.128527165666099,0.0133523301422646,1
0.117905769607725,0.00858047309591626,1
0.102315918498121,0.00751654505523734,1
0.08194925810639,0.00504966521774448,1
0.11489742218117,0.00914698622270693,1
0.141284504844625,0.0125937547396381,1
0.155899556004524,0.0129637391874835,1
0.139566985850092,0.0122001787516718,1
0.142058016599453,0.0132040628993285,1
0.12503193176972,0.0130857009558604,1
0.127283745659228,0.0212165602986011,1
0.144469371580772,0.0317310725951884,1
0.177584283149974,0.0364454052737922,1
0.202747927430735,0.0479124840795605,1
0.174267211535161,0.0619641914881124,1
0.128773818412847,0.0611386890216251,1
0.0490229452434603,0.0438324185396855,1
0.0248500702110676,0.0197918828905478,1
0.0265676132575489,0.0225325777686227,1
0.0307865811381827,0.0185973604760021,1
0.0494824279874497,0.0242690772400031,1
0.066299000723993,0.0315670745757026,1
0.122621998879282,0.044460474273815,1
0.227943897497004,0.0707779950431001,1
0.25311594036344,0.0331149379346943,1
0.243460892904788,0.0223799227124779,1
0.277877581948769,0.0218452749714705,1
0.227296923756148,0.0146048153564808,1
0.214555960840399,0.0134654169694051,1
0.177762277302118,0.0117701506136461,1
0.157321210842446,0.00922430254555288,1
0.221542618378624,0.00941401859887539,1
0.370390477846889,0.0164314977997815,1
0.365802535373003,0.0135184243918988,1
0.374891625911073,0.0145529635216808,1
0.442128133655798,0.0238485337570308,1
0.326641546537551,0.019029017371128,1
0.329220700273248,0.0215720270885919,1
0.339846418261607,0.0217976729606246,1
0.257761872204113,0.0185704370309723,1
0.0984925967885652,0.00598464606851212,1
0.0679129816457122,0.0123899066272073,1
0.0678661686701161,0.0121364145190259,1
0.0366109228602008,0.01063687834123,1
0.0100526270997012,0.0144514896327983,1
0.0116329828277364,0.012089870416823,1
0.0172015596206738,0.0129577358014677,1
0.0241060692929545,0.0176981112508365,1
0.0362001938043798,0.0208373230329753,1
0.034429264581579,0.0158864286851784,1
0.0298583180143479,0.00960019574009272,1
0.0405322082069419,0.012631373303072,1
0.0380539982772798,0.0101690070940991,1
0.0291179568554944,0.00694925109221528,1
0.0319135693259548,0.00818617658726974,1
0.0325034282270594,0.00871767812644908,1
0.0376860665741835,0.012676743975645,1
0.0499872638945355,0.00652108137620135,1
0.0662778737550808,0.00736714147039876,1
0.0656960678634756,0.00699661256060314,1
0.0660755155340996,0.00805870847158859,1
0.0677062476924068,0.00749671922017277,1
0.0718467164178837,0.00594431604967336,1
0.0719058465079269,0.00607123164623448,1
0.0673706941958202,0.00548161443379058,1
0.0615701539480208,0.00495703898416067,1
0.0500476085678809,0.00316230448281561,1
0.0427913503549357,0.00680664578364801,1
0.0256561705456928,0.00455712735390355,1
0.0242537086161469,0.00522333820202692,1
0.0237986545232867,0.00765000561230248,1
0.0115508422290465,0.00423977721968139,1
0.00548760885120592,0.00982667193281405,1
0.00916924582309925,0.0167889950381201,1
0.0110130614821108,0.019324154491249,1
0.0131671796752281,0.0238244892340008,1
0.0132377351657206,0.021772532299513,1
0.0129666920827264,0.0195702213616243,1
0.00900749517106826,0.0148926334699284,1
0.00766625274668709,0.0129303820049149,1
0.0111687634603384,0.0116457773624615,1
0.0339232439339324,0.0223777199850743,1
0.0624416567870302,0.0350530647832175,1
0.0933859698182918,0.069699566150523,1
0.137013732516551,0.0748763067409273,1
0.146876275174609,0.0406324989595998,1
0.122666669038146,0.0352594748386776,1
0.107281827375063,0.0320249258173701,1
0.0926183546278562,0.0305965638126275,1
0.10276093489927,0.0171587757342791,1
0.1754550441002,0.0243018328357871,1
0.176517186724139,0.0197326151946929,1
0.167106921327359,0.0199265806226103,1
0.173929175796202,0.0199073128479543,1
0.18972870181026,0.0202028863051201,1
0.190950760682568,0.0262962210976926,1
0.134153131646724,0.0198870966524136,1
0.0908895916349362,0.0144759140276881,1
0.0844070011124148,0.0093909066171444,1
0.129329855972904,0.0282239474332802,1
0.094102769578429,0.0228497187574191,1
0.105290627742283,0.0305563053412955,1
0.128491199856405,0.0363903460137694,1
0.121221768957653,0.0380451111109078,1
0.096967129736472,0.031749747126401,1
0.058295432062481,0.0183404702039989,1
0.0500484960792082,0.0132961211385081,1
0.0712244447592466,0.0160435455535612,1
0.0992497437610188,0.0194087600298999,1
0.0907216807824983,0.0185307115657005,1
0.0931965003505616,0.0172734039106536,1
0.0981766138172716,0.0141073154596542,1
0.105407241130475,0.0123798676282533,1
0.105133926533105,0.0118299983871279,1
0.104568508252474,0.0126170863692285,1
0.101646449585793,0.013803470940636,1
0.0941258656538266,0.0146451251189967,1
0.0672867169585915,0.013026657135539,1
0.0261978851740093,0.00839048569939629,1
0.0328418722751063,0.0119525171222714,1
0.0328040215117753,0.0151628621834231,1
0.0394682312869969,0.0291372514709097,1
0.0433332165787327,0.016082340568391,1
0.0942624821751945,0.0291262745786863,1
0.164260805220852,0.0425490371563763,1
0.185023408052214,0.0336364639844948,1
0.193605391362458,0.0283202880553641,1
0.247105830809448,0.0327173029301435,1
0.275438596973948,0.0352032306392055,1
0.246567704548998,0.0245141534949837,1
0.210291182394653,0.0195247398682332,1
0.191414444817186,0.0180226976571978,1
0.227231040938454,0.0287911311606259,1
0.320874054501204,0.0423405456625676,1
0.360955235407305,0.0435244630112796,1
0.406926695464311,0.049416593718474,1
0.4334826007629,0.0674991339413966,1
0.327337394647999,0.067108663095985,1
0.166532287809902,0.0383584586484208,1
0.0717769977962916,0.0401458522502905,1
0.0432506088768143,0.0403709712369254,1
0.0233858118463096,0.0304778790437175,1
0.00192843256669869,0.0315015888605196,1
0.00175794433274128,0.0247205723757074,1
0.00670878454644771,0.0688713311436042,1
0.00974929570432665,0.0715532819030967,1
0.0185546055777898,0.0642812164511915,1
0.0344504470734687,0.0902307958706198,1
0.0391260600367766,0.0503714685603632,1
0.035526407528588,0.0464040913265136,1
0.0303844109171439,0.0418327131247726,1
0.0234260209644508,0.0327509904906568,1
0.0204506033600192,0.0262674557744734,1
0.0159665888026637,0.0241648620919972,1
0.0170440875279749,0.0252669936247535,1
0.0160496019020425,0.022287341877278,1
0.015271548890771,0.0229573180791472,1
0.0156157250253397,0.0176746807096711,1
0.0230372388551212,0.0293541007031166,1
0.0200006206270334,0.0106081441402581,1
0.0214490384927778,0.0110822246847968,1
0.0200284594925025,0.0100383685582546,1
0.0201935898655029,0.00897345558179679,1
0.0317252802735643,0.00991650689787699,1
0.0722764244932477,0.0197525259304524,1
0.079647684767352,0.0177857071533161,1
0.0762973565561371,0.0183365966943383,1
0.0980938434833426,0.0147655152794691,1
0.118621917099767,0.0120881921597635,1
0.11085177826551,0.0135226850583864,1
0.0855816803088103,0.01023865752487,1
0.0883363985616224,0.0104299668031713,1
0.0827331531637226,0.00987973697021016,1
0.0913388189754829,0.0124505243654313,1
0.0801864201471292,0.0109071200853788,1
0.0757444824851692,0.011169056170072,1
0.0750491237949811,0.0104441641107244,1
0.050293152793184,0.0154430468807016,1
0.0246824604634585,0.0178407443171974,1
0.0290408356389343,0.0161102422584441,1
0.023759906032149,0.0145090769615442,1
0.023608734954489,0.0169565910557573,1
0.0235394802036891,0.0168094366290924,1
0.0266909875395899,0.0218543988047997,1
0.0272306568030635,0.0247798955185624,1
0.0219457698150946,0.0188067869520245,1
0.0133098548356142,0.00961134453620621,1
0.011715841724586,0.0112825848094598,1
0.0109218552361724,0.0118253780223065,1
0.0123181422569915,0.0166753031778913,1
0.0138770098100763,0.0191308089557709,1
0.0143230988984102,0.0202016009457327,1
0.0339037499894497,0.0137586783683157,1
0.0793243728049403,0.0293379514276396,1
0.173411360178125,0.0423288956145296,1
0.270019945660436,0.0383420153530024,1
0.265344521291354,0.0389687369604745,1
0.22823307904786,0.0351777959804432,1
0.199185517911112,0.0324117794619871,1
0.192802454571366,0.0319475385068243,1
0.156182090291319,0.0208545295285666,1
0.0914091506377107,0.0133564065617614,1
0.0618839974794493,0.0129185770146654,1
0.060755138075921,0.0126204371025972,1
0.0546705386569775,0.0143655637864803,1
0.0378949207554832,0.00940756646561864,1
0.0423926998741012,0.00765079662963087,1
0.0449076805600593,0.00835170119419645,1
0.0553789716073561,0.0109297695958859,1
0.0444086959229884,0.0093080374961837,1
0.0501655907205377,0.011340384918815,1
0.0851761379312393,0.0168158753013693,1
0.0843612948846191,0.0174001600219268,1
0.10035403244239,0.0194070808893804,1
0.0977031956512515,0.0165885199061258,1
0.0761562370847551,0.0168698531919261,1
0.0483209966125409,0.0148414911338043,1
0.0428386834421414,0.0108131721465128,1
0.0437925593468369,0.0111240540262172,1
0.0378282240920495,0.00983094968998549,1
0.0386998694392093,0.013573718564837,1
0.0378816377031422,0.0120931358483179,1
0.0618740199847893,0.0204805465736816,1
0.0718646919540869,0.0194878660036496,1
0.0647799666245178,0.0222686838785169,1
0.0943669644043749,0.0282601828365082,1
0.142807072585723,0.0426184168990055,1
0.123413986425865,0.023981278506055,1
0.112515318662389,0.0257344233112823,1
0.100471438395577,0.0240392345635896,1
0.0804615922030636,0.0195948057240611,1
0.0943978217267357,0.018284778942862,1
0.192036470026257,0.0349965671458049,1
0.276400231531193,0.0466906344557187,1
0.350754450658156,0.0564895590558388,1
0.379375639720901,0.0675240798537533,1
0.280307253166847,0.0594337628692857,1
0.243889131804917,0.0721580389301913,1
0.226787667639022,0.0624839197921574,1
0.145555526491776,0.0465671445000286,1
0.0676896533440836,0.0265653982356731,1
0.0144145065717586,0.0364815829711468,1
0.0109321857013333,0.0347359640895572,1
0.00894649701542261,0.0319970789709731,1
0.00645223753069685,0.0351250315075106,1
0.00565302793582053,0.0557264142806152,1
0.000915195384296531,0.044602668675265,1
0.000451001608483368,0.199242633891099,1
0.000428683758747596,0.156713302151236,1
0.00169651559638101,0.0382028375807271,1
0.00580025772832389,0.0689094364736532,1
0.00970930933604681,0.0809022600364842,1
0.0154895362923082,0.111436530857645,1
0.0197991651116896,0.128337709523596,1
0.0216439682198542,0.0606714122487291,1
0.0179243620809196,0.0376382136035348,1
0.0180337688375274,0.031838995053406,1
0.0210919328895323,0.031565591026974,1
0.0261993509863472,0.0386804446071205,1
0.0289044727035164,0.0420649234742106,1
0.0279166086044992,0.039011479066672,1
0.0242755697837609,0.0328326677231479,1
0.0228600092624603,0.029304590666,1
0.0226651089068246,0.0253126134817591,1
0.0315268158375568,0.0359256385476671,1
0.0301452928039222,0.0422813565205118,1
0.0288479574914389,0.0147677399143649,1
0.0336401209790532,0.0174499376169931,1
0.0351038721930725,0.0137861027573297,1
0.0368553582776634,0.0137520932064077,1
0.0404769337717178,0.0134855327288387,1
0.0385763054523864,0.0111073878220445,1
0.0356207807871736,0.0107808187753032,1
0.0423262445637563,0.0123717275567608,1
0.0497422125175164,0.0164483762776648,1
0.0385882656039394,0.0119970905043097,1
0.0310956266705915,0.0159460078022445,1
0.0339091034202011,0.0189960505832159,1
0.0290310639339889,0.0212587122892036,1
0.0171500931759319,0.0144585894805836,1
0.016332903960315,0.0177313213291167,1
0.0149929016383999,0.0227477904148278,1
0.00714505132921815,0.000445822101182153,1
0.0186674529837152,0.00951027134575205,1
0.0182322310890954,0.0067337040407071,1
0.0193432730685467,0.00756044494666986,1
0.0196465295301981,0.00691727479003606,1
0.0191322805500283,0.00619705775324513,1
0.0200527284563998,0.00559359990945005,1
0.0229118418386815,0.00723822362466997,1
0.0305346980458645,0.00671189356450471,1
0.0407602907308674,0.00826823985951246,1
0.0371093395960011,0.00907269995348822,1
0.0461924225352296,0.0137892417583699,1
0.0589727572962033,0.018811240656147,1
0.0482422040556707,0.0138669719522764,1
0.051285696094178,0.0116297234940212,1
0.0499847824235222,0.0121690192626953,1
0.0840174608573175,0.0165553830898824,1
0.121412859999097,0.0229494584027825,1
0.152709310677895,0.0301309820081814,1
0.192396424645692,0.0428309496422752,1
0.167823313402255,0.0305742221544831,1
0.155893910328122,0.0253567089827584,1
0.156887227487132,0.026265343101218,1
0.113088852015256,0.0230820526966092,1
0.0708819974546289,0.0200625743782446,1
0.0445673699911832,0.0124956921817425,1
0.0527183660306041,0.011353480775194,1
0.0785920980637972,0.0118182907713244,1
0.0808254483241472,0.0101789480567571,1
0.083252030213754,0.00877235276566513,1
0.138229460978342,0.014332914787668,1
0.200588305219731,0.0229045808823509,1
0.263561457230972,0.0291159195713566,1
0.30344576475991,0.0278537899347797,1
0.295899465001427,0.025229402628614,1
0.2490431542896,0.0234589814122597,1
0.131882254322978,0.0171228455081947,1
0.120396834793262,0.0211180399502434,1
0.0685479090124698,0.0200223546097263,1
0.0294400656333411,0.0149117729765477,1
0.0282939117483337,0.0191830468023187,1
0.0336773703443541,0.0163876433357065,1
0.0294566745028197,0.0141298151158591,1
0.0257314320218663,0.00587763385675978,1
0.0480057604169379,0.0132458371073357,1
0.0944351008109948,0.0220070890904025,1
0.124288534756324,0.0246337174697824,1
0.17542415705734,0.0274768412423605,1
0.173369152081481,0.0269649600719894,1
0.18283208473545,0.0310031686972771,1
0.14958246724886,0.0265414851977831,1
0.130485155470747,0.0249898866666158,1
0.0658219765457102,0.0114065132277511,1
0.0549548115420151,0.00198444271178591,1
0.196967808816099,0.0137679046750126,1
0.342882065314899,0.0228286178058355,1
0.452128588127326,0.0298344591940474,1
0.491304702430377,0.0320611004321188,1
0.531129021229836,0.033501787994686,1
0.487838794680536,0.0326174084612358,1
0.421721467983358,0.0288260636873449,1
0.344449963630457,0.0234713295877285,1
0.188268691443534,0.0176949321426588,1
0.00965735135111655,0.0200708764448399,1
0.00282933791969754,0.142836383512317,1
0.00212063761908868,0.245956888396311,1
0.00169683470021077,0.409184446604143,1
0.00167241198628641,0.403806066729366,1
0.00117052221044513,0.184428309338446,1
0.000852246467143065,0.112108208952851,1
0.00067540501040171,0.100020573896614,1
0.000560200719553152,0.0458174826545565,1
0.00213274813917902,0.0270817703691296,1
0.00539945773608942,0.0424320853247194,1
0.0168574899404739,0.0430994876069804,1
0.0417948033892458,0.0613682711482245,1
0.0479955798368922,0.0519332212474785,1
0.0495579651234554,0.0456939806339523,1
0.0451762624128009,0.0348775356081428,1
0.0402776749322527,0.0292202977942389,1
0.0487499660784125,0.0142169993128088,1
0.0943778863036865,0.025230988343134,1
0.0922547080272408,0.0116578316882024,1
0.0840357564269059,0.00976102203436349,1
0.0950921075238784,0.0117490707562343,1
0.096446096511293,0.0112670421268432,1
0.123455445019479,0.00734498278836911,1
0.168857270379178,0.00851931620185062,1
0.130799769592212,0.0067078774707419,1
0.0922713458642468,0.00402997324248306,1
0.099274650117661,0.00569045578412853,1
0.10930785608236,0.00664508826778716,1
0.124500411059217,0.00982482262637803,1
0.145648693318055,0.0131228902976248,1
0.154545086700101,0.0139806879613513,1
0.16441004171819,0.0147112127464402,1
0.134004643208724,0.0354190732582004,1
0.0475956796578773,0.0343452855429085,1
0.0354741083247533,0.0310046290923494,1
0.0107307766616995,0.0116080604918232,1
0.00651528178381755,0.0105794537073736,1
0.00712405883323204,0.00970368152706831,1
0.00721278341318572,0.00869302923692392,1
0.0100294283966331,0.0125482027025683,1
0.0107528603298621,0.013096908017971,1
0.0106259355903805,0.0129260820239933,1
0.0122680866362919,0.0113109655447999,1
0.0125767562795103,0.00960026592146176,1
0.0131017018436852,0.00867269445311693,1
0.0151497100364282,0.0107564324916713,1
0.0151257602536096,0.0131832145275376,1
0.0149039141110969,0.0118358100931726,1
0.024194964848317,0.0235383951702886,1
0.0362627344251836,0.0338149576409524,1
0.0425607787643313,0.0249354329550869,1
0.107403176159721,0.0337560448657294,1
0.208138976994063,0.0565441211339275,1
0.2904569615649,0.0759134630557479,1
0.282668265931878,0.0625895777279791,1
0.276375640632067,0.0486285893210362,1
0.277265962584099,0.0497814812316335,1
0.264740809668028,0.0389769187577036,1
0.21034352034612,0.0230923284342206,1
0.167117595719862,0.0145772796132469,1
0.0986144032353378,0.00718170706963081,1
0.0943755656512856,0.00763877542095856,1
0.0935397847718516,0.00745984633513626,1
0.0935157500308227,0.00677944289304843,1
0.089027559808787,0.00663579389900217,1
0.0938527059496031,0.010385136987801,1
0.0928788398266849,0.0105705546942844,1
0.0904330325402869,0.011172673232172,1
0.126699519695848,0.0203715486776202,1
0.142979884417402,0.0427840019826933,1
0.11856215383588,0.0324807021080037,1
0.121020361134382,0.0308480794333013,1
0.097505690726787,0.0245288021945656,1
0.087780504090007,0.0193455757369801,1
0.0899428754722376,0.0146995331190232,1
0.0777088350467828,0.0117516932340053,1
0.0800795698860665,0.010682881724658,1
0.0858615787527726,0.0107294428957413,1
0.0796060504746387,0.0111498105678724,1
0.0748644006954272,0.0106720327152704,1
0.0669045299052695,0.0155730645483818,1
0.041859843951159,0.00694221607408718,1
0.107239666193688,0.0116759766592902,1
0.200850236721022,0.0274956505110342,1
0.259434748368852,0.0342145134468266,1
0.252672042531335,0.0239894221447,1
0.277127888664569,0.0232397176579765,1
0.280033236571253,0.0248265293996098,1
0.255735375215028,0.0232978527284307,1
0.229408852922423,0.0219918636473376,1
0.165131072394073,0.00737576019301266,1
0.255380505718104,0.0121376680154032,1
0.383161764861925,0.0218354690607718,1
0.493361549255278,0.0252708868920311,1
0.526681365694541,0.0250966156125953,1
0.581717728010688,0.0293262700351444,1
0.570720145165553,0.0332924632497534,1
0.5269513239748,0.0315529213037187,1
0.448875599899869,0.0244840140431499,1
0.231876648042289,0.0159975152431252,1
0.0232405821051657,0.0101083761905389,1
0.0174320756231732,0.0254560941333469,1
0.00912442347439026,0.0221193320536952,1
0.00727323414602651,0.0327730139012092,1
0.00482556157827481,0.0398507609589397,1
0.000689057926413723,0.0362988744135516,1
0.000509356327685332,0.0500017365161787,1
0.000436798109753768,0.0607531434005262,1
0.000351278275879438,0.130606611918648,1
0.000167212502068288,0.082254004584485,1
0.00038386628401472,0.125611430989202,1
0.00111563706504649,0.109108074047261,1
0.00844500136845654,0.0112711529151023,1
0.0386031641242466,0.0225787740001853,1
0.0405923069381807,0.0184957029953815,1
0.0718920880665876,0.0185856178283634,1
0.0938690527315376,0.0146804544213207,1
0.0864606008737166,0.0134804376596531,1
0.0879010759936684,0.0136504158728909,1
0.0741679299633188,0.0108326862801198,1
0.0955492948593288,0.0055636228456475,1
0.188714994135948,0.0146012000460084,1
0.42889608410808,0.0259279879481214,1
0.586385840200053,0.0252895075876229,1
0.546657211887822,0.0234627870367156,1
0.533952756914767,0.0251982364285255,1
0.536994795041791,0.0294560973843361,1
0.413721371785294,0.0190048132790141,1
0.353787450676663,0.017727964522763,1
0.296818560955762,0.0156085097069871,1
0.255991760582356,0.0158700644271145,1
0.283744435562721,0.012532521794859,1
0.338459972515484,0.0192975299908621,1
0.294603203369784,0.0136884534152722,1
0.277323218304329,0.0124821800965532,1
0.295076113485095,0.0130489869527159,1
0.231046721591241,0.0105181215363883,1
0.200384379351775,0.0099085452853052,1
0.186510154069823,0.00804362079818092,1
0.187549633045349,0.00691065805605542,1
0.132661133541668,0.00664243042874838,1
0.0816255890385025,0.0071443589863832,1
0.0806732835853695,0.0075031052625795,1
0.0679693653144676,0.017962077457842,1
0.0211890293138821,0.00774004796831453,1
0.0220267976670704,0.00960212995834146,1
0.0235304753861731,0.00802981343514283,1
0.025538540709489,0.00921915126427546,1
0.0564300934582821,0.0125014660310026,1
0.148262991263639,0.0367546571526231,1
0.22132680256165,0.048048286489355,1
0.306768471825502,0.0495662277125486,1
0.310622374567372,0.051659712160495,1
0.303104063743657,0.0537054685579265,1
0.306625976037443,0.0581430578785012,1
0.246813546573349,0.0575461332271038,1
0.176907738148434,0.0466429408082091,1
0.0816470452874558,0.0246952253961527,1
0.0399572247856234,0.0158273173282535,1
0.0489844908816345,0.018484301926276,1
0.0485482416117721,0.012514047455548,1
0.0789776933909166,0.0212223720589557,1
0.11112740832594,0.0205704185764276,1
0.111297276695367,0.0175322679157418,1
0.117700416427086,0.014042630728719,1
0.160103854360062,0.016629186750413,1
0.212157329467367,0.0206457008218036,1
0.261963392699075,0.0241916750272508,1
0.256380378493843,0.0290925819313057,1
0.183120024958027,0.0213675402423002,1
0.145406996147566,0.012773638988047,1
0.233654764944697,0.0171228327178903,1
0.27581727557445,0.0168088061544209,1
0.251192946570406,0.0165821657863609,1
0.260294828038283,0.0214710296284201,1
0.257816438291291,0.0237917225446647,1
0.232250035572471,0.0165893290201105,1
0.240574190711519,0.0165812083016995,1
0.278243002312121,0.0190699730882514,1
0.261632573296816,0.0122261388077248,1
0.270043654389095,0.0142683022829369,1
0.262488374032279,0.0164696368128756,1
0.254958933282709,0.0212214307532326,1
0.25220384667823,0.0198832345794654,1
0.255621177793631,0.0168456375636455,1
0.272778557988625,0.0178433113331419,1
0.280925269464253,0.0188348229076199,1
0.298342614141006,0.0216277318039407,1
0.180862284522605,0.00805550090708459,1
0.113607661669293,0.00627220042719326,1
0.11032014158587,0.00774830201867569,1
0.128062443511808,0.00828481338362604,1
0.139030278711371,0.00734994223229506,1
0.146222158044286,0.00570273345356634,1
0.25937775158252,0.0125743448870492,1
0.336033487751308,0.0159443422596205,1
0.439383159918978,0.0254810490236525,1
0.425612581219421,0.0260952703027469,1
0.447611426235298,0.0325298503935568,1
0.467987880654656,0.0374699653057306,1
0.379326857461722,0.0296015123268525,1
0.336563067190724,0.0254370011310479,1
0.216895707656753,0.0267432368636105,1
0.0718250691208184,0.0298940943464953,1
0.050129722185327,0.0349843393337862,1
0.0159209457563785,0.0167328338166006,1
0.00137291147810055,0.0474868569829881,1
0.000165107222974874,0.0676269291794297,1
0.000143472443523607,0.0921551066640437,1
0.000148501281867614,0.0916557146210009,1
0.000170348720230387,0.0975635126272951,1
0.000423680255793092,0.1182188648464,1
0.00116550679533562,0.154484512487464,1
0.00250443600458004,0.258651060275371,1
0.00576942057615203,0.121114388375553,1
0.0180236080628955,0.0941417816641692,1
0.0412560133217451,0.102996414168373,1
0.0840887964930872,0.075731664242459,1
0.19200616828653,0.091297820456408,1
0.288924817967703,0.080566288927251,1
0.341481447650375,0.0764011525545136,1
0.393168684845467,0.0838641516310977,1
0.360340628637759,0.0556702150301064,1
0.281307904122844,0.0433626105582508,1
0.215927382460275,0.0363619806870226,1
0.142587475181889,0.0178641263221441,1
0.102949070364555,0.0137109497470759,1
0.0773271244853109,0.00834408956250788,1
0.0810229891001284,0.00834848473497946,1
0.0831900447756773,0.0093166951797367,1
0.0936288838202111,0.011500349487708,1
0.0954099766921876,0.0106067806399288,1
0.099289649547261,0.0119032189289374,1
0.11196217336313,0.0148506779196547,1
0.0952573935471062,0.0127877921804469,1
0.0854536023598914,0.0143711325388227,1
0.0888137391621081,0.0136476074431385,1
0.0779949855701269,0.0172451301310039,1
0.0405924848423666,0.0112141767797293,1
0.029925459716476,0.0054859476724111,1
0.0530332024355606,0.0103155890349036,1
0.0656103616692255,0.0106532341857186,1
0.0625765379508097,0.009895350322526,1
0.0717265731193366,0.0111117228284411,1
0.0885197472646277,0.0138100986520555,1
0.0903452572056781,0.0167372072172557,1
0.0877881360753681,0.0173230886767387,1
0.092060273617846,0.0188829553880464,1
0.064487279936382,0.0153501328877807,1
0.0233116088914903,0.00613887132230057,1
0.0223699406312885,0.011440926891976,1
0.0200765539400382,0.0182395854741499,1
0.0078212784801691,0.00758191301442922,1
0.00560855083857455,0.0152496306090369,1
0.00649922621268514,0.0155471499732572,1
0.0196396359511402,0.0253061934230835,1
0.0528396839305844,0.0197184924050677,1
0.238576783017997,0.0378919651722319,1
0.361803372039211,0.038741223262259,1
0.408339365779101,0.0442672544073623,1
0.477885704621991,0.0518297319204476,1
0.479541894013862,0.0448394242369852,1
0.403782547081431,0.0326190535944633,1
0.318314618762709,0.0245340332808645,1
0.221722503734994,0.0177067502044269,1
0.146959080391361,0.0101618597977518,1
0.137595621273352,0.0115051438465002,1
0.133240243194925,0.0104082847128206,1
0.154757683658377,0.0135728457991103,1
0.166119789806973,0.0159425486899011,1
0.150383273060899,0.0135347034015655,1
0.15632932142253,0.0127532257411731,1
0.164026611515897,0.0147565965576779,1
0.157731770976735,0.0183523122136125,1
0.146720353065895,0.0181850623596013,1
0.144901661257995,0.0201167514798287,1
0.132657035717099,0.0183297546655237,1
0.133518278829704,0.0212122599902771,1
0.10678840629765,0.0147863058501588,1
0.0885741366492934,0.0125738003409993,1
0.0877579539461606,0.00976848978024466,1
0.0961900071257097,0.0119325049347521,1
0.142452175621462,0.0182952680044212,1
0.170447198478791,0.0161010913810765,1
0.170141237736582,0.0150880216757018,1
0.183341881886216,0.0157965668259402,1
0.171737243198216,0.0164494188978219,1
0.185366638081627,0.0201112873050204,1
0.184823670364806,0.0225256048167475,1
0.154170183832696,0.0198283149853877,1
0.102223446544778,0.0119712952584439,1
0.0944433422516961,0.0127887040746833,1
0.0926664840542626,0.0129341219953632,1
0.0976967618869033,0.0172890681208658,1
0.0603987487107953,0.0122873595245294,1
0.0690758323757393,0.0191540454242045,1
0.117844582087316,0.0330143992354494,1
0.118835224833266,0.0174476568434093,1
0.163543129376682,0.0149945501913329,1
0.224485284704785,0.0195374109383736,1
0.282714246068667,0.0276187342678251,1
0.343455610891896,0.0324057057672022,1
0.392890722291361,0.0350236599772667,1
0.399075149803553,0.0390188492642896,1
0.390958464436994,0.038145124593327,1
0.329978329959788,0.0385561616342021,1
0.153804450959408,0.01974103499533,1
0.0126902385917306,0,1
0.000203702398918937,0.174573247345173,1
7.62207841162927e-05,0.145918126600316,1
5.93976721230486e-05,0.116327013108231,1
8.94198193075188e-05,0.158975438015104,1
0.00012292511535683,0.193166129905288,1
0.000148136336652473,0.221716190705896,1
0.000190533467903296,0.287490248341,1
0.000279253347280054,0.349848069077816,1
0.000493940562505156,0.167115822197243,1
0.00208306298504133,0.13060087338847,1
0.0050882591875213,0.228013450124539,1
0.00635490009245518,0.0627416328762941,1
0.00608010307340479,0.0285752995340937,1
0.0132987031352164,0.0240245710312161,1
0.0458437005592048,0.0335637624226583,1
0.0749599676962313,0.0478713685934801,1
0.135057870417122,0.0292258915589785,1
0.243218718166101,0.0306586416834934,1
0.236752404231197,0.027155057936154,1
0.250401466195929,0.0308727426483517,1
0.355129765711494,0.0314806423141929,1
0.361835998507966,0.0231325316585879,1
0.259001905193791,0.0160417280146369,1
0.189024138477034,0.0122889113018706,1
0.160859798075838,0.0107369793543396,1
0.142570566207606,0.00935709211691359,1
0.132609677337751,0.0117836230409548,1
0.125400077556005,0.0131837671653399,1
0.129498216617414,0.0145317221774164,1
0.130172165054737,0.014276842479777,1
0.0792812071638271,0.0123951611805755,1
0.0483649027893364,0.00607880723728955,1
0.078525364560636,0.0109085751948096,1
0.113141285205513,0.016053418096766,1
0.167105004576336,0.0211654546392854,1
0.178433453457225,0.0207036285953479,1
0.185573618194199,0.0208490182343802,1
0.204642355641957,0.0223439884958722,1
0.238073783777288,0.0263408270242211,1
0.231587985800763,0.0236374101840631,1
0.13736731960407,0.0137848354675545,1
0.04988825841817,0.00956463107585263,1
0.0734963461445431,0.0184621875428199,1
0.0964451172312144,0.0213077525339783,1
0.0947674164893034,0.0234557334752628,1
0.123468092476654,0.0177565905579817,1
0.199958745652847,0.0226892425052751,1
0.180702990682947,0.0202725726479762,1
0.142699745981863,0.0181064623406835,1
0.0950269759039657,0.0111620072035479,1
0.062661802244295,0.00522262902951586,1
0.0956600567964026,0.00869435352607863,1
0.100061261529806,0.00664884175803021,1
0.117884874651149,0.00488846665046657,1
0.159003799562768,0.00785233451007663,1
0.175744974940213,0.0107189022792239,1
0.212531527604587,0.0145852707853517,1
0.258292817096562,0.0186800216795191,1
0.250497909507274,0.0137315834626531,1
0.203285227422748,0.0108458348123103,1
0.213326777237118,0.00772426323711172,1
0.324063715102217,0.0116778585896139,1
0.268029189027986,0.0123266092508136,1
0.217792845023635,0.0119137769095216,1
0.216809109625235,0.01098974136616,1
0.210516669813154,0.0106777665153519,1
0.21447269336933,0.00921480640253178,1
0.297998888643112,0.0109853253180206,1
0.31438291916941,0.0127414451122064,1
0.314895606455807,0.0135911405309239,1
0.30262226940689,0.0205951650396884,1
0.264359631530947,0.0158795967220906,1
0.293118083874032,0.0139657497464268,1
0.294924539331962,0.012253992799176,1
0.271696641655803,0.0100717366132748,1
0.236370229451107,0.00756727118563053,1
0.201562374537436,0.00652216672992026,1
0.2186117505897,0.007141949661891,1
0.208039018055198,0.00631770262620049,1
0.220887990951313,0.00664025333157495,1
0.204681966748283,0.00546194080638553,1
0.19892753181629,0.00835194137192883,1
0.190998361310353,0.00898288805767773,1
0.130815501776205,0.0111066111846859,1
0.0559083741669572,0.00422070900645924,1
0.0599424534171372,0.0102604100147442,1
0.0553221068478711,0.00956816900162488,1
0.0638419001433988,0.0138200702270447,1
0.0540301644596553,0.010236032290698,1
0.0555860262457316,0.00790817178868654,1
0.0754162445060282,0.0105896830041061,1
0.0897506205913079,0.01034900308887,1
0.0718891241236092,0.0075667281116688,1
0.0478020624298369,0.00484919357327521,1
0.0539464641614886,0.00924254879312911,1
0.0523080606588735,0.00982713970517287,1
0.0600800919132051,0.0115777417741048,1
0.0655312015081127,0.0136650524766216,1
0.122867623832594,0.0153574409670841,1
0.24142286350535,0.0383375601835929,1
0.234585667060902,0.0293724414239047,1
0.202751528162026,0.0237031715307836,1
0.243454211017591,0.0328363187781335,1
0.243397308776042,0.0251122830222451,1
