Activity,Complexity,Tag
2.99753205153542e-07,0.194801986262516,0
2.19472905842926e-07,0.180345834911653,0
2.46319810960968e-07,0.198923221973142,0
2.38280217262433e-07,0.18936068463959,0
2.44027409696948e-07,0.187041037551859,0
2.53500448011544e-07,0.200196911455289,0
2.46215737053703e-07,0.192408629092737,0
2.41248405097626e-07,0.177510600061691,0
2.50371292533115e-07,0.18490590725537,0
2.52062840439193e-07,0.181363075652789,0
2.36213540739502e-07,0.188863762924645,0
1.65399341482999e-07,0.167791134500885,0
1.15917055360899e-07,0.146001706590659,0
1.42192247815033e-07,0.177220418904963,0
1.5945463990003e-07,0.177428524630786,0
1.52568185093989e-07,0.165873297475298,0
1.4723035002805e-07,0.179709986742649,0
1.16146943058279e-07,0.174262287762252,0
7.6748262173396e-08,0.151292078527282,0
6.79931025435772e-08,0.15823767198887,0
6.96027789759404e-08,0.151931041450168,0
6.98400674845041e-08,0.152146783411584,0
5.96361990655588e-08,0.136825282800676,0
4.17872926942863e-08,0.114408610786241,0
2.99459948010404e-08,0.116625221522934,0
3.02975333322462e-08,0.108553754137923,0
2.99159290056083e-08,0.110892163607579,0
2.50813491001316e-08,0.104479355983118,0
2.89575239573737e-08,0.0997784559771562,0
6.06015423742777e-08,0.122286346027635,0
9.10877963916975e-08,0.151521999525607,0
7.55719957459536e-08,0.138884934214394,0
7.58698783960806e-08,0.144472050173063,0
9.2856590264501e-08,0.151312482766196,0
9.58386546206633e-08,0.13817150601944,0
1.11872974599936e-07,0.148148296916969,0
8.88842048618761e-08,0.126078473051055,0
6.37121958247495e-08,0.109210660986572,0
6.21834657647035e-08,0.107908769371828,0
6.22112188066406e-08,0.114921225637589,0
4.86459944583899e-08,0.10061064226337,0
5.11322044652725e-08,0.0996293979414822,0
4.56648552036255e-08,0.0926842223568638,0
2.68112887142229e-08,0.0765147856262144,0
2.72904912383403e-08,0.0841353794847899,0
1.77156917699734e-08,0.0765225389549629,0
1.42465615278114e-08,0.0750484311098903,0
1.11585730615884e-08,0.0711351541449105,0
1.70699709942323e-08,0.0816565696756884,0
1.80505784760167e-08,0.0797258723979613,0
1.37840108288566e-08,0.0774316540478132,0
4.3960818428675e-09,0.0668022604625736,0
1.12399819846045e-08,0.0714892545392685,0
6.20192602665745e-08,0.11886331350638,0
7.32883829452131e-08,0.108278406160859,0
1.11150932958867e-07,0.128992312932173,0
1.36583820590204e-07,0.138184607274091,0
1.40615412482295e-07,0.133951563665338,0
1.36471420770358e-07,0.13207422896249,0
1.46703042231241e-07,0.136854843971882,0
1.5563952173505e-07,0.144057925155682,0
1.55162169413729e-07,0.14698555904466,0
1.63835920120531e-07,0.166737439871054,0
1.30082670516393e-07,0.149894704204048,0
1.41367057368097e-07,0.155822890853398,0
2.32237917481985e-07,0.197480949425015,0
2.74026597828368e-07,0.200186193451877,0
2.74416990618286e-07,0.198101988663265,0
2.80768274265636e-07,0.200340258702344,0
2.75067799451716e-07,0.203123611581106,0
2.58792028007589e-07,0.19249036433345,0
2.40012469630019e-07,0.185532961586274,0
2.14908455545639e-07,0.175826420026512,0
1.90536196667005e-07,0.174349215161244,0
1.79564031537095e-07,0.185084931135025,0
8.16401983655432e-08,0.13867109339458,0
2.13370011920914e-08,0.0927658864131368,0
1.88646677061774e-08,0.101510532648346,0
1.3830265898752e-08,0.0967050562245734,0
1.15378646347315e-08,0.0832750191792721,0
6.44282243067317e-08,0.135620339494822,0
1.10590784062433e-07,0.149777021933333,0
1.14157512502074e-07,0.141133787796506,0
1.3678040463726e-07,0.153439234897097,0
1.70024848472548e-07,0.167306838270924,0
1.76416836581406e-07,0.16803910889419,0
1.71164110844074e-07,0.161430187447708,0
1.7356012346466e-07,0.166877225889268,0
1.76807229371324e-07,0.164218025031513,0
1.8382874898146e-07,0.181198417554394,0
1.61025462073681e-07,0.18127719842669,0
1.44510551918195e-07,0.169244071400648,0
1.44547093423412e-07,0.172146758579899,0
1.39669958853631e-07,0.164095686928492,0
9.78336357852559e-08,0.13207455735379,0
8.91538719193669e-08,0.12181931571035,0
9.22885780061844e-08,0.124550422102602,0
1.16893962437091e-07,0.122014816582109,0
2.43089356879467e-07,0.165146342723346,0
3.89819689601946e-07,0.201971228177911,0
4.18044533252176e-07,0.2051150323004,0
3.71763097966843e-07,0.200406363580311,0
3.73085992965854e-07,0.209075710313331,0
3.77396965480115e-07,0.216739850041426,0
3.57466580963545e-07,0.218175328383952,0
2.53975487579371e-07,0.191170257276775,0
1.40073765613819e-07,0.138812564656312,0
1.21038416699728e-07,0.144979899575764,0
1.82904110134249e-07,0.176358738611957,0
2.63728369066836e-07,0.215437036734837,0
2.84145356918706e-07,0.21983528968587,0
2.71496908055783e-07,0.214993805821256,0
2.00712312044013e-07,0.170106230855282,0
1.75057400077178e-07,0.155463388270627,0
1.7931425415966e-07,0.165059553836354,0
2.11350978119977e-07,0.174815101139934,0
2.58762424762856e-07,0.197136245933568,0
2.70584758077445e-07,0.201494313453295,0
2.55357589067849e-07,0.201080905137816,0
1.89111077963525e-07,0.176344730022304,0
1.42170045381483e-07,0.150185839627791,0
1.42928628527769e-07,0.129388623649127,0
7.91192970562389e-07,0.244185660008094,0
2.32869114165779e-06,0.411236091549369,0
2.96431582329276e-06,0.380262670628894,0
2.92035500486409e-06,0.341015203125446,0
2.98615145413833e-06,0.273144434184823,0
6.69716240820332e-06,0.247708499595097,0
1.47409838201272e-05,0.381801745289479,0
2.13482268350044e-05,0.475531896869348,0
3.06724010705044e-05,0.546802659397033,0
3.55725928675266e-05,0.489890911504785,0
3.51550654659558e-05,0.45489857690164,0
3.46585464313218e-05,0.449760021552061,0
3.01738361741288e-05,0.393849354287421,0
2.00590957242635e-05,0.290220913820379,0
1.32018445191519e-05,0.224178799232061,0
1.9872558278389e-05,0.434177838667604,0
3.00898480684154e-05,0.57415779137511,0
3.4600087423785e-05,0.524769736957898,0
2.91874116547543e-05,0.35972697279012,0
2.50093299563042e-05,0.32481487702022,0
2.28008797939412e-05,0.270873951017643,0
1.92820091623672e-05,0.229550972397895,0
1.74687308637437e-05,0.222647534936449,0
1.75985873469683e-05,0.23159598379085,0
1.85457339111903e-05,0.250228617965645,0
1.79225277907209e-05,0.232575442045689,0
1.64562240355565e-05,0.199270143086717,0
1.72667326607566e-05,0.215732820433026,0
1.77130108261223e-05,0.27223250214678,0
1.33047384595838e-05,0.220693648511516,0
1.09692885271128e-05,0.23870316311621,0
1.10961453690547e-05,0.230750253247294,0
1.3965746998476e-05,0.230064752143074,0
2.07021300055451e-05,0.277465090726071,0
2.66977029143848e-05,0.326950379129501,0
2.83145141912793e-05,0.33622183270183,0
2.99838888045016e-05,0.377861021146363,0
3.3814806313706e-05,0.388646003875668,0
3.86755425361073e-05,0.486990596230654,0
3.45158920953584e-05,0.465774778882036,0
1.89118131861684e-05,0.256451359811164,0
1.24063035720194e-05,0.212681168942961,0
1.58818891717359e-05,0.269994787673765,0
1.78601297014319e-05,0.111905778996104,0
5.10638769385737e-05,0.117457322645787,0
9.44607813081253e-05,0.132406725242422,0
9.76060465022985e-05,0.098462849529336,0
9.83748959613479e-05,0.0957362236017499,0
9.84691457543176e-05,0.093098129702347,0
9.82934671486517e-05,0.0934052586957962,0
9.45252331225176e-05,0.0950732926575951,0
7.97633989045336e-05,0.0878347009282596,0
5.81837362149592e-05,0.0748188091732417,0
5.24190205097652e-05,0.0925579240310553,0
4.30406089669578e-05,0.144743396708079,0
1.35903875688248e-05,0.0923982012426698,1
9.79529229850095e-06,0.131309772665782,1
1.83715035517629e-05,0.146573530705997,1
4.89859271300082e-05,0.226037222244873,1
7.98634042158505e-05,0.284091797939691,1
8.61672542141241e-05,0.189467467416641,1
8.84970517770537e-05,0.138261653333441,1
0.000107390599761222,0.147718753074469,1
0.000120639578196597,0.164678492635416,1
0.000127148214190921,0.171440681618919,1
0.000128746056726202,0.159814495511414,1
0.000127167859181656,0.145976328503137,1
0.000127526354475374,0.171016598358744,1
0.000107597191092649,0.169274138185137,1
7.13633047550002e-05,0.135652168126499,1
4.98137263628858e-05,0.128471993185681,1
5.27573504432115e-05,0.198571301479408,1
4.9265227730906e-05,0.192354507301101,1
4.38622345356565e-05,0.169857619437706,1
3.79898513668174e-05,0.156948359699064,1
3.37487115192309e-05,0.153627256333332,1
3.47613904162781e-05,0.24085957293858,1
2.58615615796514e-05,0.182905091522225,1
1.63568477931903e-05,0.130908449625449,1
1.45458433938028e-05,0.11653486465603,1
1.46572991476723e-05,0.133105919343487,1
1.24068239415557e-05,0.114442211836412,1
1.12558294341014e-05,0.121200054107599,1
1.22969676880032e-05,0.132778774120771,1
1.12732856349293e-05,0.0819766633397253,1
2.64520644406034e-05,0.109659268821733,1
3.44363856433672e-05,0.115705710817315,1
3.70356615431024e-05,0.110838587196623,1
7.54644753734309e-05,0.116902959906903,1
0.000123645084622183,0.167880887510048,1
0.000128021193525869,0.163877124694277,1
0.000116321541608063,0.159789103251593,1
0.000128425340260821,0.131201436601932,1
0.000192196746275442,0.136319981348716,1
0.000222928363548977,0.104736966379166,1
0.000209151124462353,0.0598054179430774,1
0.000227375984178375,0.0589868696823601,1
0.000257881414160121,0.0644697196429723,1
0.000280201277768654,0.0700057431008684,1
0.000287015398896392,0.0704315104699433,1
0.000307144765322841,0.0737471603398506,1
0.000329693999034523,0.0743784144936537,1
0.000317240959339881,0.0810543603608921,1
0.000203108365831612,0.0858411193753406,1
6.02129331798549e-05,0.0468720446123097,1
3.4979077876423e-05,0.0889957461306626,1
3.1484866285161e-05,0.102545606473588,1
2.27519271283694e-05,0.0770272373533659,1
3.56904119313616e-05,0.127746173157905,1
5.1727011823029e-05,0.15351487115054,1
5.58558388103009e-05,0.155899238142501,1
5.60078223313114e-05,0.127975592658369,1
9.77025586307368e-05,0.0961874690549813,1
0.000263318963592988,0.130399806040911,1
0.000385056331402892,0.124408843514056,1
0.000418487485215465,0.121761238999016,1
0.000445886035235342,0.136628693478841,1
0.000428081320957848,0.118933963528657,1
0.000359265577546787,0.0969706534990311,1
0.000275506205004185,0.0797815522925957,1
0.000195793837005513,0.0526123255823747,1
0.00018428640635657,0.0459279964391414,1
0.000218456108857006,0.0602151864033741,1
0.000207067371955269,0.0598297700885296,1
0.000190842076356166,0.0631550574442995,1
0.000190982306463916,0.0651851395994718,1
0.000191371567392274,0.0624543354310902,1
0.000199579684499713,0.0729464853308,1
0.000167647717634044,0.0742036102928881,1
9.48549799651942e-05,0.0396260765258402,1
9.5304177288021e-05,0.0559491930192834,1
8.86913656252791e-05,0.0491863981206155,1
7.45620741136229e-05,0.0383704170425736,1
8.26944092272988e-05,0.0382115701771074,1
0.000118777376373096,0.0456827992345344,1
0.000130490616642786,0.0471949647028213,1
0.000132895593495918,0.0463871286237833,1
0.000124681713931871,0.0473087203760949,1
9.77438250913441e-05,0.0407008380714462,1
0.000103817251295977,0.05237094568711,1
0.000101597405734594,0.0491584975277739,1
8.41186287322202e-05,0.0546962136569651,1
7.14525788901013e-05,0.0364109414240175,1
0.000160416179191801,0.0704586198808774,1
0.000156163251239652,0.0645193200681452,1
0.000142596428778736,0.0621335140857422,1
0.000140300889108223,0.0641353332153353,1
0.000120973201214131,0.0565147384218346,1
0.000111091493343849,0.055785837446953,1
0.000127857766500567,0.0605476584440748,1
0.000159786585246179,0.0750614065541012,1
0.000177641339645938,0.0917294087389586,1
0.000197416869589309,0.176001265347173,1
0.00013798200219118,0.170164316176019,1
0.000110924090695288,0.155508621233631,1
9.41971644137769e-05,0.137977425874406,1
6.2350210203619e-05,0.0782087072220309,1
8.38922786225852e-05,0.0802963592982039,1
9.86599368164197e-05,0.0680647745634561,1
0.000102736693546409,0.0610138776036981,1
9.64325054235744e-05,0.0414059464906714,1
0.000155039538434972,0.0431217933184371,1
0.000211629037697349,0.0425168475857329,1
0.000214141199111197,0.0329522053959625,1
0.00022001324091762,0.0307053220626041,1
0.00026547805774557,0.0285225439321941,1
0.000320623742930316,0.031295670815271,1
0.000327735472878167,0.0254300459750605,1
0.000365520210300489,0.0275031120260787,1
0.000401432394939769,0.0297566940430522,1
0.000469620270181865,0.039838343055918,1
0.0005017346989592,0.0517983879365092,1
0.000475328860447799,0.0541089921018136,1
0.000512885380905865,0.0679069382548318,1
0.000575854742510526,0.0904096835682719,1
0.000511601481243529,0.232418297614572,1
0.000256643683995801,0.117387530485108,1
0.000110593004305788,0.0762827795097376,1
0.000109964397905908,0.0855391743006328,1
0.00016212771298848,0.0866153978475221,1
0.00044353402043724,0.0636114444139268,1
0.00118257447416312,0.0914269581045925,1
0.00193469478067447,0.113735502221105,1
0.00211135502068468,0.0578025129956594,1
0.00195788885446536,0.039056227731188,1
0.00173305442864796,0.0369363955334963,1
0.00145261796420112,0.0332920235221353,1
0.00127195827263413,0.0302364908428998,1
0.00120859231450958,0.0284274606440182,1
0.00121301772206676,0.0294875713363695,1
0.00125748245016514,0.0380266869356412,1
0.00116002092346577,0.0439803483055834,1
0.00108667723795899,0.0371491374244194,1
0.00139700139546657,0.0733802549403834,1
0.00136654891505099,0.0726830356227368,1
0.000928975271577353,0.0578996460014349,1
0.000507128469356064,0.0413835743957165,1
0.000281705736868425,0.0299985546561476,1
0.000313348626661623,0.0376629480100255,1
0.000368552213942864,0.0165568089268909,1
0.0010997139079363,0.0262275772917793,1
0.00163685221102812,0.0245957944857625,1
0.00168145302200468,0.0187462802810383,1
0.00169350325774905,0.0143522358751058,1
0.00251121151788198,0.0172017141580397,1
0.002961058197133,0.0155687547941895,1
0.00273436265463604,0.0128906357697532,1
0.00241341359471109,0.0109366333510395,1
0.00181755438047599,0.00793341215007632,1
0.00157712582614003,0.00743756544183065,1
0.00180625254251152,0.0101449971987192,1
0.00195535921094785,0.0115863936811921,1
0.0018844451876999,0.0131401500267347,1
0.00190660370437363,0.0158238275417192,1
0.00194025211778695,0.0273785379036811,1
0.00176200652226013,0.0308113216576592,1
0.00197136278749491,0.0375418403307119,1
0.0018794148688275,0.047851439499514,1
0.00115073949816587,0.0224882914999551,1
0.00118448046797405,0.0256718140997349,1
0.00156100466874274,0.0368676123625289,1
0.00172126099226318,0.0381194348561831,1
0.0017760599540695,0.0417675992269219,1
0.00177674959172135,0.0474121102312573,1
0.00163849139819507,0.0535810964237724,1
0.00133137502839709,0.0462252566874968,1
0.00110027972030349,0.0406792166490515,1
0.00112749204232391,0.0405735701519984,1
0.00122711568964508,0.0404291362772765,1
0.00138980546695244,0.0194412248497477,1
0.00209416888285771,0.0276479734915146,1
0.00240734733341678,0.0228427000634084,1
0.00240066482415217,0.0191875589866847,1
0.00251805953148708,0.0209209287854331,1
0.00257598383550387,0.0221477224742815,1
0.00262416234153459,0.0226120197798472,1
0.0026562811201387,0.0221719521446502,1
0.00241758283475293,0.0208571001070276,1
0.00225073992573182,0.0254163357568902,1
0.00196757566891139,0.0568260465267205,1
0.00104770653164576,0.0373113160208672,1
0.000537555746771714,0.0523685225071383,1
0.000510940734508333,0.081886651943893,1
0.000601472447361689,0.0659069661358716,1
0.000773591893767559,0.073520898125739,1
0.000760122598733866,0.0601188420270514,1
0.000752108815364332,0.0668927003578073,1
0.000857556703577595,0.0741936928309978,1
0.000968387539889018,0.0928146143512608,1
0.000884673349298689,0.0878164440289489,1
0.00062733956093738,0.0432697791692148,1
0.000479590115700181,0.0275218041035171,1
0.000493789134879502,0.0294049166525074,1
0.000497068543014227,0.0275878449154565,1
0.00053375699133771,0.0277595661209364,1
0.000544934753315044,0.0234273159310908,1
0.000749988112919764,0.0205895443459126,1
0.00108152319880093,0.0296536707446899,1
0.00119324947775945,0.0314652677494666,1
0.00200302828907903,0.0280838380792549,1
0.0037491620436672,0.0428979366968245,1
0.00482986499853837,0.0492518808507643,1
0.00547169110294485,0.0565546525362629,1
0.00504177879724762,0.0420780294438892,1
0.00380827906657724,0.027000065072253,1
0.0033648516210589,0.0261860630756744,1
0.00381555729396193,0.0323754557235005,1
0.00414412748028083,0.0307640146091416,1
0.00413779744621259,0.0324113351114123,1
0.00401033277333547,0.0584573979543595,1
0.00303210518335467,0.0542437596173416,1
0.0021116560426664,0.0430606749421499,1
0.00113325860221874,0.0283971028392206,1
0.000517682028416172,0.0277393506554428,1
0.000544123792777811,0.0588291108773548,1
0.000605369392595517,0.0684394073177264,1
0.000727291110911591,0.0751862910972766,1
0.000954274329877512,0.168813885095881,1
0.000908007517207426,0.233956072532299,1
0.000648434558841633,0.22499222307716,1
0.000474797519208895,0.189940838342151,1
0.00024715329771724,0.112601615389707,1
0.000123193627276641,0.132167083682794,1
9.86863484613301e-05,0.136941273704705,1
6.77483785325277e-05,0.0970985808578978,1
3.96036722534432e-05,0.0481515590251274,1
0.000140674709631699,0.0799732045321639,1
0.000346586694698077,0.153164658939067,1
0.000453820459706557,0.093633523339748,1
0.000443049665098336,0.0636383444459674,1
0.000408760660133974,0.0479639099341405,1
0.0005084978377489,0.0289292296371891,1
0.000941546192780174,0.0415407094072342,1
0.00120580534247447,0.0436468820070903,1
0.00107410649206288,0.0355587167139881,1
0.000924724014358328,0.0334039869657465,1
0.000895255833966758,0.0352329076392819,1
0.000910166972149553,0.036728063677847,1
0.000887870823515355,0.042258644172564,1
0.000623929561326369,0.0414366525128113,1
0.00041173557299378,0.0224534319236757,1
0.000959162867709674,0.0509083026521568,1
0.00179908886025681,0.0799156877402939,1
0.00234507279280711,0.0845086193190752,1
0.00238832761871632,0.0914140811623495,1
0.00236332823313749,0.0678884382045464,1
0.00280704659714264,0.0726017943596892,1
0.00281954806728311,0.0516707432023014,1
0.00198073664245079,0.0234321045068682,1
0.00145637112647527,0.016013767264559,1
0.00174142135097411,0.0255236575783465,1
0.0020889096832608,0.0262040287023349,1
0.00210691378232983,0.0146993553658478,1
0.00304129911718986,0.0190593529125948,1
0.00375819267999129,0.020246612173366,1
0.00378878951322901,0.0221826940599698,1
0.00382346234831397,0.0214141581175086,1
0.00403935119162981,0.0239698778898696,1
0.00400039765797383,0.028849380451905,1
0.00334361762990746,0.0293889385723142,1
0.00210454028713982,0.0163934759681527,1
0.00186876463158325,0.0127641079869968,1
0.00243380353814869,0.0187332176962479,1
0.00219599819624859,0.014383406216961,1
0.00195145747923939,0.0136765040645428,1
0.00196563179034802,0.0136252125554466,1
0.00187290117437873,0.0130572228400053,1
0.00190639937537767,0.0132709768465232,1
0.00216601688292638,0.014573806382518,1
0.00215693376745019,0.014282559466548,1
0.00212834900893815,0.0169061674018011,1
0.00136624728990316,0.0155753518768748,1
0.000647349085565787,0.0111970912804412,1
0.000794704192918156,0.0227636493053059,1
0.00146907834194195,0.035033116719334,1
0.00223293046799691,0.044355497507071,1
0.00247086724136537,0.0614554662054353,1
0.00196891497844706,0.0526313984646819,1
0.00138000341586313,0.0377420688378969,1
0.00129153504454216,0.0282764173050323,1
0.0014335550731682,0.0172465645857403,1
0.00218446689752103,0.0236133596236321,1
0.00266727225123492,0.0259997680608379,1
0.0027190686211476,0.0262444371296228,1
0.00281688717824262,0.0288691761226,1
0.00295199774849127,0.0310723999576659,1
0.00292634176386936,0.0283593880183352,1
0.0026705498415454,0.0298585400908279,1
0.00171448660424049,0.0240899413301157,1
0.000666689320610139,0.0131151827498947,1
0.000678063358575763,0.034025660950149,1
0.000682246852117391,0.0235095429995649,1
0.000714058436463252,0.0228394799632612,1
0.000740361863012051,0.0242269212834429,1
0.000785346644724625,0.0227809547660672,1
0.00117789526457488,0.0260975285946035,1
0.00162128490489949,0.0343959544999168,1
0.0017037473680788,0.0311521069460004,1
0.00169307506392836,0.0363764615963525,1
0.0015161877665685,0.0348879645928682,1
0.00111829352784914,0.0279107058980634,1
0.000722001606843083,0.0144183263874223,1
0.000955628125113417,0.0173590060433342,1
0.00120184753666987,0.0205434823302455,1
0.00142898979027966,0.0261762415156825,1
0.00156289782723432,0.0367704965040267,1
0.0014533436863581,0.0341212117023694,1
0.00150535917717554,0.0390900543767524,1
0.0016611717895451,0.039782362707789,1
0.00176440797123908,0.0681898885209583,1
0.00103798695380862,0.0457772814853061,1
0.000415975971835147,0.0415842725383101,1
0.000355074957486541,0.0487853901524483,1
0.000394941409880118,0.0485768661870202,1
0.000385815364611008,0.0473395822961538,1
0.000350050034268038,0.043202090567049,1
0.000333991728259721,0.0404548380457797,1
0.000280071276969611,0.0304861801626521,1
0.000207247763027456,0.0255840858499446,1
0.00020861163678054,0.0277258460790479,1
0.000256914224349012,0.0384075461846171,1
0.000199230486475044,0.0437260525039556,1
9.71324107758431e-05,0.0330898244766404,1
8.86873691872401e-05,0.0360955221034336,1
8.2892487775663e-05,0.0349095200090777,1
7.63593259556291e-05,0.037316530171306,1
9.46351758730508e-05,0.0409277610151784,1
0.000200128943565042,0.055808728424555,1
0.000394853660774671,0.0853695362137907,1
0.000483655818393567,0.108449593745184,1
0.000432872428498434,0.117593050952061,1
0.000399510765527567,0.112663313063658,1
0.000417087677286232,0.114492009415389,1
0.000410155816190828,0.118895079407943,1
0.000287856366485119,0.057585989156041,1
0.000224505654031602,0.038974775798505,1
0.000216016810742011,0.0371955231778618,1
0.00021275374452348,0.0382026677417041,1
0.00019814654331691,0.0366823592301758,1
0.000193709518336374,0.040890992093942,1
0.000259265378802813,0.028852105234305,1
0.000479746918999475,0.0441674471583546,1
0.000554006221302083,0.0296182049048021,1
0.000599042057510605,0.0264153346352267,1
0.000628405606621319,0.024558039431134,1
0.000642865996548794,0.0227250755724441,1
0.000621624104568871,0.0209686591836068,1
0.000615675944956877,0.017398185952038,1
0.000744799244619176,0.0192303113334451,1
0.000836891344039863,0.0202801758327386,1
0.000818820210273336,0.0231733063170125,1
0.000651073007234961,0.019632804423249,1
0.000578849443751784,0.0245120362884536,1
0.000531250173772087,0.0277321735789085,1
0.000518118515308343,0.033184358824888,1
0.000461622287544208,0.0426076400203104,1
0.000349959489043617,0.0351957872604479,1
0.000372162076160285,0.0603745884624885,1
0.000322210511539313,0.0651373648502362,1
0.000262772256419865,0.0668130541049646,1
0.00028231157513525,0.10651543405529,1
0.000300616285903533,0.11262264047439,1
0.000318002410300501,0.104675077501882,1
0.000279074221184972,0.0981607161849772,1
0.000167418499710075,0.0707881416197559,1
0.000101866887771806,0.0642345742093065,1
0.000111172802818464,0.101265561881604,1
0.000102842597304239,0.0990039672889049,1
9.6922642646215e-05,0.0635997052730224,1
0.000151643091096891,0.0745970286173853,1
0.000183525373541783,0.0673651222778684,1
0.000152596689780813,0.0482867303847078,1
0.000162102576595846,0.0463538342584189,1
0.000234073427817403,0.0642017531687294,1
0.000300527653788802,0.0842382798940522,1
0.000449077533296977,0.0935525194302688,1
0.000712849304420997,0.114916282117851,1
0.000905516194627668,0.10998914457501,1
0.000900801964863451,0.119773948669801,1
0.00068294562607065,0.0777702574356738,1
0.000584661541300376,0.0646371513007459,1
0.000619761542880926,0.055681512949426,1
0.000612821028849597,0.0520755426539167,1
0.000621524073817265,0.0455107724828884,1
0.000703680137862977,0.0481668084090738,1
0.000700164806669352,0.0540450071107474,1
0.000511120805495436,0.0417843388274531,1
0.000350785620781224,0.0333796525591555,1
0.000342837185186787,0.035581705074327,1
0.000380994222265887,0.046293291788535,1
0.000302839554340088,0.0333639106080297,1
0.000357770906482357,0.0460356852517569,1
0.000390870540495425,0.0381661296204411,1
0.00041976409137838,0.0410019469915746,1
0.000397264341803023,0.0381905943652023,1
0.000370955877152012,0.0365369377866854,1
0.000371341474216283,0.0381064426327952,1
0.00035526911545518,0.0358862573060696,1
0.000314141779459497,0.0277634766954905,1
0.000356493559313223,0.0252351425476754,1
0.000522366560112763,0.038028783869282,1
0.000533705576514767,0.0331852313614755,1
0.000533311089226062,0.0320823759197308,1
0.000533177285797724,0.0341461364909157,1
0.00049774613584588,0.0254985487784918,1
0.000628513462343098,0.0274612550078765,1
0.000716908908383417,0.0300589303196185,1
0.000614620441265918,0.0182443162264316,1
0.000792180666171084,0.0219774751277642,1
0.00106128480871219,0.0328808736440726,1
0.000955766335262264,0.0237538853613663,1
0.000888597544319294,0.0250466685663455,1
0.000898074791845252,0.0323666702712936,1
0.000883163249393145,0.0290938011900428,1
0.00110943514309259,0.0389797147256641,1
0.00119224842183636,0.0401488693930527,1
0.00114685689940452,0.0391860829810497,1
0.00115834132093149,0.0604967313158328,1
0.0009235293268493,0.0434006745832669,1
0.000808947820024333,0.0382131419529201,1
0.000859961678580525,0.0429600426116796,1
0.000876631139875952,0.0412571783982392,1
0.000902474176762661,0.0397240822591598,1
0.000931947713028775,0.0509345227334027,1
0.000703406629784482,0.048312271020204,1
0.000439986562322268,0.0403207408422602,1
0.000309803934599831,0.0334627020848748,1
0.00017997735250261,0.0232500400537346,1
0.000186301077379316,0.0490037837786176,1
0.00019880901259091,0.0667083229750323,1
0.000269807730722038,0.118901748075815,1
0.000337651972886924,0.119843026704727,1
0.000336334490193641,0.0743305511974756,1
0.000385079007488358,0.0692732839948072,1
0.000452339681352371,0.0794967025999594,1
0.000540790367509912,0.0821470246696272,1
0.000658091109520533,0.0871483782904029,1
0.000683989510488052,0.0730528274366516,1
0.000675125995119148,0.0821755111655635,1
0.000574887843181256,0.0891199112104985,1
0.000368974809512443,0.0620360456986254,1
0.000203124157312474,0.0433930644263944,1
0.000157707836150006,0.0436480103507453,1
0.000175713985706286,0.0500379512507487,1
0.000180802117402902,0.0406339161003368,1
0.000196609487344283,0.0379099996328424,1
0.000203466734848989,0.037676267824993,1
0.000202756201469311,0.046457417653412,1
0.000172339357809776,0.0379541051948994,1
0.000277706399561673,0.0259665369639985,1
0.000847572209541194,0.0534290899573095,1
0.00145298421970791,0.0746391500191051,1
0.00155111191701197,0.049044714139195,1
0.00155118952423079,0.0378920993697139,1
0.00164807540658531,0.0388556604800183,1
0.00169991425530398,0.0420827985625712,1
0.00176475246604824,0.0456775319106402,1
0.00189581940744795,0.0469977427031758,1
0.00194730700071645,0.0446830601261389,1
0.00191694726865426,0.0546646056015096,1
0.00154278711455246,0.0607452981899205,1
0.000830523790171678,0.0362070460549879,1
0.00047135373258208,0.0331356033505651,1
0.000438938376183366,0.0463180491597943,1
0.000463668369922368,0.0472311033120364,1
0.000483047650721422,0.0318220751312516,1
0.000745486143970891,0.0352207649767651,1
0.00112084933832225,0.0467396562507916,1
0.00131602675760135,0.046387665323876,1
0.00137267128420763,0.0510152055740121,1
0.00136236824353117,0.052668698633018,1
0.00132991518138713,0.0627388761283068,1
0.00114228256162349,0.0593946853474558,1
0.0008870261305433,0.0494195357243029,1
0.000748063725780295,0.0406814491866037,1
0.000936910317254157,0.0793798362758406,1
0.000995709100195256,0.158707381836969,1
0.000730436335401303,0.153387744652016,1
0.000421600451419432,0.0682937191029488,1
0.00044648854683754,0.0376543587517565,1
0.000807575556526672,0.0601886822255065,1
0.00103007201752346,0.0581713962875241,1
0.00104221192149612,0.0471033632274024,1
0.00106469800778638,0.0474035756162972,1
0.00109156823979872,0.0527201946872927,1
0.00108595818439544,0.0536442308896545,1
0.00113027406599164,0.0550383537557167,1
0.00116532874824236,0.0567908215526739,1
0.00123165919795947,0.0732021526208862,1
0.00110137637435483,0.156410512286506,1
0.000611388986687255,0.123766822950418,1
0.000201693365424672,0.0764266351266358,1
0.000199571569510251,0.0731771096842131,1
0.000570086936966663,0.138098308302475,1
0.000982478018771525,0.221423807931429,1
0.00114488371547906,0.143542254765255,1
0.00101397747344318,0.0742438191517284,1
0.000874586765234971,0.0679313973987011,1
0.000730079111196905,0.0579236803669498,1
0.000590081111387575,0.0450009190496166,1
0.000491516550675077,0.037288153607605,1
0.000473069703165062,0.0376635842141092,1
0.000541822752916937,0.0557969479995217,1
0.000481275865533248,0.0577705265552583,1
0.000290001184472928,0.039622572454384,1
0.0001691356229694,0.0340283939821798,1
0.000168784831457573,0.0525224583529779,1
0.000158606831186467,0.0531708552542446,1
0.000153868139428535,0.0678792901570068,1
0.000180842967567881,0.0730325634503514,1
0.000202666805683376,0.0435589503569147,1
0.000296695338451385,0.0319033504785498,1
0.000419406277421841,0.0348462936513957,1
0.000414337651950751,0.0278127689146156,1
0.000433288122811585,0.0293423949380682,1
0.000436681146811943,0.0299038831143864,1
0.000429231514327491,0.0282381817432765,1
0.000446518340653161,0.0293313583545676,1
0.000447792382435001,0.0232754926356024,1
0.000567478839762548,0.0255868904495644,1
0.000830581533150732,0.0444332375381921,1
0.000924914307715878,0.0852668975311631,1
0.000739175638793161,0.0773345476956343,1
0.00067297925847104,0.0850129231470377,1
0.000663584981439258,0.0802080222434627,1
0.000637478206007367,0.0645731010630639,1
0.00070794789195268,0.0376367866101811,1
0.00132536378750843,0.0453545728106173,1
0.00197344411022318,0.0513630489531158,1
0.00197559753535439,0.0355536616006925,1
0.00190004675033329,0.0333606027729098,1
0.00190161781488351,0.0339013671701232,1
0.00183105325470178,0.0294991399000321,1
0.00174944705381261,0.0242176647684823,1
0.00170103018661825,0.0240303647751936,1
0.00159056566964562,0.0217259689640442,1
0.00156636487044773,0.0281279508961743,1
0.00120799688918409,0.0244626241685927,1
0.00102128465465143,0.0262132227028906,1
0.00117364314007329,0.0379428672597454,1
0.000987727867443509,0.0277691435123364,1
0.000786182409080539,0.022237669665619,1
0.000694480095120701,0.0242149253134246,1
0.000687488796723032,0.0296321638565936,1
0.000626833443050641,0.0288232764547601,1
0.000621523978994372,0.0295623909894517,1
0.000637524893562166,0.0296924279738818,1
0.000629996936442759,0.0353696462964957,1
0.000454643498367641,0.0301724023108735,1
0.000331401251924483,0.0292733380158207,1
0.000449874399451862,0.047209492590985,1
0.000445824910085576,0.0431341775147312,1
0.000427580349410185,0.0422803742887605,1
0.000403328696000797,0.0576384035182016,1
0.000302468814404267,0.0466535026489329,1
0.000245047051369666,0.0479602430872908,1
0.000226064338412362,0.0447786536664622,1
0.000168656662359298,0.038286229992703,1
0.000125215142662079,0.0396004843327559,1
0.00012243263192846,0.0428581951106069,1
0.000247429629205202,0.0313915666973903,1
0.000961265956223627,0.0560983417275684,1
0.00158717928186014,0.049392689897239,1
0.00162577836291551,0.0320995600428852,1
0.00160827634875367,0.0321516351398853,1
0.00150064642803611,0.0249035350224258,1
0.00157892982012102,0.0231537154969763,1
0.001575603560226,0.0226495437682034,1
0.00125967831709828,0.0184172067500233,1
0.000988480325955991,0.0157008062030067,1
0.000981133191006022,0.0175467201544039,1
0.000998528835158925,0.022072369993807,1
0.000815380611117998,0.019721437374795,1
0.000800215327691517,0.0307722102101882,1
0.000711071827546473,0.0276019363544381,1
0.000747174914260022,0.0443709963783534,1
0.000608552757165661,0.0729044267058899,1
0.000362096551104788,0.056102619344002,1
0.000325286057391734,0.052702736979281,1
0.000188572867384191,0.0228147770919153,1
0.000284196507625199,0.025022563110031,1
0.000657436011917023,0.0473998424685604,1
0.000804248314173965,0.0424789114730173,1
0.000829059267699255,0.045193280810417,1
0.000854249528986963,0.0457518307258013,1
0.000880264924752971,0.0477163792496531,1
0.00105557897062291,0.0463455674891787,1
0.00115564430991927,0.0519601757086622,1
0.000716192278585526,0.0221461318785952,1
0.000550306759313869,0.0189050248065569,1
0.000802660354034367,0.03906217900315,1
0.000983388421695874,0.0444362845826762,1
0.00100721434205429,0.0397055575677216,1
0.00103576336898739,0.0357772740858913,1
0.00104148448975176,0.0343314812514221,1
0.00101525856496022,0.0329118226804291,1
0.000858755316291855,0.0353921481206104,1
0.000524082567699802,0.0236701400967889,1
0.000445740184211498,0.0346796884515803,1
0.000454754407386585,0.0344181791584839,1
0.000377201206623505,0.0271870723100023,1
0.000217593331077723,0.0153875054155475,1
0.000269068685254725,0.0242735018296969,1
0.000289893911102478,0.0327541329431281,1
0.000301171584030787,0.0382704923771677,1
0.000389960543690589,0.0454713701571147,1
0.00046094978739575,0.0586184669573028,1
0.000546253757337576,0.0735128127697136,1
0.000564290068437283,0.0389427148852937,1
0.000796190113448463,0.0246507075712432,1
0.00186932718759352,0.042608544869402,1
0.00264358094099326,0.0457301048073267,1
0.00265143503567224,0.0308306084468788,1
0.00263985460527198,0.0283593707428401,1
0.00267823419445693,0.0294767268179224,1
0.00263201210026332,0.0290119875668784,1
0.00242748097334914,0.0277022383290066,1
0.00222062080791773,0.0259341529901228,1
0.00234797409396103,0.0339546142989197,1
0.0023198487454287,0.0582816515822742,1
0.00129838066120954,0.050950026239117,1
0.000335801697933195,0.0265107875819167,1
0.000102430289324755,0.0387656105153114,1
9.50739422150655e-05,0.0556553891523743,1
9.40511274445521e-05,0.0538035554722184,1
9.34392306886722e-05,0.0547902704770804,1
9.58679081770681e-05,0.0539381484686479,1
9.28199752137225e-05,0.0702845955998987,1
9.971521617029e-05,0.0487619863011004,1
0.000282560022216875,0.131103915868187,1
0.00046863210462166,0.219246029089889,1
0.000509845235446087,0.125249616217848,1
0.000468113933126257,0.0547106144268305,1
0.000540592789903954,0.0545592709761402,1
0.000579454721407162,0.0441293418520735,1
0.000568447426014217,0.0383220557612359,1
0.000562055356958987,0.0380455578272463,1
0.000529414410421437,0.0370567324087582,1
0.000523081586247381,0.0441966294343793,1
0.000476567189615273,0.0431556375634123,1
0.000437031842113225,0.0373945423762649,1
0.000359291824986199,0.0274863960195553,1
0.000358086179188562,0.0367699183569598,1
0.000286697027563055,0.0350435132440683,1
0.000248787717374143,0.0340541576147347,1
0.000320656935105922,0.0484132002734391,1
0.000331251751375624,0.0407614808034067,1
0.000288884984879252,0.0315823789827283,1
0.000240968553136296,0.0278176478602063,1
0.000217418313457005,0.0325867952142719,1
0.00019327328677219,0.0363606413654582,1
0.000197484572672564,0.0529400122754943,1
0.000158589392562565,0.0512666738300344,1
0.00011496319441073,0.0402382222863265,1
0.000135343633819123,0.0630091635391099,1
0.000143047515621168,0.0947709477831622,1
0.000114233740857262,0.10160629284338,1
0.000112685965272186,0.124127794362436,1
0.000115943605771019,0.126686141924646,1
0.000118130882675137,0.12626568968007,1
0.000107835204880709,0.129580688962207,1
7.29522977703088e-05,0.10528469182607,1
5.88119781248882e-05,0.120096008822448,1
6.2358576358111e-05,0.132421004376496,1
6.40966536266492e-05,0.0884396406879089,1
9.85896790656541e-05,0.0936519257586259,1
0.000141891924747418,0.104708462313316,1
0.000149395745971354,0.0560687709329735,1
0.000218355850067906,0.0569756073116198,1
0.000270699826352273,0.0532071250213108,1
0.000292008164202651,0.0341054193482967,1
0.000399486507056161,0.0401504695122783,1
0.000460277854797001,0.0423273887497856,1
0.00046439338483933,0.041293166032867,1
0.000488757718836839,0.043273617585568,1
0.000499965143265396,0.0312481143043193,1
0.000590849272571184,0.0337039714323276,1
0.000602659352455207,0.0256742762800737,1
0.000626447213217013,0.0254515271966631,1
0.000667401783288782,0.0275126841607043,1
0.000792899967661812,0.0372565424692209,1
0.000813259982681541,0.0253588325151439,1
0.00100218414159487,0.0246372523235031,1
0.00126039596080731,0.0284198377741796,1
0.00128048527080578,0.0240078306808251,1
0.00128205380751643,0.0282543301380961,1
0.0011297305874224,0.0262639636065297,1
0.00107254794413458,0.031135495094257,1
0.00105640017157007,0.0358716107777128,1
0.000934871301725575,0.0328063417337815,1
0.000781182927538131,0.0275770566505598,1
0.000839472486564548,0.0419363379174784,1
0.000865364716180641,0.0527799327999208,1
0.000764560209766138,0.0505212768352985,1
0.00076185565038906,0.0643576823617433,1
0.000741429201987744,0.0353994907005235,1
0.00115548773835788,0.0354395013091227,1
0.00126596953206167,0.0236599836654408,1
0.00118132199603232,0.0148244012379701,1
0.00138847873232008,0.0172131252854356,1
0.00175791537604044,0.0218887338203911,1
0.00205281642251174,0.0242296214791446,1
0.00227152683249202,0.0267804544225229,1
0.00239234260272556,0.0271646768702137,1
0.00237419239314174,0.0261974392791371,1
0.00231619279095923,0.03984020610355,1
0.00142907939745126,0.0459848724666531,1
0.000417630076724695,0.0266200317976245,1
0.000228353446315406,0.0227092232216754,1
0.00058776482400546,0.0338477954107743,1
0.00111030996522953,0.0458928978127075,1
0.00114203626077711,0.0334298954811792,1
0.00101281543461269,0.0279444614962889,1
0.000931863382172993,0.0278514669720521,1
0.000926486911172271,0.0287231994594698,1
0.000920587828189436,0.0308845907671078,1
0.000778379078415667,0.0313992196078848,1
0.000543391767442456,0.0244278823605816,1
0.000513573051792146,0.0368540904284654,1
0.000477900889798612,0.0732656745698146,1
0.000169394356716019,0.0274181903427067,1
0.00023359577021262,0.0531559325371211,1
0.000576885958589385,0.0938452605612695,1
0.00113323514581025,0.132726045793102,1
0.0014223579714836,0.108077245745019,1
0.00155138373446766,0.112484439669501,1
0.00189731668174771,0.10374223769912,1
0.00208010658996459,0.100441605159552,1
0.00164304657157554,0.0642304113232654,1
0.000929341737082165,0.0445760720780102,1
0.000476248682754581,0.031143786883059,1
0.000304429939170449,0.0150459774683982,1
0.000443081558894131,0.0179186120483293,1
0.000841743286710927,0.00434209685317612,1
0.00433455403393015,0.0170745048153189,1
0.00882752641241226,0.0282713405620744,1
0.0139108799635458,0.0377348623114853,1
0.0220681125624191,0.0502380494177276,1
0.0281886954629723,0.0614559498237177,1
0.0274058283295953,0.0367237685397808,1
0.0244781776365202,0.036936864669566,1
0.0223304596871039,0.0259200226291607,1
0.020859793427577,0.0278722671738732,1
0.0176161844523028,0.0252192821920807,1
0.0169564072622255,0.02659488485655,1
0.0213628549083487,0.0234485226962055,1
0.0389379737654606,0.0249425095399897,1
0.0644721616780029,0.0365633823033512,1
0.0692974928022329,0.0189545858378036,1
0.0598213227881288,0.00992274905149062,1
0.0546018796573775,0.00928152956512436,1
0.0579923152702798,0.0121641709928441,1
0.0679073287608905,0.0136597414482802,1
0.0755799921656325,0.0140657424053336,1
0.0772897088355906,0.0155594360552474,1
0.080038483514928,0.0181496824119847,1
0.0739084605489867,0.0294824307676031,1
0.0401627983064289,0.0150804841708186,1
0.0128179116660405,0.00674604988709767,1
0.0072316975249918,0.0106724376839458,1
0.00820855661432487,0.0124034164873282,1
0.00872663016137936,0.0106878839664987,1
0.00917135702467345,0.0100056464339558,1
0.00938045495719307,0.0106883540137687,1
0.00727261044144802,0.00728501153006901,1
0.00773146713466277,0.014741013658659,1
0.00952704227664024,0.0246605529368069,1
0.00880930504495401,0.0145441955088927,1
0.00789020729608821,0.00867723014408296,1
0.00931376390480126,0.0119687638671578,1
0.00968891692397837,0.0125429888100705,1
0.00959370507180986,0.0148835378134654,1
0.00950547859739007,0.0143834762168956,1
0.0124614530020146,0.0194441582738361,1
0.0173642469557022,0.0266403774434087,1
0.020817351153842,0.0352526935096567,1
0.018386348839378,0.0436059298204912,1
0.0117165461107465,0.0354195898257265,1
0.0102759670757005,0.0557286088095096,1
0.0103779269505019,0.0576057715753903,1
0.00888919655375033,0.0618554553923225,1
0.00489318263491651,0.0435910646641603,1
0.00137900747806353,0.0343279821156116,1
0.000594623818101606,0.023726789952324,1
0.000758991867647432,0.010374735647653,1
0.00138472119107845,0.0166897423661375,1
0.00146933781761989,0.00985926816508139,1
0.00169335682899938,0.0103972196519195,1
0.00188349007231224,0.00865346779133011,1
0.00242899832512454,0.0113653117274162,1
0.00243039514682646,0.0109538706083497,1
0.00244740525774709,0.0107008014263057,1
0.00265358897330963,0.0126317539602083,1
0.00321846149483805,0.014557683559758,1
0.00536618565677281,0.0261129539265686,1
0.00743784254865092,0.0352279417604581,1
0.00689110317459868,0.053925332813365,1
0.00580781811694757,0.0356182806749465,1
0.00760119415922506,0.0463311982685703,1
0.00797400281835559,0.0449957269159444,1
0.00731634634321168,0.0410186064117204,1
0.00573694907583,0.0194563138648637,1
0.00562530537604777,0.00870615812355653,1
0.00730345143068453,0.00863615887293498,1
0.00946077814420449,0.00507622792821127,1
0.0145995845807942,0.00937011445424083,1
0.0150581604428278,0.00958048106784382,1
0.0180994807277253,0.00992874497585217,1
0.0270623046932684,0.0154285721999156,1
0.0285101990009221,0.0116276991563583,1
0.0280731519413534,0.0122112396143117,1
0.0277291961240188,0.0126790863934202,1
0.0210208218865166,0.0118831687957294,1
0.0122790406017753,0.00781186679029541,1
0.0113808033598119,0.0122483437865059,1
0.0112127853800569,0.0126417143184989,1
0.0111732561234224,0.0127126353072089,1
0.0107496055603457,0.0164645620962647,1
0.0083032549052408,0.0119997495465536,1
0.00944201006263486,0.0278348129744303,1
0.0104602891461036,0.0327793445520055,1
0.0116467955930773,0.036463320799735,1
0.00955858003559783,0.0412592823260738,1
0.00468110928396917,0.0229323411946623,1
0.00428892946828006,0.0251339822884269,1
0.00721288105506845,0.0337422106613503,1
0.0112612704461888,0.0443776499079543,1
0.0147165699913547,0.072001411168395,1
0.015867411808973,0.0824580841742293,1
0.0185549300856211,0.0710010373269798,1
0.0239974229125204,0.0798822330037187,1
0.0240220035759292,0.091546861999753,1
0.019084965913942,0.0737706473477323,1
0.0148386151496507,0.0633408986084026,1
0.0143143136895462,0.0616473656184474,1
0.016482298601733,0.0675097015085778,1
0.0178943492599594,0.066678201719119,1
0.0166951395574155,0.081623557217383,1
0.0130598777763664,0.0721585819823791,1
0.010830987950066,0.094766348704889,1
0.0104483514600455,0.0911216927275618,1
0.00871746951916818,0.0860746744668418,1
0.00496848020858379,0.0580677985846988,1
0.0022785853371935,0.050177787318278,1
0.00127498611424532,0.0619734546407647,1
0.000955211422902292,0.0355443447461874,1
0.0011840577960836,0.0318365079977186,1
0.00176832988819749,0.0591231507427681,1
0.00197446588471717,0.081837213912278,1
0.00172089649629925,0.0719385679468675,1
0.00181873851350317,0.0472636454530346,1
0.00252011188142721,0.053115169577369,1
0.00243086533516256,0.033198723964783,1
0.00184834221754913,0.0263473733059808,1
0.0011676883340703,0.017807354603482,1
0.000870989810032254,0.0155322871070069,1
0.000936932621911411,0.0187046674047963,1
0.0010049425719391,0.0198653450030006,1
0.000880401397561394,0.0161837732073245,1
0.000865855876565428,0.013375300622206,1
0.00135690663683645,0.0339717274186176,1
0.00135981388500471,0.0364320578306011,1
0.00133419498353489,0.0520028620985374,1
0.00152301356062567,0.0540865539105366,1
0.0018664051771197,0.0913408947100028,1
0.00207962015129734,0.115377218087606,1
0.00208928605475138,0.123507419970546,1
0.00151162861201416,0.0511623892277461,1
0.00102007652403143,0.0183069095671345,1
0.00147861629970969,0.0279712042333554,1
0.00160555563479343,0.0166709125204059,1
0.00170291567648179,0.0174835990570649,1
0.00162560288551939,0.0149238843872538,1
0.00161805654154715,0.0158611190972069,1
0.00162190624694065,0.0142119677300033,1
0.00164149811141543,0.0143538971438233,1
0.00161675397796411,0.0147687917778188,1
0.00165010476266764,0.0176860222898929,1
0.00158606053129936,0.031149179140118,1
0.000769050527988005,0.0200713937035698,1
0.000429598217583362,0.0329926565137083,1
0.000427865373150881,0.0365707303729476,1
0.000563091275790802,0.0408586308747181,1
0.000819891670113206,0.0539135060567916,1
0.00107735279359388,0.0812175673887456,1
0.0012274482432454,0.10793897432674,1
0.0013077157969715,0.0906181531284544,1
0.00219540689178727,0.0502403407961915,1
0.00426761225500687,0.0705398591425858,1
0.00476970314575731,0.0376168676519184,1
0.00392251984514339,0.0206471346527392,1
0.00356246705441225,0.0186858718653026,1
0.00359574030451742,0.0171702676748501,1
0.0037212167471574,0.0111930161105362,1
0.00468453054206419,0.0137038810355626,1
0.00610527443964593,0.0170207592316983,1
0.00993104352968324,0.0175071844119595,1
0.0185939663039149,0.0342914653116983,1
0.0228060733136516,0.0203479849038438,1
0.0227839110147008,0.0177883838165094,1
0.0212110887787659,0.0186550661746148,1
0.0167207354863049,0.0156627776679776,1
0.0115814227454205,0.0111326681136402,1
0.00903884743898682,0.00982077964653452,1
0.00924537961434311,0.00887427382135459,1
0.0106995414483512,0.0111206800510531,1
0.0123531472567967,0.016075368670483,1
0.011305542389169,0.0122440853900194,1
0.0108037518547899,0.0163724418797728,1
0.00927518551918926,0.0204243695203099,1
0.00643871146508114,0.0123308990494626,1
0.0064650838528511,0.0138078378031713,1
0.00573423191240893,0.00752401821245688,1
0.00635756600354239,0.00697307166332504,1
0.00815555122708251,0.0124725526967147,1
0.00755558088998814,0.00882115221869466,1
0.00633968476348961,0.00882261652062235,1
0.0061972422826847,0.00925501297138483,1
0.00945852843266958,0.015809185045566,1
0.0116608411060188,0.0150658068696232,1
0.011990356747354,0.0117270929181945,1
0.012513997568035,0.0127452234898375,1
0.0125419391363862,0.0133994055007927,1
0.0122246456294367,0.0127660939251009,1
0.0134763871496413,0.0143194101035422,1
0.0194252231846762,0.0195262127151774,1
0.027604246280548,0.0248958176383352,1
0.0386054193140495,0.0322200989459328,1
0.0525361606860891,0.0394681509064926,1
0.0576219966066711,0.0345453190850321,1
0.0500100499943607,0.0428805989253638,1
0.0336557371751222,0.0316765440225737,1
0.0245380139604584,0.0122399049007299,1
0.0380467536599768,0.0175248834342849,1
0.0503036693609505,0.0168977517792355,1
0.0520317297814184,0.0187987933390875,1
0.068562450178361,0.0147645614127669,1
0.107058262956566,0.0237348988669312,1
0.113886386132282,0.0111938152493489,1
0.109766767453071,0.0120793109426097,1
0.0928798008832679,0.0104664148941918,1
0.0697938721780093,0.00886924431847042,1
0.067189428722922,0.0116268393529208,1
0.0754663486038507,0.0152331655152069,1
0.0757292135096381,0.0138475352478291,1
0.07991502976579,0.0125407708626205,1
0.0751361231437767,0.015469714829546,1
0.0419933393704159,0.00738890554487988,1
0.0303254320850544,0.0112635976559863,1
0.0285348950568537,0.0122134041147121,1
0.0265516969804617,0.0115575273785301,1
0.0308517660576873,0.0119044360096319,1
0.0326070219540792,0.0103416640612771,1
0.0316673743080437,0.0087582851006348,1
0.0319125919772518,0.00883530935604321,1
0.0243193594233647,0.00886079045209691,1
0.0169528018552964,0.00675841946495858,1
0.0292066454638211,0.0133735157595441,1
0.0531577297748778,0.0231610812342516,1
0.0649777846202297,0.0238349581321777,1
0.0664575476978346,0.0247457093522602,1
0.0700191914272669,0.0239578179418238,1
0.0694793068121966,0.0339104282960272,1
0.0483308767066692,0.0373595915386993,1
0.0214238238663069,0.0243190839707451,1
0.0109248433792481,0.0178974097647517,1
0.00927070308051855,0.0152323423839493,1
0.0155568282100163,0.037725556173006,1
0.0228926327146479,0.0406888405770261,1
0.0242679477087631,0.0438973106573716,1
0.0219640419337135,0.0381435963487507,1
0.0226923834047523,0.0339947162716135,1
0.0221367245985023,0.0318350810092241,1
0.0162898109591732,0.0206245468684517,1
0.0098063290472722,0.0102490969453645,1
0.00702513984135211,0.00753568439064793,1
0.00747472051463443,0.0103331889401656,1
0.00805222182338321,0.013928717017955,1
0.0118236147576444,0.0140522098249123,1
0.018218793132329,0.021981405379182,1
0.0201856992382888,0.0251464158488659,1
0.0185928162849269,0.0338522737694583,1
0.015191124045153,0.0315671947530403,1
0.010711816444881,0.019773606504606,1
0.00673170897342318,0.0156566280085441,1
0.00636945277942036,0.0117501738146369,1
0.00743701328914548,0.0146436435347599,1
0.0045367610854961,0.00779575361813062,1
0.00437592293101521,0.00960291288630362,1
0.00693468712707008,0.0144011822442219,1
0.00821670151925379,0.0208530174250769,1
0.0078908959323178,0.0202260617429764,1
0.00778198467585644,0.0151372850485063,1
0.00785790832114576,0.0163010840194205,1
0.00723741868461042,0.0142060757656952,1
0.00987799003069247,0.027067664678752,1
0.0136714370293536,0.0329942261295647,1
0.0154732438578697,0.032674301854976,1
0.0160128979594115,0.0488272954373638,1
0.0139619665827146,0.0439910389965169,1
0.011714614505966,0.0146754850828743,1
0.0163104628672741,0.0229462637953948,1
0.020799630695487,0.0298820106064379,1
0.0219353718873283,0.0332677333000778,1
0.0221807752609285,0.0357577468425231,1
0.0203168608476273,0.0350331841434288,1
0.0154438010678111,0.0261583487979953,1
0.0128326157364647,0.0247655833738808,1
0.0123054027181445,0.0235106405258857,1
0.0149616878953153,0.0250121112494081,1
0.0251041119138532,0.0706109327009141,1
0.0306556677073673,0.109801652891359,1
0.0313365507398501,0.115424722613066,1
0.0322668520897004,0.116740441472309,1
0.0288545021660785,0.121087608818705,1
0.0224243764213679,0.0992867889019268,1
0.0178511243430409,0.0934466657651538,1
0.0135009851263227,0.0714525165411153,1
0.00793110249500247,0.047230324876679,1
0.00347783446755895,0.0473135990293057,1
0.00220094594149532,0.0878763938537701,1
0.00193666108369573,0.088884624954451,1
0.00163580846028787,0.0838178958756865,1
0.00113487706757693,0.069718225091839,1
0.000566568700492097,0.0495381224997397,1
0.000343547768521941,0.0471760417259286,1
0.000321648181253782,0.0719758766164898,1
0.000379134393327471,0.0639892298280299,1
0.000568567282613881,0.0767549170732567,1
0.000726480971401848,0.0701226297116819,1
0.000663778003845932,0.0475588793881181,1
0.000755761541229923,0.0331102580532626,1
0.00130222315728784,0.0407050612376173,1
0.00128715759007849,0.0148585264522373,1
0.00182399889214182,0.0168212035898915,1
0.00218751248118937,0.0162696084681687,1
0.00209722692394148,0.0119333596009459,1
0.00217082523204427,0.0132025300086918,1
0.00218456154140719,0.0120242944861124,1
0.00223645305984886,0.0121770371984677,1
0.00229081375533046,0.0128057985287141,1
0.00227795740426743,0.0155513604392706,1
0.00146670936078421,0.00968251637432465,1
0.00122407129611968,0.015628043439926,1
0.00104232221208478,0.0125481840961543,1
0.00130539129422643,0.0201263896643911,1
0.0012410563483562,0.0239429036573987,1
0.000689068108089661,0.0142318798405804,1
0.000652521462546305,0.0185437003315014,1
0.000655545421506924,0.0165631731453073,1
0.000738418446999377,0.0160627246717575,1
0.00100409403193288,0.0199608017951428,1
0.00137086258146052,0.0278106174626999,1
0.0015948094168915,0.0322310531174449,1
0.00184611480465831,0.0479476085111628,1
0.00203954232942362,0.051747937034574,1
0.002068643762617,0.115182028011307,1
0.00154144709777677,0.161773041483438,1
0.000815836591284274,0.121560139879175,1
0.000343828486840731,0.0408898566375736,1
0.000366959457615069,0.0543238748050487,1
0.000459560026067698,0.0431705394509958,1
0.000467514932283864,0.0362814124724657,1
0.000491405259126705,0.0387239389500091,1
0.000449758524488615,0.0281096688242899,1
0.00058565024156919,0.023250736882004,1
0.000776339444919351,0.0264185381459277,1
0.000763585874471831,0.0212977111125441,1
0.000709145692427912,0.0170495843566561,1
0.00100449782574165,0.0193728866494708,1
0.00159356831750789,0.0281059936302596,1
0.00217849647488134,0.0450548999726481,1
0.00244038723872064,0.0578230545132209,1
0.00208054958633275,0.053352735065175,1
0.0017057872522776,0.0516205942396081,1
0.00179547318701496,0.0645656100715664,1
0.00245816251858441,0.0674567050552097,1
0.00335179463446724,0.109661000667558,1
0.00328427503582317,0.0851942719646575,1
0.00348512368422315,0.0962617308549743,1
0.00521387721424852,0.0737949042602319,1
0.00723460975853149,0.0801348564325815,1
0.00702149698631844,0.047131294851614,1
0.00568232770111354,0.0357550775210999,1
0.0041167091418795,0.0303071496042262,1
0.00254990800240098,0.020652583171217,1
0.00198786312406553,0.0165668331465438,1
0.00405165313405058,0.0198334626119082,1
0.00784220152175266,0.0345563146518331,1
0.00895637548611737,0.0309712474227476,1
0.00916447385212716,0.0354054140356551,1
0.00986640766266733,0.0362344598152022,1
0.0111606910146317,0.0464779496707118,1
0.0107651294838443,0.0556774190096247,1
0.0137770667975897,0.0256145480840768,1
0.0326475063950213,0.0327345852065777,1
0.0518476796815753,0.0397135131547636,1
0.0603699829187601,0.0385950772336916,1
0.0641915530258205,0.0389854262981343,1
0.064206098989015,0.0421180523635689,1
0.0668782560129193,0.0355900558146387,1
0.0753101682979042,0.0397487241973215,1
0.0761695128663199,0.0388542829050949,1
0.0670259229034955,0.0361334302276858,1
0.0638240487843182,0.0432004525192281,1
0.0724947418274784,0.0538259192919543,1
0.0748582777162765,0.0512209136946444,1
0.0637694454120749,0.0550635591623522,1
0.0417959091368117,0.0172928780900165,1
0.0468145564766817,0.00813775883362903,1
0.0886545026755415,0.0241207486453978,1
0.102297045788135,0.0158764508499046,1
0.102736946700406,0.0114878839969336,1
0.105543697255851,0.0129877730383568,1
0.0999062643624754,0.012012937721288,1
0.091656331287899,0.0112610888509326,1
0.101771705928076,0.011865715212064,1
0.139710669323211,0.0165664088025593,1
0.175839769312194,0.0266284742644959,1
0.152292255680999,0.0199530888958321,1
0.098461293679135,0.0106795786740836,1
0.0845971187066993,0.0124604389682237,1
0.0924515757770376,0.0183754217839429,1
0.130005614723224,0.0187932377242712,1
0.196327241222385,0.0263823325740839,1
0.225028804167863,0.0215362768873499,1
0.207853824010593,0.0184969902274907,1
0.155564725283722,0.0147617877979115,1
0.0889712157683233,0.00746309918732892,1
0.05720767726664,0.00814034192391587,1
0.0559446455568852,0.00903926692772378,1
0.0558650045303936,0.0100921250203038,1
0.0540066854259169,0.00821821393962444,1
0.0671353897666054,0.0102771696414773,1
0.10273944526098,0.0121716360710722,1
0.148970846538967,0.0297021427380878,1
0.157412798311103,0.0469388537108484,1
0.134067075707825,0.041121211424219,1
0.115953031118506,0.0363382240058078,1
0.10262148777191,0.0320715029779627,1
0.0861526986687293,0.0269323752660653,1
0.0577456454416544,0.018776922706525,1
0.0219949166660235,0.00647973714239706,1
0.00733335105431545,0.00806349798700819,1
0.00696729321717461,0.0174992480011881,1
0.00699547314900217,0.0241367637467905,1
0.00567890336474361,0.0283767437165962,1
0.00441856647119801,0.0355972560074256,1
0.0049265985800621,0.0643098903439935,1
0.00484738620485381,0.0691792520894936,1
0.00514881223154839,0.0678493377962394,1
0.00454726222276039,0.0672692768721518,1
0.00373645893241288,0.0629343161489243,1
0.00801025290691913,0.0470078135953252,1
0.0169299072215638,0.0742705890737848,1
0.0212600717215188,0.0504810975711256,1
0.0210189688732628,0.0502550277529428,1
0.0235894520951715,0.0450597889825792,1
0.0236232401244252,0.0352408738857069,1
0.0184011458473387,0.0141894585632296,1
0.0176318002707487,0.0138619534169176,1
0.0157616421126748,0.00666442074326924,1
0.0175696347376121,0.00779482765857856,1
0.0173940746836904,0.00662044357304156,1
0.0174945291058331,0.00697542464951272,1
0.0172196089784673,0.00737634680517722,1
0.018307046277422,0.00631161914179503,1
0.0226445368940232,0.00916393741399716,1
0.0250883687232838,0.0103944148736905,1
0.0295112925261399,0.0161544831651612,1
0.0344381367233984,0.0188941107451264,1
0.039272313734265,0.056936364914732,1
0.03167040436296,0.0517584913513032,1
0.0284636315168837,0.0622586512913125,1
0.025806266090022,0.0600416002963963,1
0.0159021823884215,0.0464761074680397,1
0.0103976212398907,0.0728402505125349,1
0.0106682289053289,0.0962359305407235,1
0.0106639745656721,0.0980359752465138,1
0.00868875408869603,0.0481929850413937,1
0.00607651853367486,0.0297107468445511,1
0.00443564301041217,0.0242188749090158,1
0.0039151551591697,0.0255474322447049,1
0.0036304894512167,0.0231691848955757,1
0.00276187457490713,0.0190015027419193,1
0.00268472289035317,0.0235483129533362,1
0.00285672051570656,0.0235733498879427,1
0.00271675474642993,0.0159665027442279,1
0.00277388889081442,0.0162142700047653,1
0.00308951875230364,0.0215943182259986,1
0.00327975907379055,0.0259862033655714,1
0.00313916646320751,0.0264715997481982,1
0.00306096915735828,0.0247420711423228,1
0.00334408794035694,0.0270813999956448,1
0.00374234377577245,0.0315206461627666,1
0.00270715071607015,0.0344833836975853,1
0.00115386792605205,0.0247594092958462,1
0.000917797918957387,0.0559259426046632,1
0.000973377809271705,0.0568684651698657,1
0.0009660973237145,0.0399971316311272,1
0.000838543451172943,0.0421176416577086,1
0.000572370912407151,0.0305592777471101,1
0.000527917975651192,0.0327152114603135,1
0.000618393125029776,0.0356149084976625,1
0.000802576054632034,0.0414916982676213,1
0.00115347815678047,0.0493585010181575,1
0.00153503742404194,0.0553601572149639,1
0.0015839644212878,0.0370599389241103,1
0.00159477583386055,0.0363118378341382,1
0.00143655135818306,0.0471424100635535,1
0.000962264166534811,0.0363958899042505,1
0.000605866628583734,0.0285268609450352,1
0.000446210459507125,0.0253484194287053,1
0.000420234749665986,0.0256186548355838,1
0.000437734044029714,0.0242761070920761,1
0.000531457883088554,0.0284640751835155,1
0.000932002423062896,0.0346354523843243,1
0.00243717904119112,0.0339754896307622,1
0.00680748095388893,0.0436575064578291,1
0.0124998162853623,0.0739943429109781,1
0.0137093659054371,0.0542682827591388,1
0.012935417398032,0.0541449746976819,1
0.0142853045083893,0.0445075711275624,1
0.0158352982900329,0.0499644701084002,1
0.0128973419012404,0.0312943308484983,1
0.00864295979099205,0.0232248539538635,1
0.00520529521694856,0.0158593842058503,1
0.00301408480805164,0.0113598941715687,1
0.00267814035032092,0.0134188919831875,1
0.00271141391588567,0.012136841114879,1
0.0024329225215328,0.0138792135600164,1
0.00166848398156506,0.00967188689482307,1
0.00203205877578366,0.00492208928727947,1
0.00880465009198696,0.0157168634293734,1
0.0133442810751449,0.0151509110319718,1
0.0127501818954601,0.01210702631023,1
0.0125228272445825,0.00874533392181022,1
0.0188226928144834,0.00881343226722939,1
0.0404350753187274,0.0138874248202934,1
0.0877776704963301,0.0234135850451506,1
0.132860035392451,0.0307396924846649,1
0.128684947220363,0.0191877192633118,1
0.11235421425515,0.0200912607854509,1
0.10925534371896,0.0184713722212616,1
0.104479344342802,0.0216954646468266,1
0.074069470785279,0.0173858324593389,1
0.0372948073964919,0.00796051387780549,1
0.0283478907252551,0.00633270878721956,1
0.0346834569054052,0.0127181358564213,1
0.0305043255290902,0.00573898928653474,1
0.0342834896485928,0.0068231637763271,1
0.0513199696784319,0.0174147867327177,1
0.0637434099601106,0.0193295224521842,1
0.0690884885288289,0.0165423702042731,1
0.0689117222874627,0.0148310938192826,1
0.0693176239374532,0.0155291338306338,1
0.0670546611950734,0.0179391771672294,1
0.0532513216172314,0.0127670105991634,1
0.0475579469866057,0.00770417271981941,1
0.0699454182703744,0.0199787021789793,1
0.0942911983940045,0.0260167357786783,1
0.112641557225051,0.0292673926579257,1
0.116219231225756,0.0140218365937985,1
0.147201760278616,0.0157365192928146,1
0.179449413973518,0.0186711950330644,1
0.182551775063449,0.0160728359291743,1
0.171071124419991,0.0141291136925588,1
0.165404432704997,0.0160435093967408,1
0.159165347832144,0.0193275992498384,1
0.146345897065657,0.0161777715503921,1
0.124923211154553,0.0122822223924054,1
0.097716343807656,0.00714923677090101,1
0.100065876410691,0.0146872715108935,1
0.105603165716918,0.0173721107296746,1
0.117232636334801,0.018038069747185,1
0.148935618734628,0.0323952979157701,1
0.181586495227325,0.0480196457899972,1
0.193716698971574,0.0484689198386694,1
0.175545542855675,0.0596883260226844,1
0.106979481427444,0.0416831435110446,1
0.0447752826213973,0.0340106971699159,1
0.0246840756026,0.0380186966978743,1
0.0195577665675548,0.0336551859901733,1
0.0209126154130047,0.0456734316871985,1
0.0265175089702046,0.0539725469886563,1
0.0301301984126721,0.045442513169961,1
0.0294000657769585,0.0262151404973074,1
0.0277306433919625,0.0184687873135684,1
0.0279617724898472,0.0203087320937985,1
0.0255873328661322,0.016699798665023,1
0.0225470245029363,0.0171840184326821,1
0.0227182865214242,0.0228220203238082,1
0.0239209903115958,0.0225617458024643,1
0.0249691719619055,0.0273526282581007,1
0.0189926294249344,0.0161319164315516,1
0.010482325290827,0.00954356879888458,1
0.00704476787081585,0.00401690238726172,1
0.0141277013867793,0.00819902813171655,1
0.0231396851018421,0.0127799844847201,1
0.0237559259396154,0.00934167624279819,1
0.023660132731526,0.0102279847245536,1
0.0222694537583934,0.00914244018146825,1
0.0223264720241142,0.00808595827465906,1
0.0277403448970187,0.00951892093058887,1
0.0318054220090859,0.0124510617021048,1
0.0267770439864617,0.0109856045774577,1
0.0260236564409016,0.0134282847624767,1
0.0277716835949703,0.0163868419843443,1
0.0262727434891721,0.0110489779716507,1
0.0304991996666705,0.0170597285685458,1
0.0351176528852621,0.0160093892349726,1
0.0476700702233362,0.0226619179248407,1
0.0617048629972365,0.0380542613609435,1
0.0649798879418692,0.0480879041174084,1
0.0624084897988409,0.0465519263960913,1
0.0613649942778778,0.0444457189058864,1
0.0468517429168013,0.0547158642073814,1
0.0228173592264581,0.0291812922867358,1
0.0110508972724934,0.0412046026504442,1
0.0072716792436319,0.054743011158658,1
0.00622671951010539,0.0615156068000615,1
0.00561411132349737,0.0246402794453856,1
0.00659699562043747,0.0162075083603418,1
0.00873164204483111,0.0230586259662405,1
0.00891448571809104,0.0156586551153467,1
0.00899889870437451,0.0150170424784673,1
0.00955967597593344,0.0159820615226634,1
0.0100265595575041,0.0163570213476565,1
0.00999247337084515,0.0153774898312112,1
0.00949563951125395,0.0145348297865661,1
0.00846762304775931,0.0132170522575636,1
0.00829154189855921,0.0179886848983622,1
0.00703393979207886,0.0249055575695804,1
0.0040688419828872,0.00979643734902499,1
0.00411913037091399,0.0211999016914568,1
0.00465753427932545,0.0315630236940723,1
0.00388064684781775,0.0185596317787931,1
0.00408849312323406,0.0135079774986642,1
0.00675104358338848,0.0233869527959783,1
0.00893569111805867,0.0301105658468521,1
0.00934144907066134,0.0263470545324062,1
0.00934900915100168,0.0271308851983973,1
0.00946301813662412,0.0278380536237055,1
0.00822172880009321,0.0367328277124668,1
0.0051497695671794,0.0240055910615084,1
0.00259416645786536,0.0148214151823641,1
0.00153457064146664,0.0112186641252146,1
0.00212441649725597,0.0243831511302529,1
0.00225532951889745,0.0215499140171478,1
0.00208240864049875,0.0154452399195084,1
0.00221748245276844,0.0190127360156736,1
0.00206369068601092,0.017304324298337,1
0.00212209653028305,0.0149396457443469,1
0.00294658401810664,0.0194767267224477,1
0.00319717329228215,0.0176802329061265,1
0.00306000321874681,0.0181705855524713,1
0.00317750805662784,0.0224116168112667,1
0.00306154970474054,0.0231643822206156,1
0.00286113809921867,0.0233317691878854,1
0.00388574860024479,0.0316533379920047,1
0.00758534945219126,0.0354812449314884,1
0.0113279590368858,0.0459633511966521,1
0.011087660343196,0.0344297699914033,1
0.011503172631083,0.0305281644069899,1
0.0150746088895359,0.0319312685739053,1
0.018402882243698,0.040137104743454,1
0.0194884377296048,0.0375241463000268,1
0.0188491923953697,0.0378380786963056,1
0.020602633713233,0.0324217771204841,1
0.0285819293872994,0.0378303966343965,1
0.0384903279926326,0.0465427862929782,1
0.0395054163666886,0.0269884806267569,1
0.0297838308185265,0.0274738721156549,1
0.0216449013605245,0.0178945088523242,1
0.0207013347925464,0.0174736960896688,1
0.0178819220490958,0.0130058931460867,1
0.014799875171952,0.0110709101416881,1
0.00998966615851655,0.00720794471176163,1
0.00796078209760497,0.00691189549134264,1
0.0103168140065242,0.00686909057733449,1
0.021866289074082,0.0112331077131882,1
0.047244655614007,0.0268920067696823,1
0.0778194170054853,0.037872925631364,1
0.0994542623190807,0.0436769182578555,1
0.107440283652841,0.0477811232496203,1
0.0982641122015964,0.058062380682565,1
0.083181522528908,0.0519156845657159,1
0.0610367589061071,0.0284559951697744,1
0.0380078815287681,0.0150066301801241,1
0.0271719214311307,0.00997873987744503,1
0.0260243416815465,0.0107983160560715,1
0.0274794497323919,0.00773721217480686,1
0.0362549350037003,0.00988719465488447,1
0.0411063270928034,0.0103613089516469,1
0.0418512647552567,0.0096391825540597,1
0.0429078625358862,0.00656084961457195,1
0.0659629572775909,0.00889280136750978,1
0.107668431069824,0.0162989681370451,1
0.141042304310189,0.0235829473758494,1
0.155014319904899,0.0230133004094195,1
0.15834038546202,0.0196310160123509,1
0.157383273420146,0.0289221139153393,1
0.126516204935525,0.0306154177766795,1
0.0787783127645054,0.0185833357517854,1
0.035760332033531,0.00895976591678996,1
0.0174103827245214,0.00597845919841535,1
0.0371239767870145,0.0158702472062187,1
0.0634875662390466,0.0292875166851601,1
0.058858220060194,0.0194015519373579,1
0.046131672944342,0.0184418574318211,1
0.044668038078495,0.0189055795731923,1
0.0563093056375092,0.0122951179425633,1
0.110234621423453,0.0158155343249953,1
0.176997928515814,0.0239985362330125,1
0.185199425897383,0.0179372237312109,1
0.163523447892379,0.0174261874400705,1
0.170120656748689,0.0183444373464279,1
0.193146528129761,0.0198888465877275,1
0.176646489249376,0.0186419088374163,1
0.118824056842081,0.0131901901660855,1
0.0531718487487336,0.00482430304559129,1
0.0205377010029183,0.00159346467620953,1
0.0212072239178988,0.00791345390326289,1
0.0223455676692872,0.00667913453252135,1
0.0234312517132973,0.0142695838260214,1
0.0154976314697311,0.00514918309578838,1
0.0150875372060869,0.0119825468511293,1
0.0154703115598058,0.00899549173034025,1
0.015668438600135,0.0180888382486499,1
0.0159229978142076,0.0145403143881187,1
0.0182429493800312,0.0255728407946159,1
0.0214639036327438,0.03792357197435,1
0.0297550858181133,0.0416860824840571,1
0.0339430573278594,0.0415383404453016,1
0.0266726895602374,0.0268672532451376,1
0.0193156659835646,0.0157182834693682,1
0.0221860076756021,0.0145234844725075,1
0.0312766498396713,0.0200032669583397,1
0.0382395238544064,0.0235983942217383,1
0.0423105600501454,0.0277850260631666,1
0.0457988344955902,0.0285387734829216,1
0.0469934161600671,0.0319187387351985,1
0.0380476529237552,0.0282288926995488,1
0.0243483555888075,0.0201732858144805,1
0.0152003650920897,0.00832462501361979,1
0.0179107864204304,0.0111359944835276,1
0.0277328776691057,0.0184263388650622,1
0.0405386112610273,0.0234118444046636,1
0.0551319599530098,0.0303831063333898,1
0.0670551204320591,0.034471193770647,1
0.0755663030401412,0.0345023949805333,1
0.078675787220265,0.0416639269437478,1
0.06078280478837,0.0564473585508731,1
0.026465069423545,0.0196509849935226,1
0.00826800965256466,0.0332014959491917,1
0.00314665087996707,0.0393605203311119,1
0.00121501339474465,0.0297454167148018,1
0.00060018177549457,0.0255308692901267,1
0.000514022184357875,0.0228750624538748,1
0.000591531590358227,0.0262894328174522,1
0.000603882730133889,0.0201184583220219,1
0.000554309941342031,0.0197613709027666,1
0.000520956421113669,0.0134507654640509,1
0.00100363228468449,0.013419304018277,1
0.00358774940815647,0.0245016020127548,1
0.00765047994872219,0.0481119631348572,1
0.0101749089522752,0.0594607093833611,1
0.0101066503937357,0.0407303495865528,1
0.00941912621789736,0.0379898361359848,1
0.0090578613759665,0.03114445568019,1
0.00846883171077516,0.0347401350048385,1
0.00603985824405028,0.0259314518487808,1
0.0034519530223124,0.0177421716414805,1
0.00205770687854165,0.00830012614622673,1
0.00374392370464426,0.0137599247702415,1
0.00676932918711249,0.0232544250929408,1
0.00913642341784348,0.0284419849253715,1
0.0108583074261188,0.0330177644129282,1
0.0123548785267066,0.0346117725930498,1
0.0131976169463789,0.05444133923276,1
0.0111183103619008,0.0584175568544422,1
0.00806461448309726,0.0475606846088072,1
0.00417683259185134,0.031281831832952,1
0.000779624119193784,0.0144807828140969,1
9.57657917843612e-05,0.0293307134387258,1
0.000141323126615464,0.0644105292023779,1
0.000282612399607822,0.0880582664192269,1
0.000395353988914311,0.0745692590651262,1
0.000481627013209113,0.0176142742749998,1
0.00156803295084409,0.028029947967991,1
0.00240987805930293,0.0273061389795387,1
0.00247101866890044,0.0242706855701186,1
0.00249775272829976,0.0212236901871957,1
0.00307129246746891,0.0216585653141275,1
0.00440480209657142,0.026403689325477,1
0.00753647251171949,0.02476978721212,1
0.0164293927928677,0.0313155409840364,1
0.0281436894913496,0.0438170216938856,1
0.0417749596605952,0.0563396545563131,1
0.0581379779411662,0.0699594597879444,1
0.0605214939904867,0.0353181001379732,1
0.0500226729696315,0.0342152861182327,1
0.0372937485554976,0.0255430262604628,1
0.0308210850605746,0.0185209738238441,1
0.0273043480546491,0.0184444307148707,1
0.0178699176206722,0.00524187003466409,1
0.0186771114132923,0.00795105715030336,1
0.0196263241669713,0.00620689250589517,1
0.0212016385983192,0.00716411451879731,1
0.027116449102356,0.00866541480321922,1
0.0443942459180127,0.0158873388424138,1
0.0682970038946106,0.0236336577413059,1
0.0967847104644345,0.0314463344381105,1
0.121608473322971,0.0330624874626677,1
0.127847811161101,0.028295859505513,1
0.116950499701891,0.0433246268142038,1
0.0843904480085099,0.0321012595347021,1
0.0860124712363725,0.0186042874286981,1
0.129426683718833,0.0270695890806434,1
0.126831499020361,0.0122745023740898,1
0.109247327482684,0.011607944016094,1
0.103255803291213,0.0110679189932839,1
0.103946793309946,0.0103657324311454,1
0.108269629085856,0.0109632840887019,1
0.102285800970182,0.0119585860177201,1
0.131679146631117,0.00674054779721964,1
0.242757180071098,0.0177901290439224,1
0.27048658047092,0.0101156593348832,1
0.276185265289031,0.0101310054211446,1
0.290986573456463,0.0129930924603047,1
0.280573712499949,0.0131112464118717,1
0.263767543699726,0.0127568397262347,1
0.259744193189538,0.0130959683491154,1
0.264244233835317,0.0135623345993567,1
0.271756466458141,0.0146087724147435,1
0.254704417416287,0.0301838082405767,1
0.121014852806014,0.0158923852150859,1
0.0468832247908459,0.0241919915753043,1
0.0426378056036624,0.0300405911821721,1
0.0462929345181952,0.0271136874678041,1
0.068452826007309,0.0230706604351172,1
0.0947952373535651,0.0317919726338272,1
0.0898809495464791,0.0207373120810932,1
0.0671564113012825,0.0183446525333296,1
0.0418763991274686,0.0102487047399017,1
0.0411461105141087,0.0131040976671248,1
0.0541293715180515,0.0159560238014392,1
0.0697799583389128,0.0221212360177229,1
0.0780021648165005,0.0282008615107232,1
0.0742664724397577,0.0257597604965206,1
0.0725370592088243,0.0285356914669029,1
0.0722266289458868,0.0268095389094842,1
0.0624019691254271,0.0406945622280984,1
0.0332676892748714,0.0240748054407102,1
0.0149526167178102,0.0200376630564688,1
0.00920326785112197,0.0123029478377547,1
0.00671400970220302,0.00722424894509697,1
0.00758223058013997,0.0122774197748132,1
0.00655281103894521,0.007964412732589,1
0.00602854285843839,0.00487740931935548,1
0.0106482895639806,0.0203594708623109,1
0.0115762969010402,0.0159079916677526,1
0.0111187542038116,0.00820189418002649,1
0.0190804331150639,0.00677538066012676,1
0.0380978016339598,0.0173945852377972,1
0.0470474031848916,0.0152349299569563,1
0.0491931417304632,0.0165551935852554,1
0.0514789622593244,0.0175554529333858,1
0.0537600014187248,0.0228908573323334,1
0.0492255669082009,0.027072320029627,1
0.0361739728713558,0.0227814205239167,1
0.0207005572610107,0.0167210760399471,1
0.00896491793533257,0.00214038812532949,1
0.0188591987477019,0.00882691962051726,1
0.0358801008466228,0.0176474149508291,1
0.0471863651622578,0.0220331358351842,1
0.051124431819296,0.017580631832117,1
0.0507072613070429,0.0180770503839153,1
0.0499337201846903,0.014963604148781,1
0.0549279095018437,0.0147727319202147,1
0.0533217625972803,0.0158150943853195,1
0.0324414198007665,0.00710149429515684,1
0.0169222250962964,0.00506310395465779,1
0.0171992036635449,0.00834841317839368,1
0.0220474276744534,0.00970052456888609,1
0.0270594772249196,0.0118084578205897,1
0.0275283598113834,0.0179918544344148,1
0.0177320521123371,0.0120320357858415,1
0.0119880720484842,0.012809892695606,1
0.0148375689968847,0.0212982881435523,1
0.016947988104974,0.0241923388641477,1
0.014191737288072,0.0342315395885664,1
0.00706245435528448,0.0197584150134748,1
0.00414512162199606,0.0271964532799732,1
0.00392459952119116,0.0261288155588142,1
0.00345091736204642,0.0218090864926805,1
0.00188252008638215,0.0141586262129309,1
0.00066996348527014,0.00852720179489692,1
0.00165696601031079,0.00630177278534874,1
0.00925130462791813,0.014760027424545,1
0.0190304712064217,0.0247674694988713,1
0.0197590921057254,0.011172529270704,1
0.0197777151110436,0.0116000920060754,1
0.0188493946410373,0.010952681529713,1
0.0172457734728256,0.0102001830870535,1
0.0165659400603889,0.00960197919431803,1
0.0156968264341627,0.00933731250123344,1
0.0143370751396684,0.00756395816921585,1
0.0149182043774023,0.0117832326539077,1
0.0120427203228365,0.0192554015050697,1
0.00346105239552055,0.0033539327682711,1
0.00151144672181516,0.0169073456569915,1
0.00128579163762257,0.0235335448770414,1
0.00133494019341537,0.0274710439180236,1
0.00169671490081872,0.0307822777610926,1
0.00166500567431704,0.00921629733265344,1
0.00338133230292521,0.0143088164384814,1
0.00503639121994207,0.0185227351331914,1
0.00504537324912596,0.0105364431825362,1
0.00566213505035066,0.0112873875559515,1
0.00624806173812038,0.0118588070977959,1
0.00625755971161806,0.0106437162441367,1
0.00623945267235352,0.0106300831864876,1
0.00635938352250582,0.0104950809558397,1
0.00639214517442357,0.0105915532826138,1
0.00638405709477312,0.0182327459125573,1
0.00431856611657445,0.0165716724209775,1
0.00176243134408622,0.00812489450204761,1
0.00126487334472398,0.0109217744947763,1
0.00135015943060558,0.0137144415308563,1
0.00130731264703331,0.0129065033442998,1
0.00119635783002019,0.0163167613773565,1
0.000822925574838954,0.0108303088952182,1
0.00133939792725325,0.00956736869182745,1
0.00405193829886924,0.0173819663023899,1
0.00969944337525477,0.0293101249875255,1
0.0196605023864178,0.0540327739984657,1
0.0289411294348261,0.0686419332190828,1
0.0338232100000242,0.059890712163991,1
0.0361551557682005,0.0664384079521904,1
0.0461628600089234,0.0324084121914545,1
0.0696657632205764,0.0549037642315987,1
0.0705460005958097,0.0273020784968342,1
0.054581310457042,0.0206203573235215,1
0.0418907719537734,0.0170228707524144,1
0.0335580710062801,0.0141939568148996,1
0.0319265439217374,0.0127127156028127,1
0.0451319242746427,0.0117829014884318,1
0.0854383998122893,0.0187163797605418,1
0.127645559632047,0.0296716851110806,1
0.132401362986835,0.0163425825826847,1
0.130872990193086,0.0175325606189744,1
0.128002574631702,0.0169768158022758,1
0.117293120017407,0.0157512696801836,1
0.119981564296039,0.0133294334383071,1
0.14930680534502,0.0171371161655748,1
0.151503589832127,0.0146060818628137,1
0.141685425705956,0.0142117109172198,1
0.140371241904369,0.0125089089200671,1
0.157544288103401,0.00749782271656204,1
0.191261238878621,0.014617993569042,1
0.175331574451166,0.00974648632877593,1
0.156259504393354,0.0104954087210488,1
0.155251015652892,0.0123991527733018,1
0.151002492655695,0.0177530750696046,1
0.119477180760261,0.0139922018435393,1
0.097136400794141,0.0110915179278342,1
0.0931933876268664,0.0113688268486251,1
0.0885087646472829,0.0106328122268998,1
0.0821501264785108,0.0165329845027183,1
0.053678862849654,0.0104046501151177,1
0.0402850482243556,0.00863454937773086,1
0.0390735636700603,0.0082175538761648,1
0.0383991260775826,0.00775900078983997,1
0.0391808345797401,0.00735670924682131,1
0.0403191202342982,0.00793326766136812,1
0.0346669653115054,0.00626046408846967,1
0.0270170677922842,0.0054051868824455,1
0.0248930479003366,0.00847350849771939,1
0.0193533935404695,0.00861832052813338,1
0.0192468021737351,0.00525317940745231,1
0.0346679431968763,0.013847670792326,1
0.0428400658559595,0.013028613700058,1
0.0403713523380705,0.0107922430621465,1
0.0414945381629014,0.0126748787855902,1
0.0436386069735328,0.0147027144110031,1
0.0700724136592021,0.0143708367857635,1
0.154747392144805,0.0214874269362851,1
0.265075002998458,0.0323763816598861,1
0.371825324653808,0.0423783253493395,1
0.431409352098724,0.0822027238141962,1
0.395573092843462,0.0862149879053736,1
0.320341296862552,0.0710117477944039,1
0.262284292011093,0.0537573355258653,1
0.186080167354354,0.0325103190940842,1
0.0790840061882005,0.0046973405194948,1
0.0278555188031625,0.00745427519986784,1
0.0207739091785323,0.0137489814044136,1
0.0206425363893594,0.020070228966972,1
0.0235558137043067,0.0193349615293747,1
0.0290522063467218,0.0252908802663738,1
0.0296174730127888,0.0258419907569962,1
0.0241340038703843,0.0245723791511179,1
0.0154042740587105,0.0176430048431482,1
0.00927387634344398,0.0130818418739366,1
0.0119328532839894,0.0241496572131849,1
0.0248498132185103,0.0264086659300073,1
0.0498800371888895,0.0698094956915238,1
0.0508219578169231,0.0175921065607668,1
0.0483739855571284,0.00846514606483488,1
0.0608230892075883,0.0120070698331814,1
0.0659995407736233,0.0121674367972692,1
0.068524418444416,0.0125898147199273,1
0.0748905798569159,0.0134224411295285,1
0.0893277149763057,0.0154796647304714,1
0.108800202187166,0.0199366848883921,1
0.107635424711935,0.023485707955777,1
0.0624464292136795,0.0146847453073327,1
0.0196996314626895,0.00792340560066995,1
0.0153242941398238,0.0238058967719727,1
0.0173882359228693,0.0219172243037311,1
0.0141630543457733,0.0163986875898207,1
0.00848991848869094,0.0100125374961212,1
0.0052461364694999,0.00391177055999882,1
0.00782932747072457,0.00878781358696599,1
0.0131704853875607,0.0139658106489208,1
0.018982329053638,0.0230104722383083,1
0.0207638634191933,0.0249421191445699,1
0.0198435925321304,0.0229158017191,1
0.0200370726165316,0.0227854088346691,1
0.0196493528955392,0.0232820960075067,1
0.0138881265826206,0.0238802231273459,1
0.00562344595970458,0.00846290584442389,1
0.00401501774075482,0.0289085125097325,1
0.00551754767986258,0.0822162648048679,1
0.00682335278674592,0.214626721644515,1
0.00652836807225398,0.223656708344045,1
0.00557408169015546,0.181561715832153,1
0.00422322988452299,0.0447119773329697,1
0.0035290683739715,0.0215095650226092,1
0.0035725963064652,0.0190759784557516,1
0.00331230800650521,0.0153353794132777,1
0.00333333408250511,0.0147091051678887,1
0.00371460609976937,0.0135143752568153,1
0.00430572354628439,0.0168135740393107,1
0.00406431250836101,0.0152342167765652,1
0.0035352340637764,0.00788694623449802,1
0.00416661929248619,0.00940172379496917,1
0.0044621424104411,0.00925666014538505,1
0.00429552037169149,0.0078550112892065,1
0.00514445447156838,0.0099698517923685,1
0.00678963611935146,0.0171219248320942,1
0.00734776592694139,0.0174225443246893,1
0.00815203908008789,0.0209101929602101,1
0.00832202563075022,0.0164856041718645,1
0.00849038177068255,0.0172281504268826,1
0.00774688159230058,0.0234234342513305,1
0.00462195640227874,0.0160415580509333,1
0.00261160269130465,0.0149435298057882,1
0.00241715261958568,0.0171454014943598,1
0.00307313340814954,0.0170638331528526,1
0.00436501556137486,0.022492861970332,1
0.00490376057409886,0.0174155539437749,1
0.00489679710275124,0.0130900633233559,1
0.00515130757831922,0.0179665085932869,1
0.00443517914236882,0.0137706665046505,1
0.00406623684693266,0.0143434268367467,1
0.00425268067300828,0.00789672891032348,1
0.00678486830401387,0.0111883236556925,1
0.00954322239213728,0.0172942007063486,1
0.00922825898063337,0.0191129585168861,1
0.00685819162803888,0.0157105370831196,1
0.00531152294760078,0.0146855751822261,1
0.0068097479440052,0.0172294811227784,1
0.0104912527357905,0.0275799195580736,1
0.00958748048264916,0.0214868421765836,1
0.00566785524138812,0.0144121273832025,1
0.00502792026996372,0.0158114984249153,1
0.00574727331798029,0.0165056161000792,1
0.00561163672952619,0.0186205748756115,1
0.0062330790701724,0.00949564601014851,1
0.0175608987275812,0.0127321778691583,1
0.037814541841918,0.0256716744008762,1
0.050537021788791,0.0275558655968304,1
0.0576478659224507,0.0302695315221165,1
0.0635130740469397,0.0403089921964971,1
0.0566081557364757,0.0267760449875924,1
0.0506086344185488,0.0243713738521425,1
0.0667156132645292,0.0196605442279967,1
0.0712170094738751,0.0166940541484598,1
0.0490270733440855,0.00718031494782686,1
0.0465899045442294,0.00895243047580088,1
0.0464854309099015,0.00819830521713137,1
0.046342835190213,0.00850500760821886,1
0.0474202625451294,0.00810572276097258,1
0.0595807305482017,0.0105231035330915,1
0.0571880624652012,0.00805355920665508,1
0.0499665699622298,0.00733947965124657,1
0.045890011871863,0.00985222406905032,1
0.0498860616254245,0.00556635501892853,1
0.0992336119700813,0.0230431247763241,1
0.11552086631163,0.0188757972416531,1
0.109626855154655,0.0171051118251292,1
0.100268873188017,0.0136733919564831,1
0.0963372296468993,0.0155328276490856,1
0.102349856395278,0.0112075750693868,1
0.118782089672208,0.0194019957084904,1
0.101874666438805,0.0188218322519843,1
0.0896551615081013,0.0186111406087878,1
0.0892146516825255,0.0215327166556499,1
0.0906994875314435,0.0162044798210578,1
0.110119642076772,0.0178740270312739,1
0.134102792712721,0.0198857206139046,1
0.131292668328205,0.0186379996402842,1
0.111221510776677,0.0155079916688384,1
0.109557560829925,0.0223164313363355,1
0.118294193887458,0.0196269830596582,1
0.149301809501439,0.0184894923882985,1
0.163716802676884,0.0209405731239657,1
0.132793217207537,0.0147182901462818,1
0.117624058514648,0.0185973230567278,1
0.126764945336738,0.0221939388263377,1
0.14543619016586,0.0253289672306173,1
0.13990033318025,0.0434842895544382,1
0.0957254733329753,0.0289920811370842,1
0.04848125265169,0.0113159384634796,1
0.019634636549482,0.0052932629631873,1
0.0221339962455173,0.0197979156789372,1
0.022898254820422,0.0118823404660206,1
0.024061881622156,0.0120511163796126,1
0.024401553761168,0.0115921315415358,1
0.0238063975476744,0.0133276248498561,1
0.0267067648579904,0.0102007673199016,1
0.0462157770628588,0.0124613260413937,1
0.0749572532065674,0.0199022644809132,1
0.089451190283544,0.0244382670800416,1
0.0792491726155169,0.0238300023906855,1
0.0548159499895586,0.0148214950805628,1
0.0379435482083011,0.0121214730036936,1
0.0348796749152782,0.013913436757893,1
0.034667204730985,0.0141805269680541,1
0.0328162174158762,0.0132678630050024,1
0.0359117324594299,0.0285519733121826,1
0.032852515386763,0.0700381601059093,1
0.0177583348628697,0.042810383464706,1
0.00930152406443733,0.0138898398920883,1
0.0290255553332124,0.0157773824223332,1
0.0516683246281312,0.0208305403987668,1
0.0514559746792667,0.010572763842816,1
0.0507206101756145,0.0107166803188796,1
0.0495729205244468,0.0100799242957469,1
0.0485140209920909,0.0101023026994268,1
0.0508139709257886,0.0094752450492229,1
0.0560873804150618,0.0106573363323877,1
0.053450408519181,0.0091860564549903,1
0.0515554557749382,0.0118477093748536,1
0.0391938161830567,0.017354693211317,1
0.0195441646856011,0.00770219536170753,1
0.021179851955293,0.0169723053188588,1
0.0304745797100424,0.0212918404662346,1
0.0377297101473411,0.0299289517970915,1
0.0374672432557914,0.0261060621724803,1
0.0392229233014607,0.0308955491903657,1
0.042835179107736,0.0312230809587158,1
0.042892605883895,0.0456230807091746,1
0.0285774612918633,0.0442731353030989,1
0.0113217389682331,0.0263522906060077,1
0.00600519393978786,0.0736098506110774,1
0.00455135354428679,0.0674960922308237,1
0.00326563637640166,0.053498460774466,1
0.00257150293342658,0.0470986980304375,1
0.00192746986827099,0.0392914206851717,1
0.00151157110539851,0.0107996432985956,1
0.00383795849711088,0.0219737644793523,1
0.00654394920726086,0.0411348212303941,1
0.00674229777283339,0.0432668552330556,1
0.00585604479393319,0.0355875828470889,1
0.00519999033214421,0.0319501751878847,1
0.00535512843226977,0.0294968615940037,1
0.00500956528641017,0.0212746837366647,1
0.00400092645333369,0.0147255158093372,1
0.00253774876982226,0.00925265474487447,1
0.00180670290916251,0.0102708112650336,1
0.00210499418767815,0.0116993386780376,1
0.00304127128227645,0.0173156483149537,1
0.00320743465806573,0.0109066255260567,1
0.00347285864178438,0.0107371087943606,1
0.00396576874485304,0.0133293791133388,1
0.00421853571465749,0.0174962262102261,1
0.00409210605910087,0.0184916992110172,1
0.00404305706410816,0.022591885811989,1
0.00435333705912521,0.0219908137013126,1
0.00563456767811413,0.0302869681625378,1
0.00586495090420831,0.0443917510092943,1
0.00373359481848495,0.0350129245908424,1
0.00267779336467625,0.0565046210907738,1
0.00293957597583622,0.0788943704947656,1
0.00359000237188535,0.0858316212921048,1
0.00395559241670271,0.0817144876182739,1
0.0034645245901611,0.109349320026562,1
0.00241219796336896,0.084863199944227,1
0.00162541548587902,0.0510604929645761,1
0.0015509581748732,0.00729745111829082,1
0.00478613363856003,0.0141404712103478,1
0.00927416114284759,0.0244193642193015,1
0.0109285379011948,0.0215555739613355,1
0.011805867203532,0.024649598960123,1
0.0144908097666129,0.026146861915111,1
0.0166790953129484,0.0284245723231429,1
0.015562167475289,0.0263181952676851,1
0.0120508471420331,0.0247038834431546,1
0.00724288040000456,0.0174283338024321,1
0.00382341146588688,0.00850708619863931,1
0.0044168243096068,0.0100686540142575,1
0.00560427151393195,0.010434148717928,1
0.00648202773252479,0.00471730201554075,1
0.0127564593079106,0.00858387175104373,1
0.0225393237276247,0.0165994752539692,1
0.0316083168394612,0.0226906491542143,1
0.0405902142144401,0.0283772833541676,1
0.0505522905350953,0.0341624068490287,1
0.0524067482237824,0.0246153800919943,1
0.0488881339230042,0.0296427711323259,1
0.0431908551850097,0.0255187551191024,1
0.0295941168154405,0.0165441285013466,1
0.0174246129982515,0.0130561691302218,1
0.0190106833055599,0.00907201490563647,1
0.0426202319982161,0.0156668637800622,1
0.0696434430886884,0.0229407318378713,1
0.0741358870339879,0.0176024677263722,1
0.0709464003518647,0.0178404189097614,1
0.0592874920888747,0.0173883494644233,1
0.0460341571659962,0.0109039059017751,1
0.0739475819876213,0.0139602801579185,1
0.116248640750093,0.0217120374473627,1
0.114063350668208,0.0183841345191839,1
0.0979059179372609,0.0177113157192232,1
0.0975757939793122,0.0204512735510659,1
0.100691198774616,0.0194531301387239,1
0.0928866155816589,0.0229833433657564,1
0.0609129767885276,0.0154217406968472,1
0.0301874590026909,0.00524299283397608,1
0.0299722132963426,0.0133747530327619,1
0.0295346497022455,0.0204722126836648,1
0.0185684113514669,0.0133714365547592,1
0.0139610064037845,0.0117540806796355,1
0.0133782402749852,0.00643099257008476,1
0.0185994404711739,0.00893934622297897,1
0.0290725955278758,0.0139188939674155,1
0.0328853712362055,0.0111629978963024,1
0.0348311383348749,0.0118008346564088,1
0.0363164512530332,0.00728182002076149,1
0.0450230823078135,0.009619612482598,1
0.049413643448509,0.0102585289078678,1
0.0490525848954015,0.010958117929583,1
0.0381044785112071,0.00883360655454652,1
0.0304993013866573,0.00743937276361219,1
0.0363082933328527,0.00872532157293942,1
0.0444059437738461,0.0109195677050927,1
0.0447190122964563,0.0118085648833324,1
0.0355002730310537,0.00928732841224174,1
0.0376531005611051,0.018082212308598,1
0.0441090525026191,0.0211182473184148,1
0.0658619366212347,0.0251474063189636,1
0.115450382725112,0.0362027840542575,1
0.171292366652565,0.048805074783097,1
0.219450642428542,0.0552395025597234,1
0.252039157197685,0.0451076844696509,1
0.246412779046303,0.0265882151691809,1
0.200536541438864,0.0312152243418878,1
0.127760867184352,0.0172519968154434,1
0.085521758081218,0.0139267361621377,1
0.061294537487846,0.0104246471769168,1
0.0473148212639903,0.00888986372359361,1
0.0476457604989993,0.00995706438737851,1
0.0500693933470282,0.0115520596004321,1
0.0498769427547793,0.0113931481614041,1
0.04917079119188,0.0106014322127642,1
0.0485592204047286,0.016014179710778,1
0.0368831179213007,0.00943802131532356,1
0.0351202367859766,0.0236776001103882,1
0.0356275376576917,0.0315225508995179,1
0.0354975569333494,0.0277069256944261,1
0.0377040330176765,0.0324341585351459,1
0.0299547412443649,0.0186962339354837,1
0.0210401583378963,0.0124952688257915,1
0.0135954876065764,0.00706946192932925,1
0.00991415449557101,0.0074323556482675,1
0.0112376205527368,0.00557683379666947,1
0.0217394858533298,0.0116476939576432,1
0.0276979054226406,0.0107951220669006,1
0.0281919804170899,0.0117560826402657,1
0.0293422626982289,0.0131290090388404,1
0.0247999766865478,0.0110641943083918,1
0.01999578816594,0.0102929347113451,1
0.0216106284162455,0.0111056702460564,1
0.0223916409771102,0.0142436996266064,1
0.0117772057101718,0.00638731823773471,1
0.0055902061853186,0.00783495808000777,1
0.00631430735788951,0.00645167189806149,1
0.0128811201904092,0.0248138555286376,1
0.0145304482800352,0.0232220937460176,1
0.0147960547825593,0.0271311934565956,1
0.0164317044468795,0.028574900544453,1
0.0166623250521421,0.02701537048196,1
0.0160041161124566,0.0263944640697848,1
0.015631968093212,0.0252759780105879,1
0.0126444560905976,0.0261478951358393,1
0.00478510692818753,0.00921333272269759,1
0.000707612736967231,0.00270630486752393,1
0.000553970497586501,0.00982017940858766,1
0.00113250628247147,0.0177620002166501,1
0.00186940861131816,0.0318925734802313,1
0.00227983286233141,0.0317230977680795,1
0.00235058457468889,0.0133303348821101,1
0.00531888068004982,0.0058687840788379,1
0.015129931979103,0.019738535954866,1
0.0245963320250967,0.0285903105574689,1
0.0328880328986308,0.0349785543989787,1
0.0388504085993125,0.033444066563229,1
0.0373978304144715,0.0174792540316595,1
0.0354214400246645,0.0183875067063883,1
0.0325159477529776,0.0172864864832757,1
0.0296800748205069,0.015977152647132,1
0.0286882126957309,0.0168198224695972,1
0.0288759488995606,0.0244321540316302,1
0.0260150054143856,0.0252332892381725,1
0.0212230111617967,0.0214008230424266,1
0.0145134549467536,0.0163292625623645,1
0.00645702019495245,0.00675941583850229,1
0.0048586547276042,0.0200092255080844,1
0.00478009519136436,0.0223396209007694,1
0.00449664013770796,0.0212748199079138,1
0.00442426174000381,0.0219804079379772,1
0.00465202309737192,0.0280935815056501,1
0.0044379145099352,0.0502470526451655,1
0.00277877043950552,0.0502788426710843,1
0.00084368804597083,0.0309681224131156,1
0.0003159720847119,0.0287413226468762,1
0.000425944170672975,0.0383182072752747,1
0.000593305789135947,0.0473625572975473,1
0.000784097748586433,0.0525010784756111,1
0.00137047400186934,0.0587875185829551,1
0.00222428971380677,0.0747294147055891,1
0.00247134656045226,0.0489948061654474,1
0.00236708142917785,0.0352402889434223,1
0.00203921694350893,0.0332997434568468,1
0.00141183794781171,0.0212310362775986,1
0.00136902743006444,0.0161435490514044,1
0.0026444419037236,0.0143250354698185,1
0.00704143023263618,0.0240271534215246,1
0.0120004080716404,0.0335302742750975,1
0.0139138951039774,0.0300529220213128,1
0.0144580370819359,0.0299663858969328,1
0.0142812108625457,0.0351387786279753,1
0.0130108304840228,0.0353872991825463,1
0.0119238613543704,0.0306165584257344,1
0.0116994881452557,0.0315795486110932,1
0.0123992419867302,0.0309750586836795,1
0.0262440362120811,0.0169180290845496,1
0.0668279147067799,0.0322875087468995,1
0.102693678163569,0.0390311705064453,1
0.110614353266691,0.048356655544053,1
0.110131384397604,0.0515039828284,1
0.122619037431285,0.0463243895944523,1
0.157675797052698,0.0526970685873475,1
0.172344048041022,0.0374480875325281,1
0.135605988808557,0.0189555676792538,1
0.0924666523585042,0.0143896813354498,1
0.0683102852515949,0.0143472848733669,1
0.0676433946219823,0.0116235750927699,1
0.0775984109013425,0.0137644891240468,1
0.0726882324626611,0.0111601997598766,1
0.0679279639080043,0.0113762679142841,1
0.0679538710049249,0.0142877539100522,1
0.052727360436249,0.0115274876215311,1
0.0305658487259346,0.0059722882261341,1
0.034040665507183,0.00599031519131431,1
0.0547611612269953,0.010996750540725,1
0.0743526511804934,0.0134123383623037,1
0.0951925049512625,0.0250123955525322,1
0.111689572619194,0.0277106040519864,1
0.119742695583386,0.0252700093219057,1
0.122454211400578,0.00985730683101649,1
0.173124386968489,0.0108735725109001,1
0.218073089049371,0.0148809680988514,1
0.214895339958036,0.0117946445247266,1
0.214532990480972,0.0100342879672468,1
0.258526805940202,0.00551678314527878,1
0.405150704925824,0.0131114274731826,1
0.505572776477545,0.0139619599030225,1
0.566726108959885,0.0173602200607731,1
0.649634563054561,0.0213821653813402,1
0.640373598376305,0.0203586295097694,1
0.522148914819203,0.0215936006044905,1
0.344329014007149,0.0147053270523631,1
0.213890023111812,0.0100167488691372,1
0.149208640883262,0.00830558753691611,1
0.146130931139575,0.0147441563104616,1
0.126364491786037,0.010512206956226,1
0.128279803109542,0.0104578297719857,1
0.13474984090952,0.0111631994834598,1
0.11730680455347,0.00838675948748109,1
0.158440361893059,0.0204990227179623,1
0.236459356133838,0.0212840375189172,1
0.325021437734188,0.042091374387061,1
0.339991046839826,0.0281237474206137,1
0.29303691211098,0.0232368083715097,1
0.187330558876402,0.0143990383829214,1
0.114104491469979,0.0134999416653781,1
0.0959471029573104,0.0098203008235313,1
0.107884475766823,0.00712492724637284,1
0.157537194952727,0.0113864204595282,1
0.209741684542677,0.0151724854802997,1
0.253619841098867,0.0184361700232426,1
0.290222872192243,0.0180566925586754,1
0.316689303329429,0.0298955121534492,1
0.287921625963449,0.0454860761274874,1
0.197744632833731,0.033095813487579,1
0.0954293539349012,0.0156637993865278,1
0.0215168915087418,0.00365185598543279,1
0.00280487541561519,0.00423909186551409,1
0.00217260058719874,0.0138150670069813,1
0.0021954257356402,0.0133099876685935,1
0.00214521578141033,0.0125367825453102,1
0.00221915672903142,0.0107872369015029,1
0.00468700921480743,0.0145253117758223,1
0.00807798547315601,0.0261125267477014,1
0.0118421460766256,0.0328281202250793,1
0.0304693386234683,0.0351231122287579,1
0.0490874160861059,0.0346351643452209,1
0.0463639151709463,0.0157502952475024,1
0.0418935586297761,0.0124594159278808,1
0.0614685688672138,0.00844918629735605,1
0.088871552140895,0.0121540009737998,1
0.078993451655871,0.0040353866200156,1
0.0905900226882925,0.00590214488189866,1
0.0949324372532946,0.00606543815864403,1
0.102653602071635,0.00638041511020471,1
0.131827556362851,0.00915493812879417,1
0.162683924098766,0.0109929078254233,1
0.186011691508461,0.0129443509758127,1
0.196296561585633,0.0140152781499416,1
0.153249357605501,0.02086958474055,1
0.0560556512281098,0.00574538119078591,1
0.0295043465836135,0.0135125726270428,1
0.0314238848665495,0.00972338178886966,1
0.0268888715566225,0.0104781479196351,1
0.0169398616572056,0.00597864149035415,1
0.0161943457864889,0.0147668323302814,1
0.0141911768491563,0.0109925467933064,1
0.0144456506981098,0.0133421914688545,1
0.0159846436017888,0.0174870148486643,1
0.0153369711174262,0.020983104041738,1
0.00998757870421622,0.0147468765276693,1
0.0042736855479969,0.00778524437929172,1
0.00364060673939581,0.0215823063798242,1
0.0034981388779715,0.0199732873943142,1
0.00346053396684696,0.0273732876626788,1
0.00266908046599104,0.0334843088401699,1
0.00132283906923075,0.0209945138776502,1
0.000979762335050137,0.0245514082635617,1
0.00128971840257485,0.0245157854760931,1
0.00185505999445433,0.0358635780776807,1
0.00135278876304973,0.0222900132292082,1
0.00111164816695627,0.0165143971371987,1
0.00215227306590306,0.0213838747117378,1
0.0040709142636744,0.0298865386842716,1
0.00844901682146771,0.0358572220858986,1
0.0153485625930746,0.0519877537423924,1
0.0187360729137059,0.0496156472898984,1
0.0162865962239521,0.0219898902961698,1
0.0144086392575715,0.0180376822294528,1
0.014665272816795,0.0168190816062404,1
0.014306689650008,0.0165892731217486,1
0.0138290384742173,0.0170925196731457,1
0.0145701649737767,0.0219108976111191,1
0.0155161192825812,0.0272220317166599,1
0.0142018410276786,0.039276508779555,1
0.00895219102121927,0.034506875988642,1
0.00329279814533109,0.0187685715092483,1
0.000775273102277863,0.00675993787924643,1
0.00114711603140729,0.0161464501105698,1
0.00126569258861913,0.00591617399355977,1
0.00249338435324376,0.0119746718469697,1
0.00318007818489528,0.0136720971347788,1
0.00331701951462111,0.0138666870441071,1
0.00384093705163234,0.014924568668059,1
0.00445016175157287,0.0179693119874614,1
0.00407788249929422,0.0142496845159052,1
0.00401402185799875,0.0141820572481573,1
0.00385532863575569,0.0156725490128549,1
0.0023116223251901,0.00980979158753781,1
0.00199385397294408,0.0174757155015433,1
0.00260341648013576,0.0230704605290149,1
0.00295332927468632,0.0318598705866502,1
0.00257637392717328,0.028292647971439,1
0.00239511510987521,0.0287789768213328,1
0.00239840619510233,0.0266079431292818,1
0.00214611556324553,0.0347301858457557,1
0.00147728231089472,0.0263826639320908,1
0.00169787479896458,0.0876040434741312,1
0.00174450707895507,0.086863795938707,1
0.0016748107056205,0.0512394364100762,1
0.00304529739063001,0.0209554118848481,1
0.00624047333163778,0.0375537734503518,1
0.00646927222167709,0.0155857473615332,1
0.00565239758845329,0.0119064856219912,1
0.00531167902700823,0.00892901675879072,1
0.0089476620814017,0.00394486790111284,1
0.0217678043542456,0.013276875594805,1
0.0315364628447355,0.0191463902236138,1
0.0395024189692393,0.0240369832459444,1
0.0477680559235888,0.0294230710608677,1
0.0471277945319864,0.016635526108071,1
0.0475197143442272,0.0144118177694515,1
0.0467129101094931,0.0156784888090336,1
0.0367681289147108,0.0136870070833921,1
0.0265559077057506,0.0100779957544455,1
0.026422012487001,0.0183449621283852,1
0.0255442119602141,0.0172233837074312,1
0.025047212701744,0.0127993154992287,1
0.0290585023828511,0.0145587302579914,1
0.0294522311351275,0.0125127316911969,1
0.0285928496750557,0.0116280428741673,1
0.0296183946658713,0.0130094037223044,1
0.0313245923333709,0.0144057015366749,1
0.0332261219435365,0.0138589100528716,1
0.0326344267263311,0.0133210897045478,1
0.0312621455004892,0.0131677913437898,1
0.0332516775218156,0.012723144495583,1
0.0379433748850036,0.019308451922331,1
0.0289525770558195,0.0162716064000975,1
0.0123215534736984,0.00600530968079766,1
0.0079634707142471,0.00880874118148208,1
0.00869731595347681,0.0104655669361704,1
0.00900105627349743,0.00985733590236429,1
0.00889252796599758,0.011046591692643,1
0.00722365178121917,0.0104546655861685,1
0.00454584618438969,0.0038703457343364,1
0.00644797733110063,0.0103828549086781,1
0.00816833155655051,0.0122505592605721,1
0.0086675371448506,0.014557407548072,1
0.00739873790569475,0.00818326073693285,1
0.00839357010736298,0.0135308303072937,1
0.00931553662156654,0.0124619285155708,1
0.00932966345600888,0.0122073202797282,1
0.00888761444533962,0.0130623318045045,1
0.00835554438796477,0.0128944418628376,1
0.00825136758675948,0.018932702072399,1
0.00712509708208757,0.0129819088244765,1
0.00715178544332804,0.0131154948042762,1
0.00724931896003054,0.0127917722089216,1
0.00722656197213497,0.0147376471019267,1
0.00656969988433675,0.0119555632299208,1
0.00678176510549301,0.0156146994842984,1
0.00796842881230358,0.0195276832036295,1
0.00884325531340286,0.0195892300784857,1
0.00856945941227305,0.0165951973576529,1
0.00818972332790831,0.0161929576414249,1
0.00793401502318696,0.0268122010016674,1
0.00554832500593364,0.0259749603829462,1
0.00268536320113594,0.0150773735602869,1
0.0020993271090247,0.0180940174864364,1
0.00308625220307834,0.0343930749393937,1
0.00356277741668024,0.0354743615238289,1
0.00255761902043521,0.0273317355128742,1
0.00120365783059139,0.0179440491710983,1
0.00115382425802821,0.0184548026419298,1
0.00154760072055904,0.0191796059629655,1
0.00183163394593731,0.00715763867586106,1
0.00408082693746377,0.0145625889493724,1
0.00678298832220405,0.0212903789818956,1
0.00895680031996979,0.032503339092256,1
0.00948822539711256,0.0309748425813768,1
0.00845815916609835,0.0213556219054627,1
0.0080547274619071,0.0220136361823977,1
0.00773059959492405,0.0218219663372983,1
0.00656013860753807,0.0195563156052672,1
0.0060163797806757,0.0185498778248946,1
0.00645168491547912,0.0254523238213943,1
0.00605526781715271,0.0221787310759219,1
0.00516135600518813,0.0186220622098288,1
0.00392326658884198,0.015049142662876,1
0.00288639318004857,0.0104742607196273,1
0.00369006959145029,0.0156421192942854,1
0.00497774399266258,0.0188978664606843,1
0.00516470549437926,0.0151416516327926,1
0.00473238809665377,0.0168261120031679,1
0.00276595136494076,0.0103379395296155,1
0.00158372377651137,0.0112379231389187,1
0.00161743106754061,0.0172960774851096,1
0.00163929891411725,0.0212515954630389,1
0.0015601531369586,0.0159338425094966,1
0.00180172637661048,0.0222400676627376,1
0.00172655968952683,0.0101184449541119,1
0.00360579593468836,0.0115584542129439,1
0.00611795435814565,0.016590635396421,1
0.00643358527517557,0.00688882273516646,1
0.00800502395443752,0.00953920552425428,1
0.00853470502302415,0.0073527025192363,1
0.00889517307003292,0.00751820480341155,1
0.00907893758136097,0.00723326451969446,1
0.00880087242562698,0.00755088331573889,1
0.00765473359964108,0.00605490885733825,1
0.00738805800784948,0.00843007134010643,1
0.00587031969547977,0.0103410925777809,1
0.00319675738519567,0.00424131595255857,1
0.00404919372978181,0.0157492067974195,1
0.0044844790299487,0.0147173216963776,1
0.00435713377147278,0.0178012410839132,1
0.00392347914198937,0.0189300802853133,1
0.00340817478189561,0.0169099882444161,1
0.00325135981198531,0.0147128512334529,1
0.00318048355507683,0.0144962117894611,1
0.00309075275985993,0.0130548138089145,1
0.00295638706090466,0.0126628415581219,1
0.00291237858125196,0.0172064450631289,1
0.00242838924715262,0.0118177069427357,1
0.00256788975148279,0.0146007300275528,1
0.00277799420542456,0.0162430763106122,1
0.00262425799285618,0.0138312404744933,1
0.00285799152176816,0.0163706244704625,1
0.00316495093747532,0.018780530104252,1
0.00324167370246654,0.0191355858080708,1
0.0032878360656382,0.019908849257558,1
0.00336350406840722,0.0148824032867521,1
0.00394907563241528,0.0171356675602856,1
0.00401426324470651,0.0211859517733836,1
0.00283081269951956,0.0161013521414061,1
0.00226363777499336,0.0188739314779975,1
0.00236769602722981,0.0275530410868245,1
0.00203662890574098,0.0221698871185066,1
0.00175995316025906,0.0150146673937338,1
0.00226581578515677,0.0173456008088484,1
0.00300939245277253,0.0214108778003318,1
0.00356150789864423,0.0424554319836985,1
0.00279364793683853,0.040368468634289,1
0.00234856681984064,0.0492671387315664,1
0.00291048820824069,0.0485942188133453,1
0.003551193820583,0.0723770379661637,1
0.00307842246678172,0.0634168747199714,1
0.00196977759849655,0.0469809136656202,1
0.00145828422506494,0.0579729265860311,1
0.00150058168944029,0.0620826261863163,1
0.00165349882278157,0.0678134899098396,1
0.00152571724948234,0.0674554771915508,1
0.000943600704219722,0.0534701581874462,1
0.000296420266488977,0.0337122977324903,1
0.000188541143344503,0.0656067756856153,1
0.000262317554743721,0.0982150322151119,1
0.000297932422432378,0.0982864068088696,1
0.000241011981096319,0.0760731479792514,1
0.000144019221777302,0.0560822149596899,1
0.000111954811382348,0.0774188851236981,1
0.00012087447069254,0.0906810570115921,1
0.000125340277427769,0.0918163430883829,1
0.000119458353225662,0.0732079487681984,1
0.000147757935817828,0.0917913069333803,1
0.000176306159300363,0.109436494026137,1
0.000176523206590341,0.104054048237159,1
0.00017272874223917,0.124126663166429,1
0.000171800545914534,0.195388402487737,1
0.000144827943106601,0.192357058828748,1
0.000121052027254044,0.164855780829506,1
7.71224198963314e-05,0.121906465556769,1
3.59722352837715e-05,0.0895428584047468,1
3.41347503194196e-05,0.157090932365211,1
3.04853238279642e-05,0.174215116417455,1
2.14096938097364e-05,0.140543136156399,1
1.84851767736831e-05,0.157746122161116,1
1.87494005345486e-05,0.157313215425293,1
2.38439098802017e-05,0.159590364449881,1
2.81770973168802e-05,0.141814909643975,1
3.4506841365832e-05,0.0917720412040454,1
7.13704238728078e-05,0.128254354333082,1
9.13078784768109e-05,0.126292903155641,1
9.10389626016553e-05,0.11261399294511,1
9.07304500739157e-05,0.109194271698815,1
9.69816247985922e-05,0.105609800462864,1
9.910099000909e-05,0.0925063424374635,1
9.34454284054874e-05,0.0843195438000489,1
7.7250009881131e-05,0.0819237458547499,1
6.25287732754436e-05,0.0755680925515491,1
8.13131269161094e-05,0.131121783840596,1
7.55627026398609e-05,0.131849035803467,1
5.71513808737292e-05,0.0970367375337784,1
6.67412964989379e-05,0.117901484348402,1
7.09378409085368e-05,0.117547803006529,1
6.04622683588224e-05,0.118007219759038,1
4.89856435864297e-05,0.116645384955478,1
5.30486056669239e-05,0.135158740850913,1
5.5334176444773e-05,0.130285127936465,1
5.54261292109717e-05,0.121075253188546,1
5.63903068919293e-05,0.112951473456366,1
6.96413723560584e-05,0.130388950744914,1
8.66975283485651e-05,0.180248460834758,1
8.9626552478629e-05,0.200611304915064,1
9.64656420930968e-05,0.258423485132496,1
9.45582037363392e-05,0.297391484112862,1
7.8687809412023e-05,0.255270235827107,1
5.87057246787299e-05,0.201443900862763,1
3.48653602496357e-05,0.103765795826519,1
2.62977908310823e-05,0.0794468514628106,1
3.86904884742919e-05,0.114028018989339,1
4.36224089365089e-05,0.13564450087448,1
4.53684901823417e-05,0.139575926172528,1
5.27255880118157e-05,0.150672758284947,1
5.94165101485394e-05,0.153912821222551,1
5.97816939253643e-05,0.12733652112464,1
6.03012544605162e-05,0.13445727587249,1
4.16227176181489e-05,0.109097227351821,1
2.61614554002175e-05,0.0877132128157099,0
3.9978314729511e-05,0.124842383697312,0
5.36257764290798e-05,0.152176973791351,0
6.10645098314124e-05,0.158577125703347,0
6.55368306681338e-05,0.156372768115092,0
7.03500115906248e-05,0.161657841970752,0
7.7627852745485e-05,0.189258843346674,0
7.88566496681555e-05,0.326536712280176,0
4.55478432907601e-05,0.305733447984137,0
1.3206238750792e-05,0.254158457984927,0
7.41529873372067e-06,0.644529455052755,0
7.85115100633191e-06,0.72148263987945,0
7.27789342308912e-06,0.675944800232818,0
5.72015588361026e-06,0.549418764977456,0
4.23878176412325e-06,0.386840684758812,0
3.6619676285562e-06,0.357804194482152,0
3.56299288019662e-06,0.37702144437312,0
3.92170325998966e-06,0.403015074509458,0
5.2679348668644e-06,0.44733404532347,0
5.83041640647364e-06,0.438869820875221,0
4.51200861179313e-06,0.353022062059967,0
3.20530288724548e-06,0.293918080126803,0
2.67058317803682e-06,0.267470218333275,0
3.16543101699557e-06,0.297749926909566,0
4.15732658603729e-06,0.394910187463724,0
4.1295712313465e-06,0.380979408084327,0
3.98703022030446e-06,0.374669271937105,0
3.92236331983707e-06,0.377966666733625,0
3.20646435205056e-06,0.365290820939683,0
2.32830259907066e-06,0.322942723518865,0
2.19401673035287e-06,0.327714672438702,0
2.25440919981122e-06,0.340524884452607,0
2.26354781397047e-06,0.353570086578283,0
2.09614840326519e-06,0.339981531273134,0
2.01377228673761e-06,0.325608140191753,0
2.46008745615921e-06,0.379169622591887,0
2.96248736037979e-06,0.449878301197962,0
2.78647756841347e-06,0.43994846800226,0
1.71358197117356e-06,0.348491844488635,0
7.65923363327783e-07,0.249728737637215,0
5.57649272457255e-07,0.243880961790133,0
5.81160261934434e-07,0.249003749186116,0
5.64328504550164e-07,0.233531179655098,0
5.661273642184e-07,0.241538983018055,0
5.47308951582117e-07,0.233886446931042,0
4.14873285660141e-07,0.204605649359328,0
2.05654203711648e-07,0.146575905768731,0
2.11621107728166e-07,0.136706467904423,0
1.04929626057923e-06,0.262176192340197,0
2.21537223357292e-06,0.354133945996321,0
2.36247029410107e-06,0.312152594515137,0
2.34351496645789e-06,0.311344804424705,0
2.2403846626189e-06,0.311988179247287,0
1.88665225344802e-06,0.281626576624103,0
1.61436160839283e-06,0.260181459756582,0
1.54226475604813e-06,0.255342308925996,0
1.29225610326299e-06,0.226399851719457,0
1.28594829938135e-06,0.239375774161446,0
1.43045838874884e-06,0.292700698524389,0
1.05963704400507e-06,0.262939241166643,0
1.04229509319985e-06,0.281816188147204,0
1.04446769383284e-06,0.273727938832506,0
1.11377629056425e-06,0.28282850940851,0
1.15189000560744e-06,0.285306865210978,0
1.0513481354798e-06,0.277227079276744,0
7.85800091963273e-07,0.235670931035666,0
6.23398541560201e-07,0.21394312683464,0
6.33289725706654e-07,0.23644412080829,0
5.52588967810688e-07,0.233643962526384,0
3.21917246995365e-07,0.165890228211022,0
3.39852650347341e-07,0.168231270487702,0
7.11654602572897e-07,0.267617324908852,0
8.22704236928693e-07,0.269422402026836,0
6.75877231110132e-07,0.22435043443733,0
7.36834474971906e-07,0.241228362697579,0
7.73255717007616e-07,0.238695131440819,0
7.6918665850891e-07,0.229462308036377,0
8.19373871896218e-07,0.233912499777641,0
8.08538621773199e-07,0.237822531378737,0
7.98963822304832e-07,0.249061257224925,0
8.46930329786457e-07,0.273163854578998,0
8.10400388336492e-07,0.26789263295811,0
7.69214411550847e-07,0.266375081738401,0
7.50579168991352e-07,0.294325368900112,0
6.80550843372373e-07,0.256284981378349,0
1.23769732321986e-06,0.351168811255401,0
2.02857390910417e-06,0.451196368697219,0
2.01446611278604e-06,0.366877327088405,0
1.8332845414547e-06,0.336474329025595,0
1.58935010444824e-06,0.286230247203212,0
1.37222556850391e-06,0.257837663657743,0
1.11328598682336e-06,0.220462468411318,0
1.14102052673269e-06,0.215162429611797,0
1.39116008136563e-06,0.240430019704525,0
1.74818076345538e-06,0.277380631259404,0
1.78241876619203e-06,0.294807938032621,0
1.16595200940636e-06,0.222284255051033,0
1.0713950827725e-06,0.234907692425336,0
1.05687700398441e-06,0.237512419209448,0
1.0606403164711e-06,0.246835114864348,0
1.03454274348537e-06,0.247432389666185,0
1.05458090231479e-06,0.256448563461187,0
1.04852102560778e-06,0.251668179437728,0
1.10409972994211e-06,0.259839512772823,0
1.07329524104381e-06,0.261880102569571,0
9.11309986269798e-07,0.241891487079823,0
9.47631779905233e-07,0.279040800709459,0
9.0467932200028e-07,0.263524036028927,0
9.24664750050025e-07,0.263099956208334,0
8.85192986154707e-07,0.258846641633368,0
5.73598020557221e-07,0.211310760239888,0
3.51758705338441e-07,0.163303226466971,0
4.06635720262453e-07,0.195671870082863,0
3.95441993347743e-07,0.193462077036447,0
5.91428887451233e-07,0.226233419821823,0
6.30149469011449e-07,0.205319643856341,0
5.51325741851842e-07,0.180351928584885,0
6.92686323510154e-07,0.206863666969687,0
9.50662412084786e-07,0.237791738236427,0
1.30088174869711e-06,0.278377767535499,0
1.34666270412617e-06,0.230746227706979,0
2.06095245803101e-06,0.273042486524672,0
3.06277205231881e-06,0.335704511249908,0
3.63783219563543e-06,0.362593682224011,0
3.64361777977796e-06,0.348086594407359,0
3.70805664275077e-06,0.352544607335528,0
4.24774183371271e-06,0.376278371133569,0
4.90056785074042e-06,0.401573215600868,0
4.87311084125046e-06,0.388943457161522,0
4.35620997261764e-06,0.368123647858233,0
4.28662569566965e-06,0.432874158239735,0
3.70685169817999e-06,0.441941062776112,0
2.5873402414994e-06,0.348096959344277,0
1.8509909822107e-06,0.292646061421889,0
1.57378249812422e-06,0.283327898590885,0
1.54877191928102e-06,0.295617374551798,0
1.23948831952622e-06,0.287607693748526,0
6.92808436894677e-07,0.216094432107112,0
6.06433569574632e-07,0.234603143558309,0
6.56345102745363e-07,0.256557159383831,0
6.66573023800653e-07,0.24572862141601,0
8.65682597672788e-07,0.231904664299771,0
1.70467925787077e-06,0.315700267588516,0
1.89152522506151e-06,0.271640476033021,0
2.08537097197954e-06,0.256156109936688,0
2.55318781064206e-06,0.286938080113639,0
2.66912290548022e-06,0.285076124583606,0
2.64711104281835e-06,0.286341534265567,0
2.58812889044112e-06,0.281936653880381,0
2.57964016001389e-06,0.274606252057534,0
2.62372817988478e-06,0.273072346526841,0
2.53722934897742e-06,0.300891982192589,0
1.62443226221048e-06,0.245944775440974,0
9.26720787906879e-07,0.204816695520546,0
1.11842168723385e-06,0.240703414259576,0
1.33289765787597e-06,0.263324708138821,0
1.48711159835684e-06,0.283984180952617,0
1.81619791863531e-06,0.302727641548965,0
2.24023294598965e-06,0.331876240649433,0
2.49353172189645e-06,0.350951841519502,0
2.52369927848229e-06,0.356274671774519,0
2.20237779678718e-06,0.366793108158656,0
1.22405762820908e-06,0.277579109763777,0
5.21816857461314e-07,0.18004059874601,0
6.14506004372794e-07,0.234446470114725,0
7.97215843213481e-07,0.277329001962258,0
1.07141358480046e-06,0.324083985471011,0
1.21932110905178e-06,0.391616130672354,0
9.44871277333871e-07,0.35400985144254,0
7.1398585809563e-07,0.322649891466493,0
6.47626947171461e-07,0.311842326883228,0
5.10774384625163e-07,0.282729849004056,0
2.77493877867734e-07,0.20468384010207,0
1.59230302811037e-07,0.167505930796176,0
1.71865800254389e-07,0.165783997051701,0
2.22803270875401e-07,0.181668795283133,0
2.45753186354749e-07,0.193165592782457,0
2.36222791753481e-07,0.194913566597277,0
2.03723979644909e-07,0.186031948168442,0
1.93385046421869e-07,0.185644033424111,0
1.83137235686522e-07,0.187578606977101,0
1.47095285223955e-07,0.1575297459909,0
1.66951199077993e-07,0.163509812093612,0
2.05661604522831e-07,0.180920647742242,0
2.1300459686874e-07,0.189053187849047,0
2.32424325413664e-07,0.175425496146205,0
4.42696172752978e-07,0.222422505253916,0
7.18294980407094e-07,0.274642236336579,0
7.96494264123111e-07,0.269304022162327,0
8.40917170700044e-07,0.272438419904141,0
8.60280005508995e-07,0.26751333098838,0
8.79029498091133e-07,0.261400459543572,0
8.17312745981674e-07,0.257484490910664,0
6.81302488258174e-07,0.237880173314886,0
6.33378072890153e-07,0.2393434227733,0
6.3116199249146e-07,0.242696034440554,0
5.97654357308468e-07,0.234218907839309,0
6.78702490779348e-07,0.243042172950535,0
1.04208046967554e-06,0.321953431374528,0
1.34879783815254e-06,0.377692284000929,0
1.51000832050581e-06,0.42623612146988,0
1.46945002501864e-06,0.464018012613858,0
1.25185877541907e-06,0.411100678541588,0
9.06285298027052e-07,0.296141398207874,0
5.99105378851089e-07,0.229900331293099,0
4.20597350559708e-07,0.192322144224046,0
3.72625755020394e-07,0.183568128325897,0
3.84851895095171e-07,0.183568178704719,0
3.49701742380188e-07,0.172504657423992,0
4.1902514073396e-07,0.168363453849827,0
8.31275763931027e-07,0.234619201300095,0
1.03189325308175e-06,0.246182631394949,0
1.04015810897068e-06,0.238637198499886,0
1.00080984611198e-06,0.250192252906723,0
7.74443547202533e-07,0.22171743375315,0
7.3633260746354e-07,0.222071734185078,0
8.01339482694664e-07,0.23321384726687,0
8.048201767043e-07,0.240574372080306,0
7.91588913960694e-07,0.246232624603249,0
7.77529685465959e-07,0.243943382976125,0
5.96522033197426e-07,0.219964235269913,0
4.21589059258267e-07,0.181051591211514,0
4.33595025200341e-07,0.19219708622381,0
4.61394322207532e-07,0.195131398756863,0
4.64585922030321e-07,0.189196819597679,0
4.07109834728881e-07,0.179737932815242,0
3.69850450826665e-07,0.160311355028554,0
5.0928867178012e-07,0.187876596424144,0
6.45628265601276e-07,0.214803527364992,0
6.63436467511041e-07,0.23902972956067,0
4.2514191117694e-07,0.177510712392907,0
6.55388085349225e-07,0.22074931026691,0
8.16228527143324e-07,0.233538005399882,0
7.9009024969608e-07,0.223644757126829,0
7.82303208679174e-07,0.233036438646971,0
7.26979832330671e-07,0.212807858056828,0
8.37542400800468e-07,0.232323980197391,0
1.04044118999844e-06,0.266508136247954,0
1.10932424008681e-06,0.260345384232959,0
1.06469919885443e-06,0.246364170027233,0
1.04953863714549e-06,0.264357824290231,0
7.5650166814077e-07,0.238429011862179,0
4.76769969991492e-07,0.199701620460649,0
4.24586850338194e-07,0.193801125969898,0
3.26213417887258e-07,0.176882576569626,0
2.37716367960407e-07,0.146740968855394,0
3.26722223656108e-07,0.167264938002707,0
5.5846567444091e-07,0.210616639677395,0
5.81779617320335e-07,0.216712548252445,0
9.05350483064463e-07,0.214854036593316,0
2.89694762674347e-06,0.350033884457335,0
4.53808490744671e-06,0.38826941529377,0
4.34811533538593e-06,0.294205678515917,0
4.42571099043981e-06,0.291647779910459,0
4.5234849571849e-06,0.293852806558616,0
4.25110411474341e-06,0.283792938654189,0
4.3625117633402e-06,0.292796946978246,0
4.46802189052531e-06,0.292497193836456,0
4.66103134577962e-06,0.285265733739347,0
5.23033088269146e-06,0.326163730809548,0
4.38147680454805e-06,0.331695475174497,0
2.98933611570063e-06,0.28721237750839,0
2.95262947988367e-06,0.341453946319467,0
2.94732679867085e-06,0.35925867806938,0
2.71836420268816e-06,0.349525865330794,0
2.77062734361238e-06,0.358288088713608,0
2.77681950981929e-06,0.348216130412574,0
2.74643594205704e-06,0.368411412474998,0
2.38014898181512e-06,0.407383370035378,0
1.2190010239681e-06,0.268037671360112,0
1.04241396872948e-06,0.265144260619311,0
1.23997631051361e-06,0.284330367084332,0
1.19945178122747e-06,0.273320884209807,0
1.20060815797486e-06,0.266327942290495,0
1.36184223041377e-06,0.287430120642083,0
1.48493067181127e-06,0.298584222974956,0
1.51260970563673e-06,0.29665954563364,0
1.52219005571348e-06,0.293760156897465,0
1.53919526960986e-06,0.301012673044428,0
1.45030042608191e-06,0.310622745933648,0
9.01339705953825e-07,0.251931997560363,0
5.63431156194191e-07,0.215189949629286,0
7.00413232936196e-07,0.262089512527043,0
7.87862605529914e-07,0.267296640404771,0
7.69418396409086e-07,0.253470708286429,0
7.51013966648369e-07,0.247929860469616,0
7.4625570760822e-07,0.258558374704597,0
6.47075586738306e-07,0.238576521410477,0
6.58174953310428e-07,0.23038885907286,0
6.82690140355039e-07,0.234701215081354,0
6.93039712244155e-07,0.239330439382469,0
6.84964039591102e-07,0.23852010504383,0
4.91645137919183e-07,0.195062391621467,0
2.85259179001789e-07,0.147064615711236,0
2.90741329885803e-07,0.15360717437739,0
2.84587092836207e-07,0.151178978164545,0
2.2038736857476e-07,0.13050065471455,0
2.08205633367083e-07,0.141797444853604,0
1.47045329748468e-07,0.129017723998744,0
1.33660500172809e-07,0.132252912476422,0
1.30397204991682e-07,0.135214595654555,0
1.08305783609595e-07,0.125591135857238,0
3.37120363368615e-07,0.178520556503031,0
1.18578618337755e-06,0.350808181479879,0
1.79905208932645e-06,0.423311061170537,0
2.42582123782993e-06,0.48766359262359,0
3.15386724952169e-06,0.529107442146859,0
3.05528659435762e-06,0.40708378085304,0
2.84353042182537e-06,0.363070574276536,0
2.62787818475581e-06,0.339243273461363,0
2.2529109980973e-06,0.313554995739893,0
2.10648548628543e-06,0.293501546570728,0
2.57267229628484e-06,0.368272452037315,0
2.86762052477764e-06,0.421620307586374,0
2.77515432730305e-06,0.399011588264281,0
2.12680811379472e-06,0.352850815207223,0
8.71214704032289e-07,0.231662251959121,0
3.13478009492932e-07,0.152690305025994,0
4.74803204419537e-07,0.200396916110643,0
7.31986481096159e-07,0.26507224738189,0
7.9734905781478e-07,0.27341906583316,0
8.04786873053975e-07,0.279398998508647,0
7.9935421509475e-07,0.278008361942413,0
8.13210846383342e-07,0.255058318357922,0
9.48413953137166e-07,0.277322388304808,0
9.18784805564909e-07,0.280650873478429,0
8.4991655709891e-07,0.275628531284154,0
8.7537904797498e-07,0.291088760330936,0
8.27005958428974e-07,0.299562256878567,0
6.31173093708236e-07,0.256534277043884,0
3.71595192063123e-07,0.186291558528007,0
3.05340817596917e-07,0.158711472274995,0
5.36236875501234e-07,0.205862845538141,0
6.79642393799625e-07,0.239539472579482,0
6.03343730905613e-07,0.233412017545551,0
5.13949795173489e-07,0.209048685798638,0
4.82209566211202e-07,0.171898895223919,0
9.06110916413545e-07,0.234885240099876,0
1.10133321421166e-06,0.229847882858387,0
1.13696118179866e-06,0.230745945644944,0
1.1078685930372e-06,0.224046754164357,0
1.13483853664116e-06,0.230524758754512,0
1.0018667744591e-06,0.214546640302,0
8.9219739138898e-07,0.200984170869471,0
9.42028903288793e-07,0.205127998997734,0
1.02994498953776e-06,0.214224850563664,0
1.05415304291826e-06,0.199792034438322,0
1.79285807291674e-06,0.224443728830626,0
4.28726632838771e-06,0.386231344811503,0
5.67222267977895e-06,0.409592152348005,0
5.37195095529188e-06,0.362609064890117,0
5.35462565631183e-06,0.301626046538668,0
1.16925735044603e-05,0.165106050161066,0
5.50917129189892e-05,0.195292868484111,0
0.000124195366387107,0.295971320089171,0
0.000147117256382155,0.2282979331163,0
0.000140763428705961,0.210600754240341,0
