Activity,Complexity,Tag
1.59495533709708e-07,0.328368199094247,0
2.96557134698981e-08,0.261085535917118,0
3.40356353594079e-08,0.264788394131435,0
8.94000973607601e-09,0.213397033027098,0
1.56009311414604e-08,0.224632750366572,0
1.2563837364354e-08,0.208528927421823,0
1.1886983781093e-08,0.21133128554815,0
1.8527984756301e-08,0.231500931753538,0
2.64482301830179e-08,0.238528102736771,0
3.58855891094004e-08,0.242859308681303,0
2.59130983317862e-08,0.207818180906625,0
3.84240105679965e-08,0.225952269883155,0
3.27857202497458e-08,0.208800044662501,0
3.29544926028264e-08,0.208883323448636,0
2.92558347239228e-08,0.202759694467526,0
3.24781664495325e-08,0.211170512366523,0
4.48191302187033e-08,0.221444964857719,0
6.04152098900835e-08,0.239998140844433,0
6.24284964660976e-08,0.238163225070411,0
4.7918999078358e-08,0.223060222001419,0
4.42657686011111e-08,0.22666687481561,0
2.16564478865778e-08,0.188628127168069,0
1.64609644737968e-08,0.185599860483823,0
1.65335895107496e-08,0.188756654795508,0
2.49536098628129e-08,0.19582593233925,0
7.86318184758056e-08,0.274409383777331,0
7.47361615088113e-08,0.269414370265706,0
5.64429585015259e-08,0.248148370677613,0
7.03839518044544e-08,0.279740257974934,0
7.56588229094512e-08,0.282541392270799,0
7.53210576819225e-08,0.270169821357512,0
8.62868502048244e-08,0.287948246603164,0
5.83929554451343e-08,0.262531649699774,0
4.14650737297135e-08,0.236273902003406,0
7.19922876430459e-08,0.289975188431334,0
9.43482293065908e-08,0.331292846281892,0
9.32338613306744e-08,0.328308176441059,0
1.10141381573184e-07,0.341854104309845,0
1.018773433349e-07,0.30667324750869,0
1.24379931707677e-07,0.322979786992239,0
1.18490908594845e-07,0.32578604801381,0
9.34422540227408e-08,0.300951763520655,0
1.00760623131067e-07,0.305358877896133,0
1.06199929668921e-07,0.303241309629503,0
1.02848592943461e-07,0.309236224655045,0
7.41684660023468e-08,0.273076348256648,0
6.97459099818323e-08,0.262648572755795,0
4.73456435234669e-08,0.228068316257728,0
8.09372223563241e-08,0.295889582947804,0
1.02084118870273e-07,0.337104181392175,0
1.0229192350536e-07,0.314102873837039,0
1.23986007038618e-07,0.32944941536598,0
1.24482841679068e-07,0.342133391844129,0
1.21822251383006e-07,0.339141259269568,0
1.14902805428064e-07,0.331240039721678,0
8.26772829582956e-08,0.269264323948991,0
9.47030481865213e-08,0.286222695964044,0
9.84966037604714e-08,0.286680819920401,0
1.04177601716849e-07,0.301613866968691,0
1.12935754832054e-07,0.313328182106919,0
1.46325115571128e-07,0.371790643656623,0
1.31334955109871e-07,0.367008765623819,0
1.24676679960894e-07,0.353153035756353,0
1.28629819497623e-07,0.352160441576263,0
1.2512970435638e-07,0.348906535749562,0
1.18837862212676e-07,0.356080142810179,0
4.96096628940621e-08,0.260029786544723,0
4.16855950969794e-08,0.267867505139546,0
4.39772531456051e-08,0.272197836887207,0
3.84769356961401e-08,0.252066968114488,0
1.961875694592e-08,0.215681132500492,0
2.45925428774766e-08,0.214067527635388,0
2.34456112463274e-08,0.210005641347627,0
1.97110818916819e-08,0.208155507005461,0
1.35339108589561e-08,0.192203268023749,0
1.74836690680532e-09,0.175015959115399,0
6.93260372985589e-09,0.191528964281064,0
5.02678456682278e-09,0.186717942519351,0
4.23401025150297e-10,0.171762293509598,0
2.66250148124438e-09,0.17591759728373,0
9.6117913278899e-09,0.197689387496218,0
9.16023707485203e-09,0.196819368200501,0
3.96339378030612e-08,0.252219071253985,0
4.23765620477454e-08,0.241577812033977,0
1.46794973097649e-07,0.352715688980456,0
2.22265029716721e-07,0.384633689456382,0
2.09106960774708e-07,0.378965119891435,0
1.99859397238419e-07,0.366912970103749,0
1.91081470707283e-07,0.364094158168035,0
1.93095565861644e-07,0.389454936242091,0
1.96878536409965e-07,0.382779832886396,0
2.38439463427317e-07,0.416894342943219,0
1.88084144283407e-07,0.36613800309274,0
1.70577688007403e-07,0.373983108868569,0
1.05572766900417e-07,0.327278618863783,0
4.66670992763902e-08,0.276829752856396,0
4.87411027355245e-08,0.269954674394708,0
5.82191846077292e-08,0.291007392888212,0
5.60771135532319e-08,0.282089782530215,0
5.60033859094426e-08,0.26311231041061,0
5.74514762211544e-08,0.269701970282399,0
4.44218242220128e-08,0.257806981803107,0
5.70474075692012e-08,0.289089992546667,0
5.59312754223468e-08,0.287252497271635,0
5.15649523504848e-08,0.291263640606615,0
5.21327948711941e-08,0.295158423115254,0
4.9661411908247e-08,0.307260166714511,0
3.8747441906653e-08,0.279923435962777,0
3.57639348217922e-08,0.25699997086697,0
2.44423678263685e-08,0.232047354556136,0
2.87336401262377e-08,0.233921171926474,0
1.56640737596208e-08,0.20743673845726,0
1.07759236256858e-08,0.192873976919164,0
1.20084910544565e-08,0.192116289226428,0
2.05790539932399e-08,0.196985060283877,0
3.04808309190841e-08,0.201924444060189,0
3.01174117058302e-08,0.204201134100737,0
4.45174569882838e-08,0.223980251551262,0
6.76880780896307e-08,0.267824823505275,0
6.96645375973111e-08,0.266713212856371,0
6.78486176450001e-08,0.264265504292127,0
6.77882682974918e-08,0.253026874785809,0
7.6020845487379e-08,0.263476921233801,0
8.01757620751557e-08,0.261691181700017,0
7.23380651469185e-08,0.259049995459573,0
5.47257586146273e-08,0.242258561270855,0
1.02110213898733e-07,0.293044367942133,0
8.8966552352715e-08,0.277610886351041,0
4.6244212801097e-08,0.222009032604262,0
4.04189938705273e-08,0.234562224489877,0
4.37015279294005e-08,0.243749009009776,0
7.10402233934373e-08,0.287693165163089,0
6.28862253174189e-08,0.285085693027028,0
5.27981078362349e-08,0.282034498032438,0
5.52421461496414e-08,0.291652943953242,0
5.5491776337386e-08,0.29837589584434,0
1.92842260317777e-08,0.230983260406133,0
5.08823652116759e-09,0.203407620316447,0
1.1165511374522e-08,0.218978057288375,0
1.06614730360747e-08,0.212875368350377,0
2.47884393587309e-08,0.24003762853236,0
4.80413149300681e-08,0.279254787164604,0
7.60322390913546e-08,0.308044333737455,0
7.00752218902823e-08,0.279521110887001,0
6.00668596369263e-08,0.250059505130072,0
8.64653254980644e-08,0.259667718679787,0
1.0987263953361e-07,0.274995149287834,0
1.0342158096274e-07,0.268501757223859,0
1.11159014175993e-07,0.26755496810938,0
1.27100944858369e-07,0.279582748635026,0
1.18658504833967e-07,0.284133399640262,0
9.5684000735242e-08,0.266474165325755,0
6.88391261196353e-08,0.235903273767386,0
6.79676256762016e-08,0.240707978585772,0
4.16697175585364e-08,0.21551158221134,0
2.88412545534633e-08,0.208945316301155,0
2.66460378494551e-08,0.204302071934197,0
2.26548951304348e-08,0.194230663630404,0
3.00567683298321e-08,0.217105444375738,0
2.79691660530497e-08,0.21679796172907,0
4.43318515041684e-08,0.22697489731928,0
6.42397119625736e-08,0.259095521548743,0
7.15294868002776e-08,0.268955163471833,0
7.19858925233953e-08,0.278393733680806,0
7.21663525089412e-08,0.282784546056189,0
7.11454855927454e-08,0.285409357036943,0
6.54272195252998e-08,0.286507839877021,0
6.62458683477124e-08,0.292869151670928,0
6.25634555428643e-08,0.282197845069557,0
6.16924696492869e-08,0.255805585285864,0
7.4148472065048e-08,0.280646647662541,0
7.09576748949574e-08,0.257953000924933,0
9.22878981722268e-08,0.277749441323897,0
1.06514540152887e-07,0.285437557087988,0
1.23953369876263e-07,0.292385254410494,0
1.22589371712601e-07,0.294137374442965,0
1.26237603705524e-07,0.297647368530779,0
1.25154770285126e-07,0.303695736046504,0
1.20854603623444e-07,0.303081414443488,0
1.29881572285345e-07,0.324648028190545,0
9.97550456963351e-08,0.299934739098936,0
8.25500421293833e-08,0.306207155400271,0
4.30887725568914e-08,0.246862433043342,0
3.71969561734075e-08,0.259711223349217,0
9.45536817137609e-09,0.201385730916554,0
4.45342901193186e-09,0.189017019368331,0
0,0.185207948063262,0
7.09314328522533e-09,0.195562093525646,0
9.32401094360801e-09,0.196955156612235,0
1.35988176480941e-11,0.174011007644237,0
1.06677211414808e-08,0.186105622148001,0
2.40027952342855e-08,0.192529352456105,0
3.90482330516034e-08,0.221942023370326,0
5.40745590170916e-08,0.22201514258781,0
1.78364738528291e-07,0.341278273391338,0
3.09726082695112e-07,0.381422095391836,0
7.53856116368333e-06,0.559611571674902,0
2.0392265926539e-05,0.585353241748801,0
2.01248123198062e-05,0.503883298973739,0
1.94674939894001e-05,0.493658058216613,0
1.86954975648391e-05,0.492142480987788,0
2.32453184510951e-05,0.302284426196922,1
6.2389423020103e-05,0.367727030950687,1
6.17627187155217e-05,0.256885809244943,1
5.79980823136747e-05,0.23309332097623,1
0.00026008351838059,0.103511137049933,1
0.000683495436918838,0.108581274235801,1
0.00078169434859464,0.112214190211742,1
0.00081194262650066,0.0961437200093216,1
0.000838963950626721,0.0750654695284837,1
0.00115982369406021,0.0856753592942027,1
0.00108435421513361,0.0755315276465857,1
0.00100706741800222,0.0722341183099183,1
0.000817825933699653,0.0635140021551233,1
0.00053934650125066,0.04291766034278,1
0.000471716614633452,0.0552714763111821,1
0.000531181975411061,0.0709209612326526,1
0.000623053523728856,0.0823876046370877,1
0.000633776137857655,0.0948271931498413,1
0.000598774911761998,0.169102286418234,1
0.00029145653993987,0.140562545779499,1
0.000210609668716057,0.0986288624706362,1
0.000338873662009702,0.102141047302856,1
0.000357380452971945,0.0770874738140219,1
0.000378428697267555,0.10204241075214,1
0.000300831350406163,0.0901328218429718,1
0.000298920753280173,0.107295633600659,1
0.000277648273669936,0.0850156347312343,1
0.000308058853317572,0.066140371535572,1
0.000535312249471117,0.0583673206321687,1
0.000620212502556069,0.0491985511043683,1
0.000609491779177474,0.0556854238681981,1
0.000550635869480206,0.0481533381661051,1
0.000791785289998946,0.0720833052904222,1
0.000805569749884677,0.0623378161523969,1
0.000730831114420154,0.0543409029565159,1
0.000733028421960752,0.0501671407303456,1
0.000920802523125245,0.0601273473907581,1
0.000689963293704859,0.0532910642056439,1
0.000675641443167531,0.0692284432388615,1
0.000883681045902818,0.0659208504280144,1
0.000826879481948965,0.0508602758309605,1
0.000677336484258868,0.0483755516312341,1
0.000825791829989679,0.0451442233267343,1
0.000837863210577273,0.0440040440912322,1
0.000771009776680415,0.0392953335671953,1
0.00085639230382098,0.0427397721099432,1
0.000893158186589827,0.0464807891279146,1
0.000903759285212465,0.0487509846334811,1
0.00069532049249294,0.0429645876396017,1
0.000988999579599485,0.0650019849787243,1
0.00166555384421022,0.0658384996011269,1
0.0012717499194206,0.0410579916784386,1
0.00142962729960694,0.0417937289050818,1
0.00135343146460757,0.023047370550058,1
0.00282858484242045,0.0294019380056347,1
0.00327401895860185,0.0202629399216232,1
0.0060654797697214,0.025890821423752,1
0.00537285758233837,0.0201989382216286,1
0.0050107833447074,0.0185740140115238,1
0.0051899734362752,0.0167214715968089,1
0.00615620049685217,0.0207474528012821,1
0.00591608734681414,0.0146026353997355,1
0.00897168732763432,0.0202936218680929,1
0.00917047658150143,0.0159565008985863,1
0.0107765871815365,0.0188509886747131,1
0.0113924164937089,0.0175929790899299,1
0.0111120622199829,0.0168112244522324,1
0.0110162326440518,0.0163741241627254,1
0.0115789952362354,0.0168918606463589,1
0.011724770990226,0.0169629065872153,1
0.0110579045347749,0.0155842232498574,1
0.0107963347511877,0.0186782010273299,1
0.00798808942046965,0.0142114129921148,1
0.00796200853691194,0.0216047020598747,1
0.00650974088452964,0.0181846697702886,1
0.00616157791722911,0.0293519152755596,1
0.00466217080556742,0.0269253025437704,1
0.00508596381325503,0.0311702616188509,1
0.00451172409705388,0.0291498967134155,1
0.00392570519504615,0.0355734837549267,1
0.00335163426178311,0.0372006983672349,1
0.00316503443623774,0.0475397703163894,1
0.00253755443620652,0.045423111777143,1
0.00231514684802619,0.0641741566788283,1
0.00285290866523698,0.0746253069972325,1
0.00195600799185248,0.0330937365740896,1
0.00195817113004826,0.0435794444201093,1
0.0019588301196366,0.0314771378749815,1
0.00321114102128599,0.0442201710574311,1
0.00385838870126742,0.0503708682579878,1
0.00432518174055294,0.0546771338980382,1
0.00434007862400419,0.0525390462877128,1
0.00396795249922954,0.049019671813583,1
0.00355888644056599,0.0503416186839217,1
0.00350787606674351,0.0492565125220732,1
0.00309976357922558,0.0758064044098751,1
0.00156393255227774,0.0370364618029358,1
0.00149659009762106,0.0614765336794605,1
0.00169913840458303,0.0757883809331059,1
0.00171646058291355,0.0586691857235862,1
0.00168152488959364,0.0401680014027771,1
0.00172524024825566,0.0362199449613743,1
0.00123611613741238,0.0275108766601287,1
0.00131342190798168,0.0318983025807122,1
0.00132359058522615,0.0338618602605921,1
0.000958436875491854,0.0250656441717114,1
0.00133917663080778,0.0391348009803545,1
0.00145989426125931,0.0338596321076257,1
0.00147444592997721,0.0300223927730176,1
0.00137703522789793,0.0315607137605766,1
0.00132060024991767,0.0389430215006289,1
0.00182975586277203,0.0401718804357379,1
0.00216728666373814,0.0412192797455674,1
0.00213569134759928,0.0369244798680857,1
0.00214708795389958,0.0325866966657737,1
0.00212103261627212,0.0336675069663542,1
0.00191762220697284,0.0299663095708879,1
0.00149278891024363,0.0268059259769893,1
0.00147963580509058,0.0301738568500652,1
0.0014654933505232,0.0267554141724207,1
0.00138344434683309,0.0191872021948918,1
0.00203610463321329,0.0290389922785214,1
0.00420817454852579,0.0502530767861252,1
0.00613834338690382,0.0444164526900797,1
0.0065875328999358,0.0219423124545128,1
0.017706359426225,0.0297263634715479,1
0.0183305895137027,0.018563358240424,1
0.0200062795963173,0.0107726312993693,1
0.0357916000283227,0.0189917920590929,1
0.0366133385296704,0.0198754572448828,1
0.0350587811746534,0.0154513225894173,1
0.0328279409173002,0.0142314128824477,1
0.0332267376993708,0.0148148008747052,1
0.039035502254351,0.0156838391503785,1
0.0487018201265568,0.0153743807453505,1
0.052603273635589,0.0157772358029388,1
0.0433185842453163,0.0142110267380674,1
0.0387651764961057,0.0151710054820119,1
0.0417570477392133,0.0181447132100143,1
0.0431072680371656,0.0179805454313879,1
0.042814861233092,0.0190295018642602,1
0.0405805627109221,0.0183316388078035,1
0.0405175636520982,0.0177003912721931,1
0.0394473896560367,0.0216731350995642,1
0.0321171332249147,0.0264994214308679,1
0.0285997313309972,0.0277447931526614,1
0.0226507581025403,0.0236247324197785,1
0.0257147564091144,0.0273045987904766,1
0.0246030129174573,0.0225233579478729,1
0.0249885013266767,0.02251589561526,1
0.0242815687926946,0.0266038629043346,1
0.019868489428014,0.0181284275379766,1
0.0181634834891698,0.0150575049311625,1
0.0207992838328017,0.0180377701210699,1
0.0237383691790027,0.00745473913349118,1
0.0347257888522041,0.0132342907042812,1
0.0397962960128479,0.0158031437791676,1
0.0448601344874555,0.0192152459939419,1
0.0541883715090145,0.0241581612920219,1
0.0562768573264865,0.0239260144508631,1
0.0562160295108272,0.0240032980393556,1
0.0535565515785702,0.0249998999888156,1
0.0509196327435068,0.024320196760713,1
0.0425630302685644,0.0208838224629841,1
0.0360561582174359,0.0402527389416998,1
0.0320554555493089,0.0495755979450135,1
0.0303800448966695,0.0707185454972419,1
0.0285155954727448,0.066153480779794,1
0.0150681784088894,0.054676310201811,1
0.00964884585409009,0.0336639728863137,1
0.0187747251530291,0.0524415449531119,1
0.0277880001192135,0.0760307454166786,1
0.0370676557484319,0.0884590868197114,1
0.037818586510082,0.101143886378315,1
0.0300161056657313,0.0874275086504593,1
0.0242250910217344,0.0674481071987342,1
0.0184368300913402,0.0512413775202293,1
0.0156158608876673,0.0424034482567591,1
0.00864709794306983,0.0202915497181421,1
0.00599327277189016,0.0202534449603681,1
0.00589194231742968,0.0156884383138521,1
0.00635983121412754,0.0165495599630149,1
0.00634853521290929,0.0108753317169346,1
0.00866759925894418,0.0161588795261071,1
0.00879420762368084,0.0159747080358538,1
0.00873274045336178,0.0172481115676471,1
0.00820500003621563,0.0152162751970926,1
0.008641835463575,0.0185245677260326,1
0.00896257324399097,0.0184530335192234,1
0.00891410534804413,0.0164025955997682,1
0.00880394200614462,0.0175779727183126,1
0.0072504980968832,0.0136286166390169,1
0.00667787084093177,0.0172421881467311,1
0.00537392959661295,0.0112376975959059,1
0.00600460994849056,0.0134912583545568,1
0.00663052488456199,0.0109693210449357,1
0.0173399443463251,0.0286584088574013,1
0.0258364910388314,0.0351626284121019,1
0.0261954561474695,0.0387484359417594,1
0.0282910429013048,0.0452343566289044,1
0.0289005719874786,0.0501050949294831,1
0.0396080765814255,0.0409055208845999,1
0.0558664497186609,0.0324256374646156,1
0.0453134538856214,0.0243149485147216,1
0.0403797219576543,0.0221256202831668,1
0.0332239702297187,0.0134023858599133,1
0.0555630517476998,0.0206437842374513,1
0.0629500007607484,0.0159227373587684,1
0.0595383163832218,0.0153930515398771,1
0.0585543980231535,0.0143613522693364,1
0.0592378941755172,0.0139746798582321,1
0.0570414417470964,0.0168676056209424,1
0.0477066692434485,0.0181378833730779,1
0.0469286727155601,0.0174649089548519,1
0.0535689049844489,0.019956331359839,1
0.0627982402054816,0.0322887059796702,1
0.0440249784181323,0.0211278400240648,1
0.0414650837649059,0.0294972286223528,1
0.0405072440316532,0.0263902739125503,1
0.0378434825304222,0.0260367025679147,1
0.0557352922256221,0.0350419041488552,1
0.0621747153956153,0.0293093450973343,1
0.061472275028237,0.0307376010796323,1
0.0593344328179844,0.0343410937630532,1
0.0494935457209806,0.0266393209319969,1
0.0356502388331452,0.0183987916955255,1
0.0294930120127961,0.0213242642143823,1
0.034381696887157,0.029608130094924,1
0.039178102711692,0.0382734225238515,1
0.0493014757858847,0.0531481841417323,1
0.0373358434408054,0.0542649282312485,1
0.0258375068619829,0.0559727403282892,1
0.0286372173951671,0.0520663692967836,1
0.0364218169882867,0.0570757667959967,1
0.0369152485154317,0.129679954514712,1
0.0229260795523542,0.0976256503723844,1
0.0185730466564348,0.101259498852917,1
0.0163400365771036,0.0737645041924236,1
0.0125956673785908,0.0526132888560709,1
0.0118706107456185,0.0533151901148522,1
0.0109975282468326,0.0372961158509057,1
0.0058618459095755,0.018987067097356,1
0.00477010392615668,0.0217658483781886,1
0.00490450798202945,0.0214325521491752,1
0.00439502442471964,0.0183030401714856,1
0.00435732055438864,0.0129972009781794,1
0.00912012792357296,0.0250211612000569,1
0.0134321058922775,0.0321784722661935,1
0.0150825520574701,0.0225915296418764,1
0.0172904593218873,0.0221151926087369,1
0.0174970913874553,0.0236740074310857,1
0.0230424933172657,0.0272526050990881,1
0.0433038654890286,0.0421417954887954,1
0.0562738863599372,0.0356628508535328,1
0.0540467763916067,0.0267666039279247,1
0.0499712187458668,0.0244003072847469,1
0.0498615729585013,0.0244167536501164,1
0.0499672097721575,0.0218379239239548,1
0.0462652739954363,0.0289543956902938,1
0.0354974806984597,0.0229077171547574,1
0.035257402027746,0.0189952391279892,1
0.0342791118190116,0.0225387635824986,1
0.031114470405437,0.0202665881818629,1
0.0274565060024677,0.0218948053223173,1
0.0222711932601502,0.0226699043550399,1
0.0239171782133233,0.0275858011119497,1
0.0239449876261266,0.0198914988304799,1
0.0233898190663745,0.0167981867596316,1
0.0251475033206293,0.0188238816460543,1
0.0218731637193284,0.0178041616880926,1
0.014675718229581,0.0141953584979536,1
0.0161305548482776,0.0163307718983351,1
0.0161569608118652,0.0152814346889625,1
0.0140089698076772,0.012628411862562,1
0.0162770868955132,0.0137584478440303,1
0.0189234539799507,0.0152538818824515,1
0.0184891665832685,0.023688997055109,1
0.0174659829766148,0.0275012668208166,1
0.0190244883865338,0.0264427220143919,1
0.0198014689780697,0.0227959220246562,1
0.019695576705111,0.0226166637928719,1
0.0210989751962356,0.0212645080076809,1
0.03184910149841,0.0353895756511197,1
0.0388066486882651,0.0325776963125813,1
0.0425372933615126,0.0414729908511449,1
0.0451254269445806,0.0347871279339152,1
0.0456742422080295,0.0312068710160571,1
0.0523504574968517,0.0342308696586771,1
0.0413253570073581,0.0181744005939883,1
0.0339541789824881,0.0158917403181408,1
0.0338820937971317,0.0154178279847531,1
0.0344943946545209,0.0166048675606587,1
0.0301880808823233,0.0164334169063869,1
0.0276449561825974,0.0155511097205479,1
0.025451068878053,0.0154388019492095,1
0.0255680632810905,0.0183767790889113,1
0.0357229038423156,0.0288748510946162,1
0.0190359387454319,0.0163339001061915,1
0.0164976644854366,0.0302297790581461,1
0.022091442383113,0.0442608213013444,1
0.0313209022526724,0.059046979270969,1
0.0334465774835315,0.0437794857673433,1
0.0223157470686893,0.0292856749905669,1
0.0259891539550369,0.0338267043907556,1
0.0226991970086747,0.0246399045501248,1
0.0206323798026068,0.0235345415646081,1
0.0221672649266721,0.0252073254551577,1
0.0152524290631639,0.0231451382983276,1
0.0081378140144184,0.0134383545404498,1
0.00744186022991256,0.0126259036561629,1
0.00784349121772256,0.00958917371188229,1
0.0125480140706389,0.0209740189958033,1
0.0102280580636736,0.0158457105405398,1
0.00881454123040914,0.0149168923545902,1
0.00874726578161094,0.0185838940284901,1
0.00886754870240757,0.0194481008551047,1
0.00870464971476104,0.0166387015023492,1
0.0119628116686934,0.017524223679741,1
0.0175808306887486,0.0229888926090605,1
0.0171702903006709,0.0212503278593649,1
0.0176256992589023,0.020767360636019,1
0.0233782455816497,0.0251734474110218,1
0.0234348616765487,0.0239935217296305,1
0.0300477839994911,0.00893596725254939,1
0.0464823314864986,0.0126595188902037,1
0.0416035350897875,0.0101880087181445,1
0.0397601427943763,0.00591564592891907,1
0.0475288277976408,0.00764711771166457,1
0.0493780358223601,0.00850628819384545,1
0.0508810657892979,0.00776045352448669,1
0.0600667475497376,0.0103645064504783,1
0.106576071444351,0.0210621153228443,1
0.0979545927504807,0.0191389290499886,1
0.094248294050833,0.0261232806952827,1
0.0978947117957224,0.0324781842230269,1
0.0895378929895393,0.0322900867542579,1
0.0846686080377455,0.021115552486722,1
0.100734201745097,0.0248359672323199,1
0.0727262307550009,0.0175083084659555,1
0.0826101136362141,0.0227419029927696,1
0.0881094110673289,0.0251764693818186,1
0.075734458805195,0.0216474545818075,1
0.0746141263190557,0.0204944235175152,1
0.0866552011194912,0.0228231950625572,1
0.101128626672243,0.0241297096770525,1
0.0860050035642856,0.0200604368017134,1
0.0949562434106774,0.0304322275695282,1
0.0787156404992947,0.0249283603084303,1
0.0764352336661293,0.0230191756639453,1
0.0607709105235987,0.0187737385369216,1
0.0482356276736866,0.0157120465737276,1
0.0392979479577769,0.0117770755110737,1
0.049429130251136,0.0179366375122139,1
0.0687068656378907,0.0239654452185603,1
0.0956629354231804,0.0326560136752925,1
0.108565498218903,0.0412458220037586,1
0.0844325777567303,0.04573474320397,1
0.0839235541652406,0.0448985869772101,1
0.0778832545797667,0.0527146602153237,1
0.0518665666029793,0.027241611706517,1
0.0563402800067833,0.0291278323459996,1
0.0553534715339576,0.0283101053752099,1
0.0596677088261038,0.0260989946218259,1
0.0730651566993925,0.0358330033548313,1
0.0649041493666375,0.0277307387728888,1
0.0627339148602942,0.0252565414467899,1
0.0717461752913189,0.0249393734661162,1
0.0844568666287478,0.034070987846214,1
0.0963185247455155,0.0367084514102808,1
0.0945415950608916,0.0549219123827374,1
0.0530998912973473,0.0303158106982229,1
0.0353115827051733,0.0233340063171799,1
0.0340123546882209,0.0270844472545286,1
0.0373257930707017,0.0289194897501599,1
0.032715706930923,0.0351540516615948,1
0.0106859633100365,0.015410259649655,1
0.00860114918714882,0.0201633686434368,1
0.0154776257019524,0.024058114641867,1
0.0301039898393052,0.0411531076154231,1
0.0284589201952769,0.026244987653635,1
0.0267772329276412,0.0258713704875688,1
0.0266680779284409,0.0263959060222743,1
0.0248174785545132,0.0281223230154032,1
0.0182863078478633,0.0194761662290818,1
0.0175950490047245,0.0225601115029476,1
0.0178139731609401,0.0254617800413367,1
0.0152739315963245,0.0232020187963708,1
0.0183838332316385,0.0288607302975913,1
0.0196997269465722,0.0274249353396723,1
0.0195134349018906,0.0303938204802279,1
0.0192633450722716,0.0264976332157703,1
0.0187485011909449,0.0286886664731792,1
0.0169657120116807,0.0229662642837574,1
0.0234128020100465,0.03374375664841,1
0.0277780248517043,0.0336050253949273,1
0.0264375136152908,0.0309617884369414,1
0.0231323762688002,0.0261175831971833,1
0.0269990882773928,0.0354252577263231,1
0.0298045300741003,0.0438975366342469,1
0.0355279199549264,0.0631068894661851,1
0.0270782891762492,0.0454672938638584,1
0.0342393607102673,0.0406741298702167,1
0.0357558814356343,0.0267433458291034,1
0.0368157285924839,0.0267172950703061,1
0.0392297366101214,0.0298655556304837,1
0.0361648217212592,0.0284571363718662,1
0.0326278075207928,0.0287922788057748,1
0.0345090623441611,0.0284456199966542,1
0.0357384842179254,0.0287970514950752,1
0.0563713198196011,0.0371291246205105,1
0.110878430258152,0.0614441620908424,1
0.129794524574089,0.0432861515904442,1
0.128842351189926,0.0513698828365248,1
0.128972357190143,0.0514219831295812,1
0.120432628745259,0.0480285421024268,1
0.112958354098831,0.0352817877744717,1
0.112535730151286,0.0298813061368601,1
0.128822391654549,0.0322013431851413,1
0.129637735210164,0.0204647023265483,1
0.148713428369661,0.0257233703966004,1
0.115788619952039,0.0172811800903546,1
0.0977582993166518,0.020271994427376,1
0.0996552899085841,0.0217597729662324,1
0.101561114769301,0.0206411448855286,1
0.099957737140776,0.0185689841965976,1
0.0947910393105325,0.018922162370767,1
0.0826293143971871,0.0207249076104338,1
0.0558351281889144,0.0126966554384689,1
0.0603382566050577,0.0184903143980637,1
0.0598465639251327,0.0164903847171353,1
0.0671778789187259,0.0159151467216498,1
0.0818356846466254,0.0174115278375702,1
0.0824605018886355,0.0161653801048034,1
0.0820127552639632,0.0171942037496662,1
0.0633836117581949,0.013732773238807,1
0.078703573870575,0.0189894524612238,1
0.0854431043143574,0.0199554244031386,1
0.0907019518939283,0.0217439170663276,1
0.0923297029800723,0.0213849550526218,1
0.0792115107292385,0.0234342086588324,1
0.0761099828332367,0.0371429062839592,1
0.079523433224819,0.0492984398823247,1
0.0460671909630855,0.0387052494284908,1
0.0180547104787725,0.0170147775223343,1
0.0166390636402801,0.0424429902267848,1
0.0188930425657032,0.0292934321651022,1
0.0183094095104629,0.0263082553386328,1
0.0188217809628938,0.0197273466778813,1
0.0264541332066647,0.0287228769095112,1
0.0254909869609456,0.0176418399319848,1
0.0239249504265785,0.0167832972770307,1
0.0235755870654021,0.00989411688661344,1
0.0260905337092542,0.0103447859157403,1
0.0283950780456303,0.00950646915081173,1
0.0295614198726285,0.00729816784931402,1
0.0467022496749733,0.0123995759770343,1
0.0560071381510735,0.0150929882228363,1
0.0569471034188317,0.0149507402384059,1
0.0575454955719506,0.014983201973091,1
0.0624378082189934,0.0203036169408648,1
0.112223744232878,0.026535485292655,1
0.111974826169271,0.0186838104659757,1
0.113050661295196,0.0195686331986041,1
0.0973395830089835,0.0157671446784461,1
0.0744977345586483,0.00997614258974439,1
0.0766293961466354,0.0119686287136722,1
0.0775581734984156,0.0122004150621837,1
0.0749741084374707,0.0126489537332147,1
0.0682104529849977,0.0114509305251488,1
0.0706760137922767,0.0133775807171381,1
0.0697790311856483,0.00682213804913007,1
0.127453161133362,0.0235180113300991,1
0.121326016710042,0.0191438900705219,1
0.118319066254432,0.0210034128648629,1
0.123177994813328,0.0222735330880858,1
0.125646676331603,0.0231676619627866,1
0.127100632125625,0.0140801306075293,1
0.128097181514889,0.0143857792834659,1
0.1200028292736,0.0121840012714131,1
0.0927881639779164,0.00775093619232749,1
0.0960188480822565,0.0176107661259544,1
0.0794230157869632,0.00605261669863798,1
0.0973875188731686,0.0105324661965321,1
0.089713084687278,0.00933486530461131,1
0.0948871596031635,0.011577519046083,1
0.0854271186798684,0.00872050725539567,1
0.087646464896569,0.0137457111311039,1
0.0884277009973521,0.0143781366003803,1
0.102169829292325,0.0203732175694723,1
0.101964319346721,0.0177721468083276,1
0.0975164483929655,0.022419770533729,1
0.0946184496108566,0.0466720736768469,1
0.057485752336535,0.042205636296616,1
0.0609017589009579,0.0484902438672548,1
0.0248054214414376,0.0238069094148693,1
0.0185121912730319,0.0197298428021089,1
0.0284205178521828,0.0227188444846256,1
0.02779026166676,0.0230277123798885,1
0.0308416783386459,0.0228918087202541,1
0.033820733684938,0.0293437750519643,1
0.0496861614694681,0.0354780688667059,1
0.0548025948375761,0.0183083967628706,1
0.0577948726526943,0.0155662417806301,1
0.0695569730461381,0.0170096309328265,1
0.0834767446499408,0.0211365639122008,1
0.0716284288213284,0.021375593343643,1
0.0449596879437645,0.013994573283033,1
0.0403555093499379,0.0103891536042646,1
0.0395967938302336,0.0104454700220024,1
0.0388297352446366,0.0101409089348645,1
0.0363735350910872,0.00946080687992679,1
0.0294692027618152,0.0212149393638802,1
0.00735172851050229,0.00831155889861616,1
0.00551742477507678,0.0214401605275981,1
0.00532500084489531,0.0296749122466888,1
0.00485706060170827,0.0377263542670484,1
0.00475612002468819,0.0475058474629039,1
0.00498054065371022,0.0358431624167983,1
0.0127860906818134,0.0403713343929393,1
0.0184019817502827,0.0347311946847115,1
0.0208463966325179,0.0361094413265422,1
0.0229755000831865,0.0299027921874967,1
0.0232186200379508,0.0302375187057535,1
0.0229232374945105,0.0315652313902951,1
0.0283361210465126,0.0168531608730154,1
0.0451052558374751,0.0173686228277748,1
0.0392997263361717,0.0140116241655925,1
0.0431846729335596,0.0103576523742438,1
0.0642750985133725,0.0159314863410879,1
0.0689334590113133,0.0149076380566153,1
0.117028021849223,0.022893119877639,1
0.124878246910945,0.0267493934099944,1
0.115259880240479,0.0250878645123054,1
0.102905637312613,0.0210575584507919,1
0.0882629379716969,0.0209587312707503,1
0.107504160226321,0.0229167088830176,1
0.0740942450399098,0.0118391892516277,1
0.0629220530488517,0.0111475958384007,1
0.0816491686162593,0.0167018227539419,1
0.0868885118777862,0.0242459724937311,1
0.0933437479306808,0.0154463997394947,1
0.126080748873435,0.0187472810351918,1
0.126387706779707,0.0183343563336468,1
0.126461618939825,0.0191857975465879,1
0.121872762222051,0.019093069475833,1
0.11714490058726,0.0246074400529836,1
0.108981429766574,0.0289774360032997,1
0.108617267712467,0.0264194192170097,1
0.101148088848434,0.0193949123176764,1
0.0630829551853797,0.00752424055874101,1
0.0601957623205223,0.0189977965777242,1
0.0633186825170809,0.0227745264285235,1
0.0791642041215254,0.0285413181616288,1
0.0868379442103849,0.0217612540693766,1
0.0913656475229184,0.0249935264929349,1
0.099218654956244,0.0274491760607003,1
0.102098523246007,0.0223825823030606,1
0.117405172948599,0.0293480488650496,1
0.103014849742855,0.023741362416282,1
0.106803037284611,0.0238650232253352,1
0.117655789069147,0.0183687336514274,1
0.13027894303299,0.019016203605339,1
0.127998484973299,0.019070797987796,1
0.123999597410665,0.0240661742042414,1
0.108965677528372,0.0190766025500065,1
0.0692919351704935,0.0106031922276216,1
0.0487584693148033,0.00798961015446243,1
0.0517641464315975,0.0129875961914287,1
0.0613723345185578,0.0185767668561579,1
0.0703054408790999,0.0305478161539405,1
0.071143097234019,0.0431760119822195,1
0.075553999086039,0.0460908485054384,1
0.0696034860028164,0.0328101356438308,1
0.049083067897755,0.0235542480298871,1
0.0420812078859196,0.0213528868777525,1
0.0362553702723631,0.0191705905816836,1
0.0246715886075755,0.0139839161345465,1
0.022899514966277,0.0124834714880566,1
0.0236732690843285,0.0154014219948467,1
0.0176292952027063,0.0102077147512605,1
0.0177172977032678,0.017106569793069,1
0.0184118099384197,0.0236550874135635,1
0.0168516939688511,0.0376568622068883,1
0.0110303447537029,0.0218259493947083,1
0.0138209140433911,0.0270380236298233,1
0.0151179719086862,0.0219977263446906,1
0.0147019528186634,0.0198710511305659,1
0.0141440641410774,0.0186038759664388,1
0.0176780127469971,0.0258018126231648,1
0.0296220538029614,0.0372289942980884,1
0.030851545265551,0.0353402067893024,1
0.0292815552247731,0.0268076559326294,1
0.0442826214785109,0.0329597906340323,1
0.0467812073457448,0.031848459967985,1
0.028790248542803,0.022976839904194,1
0.0197916023695975,0.0174743370369548,1
0.0179746309984579,0.0150719717119963,1
0.0179215139046263,0.00957062233413249,1
0.0292399329645889,0.0163629568769394,1
0.0364017485047689,0.0186324136653753,1
0.0386057470852869,0.0218209238805182,1
0.0385146400790364,0.0181526252572458,1
0.0379503443717346,0.0192372865142644,1
0.0365517431518303,0.0206597632351411,1
0.0368677212663877,0.0212232084602122,1
0.0363642068828869,0.0193244957844966,1
0.0486187661248151,0.0281505695144641,1
0.0514398621276861,0.0258252731113569,1
0.0425857316643005,0.0205641723300589,1
0.0599218098505968,0.0183732515467732,1
0.0571444033074763,0.0141699681669875,1
0.0519947638512913,0.0151753574562088,1
0.0518114508025624,0.0151139519976245,1
0.0470864690292251,0.013939167290534,1
0.0569855184015489,0.0109074407527316,1
0.103195840444312,0.0190743497621882,1
0.113375890987955,0.0202888467868101,1
0.117796833642391,0.0226453719404769,1
0.0733515255749171,0.0164824321664776,1
0.0701250908151494,0.0226145221385615,1
0.0675926865255883,0.0237156126275168,1
0.0668656167820895,0.0220818711538919,1
0.0494204457521575,0.0164464982506562,1
0.0401291497385736,0.0129084325527809,1
0.0345234998868968,0.020523771093973,1
0.0184364930370736,0.0130706067014133,1
0.0244290956256373,0.0217436582331402,1
0.0269321340300947,0.0305710972893759,1
0.0368421534462994,0.0387492883188176,1
0.0429584916148968,0.021377102632031,1
0.0439287248659828,0.0200065078606175,1
0.0351146368652746,0.0166312367952186,1
0.0526260857248187,0.0228263886205295,1
0.0580243176343,0.0244549520038058,1
0.0618869633882436,0.0272120296837138,1
0.0491271477880136,0.0224480504918579,1
0.0664653276658438,0.0192061318145167,1
0.115182483892963,0.0325062650850093,1
0.123765964808418,0.0253171473015313,1
0.124128187662749,0.0312729012899906,1
0.137042708532094,0.0346358690805351,1
0.178768150393003,0.0403910673869302,1
0.222324679429098,0.0472206179888158,1
0.234189199399765,0.0477813665326325,1
0.256084312837097,0.0484791289472081,1
0.281361933992047,0.0522887770732377,1
0.249253814711876,0.0910299537299693,1
0.123117910930544,0.0483206201770976,1
0.0345505584088611,0.0288973555946323,1
0.0148690018540065,0.0155279673303891,1
0.00913924851973643,0.0106875089161116,1
0.00861789874977363,0.0152243489145675,1
0.00737170568707453,0.0165917300429452,1
0.00298166419367509,0.00770469571300412,1
0.0025899794948084,0.0173310079830851,1
0.00275965558745384,0.0136282627204315,1
0.00327081467846133,0.0174454373433256,1
0.00368686968024171,0.0135730580539849,1
0.00454728849767395,0.0177819560551086,1
0.00386219530994215,0.0203614433598929,1
0.00707336381171884,0.00748051911852584,1
0.039631070016769,0.0370820380791235,1
0.0469306729908609,0.0190827649019313,1
0.0462004721465759,0.0184746073227186,1
0.0484936719743837,0.0179881486908984,1
0.0466404271017602,0.0134840593705204,1
0.0449881546001415,0.0115122326418562,1
0.0446053938675669,0.0111720649034929,1
0.0481580300771216,0.0129429301771377,1
0.0450848351262769,0.0119627086210075,1
0.0430420346350461,0.0168522982654653,1
0.0323563899607436,0.0132973453085236,1
0.0358560897262475,0.0344046170758355,1
0.0345609793260167,0.036191847080857,1
0.0385301486852321,0.0429847736992216,1
0.0401083830766887,0.0571428169873695,1
0.0192835345355757,0.0299523875660985,1
0.0250077897569484,0.0341217704708243,1
0.0270641651691028,0.0228350269946287,1
0.0264288974176603,0.0228762429433147,1
0.0322561296447294,0.0117098455727716,1
0.0452959472541044,0.0137067897796421,1
0.046279611562605,0.0120538184982456,1
0.0466368728304671,0.0113696085977506,1
0.0446791148975527,0.0102983316730489,1
0.0511008535222566,0.00926589297227615,1
0.0920270113931518,0.0200429447926861,1
0.136452304865253,0.0309150016144546,1
0.14740327229492,0.0321885836446395,1
0.120317487626212,0.027696563318756,1
0.108827574574914,0.0395235309638526,1
0.107989975161552,0.0468326936946144,1
0.0936508384284387,0.0468194525964557,1
0.082085961433598,0.0344360403714882,1
0.0685117310734702,0.0295106868523815,1
0.0640980159650937,0.0397877467522045,1
0.0551446387501186,0.034167641754549,1
0.047874607365961,0.0298661123896168,1
0.0404627534879747,0.0215997547059366,1
0.0374700032981522,0.020277693239708,1
0.0352599409346456,0.01895150968402,1
0.0351825765752979,0.0193033024862191,1
0.0328050763881629,0.020517944558726,1
0.0324582462073138,0.0240602831802767,1
0.032994608385477,0.0180966727755306,1
0.038921662969082,0.0156551386743741,1
0.0390135812075803,0.012058224164607,1
0.0480510649621981,0.0137370365475951,1
0.0452574357020666,0.0147418978517196,1
0.0488913623416549,0.0152706403667285,1
0.0493920646199208,0.0158434736510985,1
0.0496123440825973,0.0140075065472771,1
0.0499354434627949,0.0114315484969613,1
0.0530941527821993,0.0154682752091661,1
0.0826394341480174,0.0237219220484814,1
0.107057496649122,0.0367317818046574,1
0.115729811068817,0.040836349419809,1
0.118704961842904,0.0474390830689817,1
0.113381715119935,0.0520418929483999,1
0.117431458973261,0.0549696749817279,1
0.112849648590392,0.0520381358878221,1
0.0840245851394086,0.0491190094162781,1
0.0293770585185388,0.0272014245868872,1
0.0158643181342413,0.00892150971814025,1
0.0146797449200504,0.0213284122526913,1
0.0118761459907123,0.0154476408358855,1
0.0107286216751634,0.020200789664192,1
0.0121233911707734,0.00660653501254836,1
0.023116162899249,0.0158034533674087,1
0.0261061911206223,0.010247356968584,1
0.0283878704200004,0.0093430705538336,1
0.0280860244831266,0.00952165046107775,1
0.0269313146162102,0.0101988107901168,1
0.0263072294618436,0.0110127677320816,1
0.0316689443890386,0.00907974097181419,1
0.0374806187634478,0.00850125540905061,1
0.0361352493256868,0.00887515828571641,1
0.0343191913481699,0.0142449133817137,1
0.0260670355432821,0.0113563786637894,1
0.024394485153922,0.0135529736531937,1
0.0256406000100413,0.00917280377968893,1
0.0485366887282638,0.019973924055453,1
0.0490924667969464,0.0140233471687905,1
0.0427558170706986,0.0107671686901792,1
0.0413642721866376,0.0148670285594933,1
0.0477135549069266,0.0176286151364141,1
0.0633873421705626,0.0232739335433072,1
0.0672042388409804,0.0247578389061315,1
0.0710429430876496,0.0241543876087505,1
0.0746783115667245,0.0261726528763905,1
0.0807624540272674,0.0361909099971229,1
0.0972201229562446,0.0369704986927693,1
0.0943212452298467,0.0420567263634601,1
0.0825824541671349,0.02968485895162,1
0.0653004848006434,0.0181851910237962,1
0.0505641154698333,0.0143724869275702,1
0.0680301621711691,0.0142962597697473,1
0.0896078074445167,0.0141364687887314,1
0.0855177644488462,0.0118428838379583,1
0.11936333007701,0.0175910399920106,1
0.122585919836142,0.0121365187764856,1
0.140266529143953,0.0146955071058407,1
0.152519940767694,0.0170784396929644,1
0.200344099331313,0.0237686564482903,1
0.256458238510318,0.0324651146573845,1
0.274189125070651,0.0316858757189321,1
0.25714495461013,0.0383991163826553,1
0.205314459892711,0.0354227456429594,1
0.20146855107897,0.0408230532457108,1
0.100473019382709,0.0135947682298569,1
0.113680133339715,0.0249396445158536,1
0.121939253586546,0.0230776908581769,1
0.130195539295018,0.0275770541269874,1
0.126972552261057,0.0269110395961469,1
0.0874420463700169,0.0160109654518024,1
0.0814628258127779,0.019169193027114,1
0.0798864961043583,0.0178501545911684,1
0.100218937637076,0.0211698874860542,1
0.0934391817967489,0.0153550958773337,1
0.0939254177350552,0.0243365154164858,1
0.0949013976560958,0.0253868299562295,1
0.117820844378233,0.0281170853026202,1
0.11650690575333,0.0281580203875062,1
0.115200448517075,0.0252563525141038,1
0.12576839121025,0.0297575590001806,1
0.129892725579248,0.030963617979274,1
0.143652266526956,0.0350151553529865,1
0.141299791527391,0.0392731813492343,1
0.145746559880706,0.0610521517686379,1
0.142953296262422,0.0696372828195973,1
0.0940666992564507,0.065636123222399,1
0.0348460944410536,0.0413523576148159,1
0.0159650514580032,0.0140698532430967,1
0.00931243128171218,0.00790574613782719,1
0.0124455603256139,0.00614969990884221,1
0.0323084751627443,0.0154844153019544,1
0.0580259755604691,0.0270288682015811,1
0.0672503332578066,0.0287996006738852,1
0.0688537567767548,0.0271078618314675,1
0.0786102398473367,0.025601462630359,1
0.0830337016431958,0.0242860598154558,1
0.0855048977985969,0.0258067772237234,1
0.0767609301913759,0.0237666138879877,1
0.0875549162962806,0.0265869298866889,1
0.0794370116900865,0.0269644996665399,1
0.0685677970027677,0.0290640035234558,1
0.0554014374215387,0.0233733484375388,1
0.0456454799548883,0.00964715312670214,1
0.0525362919552858,0.012476691597334,1
0.0493464429853225,0.0143553954211936,1
0.0519781344908209,0.00724191254213486,1
0.105923842177054,0.0172130764286485,1
0.111511881259526,0.0159458853979626,1
0.128928745731667,0.0175147661116388,1
0.133838527235137,0.0128776819306516,1
0.132864653915759,0.0118881674522816,1
0.138592936241006,0.0108185311979499,1
0.134216470086565,0.0124579406237342,1
0.106332378082062,0.00851740799816974,1
0.103591932090035,0.00741282317035513,1
0.103316216255691,0.00878567607870737,1
0.0850387566637688,0.00662524843408849,1
0.0851582652270186,0.00611801718555842,1
0.0848857494914364,0.00769586670484448,1
0.0902864989545863,0.0127644768374561,1
0.0939220619553387,0.0180521070395989,1
0.0881528516576169,0.0209092361688049,1
0.0993124518745613,0.0275195367202963,1
0.0859478060703884,0.0254899588773019,1
0.0913292728251346,0.0302986937777327,1
0.0875323742077529,0.0456430212155116,1
0.033242959608318,0.0156613448692638,1
0.0176716958168725,0.0173495666495126,1
0.0181039605930443,0.0167091867839491,1
0.0182332884773404,0.0165140471229591,1
0.017502876584992,0.015820678377268,1
0.0173803745803168,0.0154480843825601,1
0.018838735732412,0.0137675106632141,1
0.0215514983936251,0.0147663601915202,1
0.0216576553939584,0.0127353628783756,1
0.0152535155693677,0.0114844536927186,1
0.0105535801926842,0.0182785202341194,1
0.00940924619327475,0.0159242639393426,1
0.00916557796417379,0.0162569076202522,1
0.00917568194272782,0.0163077501458482,1
0.0090235715329581,0.0165685831418471,1
0.00991537939069525,0.0224764951202591,1
0.00942629226481359,0.0317731505400747,1
0.00531216023799906,0.0315545188351216,1
0.00415842915774397,0.04196426756004,1
0.00610361609833115,0.0514976995722502,1
0.00617196241483984,0.0413693882431268,1
0.00610911857725755,0.0326370730823861,1
0.00685074195115874,0.0399614946046402,1
0.00550874153858307,0.0333169814300608,1
0.00462542369026953,0.0308042334167549,1
0.00489337050075838,0.0376143508135031,1
0.00393260804713574,0.0368861483415035,1
0.00431005624532001,0.0409418189228488,1
0.00476034796288384,0.0504050671285627,1
0.00511444182501234,0.0727967634276913,1
0.00304044272455629,0.113914341251921,1
0.000671043811999231,0.166018672282402,1
0.000547946850672084,0.519576649074344,1
0.000417186631360342,0.627349538023141,0
0.000333360129155739,0.703043260417663,0
0.000187244187289854,0.516613526024251,0
2.85527314532165e-05,0.271303018051018,0
7.52295119116581e-06,0.651108613283982,0
5.44334296096101e-06,0.561125453231682,0
3.87507203243129e-06,0.512952383796235,0
5.51814417627316e-06,0.603323677806267,0
5.27268096028418e-06,0.606741313778501,0
5.1831253953595e-06,0.634203734241944,0
5.29650219292609e-06,0.639453984330628,0
5.33103826477495e-06,0.6424301310017,0
4.20506843920547e-06,0.655680090354677,0
2.45084507294258e-06,0.594058455822239,0
2.4337121063556e-06,0.62874629110743,0
2.1812291806967e-06,0.621569395071864,0
2.75878640270529e-06,0.712698866992723,0
3.47457913444823e-06,0.40261692759932,0
3.47667184547002e-05,0.597828480596154,0
7.1675445850379e-05,0.561644889488154,0
7.07942626812437e-05,0.452974840213056,0
6.98610454373026e-05,0.448862330782899,0
6.98425366379053e-05,0.42722930117343,0
7.29304219989271e-05,0.447489139325061,0
7.50915037594534e-05,0.446993874441185,0
7.60491987281468e-05,0.451372733418781,0
7.29195870490821e-05,0.43453319826542,0
7.369619898586e-05,0.510394058867309,0
5.54612780117719e-05,0.799118795805919,0
1.30205560072918e-05,0.616132218711598,0
8.52139843502271e-06,0.892506634128041,0
3.31125417368883e-06,0.60832356117386,0
1.7685596808702e-06,0.487515799671132,0
2.57779481365013e-06,0.570696216515334,0
2.44057171751289e-06,0.52993155427327,0
2.7689392064542e-06,0.575524951647462,0
3.09906300107154e-06,0.621083759054656,0
3.07909611439383e-06,0.656706528172587,0
3.04425866334304e-06,0.681558796602375,0
2.7763276278502e-06,0.658639686783291,0
2.81997027657454e-06,0.682526710486462,0
2.60077314011922e-06,0.654536271472264,0
1.95832030209468e-06,0.732753536868017,0
3.44433867181946e-07,0.35184318206531,0
2.25576084539094e-07,0.321532171526569,0
2.13503274752518e-07,0.314268378697228,0
1.74762889529617e-07,0.294291688389869,0
1.81123387325663e-07,0.286916480635696,0
1.67627479649e-07,0.264374897636652,0
2.88919450650854e-07,0.342062258964535,0
3.19468202151056e-07,0.362341934892313,0
6.79623331633867e-07,0.511951161151413,0
7.53133173819314e-07,0.45516480195878,0
8.38760371107523e-07,0.469197999953496,0
8.33882438463605e-07,0.451839798137281,0
8.50438962196551e-07,0.441080293493991,0
9.42588887499991e-07,0.458157729221328,0
9.33737233325065e-07,0.460653580489247,0
9.61967202648469e-07,0.477165297615847,0
9.30085031947534e-07,0.463915792581828,0
9.18937897353617e-07,0.471670852920308,0
5.37407631741736e-07,0.385709869528962,0
4.5157079214038e-07,0.407827113144913,0
5.34298059941922e-07,0.43918210391641,0
5.48554031264428e-07,0.435314515084397,0
5.28497465897364e-07,0.462851693879123,0
4.61855320652674e-07,0.434898490647797,0
4.81555817518728e-07,0.45783156084158,0
4.12779025438906e-07,0.427736620670018,0
3.66115822040004e-07,0.416967501439011,0
3.64092317973974e-07,0.41224453407269,0
3.42329725802619e-07,0.397009580187164,0
4.55204396215941e-07,0.480328940091848,0
2.42663256188802e-07,0.375884284274179,0
1.77192226418539e-07,0.357112409447329,0
1.79143914025963e-07,0.352126942179656,0
1.81006290479646e-07,0.345015688348199,0
1.79485648638103e-07,0.341845935676381,0
1.83807279379532e-07,0.345435159255895,0
2.28221385353691e-07,0.362566696536546,0
2.01894662444037e-07,0.335465940497723,0
2.25451636980833e-07,0.351893707532645,0
2.35767111991668e-07,0.341966883306463,0
2.17882829106416e-07,0.317902074704764,0
2.49821306263126e-07,0.327763409872931,0
2.76330694371999e-07,0.342599504571664,0
2.6647155157716e-07,0.336352945634132,0
2.70555607298921e-07,0.346749847159836,0
2.92158836028866e-07,0.365296300437195,0
2.87189387017532e-07,0.377322029971246,0
4.22504017735326e-07,0.397959476900772,0
6.65099500357255e-07,0.450494039797924,0
7.7499625022702e-07,0.475826632557709,0
9.11981697837464e-07,0.52013227927734,0
8.75021140569765e-07,0.510813502937414,0
8.98695138445457e-07,0.513591464619968,0
9.29857453896515e-07,0.498035413908716,0
9.74325146562919e-07,0.497224454907218,0
9.57195046753715e-07,0.491464182062622,0
8.91797009556018e-07,0.466829931782648,0
7.79329568600914e-07,0.483524580480136,0
3.97220140371471e-07,0.367174830529149,0
3.96376866663047e-07,0.388132236199434,0
3.04394831627218e-07,0.338760403041404,0
3.19387858866249e-07,0.34997371195361,0
2.4390817281414e-07,0.315966270250201,0
2.41219282275946e-07,0.334275275762933,0
2.51735799266605e-07,0.343803860681699,0
2.37639117878387e-07,0.347128739198456,0
2.34287193095948e-07,0.351131382978981,0
2.01823507549532e-07,0.331482492092387,0
3.11002754397336e-07,0.415008534805674,0
4.3647764820061e-07,0.483339212871708,0
5.12456447613964e-07,0.498791951045627,0
5.07370930856325e-07,0.515143182706602,0
5.02264758597287e-07,0.512629882327865,0
4.12190894952409e-07,0.491951673525376,0
2.78639038537415e-07,0.412309399679806,0
2.89314992476606e-07,0.410610736412682,0
2.86313549653876e-07,0.396478703323335,0
2.533861076721e-07,0.384268327965184,0
2.17547048571192e-07,0.381797119385268,0
1.08002544832074e-07,0.292107391101603,0
9.00734226021445e-09,0.173548205206316,0
2.2330875734799e-08,0.190859773098179,0
2.56514129759642e-08,0.191323835450199,0
4.71768711703863e-08,0.204621283841951,0
2.01506324316282e-07,0.343327592175573,0
2.62284585884007e-07,0.359804679423143,0
2.62819203185382e-07,0.366635875679867,0
4.12726100310762e-07,0.42466600011521,0
4.64471292125426e-07,0.418770235643129,0
4.71618757174121e-07,0.427967610712695,0
4.67685905603181e-07,0.421727484785158,0
4.23890950121183e-07,0.388470914256545,0
5.76213291289348e-07,0.445289406711203,0
5.86752742502202e-07,0.458255827249305,0
5.29802290827475e-07,0.450596510273906,0
5.12296496115573e-07,0.447273505843975,0
5.23273094185471e-07,0.459652345828831,0
2.76781146018201e-07,0.354135721015924,0
1.28975376480128e-07,0.270514024717257,0
1.39645890892261e-07,0.272625486466485,0
1.48759671465742e-07,0.275860151539911,0
7.53995632886691e-08,0.220082139241575,0
5.39487148235052e-08,0.209934694625736,0
6.54496391976383e-08,0.231735159266207,0
5.87863655643365e-08,0.231858342660535,0
4.89704449574812e-08,0.227484912311085,0
4.51381511300144e-08,0.218867026037989,0
2.81577926798965e-07,0.399349295920112,0
1.38669606045814e-06,0.809570266761825,0
1.9993585199645e-06,0.763867332686553,0
1.82422897690824e-06,0.726708507375792,0
1.83562875548192e-06,0.728780763669086,0
1.83647673364618e-06,0.709503519019323,0
1.81326465452779e-06,0.706328990962721,0
1.7483610262355e-06,0.679736327784104,0
1.66341854779265e-06,0.637501559554507,0
1.68461395900739e-06,0.635782336229607,0
1.64072932483604e-06,0.655793226644116,0
9.3916646938715e-07,0.526217288751275,0
2.98885252280328e-07,0.345456295490674,0
3.43203063924113e-07,0.357088279965093,0
4.04106949164059e-07,0.378364860459943,0
3.71499483686186e-07,0.354111727602222,0
3.52648949676697e-07,0.345742801350217,0
2.98571597388953e-07,0.322311864349861,0
3.16862742196811e-07,0.346311109647008,0
2.84509023305539e-07,0.342629972255031,0
2.38112503746784e-07,0.322176402475293,0
2.25978536034353e-07,0.315306133868395,0
2.14228054979598e-07,0.32520256332209,0
1.99588082449559e-07,0.330724991929963,0
2.38155431906278e-07,0.368746092591915,0
2.32872107482203e-07,0.376409960548019,0
2.47697832510602e-07,0.390598344016145,0
2.54572806656479e-07,0.389108317468226,0
2.65571824398715e-07,0.370726552570527,0
3.65484469365523e-07,0.41680043902039,0
3.83433732546996e-07,0.405654020458552,0
3.82144197098348e-07,0.390152162627383,0
4.06585315303635e-07,0.395551099527791,0
4.00363304926233e-07,0.391427429809024,0
3.74375082315332e-07,0.386337959214891,0
3.78636437216375e-07,0.398293896375877,0
3.53574551362234e-07,0.393230844362499,0
3.37597704796709e-07,0.397741482571108,0
2.84406113334148e-07,0.413840164941286,0
1.3637041351714e-07,0.297507302235125,0
1.74982234782924e-07,0.334545389999203,0
1.97751801024337e-07,0.365876428837137,0
1.11829693160971e-07,0.290185667181672,0
1.4944887424557e-07,0.315839645211596,0
1.53772269157937e-07,0.312712298038689,0
1.60274929728747e-07,0.314972849227255,0
1.72177202991304e-07,0.312061425159519,0
2.02519178956133e-07,0.306868554995854,0
2.56700984864838e-07,0.317142232439002,0
3.24085258017499e-07,0.355796226035542,0
3.43627053006243e-07,0.378888698506263,0
3.70565649202938e-07,0.397505893488928,0
3.32860832320718e-07,0.387458274814114,0
2.77176614336831e-07,0.377559645566404,0
2.95785015885061e-07,0.382548347864428,0
3.47521166323667e-07,0.406725343275804,0
3.43729962977634e-07,0.411927549879683,0
3.11049798955686e-07,0.416684793139309,0
2.58225890119481e-07,0.402622373267417,0
2.0792790653106e-07,0.375409937345874,0
2.12197788258305e-07,0.356157885461218,0
4.42017806510427e-07,0.477468825553459,0
4.30524747398393e-07,0.425270735828475,0
5.27228732964362e-07,0.463925452562857,0
5.5564217606533e-07,0.474062720710989,0
5.58536298489325e-07,0.478995174290976,0
5.46154391252965e-07,0.473786065121066,0
5.26862005930599e-07,0.463768330871654,0
6.01491141069164e-07,0.510471270778438,0
6.168133332024e-07,0.510418758734631,0
5.81888041140319e-07,0.520774265471243,0
2.13848464199411e-07,0.346033387763212,0
1.8615421478422e-07,0.368645790062622,0
2.28608694381732e-07,0.394226401619872,0
2.42287708300349e-07,0.414981040217213,0
1.81017537069376e-07,0.3643718410346,0
1.449936810627e-07,0.331222575803681,0
1.45949861711164e-07,0.328170644834888,0
1.67593298837073e-07,0.321121015120039,0
1.8375347216592e-07,0.335171730350791,0
1.43729358557043e-07,0.297745310931948,0
1.7844331764216e-07,0.320991066390836,0
2.42099897602561e-07,0.360448452420569,0
1.78454123189156e-07,0.314325334818394,0
1.53638780223619e-07,0.302913046248825,0
1.59675111609784e-07,0.311134387160007,0
1.63740423015329e-07,0.321393581733924,0
1.52400258717932e-07,0.316677918462851,0
1.40574432862694e-07,0.316785474182244,0
1.28715161266754e-07,0.303705035555676,0
7.09220239405828e-08,0.247213065216958,0
6.26307880670029e-08,0.246392895531339,0
4.36665385391276e-08,0.209094572299959,0
8.23309173974437e-08,0.268056042227358,0
9.27454800093034e-08,0.276449826857024,0
7.75515578046931e-08,0.255901538095775,0
5.48774773153063e-08,0.225236184053575,0
5.14318309517787e-08,0.22481312578479,0
3.49321282244658e-08,0.209209553652323,0
3.28365136713394e-08,0.208690531614859,0
4.15903298663207e-08,0.219763216908378,0
4.92145621110443e-08,0.241932059745026,0
3.23943683299715e-08,0.240887260290329,0
2.92188606413448e-08,0.230564455859425,0
2.88806543710815e-08,0.229991216243935,0
3.16886264475987e-08,0.235460879904169,0
2.76107453241204e-07,0.424266610003111,0
8.22724057279958e-07,0.628898300576469,0
8.15568579954919e-07,0.599169537533387,0
8.11101111082604e-07,0.602582583660031,0
7.76889132136506e-07,0.582955352719914,0
7.24052212539633e-07,0.547391212137578,0
6.81528636247043e-07,0.531327025289607,0
6.86343132244312e-07,0.52513561534561,0
7.04271739924383e-07,0.531776559419012,0
7.01441421682651e-07,0.519328276914074,0
6.33733717191334e-07,0.549444988570531,0
2.56112413335606e-07,0.39243067795192,0
2.63568387777106e-07,0.426638722085072,0
2.59753368123408e-07,0.405862873167265,0
2.95278478304452e-07,0.428635677512964,0
2.85949762905009e-07,0.40014417093022,0
3.12311548712059e-07,0.404818568949284,0
2.77249533402273e-07,0.377511890736884,0
2.10119888921682e-07,0.334991280649066,0
2.02225150466445e-07,0.328683254677113,0
2.2632078519635e-07,0.354284403231987,0
2.10262713260548e-07,0.331276421059843,0
2.37429549072362e-07,0.340536670725042,0
2.43095110533032e-07,0.360459709566792,0
2.20133029137995e-07,0.360446201226408,0
1.84597333931324e-07,0.369069117894628,0
1.18204745367257e-07,0.312387249575412,0
1.14528286639324e-07,0.321652673674383,0
1.10172842621581e-07,0.307958025158701,0
1.05195748869515e-07,0.315081393015611,0
5.84305175846919e-08,0.255127457224009,0
3.48788355607098e-08,0.243648615192203,0
6.99565078875709e-08,0.290198830968817,0
1.37645909105405e-07,0.375376672582525,0
1.46355400505566e-07,0.366913592093451,0
1.58205336696958e-07,0.325392022864776,0
5.17634215810241e-07,0.528082794514806,0
6.6081138886365e-07,0.550174679939208,0
6.83728042857029e-07,0.564914743029274,0
7.01001555062078e-07,0.537131340760832,0
7.16416660198056e-07,0.540878513377861,0
7.19393698656144e-07,0.529984644811309,0
6.67276487294903e-07,0.510976018329365,0
5.55306983587086e-07,0.453662691315319,0
4.8242996421857e-07,0.411337890837397,0
4.12306742177346e-07,0.394148941012057,0
2.11775563347113e-07,0.303491979845413,0
1.57167122099871e-07,0.280971266793339,0
1.59496121766687e-07,0.266494259128002,0
2.11893468771478e-07,0.30050687410557,0
4.03335418407118e-07,0.373064034229576,0
1.43593752617599e-06,0.441491574122215,0
1.49698336837076e-05,0.811777869554072,0
1.88697356135146e-05,0.545566285746833,0
1.86353416145698e-05,0.534485911910754,0
1.91960337299455e-05,0.539199205146108,0
1.9363128944521e-05,0.546755442314574,0
2.0399881925986e-05,0.568997591358171,0
2.09155611463683e-05,0.570595262678532,0
2.04165221008242e-05,0.556603657493115,0
2.07968938206796e-05,0.545439150191849,0
2.10871640382121e-05,0.656712812483541,0
7.74267169833278e-06,0.648999706886956,0
4.02161656676285e-07,0.376576170364187,0
1.90596323699298e-07,0.30845783933498,0
2.03081949485395e-07,0.321609724339199,0
2.03205808986676e-07,0.321697707297316,0
1.49880802096921e-07,0.295445560795071,0
1.1666940210123e-07,0.27569638017562,0
7.54253642886392e-08,0.248503275849803,0
5.61623818152413e-08,0.225499854339896,0
5.6519332401722e-08,0.235751856975629,0
7.62654771907993e-08,0.263839870813442,0
6.73799362324378e-08,0.260033578819014,0
8.63849822132573e-08,0.292437796170149,0
1.35687164814228e-07,0.328176201325056,0
1.6049839138091e-07,0.354593713998417,0
1.23827158147064e-07,0.314081213299625,0
1.25881829233002e-07,0.312293521596025,0
1.23750784246868e-07,0.302351900757152,0
1.54416191550353e-07,0.320393771732891,0
1.60848285283638e-07,0.317084432085099,0
1.54779537256485e-07,0.306992986740582,0
1.54372013769778e-07,0.300530938452445,0
1.59812716942959e-07,0.312816680375435,0
1.31918822183269e-07,0.302255612554019,0
1.38436331192808e-07,0.316734643287434,0
1.39819367701176e-07,0.314359807806398,0
1.97243131737178e-07,0.364635898496117,0
2.68596274950765e-07,0.427727037978981,0
2.72087863265806e-07,0.416996335437219,0
2.72212825373923e-07,0.422007924160045,0
2.95227537868613e-07,0.416809216532994,0
3.59064651321682e-07,0.454658758200044,0
3.53283463157443e-07,0.446414844939706,0
2.94695346302279e-07,0.398768853554977,0
2.51843119665341e-07,0.362874011566819,0
2.97034636966234e-07,0.398289916384255,0
2.41314473999483e-07,0.359581430773233,0
1.52745227643458e-07,0.287202067249207,0
1.39628322690002e-07,0.281371663194645,0
2.35233450282885e-07,0.351966788686188,0
2.01526538774948e-07,0.319592491084648,0
3.06076674588231e-07,0.396026230370114,0
3.79155029965061e-07,0.420276564568719,0
3.83698725723327e-07,0.426563301580386,0
3.68444527678331e-07,0.437642044091413,0
3.59202256654857e-07,0.440848215562799,0
3.72998661447981e-07,0.428389053198207,0
3.96952941981467e-07,0.41586855226059,0
4.38819291092482e-07,0.45469518263684,0
3.11028628904429e-07,0.390099071601672,0
2.94671309473247e-07,0.410006896701647,0
2.17646944750564e-07,0.350678172240912,0
1.49992532923002e-07,0.306295168331915,0
1.52876070321369e-07,0.306939917964136,0
1.52308007279293e-07,0.308096154130169,0
1.50569049284157e-07,0.303388637083563,0
1.37761241780485e-07,0.300118103270862,0
1.3216227777273e-07,0.336908969316008,0
7.96758401355638e-08,0.276045563193821,0
7.93729907911859e-08,0.287622276346528,0
7.66474201989034e-08,0.281685739727102,0
7.0421366929767e-08,0.288928205241619,0
4.9769099842595e-08,0.262137516388339,0
5.61976652340039e-08,0.277193678958714,0
6.17457623130428e-08,0.267650432166329,0
6.22899355403323e-08,0.272653881088651,0
7.75515578046931e-08,0.294313513138597,0
9.10823813645074e-08,0.289637246814029,0
1.21573135745119e-07,0.307874845783474,0
1.18278620025291e-07,0.29501974752374,0
1.17571481507592e-07,0.285929879196918,0
1.22241756530668e-07,0.272668653471357,0
1.28256476822842e-07,0.290303463562253,0
1.0959007815502e-07,0.272279472540778,0
1.45431783512334e-07,0.312320169446954,0
1.58878294402731e-07,0.304277328261118,0
1.63459331779187e-07,0.312970708010947,0
1.50874912420555e-07,0.315321298589978,0
1.28629819497622e-07,0.299963171009543,0
1.78737346131848e-07,0.358468498652427,0
1.93657821841048e-07,0.362092308895362,0
2.46976286596908e-07,0.418613027042198,0
2.67795267837733e-07,0.381449470955432,0
2.85083040424532e-07,0.370797171223958,0
2.2729291689038e-07,0.326681469218404,0
2.26101807478655e-07,0.339141442550373,0
2.23645125940192e-07,0.340542867907599,0
2.63031418247814e-07,0.35745110876642,0
2.76576208160888e-07,0.350317256207817,0
2.36868763235405e-07,0.32384737216069,0
2.54975699194473e-07,0.343063999430339,0
2.48394680031161e-07,0.346163539532736,0
3.40211544562909e-07,0.434289117571083,0
3.05688262953354e-07,0.404885853972974,0
2.95331109404106e-07,0.4028788550529,0
2.55496056114098e-07,0.357165473101482,0
3.48183906539423e-07,0.418557395064862,0
3.63268156117379e-07,0.439974512563862,0
3.57770337910077e-07,0.454263309138547,0
3.61698558532304e-07,0.449092652782209,0
3.96606208885003e-07,0.459951706017277,0
4.00606172458714e-07,0.432341142853636,0
2.85012988136864e-07,0.381028724930587,0
2.68359802537934e-07,0.40543262470273,0
2.54537523237716e-07,0.393255554209119,0
2.50268229567452e-07,0.405900636970691,0
2.9554428005913e-07,0.428508979738522,0
3.63823208398787e-07,0.472357143410282,0
3.82963286963495e-07,0.498521782541189,0
3.52576618668234e-07,0.494140081360516,0
2.38746502677673e-07,0.436424320399201,0
1.23312608290111e-07,0.357400993785538,0
1.32935058150752e-07,0.362553943210897,0
1.21083651816911e-07,0.333361205457492,0
1.10731129216375e-07,0.331500382387763,0
1.15644345279056e-07,0.361152924035904,0
7.02467140068927e-08,0.288986292657954,0
2.85858173030471e-08,0.221707210705905,0
1.9573476558508e-08,0.200989792906035,0
1.97116699486613e-08,0.199577628653066,0
2.59683756878475e-08,0.220520852614162,0
2.36510636534966e-08,0.228492886952089,0
2.2783679608918e-08,0.226500256358029,0
2.49259711847824e-08,0.235866257591486,0
2.91250655531343e-08,0.239154786006036,0
3.48682505350814e-08,0.245637703847749,0
2.48501853415653e-08,0.245757909853709,0
1.5236556335615e-08,0.219116506213437,0
1.56952407795277e-08,0.205410916851816,0
2.82631945427373e-08,0.221414722364178,0
9.53332247470444e-08,0.31387907292424,0
1.11963476123779e-07,0.328786291738875,0
1.20701414780317e-07,0.319192450122973,0
1.56813626348144e-07,0.35138427208268,0
2.58458099119212e-07,0.417094967541782,0
2.6257332186088e-07,0.410150442978181,0
2.62582510251183e-07,0.419811531417653,0
2.59340184588274e-07,0.422993488929462,0
2.97107335510309e-07,0.450872775951321,0
3.15911339511304e-07,0.430039123159081,0
2.59997632291216e-07,0.395151868617104,0
2.2509645056529e-07,0.348370288584804,0
2.03507776245586e-07,0.334375047049471,0
1.97669546554347e-07,0.335429644370694,0
1.18086031364545e-07,0.280028302932237,0
1.24748643433745e-07,0.280338988706521,0
1.60736554457557e-07,0.299837788420637,0
1.71431620248579e-07,0.291813589918995,0
1.47971381084889e-07,0.274464523060136,0
1.16916900582425e-07,0.264781394477906,0
9.80515181342068e-08,0.24690547651314,0
8.46619752636875e-08,0.240617156267577,0
8.70524268848482e-08,0.245722287705066,0
1.0527844438224e-07,0.261799455062605,0
1.05783805848891e-07,0.257095882208976,0
9.49382709782716e-08,0.254155964854175,0
8.43806635061787e-08,0.251613468031571,0
9.09560226210643e-08,0.271031163009174,0
8.56116872853786e-08,0.264897484243045,0
1.17730550920513e-07,0.311879753423814,0
1.61943908943337e-07,0.361231446697282,0
1.64363763413466e-07,0.36322527686691,0
1.7208936198001e-07,0.37130245286371,0
1.84593438053835e-07,0.380227688935682,0
1.79833704862771e-07,0.382746171044348,0
1.94469855022444e-07,0.401613319258594,0
1.57328764262077e-07,0.35632480582953,0
1.18278840546658e-07,0.308532128180946,0
1.2244941415151e-07,0.320924754504542,0
1.0808193252429e-07,0.293456869121214,0
9.86101722646134e-08,0.266775074038702,0
1.42715621831723e-07,0.304617562236914,0
1.40359792065222e-07,0.299178368747272,0
1.01174615244547e-07,0.260550193970684,0
1.2147728245748e-07,0.280279534752732,0
1.38949043371701e-07,0.277146664124595,0
1.602370735607e-07,0.2885966585442,0
1.44139822328647e-07,0.288902022336544,0
1.3297144417635e-07,0.282013133980289,0
1.44748534809423e-07,0.292285261760057,0
1.38324012309748e-07,0.295965162176218,0
9.27675321460297e-08,0.255023620233414,0
9.10912757263203e-08,0.255701625181783,0
9.51505595478258e-08,0.26290617116739,0
5.5386514138078e-08,0.212829776791198,0
5.24981987767537e-08,0.220762673853207,0
3.55851655000621e-08,0.20448187238951,0
3.64022706729041e-08,0.199156265418058,0
4.59893636076601e-08,0.214458388832474,0
4.39735042823616e-08,0.211511856808945,0
4.68299175525548e-08,0.218322865250888,0
3.96230587489429e-08,0.206057797694573,0
5.32514997673334e-08,0.236593185910538,0
5.23899962925486e-08,0.2421635140795,0
4.80825524257466e-08,0.235778186240258,0
8.42698147655667e-08,0.282255911724378,0
7.00399384715198e-08,0.26721661472377,0
5.97610700076511e-08,0.2527430369298,0
5.99312389960579e-08,0.25298242392644,0
7.26753893317128e-08,0.270348917602291,0
5.96155259052557e-08,0.236263041541604,0
8.71442372807532e-08,0.284846253341627,0
9.28453761886746e-08,0.276563766618476,0
1.03359246922926e-07,0.279470934882942,0
1.03100501852001e-07,0.287977311527562,0
7.94053339250514e-08,0.2682027617525,0
1.49045981707576e-07,0.327702670715514,0
1.80906320793152e-07,0.346932570992338,0
2.08151368183223e-07,0.357469801983123,0
2.0267538159128e-07,0.34934949534161,0
1.92830131642578e-07,0.37018284185156,0
1.48810170858846e-07,0.322987796811768,0
1.40868828887994e-07,0.312077713016181,0
1.86391789803887e-07,0.343767232068597,0
1.78222208217915e-07,0.329857687982707,0
1.80858761684945e-07,0.33941968684663,0
1.40554806461008e-07,0.319252639048346,0
1.11124539335577e-07,0.296722163116625,0
1.37327843786685e-07,0.308760135486335,0
3.66791131973695e-07,0.455155062167032,0
3.90783856732208e-07,0.426730313457444,0
4.27376290330817e-07,0.437624387963798,0
4.02710607866531e-07,0.4308097315856,0
3.70888786513105e-07,0.431029552304171,0
4.10749346774593e-07,0.46103962979165,0
4.14134496776368e-07,0.467210287961748,0
4.23923807804905e-07,0.46380409731876,0
4.53832973832914e-07,0.473234493703818,0
5.77160651083121e-07,0.550933351846149,0
4.10987142315627e-07,0.479670681523061,0
3.97017260713587e-07,0.486765684436803,0
4.17125869123327e-07,0.487899634151672,0
4.24268409194819e-07,0.477662903324873,0
3.84812726163631e-07,0.446914209867132,0
3.43718716387904e-07,0.431763423006472,0
3.37868505035711e-07,0.426161848886952,0
3.38223323915641e-07,0.43276397366932,0
3.24288211182506e-07,0.433727197905993,0
1.66046488459949e-07,0.334771989390565,0
1.14647368177648e-07,0.316811419039692,0
1.06993439055466e-07,0.317490290665468,0
6.37242065130287e-08,0.266089023825042,0
5.38730759945331e-08,0.257861981846349,0
5.21606540705922e-08,0.261551722849785,0
3.90904996469961e-08,0.225711213736676,0
3.67529731539791e-08,0.207680232574202,0
7.2897380841427e-08,0.25677662923022,0
6.75622338960443e-08,0.240062924065196,0
7.23662918819287e-08,0.243521535061041,0
6.96977628166458e-08,0.228932955164793,0
7.81090358211407e-08,0.23593951609897,0
7.86956226580676e-08,0.239199396933138,0
7.50872315254984e-08,0.240491919446479,0
7.32443344592585e-08,0.247024600168676,0
6.99229151326241e-08,0.225489489091158,0
1.07952927524439e-07,0.26434229982111,0
9.35331823331765e-08,0.247280391023143,0
9.1254094002485e-08,0.250177551564978,0
8.09781658235132e-08,0.23656728885031,0
1.10981420968222e-07,0.276896635493658,0
1.59576318037249e-07,0.332771517558468,0
1.74030832097418e-07,0.353625437902733,0
1.67421659706218e-07,0.35220843653236,0
1.70942283334616e-07,0.350746555344335,0
1.56549000707425e-07,0.372257009944818,0
5.40613277350555e-08,0.278804508204512,0
5.89156645926766e-08,0.303909528026465,0
4.77131791355765e-08,0.278677529385974,0
6.58083539550575e-08,0.322543085205286,0
1.0138139077992e-07,0.366178828565519,0
5.48205092954292e-08,0.297219703886945,0
7.19105477229127e-08,0.31921517436881,0
1.10661811999932e-07,0.374214638112811,0
1.2129851313575e-07,0.396013273069602,0
1.32132874923761e-07,0.374363791592155,0
1.56462629838579e-07,0.408130364232094,0
1.65530394953424e-07,0.418389997262982,0
2.00470461947112e-07,0.442946546848054,0
2.19548500500497e-07,0.404146971249749,0
2.31245762398618e-07,0.393901883891364,0
2.42850258308244e-07,0.396055136753687,0
2.20097378183621e-07,0.383371119781016,0
1.69389592387698e-07,0.333679956090753,0
1.43742883867569e-07,0.299195526528084,0
1.47094808650008e-07,0.306845708970834,0
1.40421905583668e-07,0.29453228214952,0
1.40979016064504e-07,0.286335301990393,0
1.13520356976675e-07,0.259028862856423,0
1.12119311223313e-07,0.281933460281968,0
3.40276965901865e-08,0.194370212449624,0
4.21836793585103e-08,0.21453853495398,0
4.30046069017183e-08,0.215657280257631,0
6.49385441754389e-08,0.249294241790138,0
1.25588462307416e-07,0.283113703365982,0
4.87437489919318e-07,0.483301501633595,0
4.99403346842769e-07,0.453433517625156,0
5.20505771547653e-07,0.453377092388775,0
5.22435112989861e-07,0.458181598619983,0
5.21873518574558e-07,0.459684307865719,0
5.11741296819921e-07,0.442434804822185,0
5.4410890855733e-07,0.428889910807917,0
6.09825158087993e-07,0.454825789086493,0
5.73715445762328e-07,0.445696996271299,0
5.42950068772349e-07,0.458009800540572,0
2.17434435659642e-07,0.327627306980963,0
2.06749440344392e-07,0.343255923629701,0
1.64676903754984e-07,0.324025004093628,0
1.40333991065252e-07,0.295047597318523,0
1.44194879163341e-07,0.299440364192814,0
9.81055458691867e-08,0.270697884853009,0
1.74375433487332e-07,0.350142345136194,0
2.15064198497147e-07,0.35140979576983,0
1.9598211705203e-07,0.33350944110879,0
2.01227291279568e-07,0.348056606421882,0
2.02081150013621e-07,0.338208624216636,0
2.14320673953849e-07,0.337224204979229,0
2.79056926528384e-07,0.371790253585119,0
4.19078218294852e-07,0.465771313597709,0
4.55691233887739e-07,0.45900986421572,0
4.79871548822674e-07,0.452585630290734,0
3.91954678178144e-07,0.434559816345062,0
1.88351710209023e-07,0.324489401103014,0
1.73482689485517e-07,0.309874236764863,0
2.2476985842037e-07,0.33838082164771,0
2.61082009361185e-07,0.363837629132024,0
2.70541493931416e-07,0.371594920643575,0
2.57700681729776e-07,0.363990067578035,0
1.82878075844997e-07,0.312120547002393,0
1.73018492007423e-07,0.315659936955785,0
1.6040613994227e-07,0.312060969222642,0
9.38039825721789e-08,0.252976827045938,0
9.29274836444198e-08,0.254743395294383,0
8.4466740346535e-08,0.24557488082818,0
6.67385865893065e-08,0.245527212040622,0
3.95538885467437e-08,0.216350089127738,0
5.27540035627819e-08,0.226774571056802,0
5.38660193107806e-08,0.234219632321883,0
5.57872749695223e-08,0.22500591840713,0
5.98877962867065e-08,0.228926362427918,0
5.17582025753323e-08,0.22829136324611,0
6.69573437856344e-08,0.242559479169463,0
1.23565840326854e-07,0.30216666871268,0
1.3259780747308e-07,0.307353559731118,0
1.32706818535632e-07,0.292328191477954,0
1.59422247108653e-07,0.304628572032105,0
1.35772947626095e-07,0.290975605635975,0
8.40184204068835e-08,0.239928094196552,0
8.34662349032502e-08,0.247382691487541,0
8.43508931215979e-08,0.25244499297077,0
7.42140404182484e-08,0.243691044647339,0
7.48403211012832e-08,0.248898618004915,0
4.65891817266232e-08,0.215302769903336,0
4.05388839871973e-08,0.217863407191899,0
3.69021191053731e-08,0.218508804130478,0
1.72019162678096e-08,0.20317278256058,0
2.28634348367457e-08,0.214765980552086,0
1.15260711607136e-07,0.329611021275637,0
1.45338282452614e-07,0.371843876626478,0
1.4764875832458e-07,0.342290170969072,0
1.64452854045842e-07,0.363152606543314,0
1.82679900642947e-07,0.391816397040178,0
1.91185924328245e-07,0.393142723067911,0
2.0274734506413e-07,0.397944849271882,0
1.99476057594988e-07,0.395086835641496,0
1.96719761025534e-07,0.387458881187588,0
1.90621610149411e-07,0.404211158913228,0
1.04887018955343e-07,0.334986420911253,0
1.28543742657266e-07,0.357767538094686,0
3.42533781574462e-07,0.611898056101234,0
4.20801813301402e-07,0.619852148378698,0
3.86940904371991e-07,0.5587611625538,0
3.70103730445639e-07,0.554719518256054,0
3.4386279034785e-07,0.520685522257031,0
3.86044705535423e-07,0.549814641570344,0
3.96525718585952e-07,0.541852704852721,0
3.88037116088669e-07,0.52260415104925,0
4.21508731297733e-07,0.538479356744954,0
3.94953548251591e-07,0.51613416851059,0
2.11781076381295e-07,0.384507717793852,0
8.34247033790817e-08,0.266930284413684,0
3.08788719869988e-08,0.197094307438645,0
6.09430645361955e-08,0.244130287712283,0
4.10764048199077e-07,0.483939540211336,0
6.59183720651862e-07,0.531933584949365,0
6.81543337671528e-07,0.515300529773341,0
8.04443203469239e-07,0.526759610429405,0
7.51795638219725e-07,0.51264013757353,0
7.55617347021562e-07,0.500811059827324,0
6.88301950042611e-07,0.476001505147297,0
6.12575794609021e-07,0.434096680358477,0
6.73741659233278e-07,0.464933304981208,0
7.49075874690114e-07,0.482462926804848,0
5.81488382915712e-07,0.467015343737639,0
3.83524954885921e-07,0.426769381584351,0
3.28319268269001e-07,0.418720518518376,0
8.56887227496767e-08,0.258589794185438,0
9.59438484130032e-08,0.271517376342055,0
1.18121902840287e-07,0.31410929068261,0
1.1737323279842e-07,0.329427763416227,0
1.06532402383635e-07,0.33212781083444,0
8.55156134763731e-08,0.30535838160531,0
6.79787987588095e-08,0.25145524494555,0
2.97497261391908e-06,0.513311071367901,0
7.49011386891613e-06,0.607584998219423,0
7.28317955815884e-06,0.562902367351452,0
7.22020122841703e-06,0.564416542534582,0
7.46108473015776e-06,0.576568393473015,0
7.44356937951994e-06,0.579356389870208,0
7.48504922818126e-06,0.577231424777719,0
7.66791311715162e-06,0.587239738084357,0
7.86302579195965e-06,0.597024638463666,0
7.84512269125105e-06,0.599211564829213,0
5.89692013000789e-06,0.952256968364969,0
5.71930766337047e-07,0.447885481229174,0
1.47646406096662e-07,0.304088958567468,0
1.8027893750328e-07,0.335391998254811,0
1.89640731107813e-07,0.348249327565853,0
1.60654005959077e-07,0.333484207905846,0
1.60401361979313e-07,0.337165660367861,0
1.52665839951242e-07,0.343045216843467,0
1.34512520997926e-07,0.324986577374945,0
1.71671473989042e-07,0.356052823552799,0
1.50827206298103e-07,0.341283417061009,0
9.63884194894111e-08,0.28428895589162,0
8.88107172531806e-08,0.283000696274465,0
5.03556866795219e-08,0.254792496303282,0
3.71961475950607e-08,0.237385133654657,0
4.38117886130332e-08,0.236293226673543,0
3.27810157939108e-08,0.225279468284965,0
2.78062742697627e-08,0.209654573730197,0
2.43673170543757e-08,0.213581371199597,0
1.15286365592863e-08,0.196326852028232,0
5.35331790604543e-08,0.280804526246383,0
5.86657403764421e-08,0.283604983018905,0
5.11956525674372e-08,0.279330533094237,0
5.3880720735265e-08,0.264180042282466,0
1.22295269715791e-07,0.332118929960737,0
1.83344405029642e-07,0.391367300946509,0
1.76284192935261e-07,0.369570444905582,0
1.82437033110465e-07,0.380033983404596,0
1.96258136296724e-07,0.397704191986029,0
1.99636523643235e-07,0.395398018193691,0
1.67575657127692e-07,0.352064621349377,0
1.74794424085136e-07,0.349873835478031,0
1.74146605815232e-07,0.349375625384427,0
1.70904427166569e-07,0.355361868578497,0
1.08064290814908e-07,0.297557016510344,0
2.55158658422182e-08,0.188599950200313,0
3.24223010364918e-08,0.20229821756034,0
3.26754595661129e-08,0.202702520018418,0
3.27183877256074e-08,0.192736462677388,0
6.29236404427317e-08,0.234191918966606,0
5.99465284775216e-08,0.239676838146418,0
5.49895756769997e-08,0.237382976937133,0
7.64397625780616e-08,0.260865910049938,0
8.29242668896335e-08,0.265025195438575,0
7.49108144316856e-08,0.277574865663042,0
6.19251196917525e-08,0.272116433671688,0
4.67475895754423e-08,0.25308703283346,0
4.22002184610553e-08,0.245579057784956,0
4.68646129143378e-08,0.271896825452964,0
3.04852413464294e-08,0.257232184847788,0
4.41355139801795e-08,0.296664648808126,0
4.2359581902466e-08,0.29318317691406,0
1.80533492668227e-08,0.260161107172088,0
1.19740162140406e-08,0.250924688722084,0
3.45554042220534e-08,0.25711029661504,0
5.23223697399204e-08,0.281234281134794,0
6.76824180412041e-08,0.260853109496016,0
4.25890858400916e-07,0.490149255578891,0
4.74225687270814e-07,0.445926658550524,0
5.38911366945122e-07,0.467272572508294,0
5.42243297790262e-07,0.451609384452471,0
5.53763848566082e-07,0.459795026636184,0
5.32787856111764e-07,0.441510841030678,0
5.32713172875383e-07,0.438585302147358,0
4.79551057768915e-07,0.419493619406558,0
5.20005335058205e-07,0.438109617430228,0
5.2867094270628e-07,0.470434359900573,0
1.55287986022277e-07,0.289791445382078,0
1.34849698168475e-07,0.313279353415373,0
1.53800789921437e-07,0.343844042461947,0
1.50571989569054e-07,0.345362507456801,0
1.13815267551832e-07,0.299581976587699,0
1.12156579334381e-07,0.284133786172058,0
2.69688223254342e-07,0.382030162420873,0
2.79639985023434e-07,0.381080016921977,0
3.22414367617726e-07,0.415119344330169,0
3.51343536689607e-07,0.436673740667613,0
3.39840480608923e-07,0.438608565132343,0
4.30805030056188e-07,0.462923895532419,0
4.48644620611008e-07,0.429000288522441,0
4.19571010043569e-07,0.418488433732634,0
4.21833265243227e-07,0.422740992015649,0
4.15900358378308e-07,0.443319706095047,0
3.30567410101154e-07,0.411908318092821,0
3.17459399509511e-07,0.414253941287434,0
2.3655297663748e-07,0.347972829819439,0
1.55643981016167e-07,0.277318187962643,0
2.14110443583723e-07,0.314379396369821,0
1.85594972596834e-07,0.305877400601756,0
1.30231098652461e-07,0.279572361639722,0
1.28543448628777e-07,0.280940889815546,0
1.20588213811787e-07,0.282435372525504,0
1.25831844389754e-07,0.285845790364519,0
1.34658579650179e-07,0.302922114889119,0
3.23884142530553e-07,0.428288408180161,0
3.55233460101052e-07,0.447430527040092,0
3.44898138167163e-07,0.461425428785537,0
2.54872127658981e-07,0.401510497954926,0
2.07060743007849e-07,0.364171657221903,0
2.04228660595178e-07,0.358181743264201,0
1.9706502397955e-07,0.337920959682873,0
3.03896453337197e-07,0.392373534588513,0
3.13619607955556e-07,0.384273036853793,0
3.5695764316458e-07,0.412194780408735,0
2.05423004320289e-07,0.338557199181265,0
2.35194932550736e-07,0.342735411400217,0
2.97192015715339e-07,0.366845651226916,0
2.5999410394934e-07,0.35231031837635,0
2.67875023065561e-07,0.352391570179193,0
2.69750924829769e-07,0.367697231342339,0
2.66154000808297e-07,0.372288229467814,0
2.32504571870094e-07,0.360173033104276,0
2.35474553644429e-07,0.360451164076586,0
2.3447573886496e-07,0.35456758176733,0
2.31306405774616e-07,0.366804980808409,0
1.42338089250963e-07,0.327049058039066,0
4.32880503657772e-08,0.239412840235009,0
4.97911519793217e-08,0.245592581988259,0
1.77481844480882e-07,0.362779076813104,0
2.20118621742001e-07,0.355110296055058,0
2.18533146618482e-07,0.365369572096826,0
2.25375777630494e-07,0.359344113756267,0
3.78995740030772e-07,0.437915339508153,0
3.63602687031522e-07,0.419232274408839,0
3.73365609003111e-07,0.417321686532987,0
4.88277823342845e-07,0.463089213853011,0
5.15211200533847e-07,0.456930396598484,0
5.11368542202119e-07,0.45515962731725,0
4.09311179924408e-07,0.443502265222188,0
3.57825100716281e-07,0.444498303655988,0
3.70886948835044e-07,0.452329157835552,0
3.61198710099835e-07,0.44214621734653,0
1.92889745918862e-07,0.357136806348452,0
1.73106700554329e-07,0.346298980008519,0
1.67465469951182e-07,0.352035425204256,0
1.09339786403173e-07,0.29178702179553,0
1.00001441570693e-07,0.285079784159604,0
8.55911052911005e-08,0.27527710672567,0
8.78615932884687e-08,0.25937724683639,0
8.79345123539112e-08,0.267472483255962,0
6.91720398770842e-08,0.242054067516185,0
6.34296634734841e-08,0.237785081529136,0
9.99050002260756e-08,0.277679867013814,0
9.48019152661788e-08,0.264114095303228,0
1.2274807358991e-07,0.266966214567537,0
1.10047218949362e-07,0.251000483081224,0
1.27816536695146e-07,0.268204384208058,0
1.50360362563602e-07,0.294106810492845,0
1.49162490496614e-07,0.296144466796765,0
1.80468879907619e-07,0.324856482994308,0
1.8812097135174e-07,0.334239817679636,0
1.99058831168122e-07,0.342085269970556,0
1.69067925219979e-07,0.334856278388556,0
1.84320653122527e-07,0.363328694167391,0
5.42730282476307e-08,0.245250513315574,0
6.87215147237603e-08,0.291552708134217,0
1.60056760589399e-07,0.39392738642956,0
1.86143556251468e-07,0.388557544263736,0
1.95466611602485e-07,0.415005269591636,0
3.76447027575038e-07,0.505005672736843,0
4.47844863119058e-07,0.489747399648997,0
4.57777733557686e-07,0.495092883449939,0
3.79975957508269e-07,0.448978101343369,0
2.8888593140303e-07,0.387586018417205,0
2.40972592373098e-07,0.357289746670597,0
2.59062401172642e-07,0.359245407440741,0
2.45275625812555e-07,0.358555944293966,0
2.58672813423806e-07,0.361483434012993,0
3.69934884585435e-07,0.412345227911423,0
2.82793661096701e-07,0.366558201369083,0
2.51431479779778e-07,0.377083300550745,0
2.03515126957828e-07,0.349817437832431,0
1.85879004117872e-07,0.336018317960638,0
1.96770921982739e-07,0.344777501975472,0
1.88413456191857e-07,0.338206169461455,0
1.83069194363294e-07,0.330578054073587,0
2.74031024047029e-07,0.392836033814064,0
3.08558789591052e-07,0.425680654127211,0
1.65740331295062e-07,0.339147806238094,0
1.44553005863781e-07,0.330797639104507,0
1.60465460190065e-07,0.329868666452305,0
1.79060189413525e-07,0.341490650992634,0
1.90262674870625e-07,0.343811461394918,0
1.30295784920193e-07,0.295280798068466,0
6.87462131168941e-08,0.230750216129146,0
8.96757490698412e-08,0.240735140795152,0
2.75570557219034e-07,0.389303284897539,0
2.95489223224435e-07,0.40259564772472,0
3.01090465952986e-07,0.402342480734245,0
3.20886889613798e-07,0.406189484545859,0
3.13719357120683e-07,0.417814436661341,0
2.94528338120136e-07,0.418451508024142,0
2.91244407425937e-07,0.420847594114756,0
2.83358195796902e-07,0.411010202146382,0
2.75212504025717e-07,0.405919067336874,0
2.54981506257145e-07,0.442322919892187,0
1.31977627881207e-07,0.345970424371713,0
1.50889540337917e-07,0.351569950692024,0
1.49392347268427e-07,0.345090484116094,0
9.39767978169928e-08,0.291044600340421,0
1.11433857306729e-07,0.317857825841679,0
1.19508247169164e-07,0.31357795429909,0
1.4250127506274e-07,0.328546510065747,0
1.37937952902787e-07,0.337078686950176,0
1.20659368706292e-07,0.323486835050015,0
1.1663206048304e-07,0.299450223722941,0
1.08786498292704e-07,0.27236921487929,0
1.7852829187568e-07,0.34019895179889,0
1.86222943943684e-07,0.339978559033267,0
1.89413520592407e-07,0.348190327232148,0
1.74134844675645e-07,0.341193599836323,0
1.67446652127841e-07,0.339499065644172,0
1.36446272867479e-07,0.311041775040937,0
1.4653733063356e-07,0.316792422741481,0
1.45682295785549e-07,0.312434707104477,0
2.24284931933752e-07,0.365958026905714,0
2.37418596511121e-07,0.346925504325792,0
2.26231400535485e-07,0.353608573944933,0
2.30143229069412e-07,0.369913424512164,0
2.28791800623685e-07,0.361200281885948,0
2.37218657138134e-07,0.354736802565037,0
2.31535453968083e-07,0.359489752862743,0
2.49278603178285e-07,0.371810588489196,0
2.44670000630921e-07,0.358150153911656,0
2.46921597297827e-07,0.356276135121538,0
1.37264039604423e-07,0.29905349721521,0
6.9251942119157e-08,0.246657804518343,0
6.14902515555042e-08,0.241528696300392,0
4.47700274609253e-08,0.215381299293072,0
4.60125183512232e-08,0.226204030778248,0
5.13020908807042e-08,0.232489939937301,0
7.19158402357273e-08,0.234474244187525,0
2.28448154826363e-07,0.371497967321017,0
2.88017959301472e-07,0.405543391111947,0
2.91242275719387e-07,0.420846164210942,0
2.93569584722387e-07,0.413683405696673,0
2.75203095114047e-07,0.414886810842544,0
3.17477261740259e-07,0.415846319142292,0
4.14782462060516e-07,0.455854478632146,0
3.67465412807672e-07,0.414056133634521,0
2.94484601382295e-07,0.3868766055986,0
2.58750363437961e-07,0.384084962058576,0
2.05371255306103e-07,0.355616310427499,0
2.10048145970198e-07,0.370940598322034,0
2.21922192497745e-07,0.356248088725533,0
3.17186173535467e-07,0.398001556018568,0
3.11576109952227e-07,0.389752902211303,0
2.80229732666626e-07,0.40174384827017,0
1.71908534458852e-07,0.327045609425132,0
1.85346739044415e-07,0.326403633409177,0
2.60723882660745e-07,0.367854763160566,0
2.60759533615119e-07,0.372258087403762,0
2.52513210593339e-07,0.374134168794859,0
2.03735060268114e-07,0.342810519198008,0
1.86881567760584e-07,0.352182083954181,0
1.19170996491493e-07,0.327291996678586,0
1.29879440578795e-07,0.312919673118567,0
2.70527160042544e-07,0.407794736591296,0
2.80938341326772e-07,0.419308107786544,0
2.64519202405634e-07,0.432980300182539,0
2.33675613837397e-07,0.406647650129654,0
2.41768233466193e-07,0.422251561132723,0
2.37326345072482e-07,0.427221527834248,0
2.29114129355505e-07,0.420142864108535,0
3.25845092035402e-07,0.425174969176899,0
4.76452659051709e-07,0.456236654137863,0
4.88197259536671e-07,0.472357669803457,0
4.0491251371868e-07,0.430070114927668,0
3.8378774284858e-07,0.41919340535802,0
3.84802141138002e-07,0.416974216116007,0
6.21240446664505e-07,0.503251699545338,0
6.70228533331367e-07,0.481674305643501,0
6.02914312466374e-07,0.448015209136205,0
6.604656848669e-07,0.460164249695781,0
6.80845902093989e-07,0.487975701112847,0
8.11496946936847e-07,0.516104247444078,0
9.38450142479148e-07,0.523615367822175,0
8.94132992399463e-07,0.525103212695635,0
8.66783638402676e-07,0.498663264383322,0
9.07603981161627e-07,0.500590709642198,0
8.59991065741033e-07,0.48974140558165,0
8.62417315330813e-07,0.512944878276993,0
9.18031995576889e-07,0.529402775752323,0
1.02814566496492e-06,0.551874893123536,0
9.72231075659365e-07,0.539670744394988,0
7.42473758982667e-07,0.523666160719347,0
4.98026999482542e-07,0.470458244512051,0
5.55907683791517e-07,0.489393096522442,0
4.87619787582924e-07,0.487190095207664,0
1.17350078054857e-07,0.264194772030123,0
1.23088558580969e-07,0.284921229668255,0
1.24668447163183e-07,0.280358875228987,0
1.16567374215308e-07,0.290115454416513,0
6.89567375155104e-08,0.251140092392481,0
6.68442163242267e-08,0.27532106461175,0
6.24808335372621e-08,0.260397889933319,0
6.28068376252033e-08,0.256996350946697,0
4.78520340898315e-08,0.2407308047621,0
6.24898749133199e-08,0.260597704845588,0
5.88286321597292e-08,0.26370938098076,0
3.10141250922556e-09,0.166010965656067,0
2.96909968886615e-09,0.165794247148228,0
3.45554042220535e-08,0.211922696338787,0
6.48121119248731e-08,0.234272105119994,0
8.20304202809829e-08,0.23280862753788,0
8.19293479876528e-08,0.237678571107748,0
8.09905150200801e-08,0.235320192158391,0
8.7667534485275e-08,0.235115563046534,0
1.85385330283686e-07,0.295047574281146,0
3.88657516201909e-07,0.402541485413076,0
3.94062641927838e-07,0.39981112822581,0
3.92641014180198e-07,0.403712068975546,0
3.45270010699495e-07,0.384358190555352,0
3.3065503059108e-07,0.393856939300864,0
3.364538604647e-07,0.420005332563549,0
3.06958172000315e-07,0.401677301856281,0
3.52654242189511e-07,0.413313159426602,0
3.43656970405069e-07,0.419459762079931,0
3.10199836099121e-07,0.457698279473894,0
1.26361095671192e-07,0.32791266415585,0
1.12318295003709e-07,0.333298124666017,0
1.27040301482371e-07,0.336542241382262,0
1.66686294453509e-07,0.35361399761912,0
1.99419310096478e-07,0.372543911965869,0
1.95837455035103e-07,0.359874694220111,0
1.98082362553869e-07,0.354651577568099,0
2.07657032784936e-07,0.357089515009517,0
2.17671643143698e-07,0.364720212619279,0
2.41078736657876e-07,0.381990048725758,0
2.45944320105227e-07,0.385089983566837,0
2.48762215643271e-07,0.377211226899248,0
3.86965014708145e-07,0.44482084774957,0
5.00267790602452e-07,0.466469272877771,0
4.72925493289416e-07,0.479995358166705,0
4.5774355274576e-07,0.474497611301249,0
4.72168002392858e-07,0.497567817840271,0
4.52912076603212e-07,0.497279888318882,0
4.57849182480681e-07,0.490169998976186,0
4.5109093764521e-07,0.473335474579732,0
4.52516902313073e-07,0.469627507738861,0
4.70038133520683e-07,0.470527433954304,0
3.2810675917808e-07,0.41262672858053,0
1.18789862061735e-07,0.287131482225426,0
1.30070559097092e-07,0.294806032893305,0
1.59277585091726e-07,0.324565983938951,0
1.15769674922786e-07,0.278367221044543,0
1.12908483689635e-07,0.29856038372738,0
9.07607877039117e-08,0.260316642725744,0
8.76992895621611e-08,0.250476796729262,0
1.43992808083803e-07,0.304402064689094,0
2.08176948661825e-07,0.370888347248072,0
3.24129435798075e-07,0.474558838329263,0
3.41363548185505e-07,0.499237006624919,0
2.99455153000465e-07,0.463950202269235,0
2.05387132844547e-07,0.385028168282566,0
2.29383753480549e-07,0.415754139492621,0
3.30398123198216e-07,0.462102647825938,0
3.47588131312193e-07,0.451135472380264,0
3.6336195120559e-07,0.445412857104676,0
3.59666821668563e-07,0.436816656258449,0
3.51366764940292e-07,0.424454604411366,0
2.76951315006607e-07,0.383207993311332,0
2.72557941313694e-07,0.377256649075067,0
3.85862775407429e-07,0.448722908649579,0
4.90618290120758e-07,0.502444253479782,0
4.93382525459434e-07,0.475713282458481,0
4.39699097840751e-07,0.465405558019184,0
3.92569197721592e-07,0.475259293677417,0
2.68668311930738e-07,0.410316498529915,0
2.41607987939313e-07,0.395131728574163,0
2.24472889645785e-07,0.369435111903984,0
2.25828581504612e-07,0.351994829206488,0
2.37050546349155e-07,0.359843081806623,0
1.82223568426952e-07,0.301458970160736,0
9.07001443279134e-08,0.224488285296016,0
9.60165469570786e-08,0.233507694361994,0
1.13846140543249e-07,0.235065040691807,0
1.40886103061763e-07,0.261335213348559,0
1.39152290565197e-07,0.254162770002021,0
1.68514784123755e-07,0.279174400298062,0
1.27465738654812e-06,0.479387676397223,0
1.98937706131795e-05,0.398608030004989,0
0.00019752479669641,0.406246188290045,1
0.000267536436910489,0.233363635994272,1
0.000363818359868992,0.159796493903202,1
0.000599369470960902,0.140996295440256,1
0.00055930130218133,0.113628077494163,1
0.000499653566631143,0.108560736266818,1
0.000442760044458561,0.0979399080380202,1
0.00035956291905699,0.0844339865639953,1
0.000287331006207126,0.0716427470129173,1
0.000266425377343139,0.0724416537690753,1
0.000254692482132352,0.0787400090204312,1
0.000256162206839813,0.091922825955318,1
0.000250152905125169,0.140624541488008,1
0.000156920728945276,0.167637154895595,1
0.000145884832679721,0.22404141305888,1
0.000140363657951805,0.228153274708432,1
0.000142261001229073,0.261629044076722,1
0.000140828094548568,0.299330040208328,1
0.000134141852879795,0.303999600489538,1
0.000127056446366218,0.283344834033371,1
0.000121134354089673,0.307092560027978,1
0.00011010995522015,0.283675693543594,1
8.1919263177992e-05,0.21106610798066,1
0.000240645706199688,0.0999105783782876,1
0.000739462527951513,0.198548695693176,1
0.0011453598012998,0.24377943707566,1
0.00239080861820372,0.190711057587198,1
0.00398083162628367,0.256137419599714,1
0.00937590264401204,0.0403613191715472,1
0.0229764320042058,0.0429433252960091,1
0.0215453444508431,0.0323187972543427,1
0.0195729645314155,0.0300006539234458,1
0.0168153502568187,0.0259793121572232,1
0.0176117689762486,0.0231563347020624,1
0.0170507819576485,0.0176679636723016,1
0.0156109874479992,0.0159871172672473,1
0.0149218064501694,0.0146990515421011,1
0.0146283460396954,0.0137936772177159,1
0.013498432360891,0.0208421287284466,1
0.00752012259240269,0.0140042817283211,1
0.00830030278601233,0.0198084935334844,1
0.00711310838692953,0.0174748239821197,1
0.00572562989372612,0.0119708831679467,1
0.0100877513308135,0.0244154536112708,1
0.0104176229060282,0.0315196210319868,1
0.00795171111723506,0.0236300633826731,1
0.00742099156373755,0.0199181997108298,1
0.013344488874533,0.0285179853434021,1
0.0132013467801811,0.0148427806944295,1
0.0127081535920153,0.0146472373850519,1
0.0129855600184316,0.0143817162123285,1
0.0159105099641763,0.0176451364064708,1
0.0188311904850405,0.0219131350192364,1
0.0161314579320852,0.017418337750535,1
0.0164586234472621,0.0139707004703,1
0.0203533877225182,0.0177099278276182,1
0.0215695049941998,0.0207415837263456,1
0.0110545580321718,0.0109035838023018,1
0.00857545932877171,0.018210077975682,1
0.00815046966357529,0.0188993207781256,1
0.00739383424702459,0.0192865456473716,1
0.00737772415733256,0.0197237265839531,1
0.00739421702985156,0.0189028343048253,1
0.00493213773578088,0.0189707107253157,1
0.00191982685317051,0.0174615079986511,1
0.00222045020848463,0.0231106056311334,1
0.00342218437195386,0.0377235194749402,1
0.0034555311292144,0.0307585204577313,1
0.00304741875158961,0.0290437377225696,1
0.00331370296034182,0.0333212145771926,1
0.00340706241770603,0.0362609407661212,1
0.00259301929129539,0.0308117470002842,1
0.00183262887137772,0.0420219427186261,1
0.00192321297530398,0.0455255010541746,1
0.00193478576428388,0.0490559405057607,1
0.00205741055525641,0.0609900496076547,1
0.00178534219820814,0.0469821703468861,1
0.00259381883120625,0.0505931721519593,1
0.00248982888964461,0.0485254855138676,1
0.00220169787087581,0.0566673607270771,1
0.00150410465054998,0.0395785722593003,1
0.00133658266148692,0.0397501072446091,1
0.0016740752958644,0.0466143771860585,1
0.0108276906073637,0.0229227900728447,1
0.0371517918272792,0.0570898487642637,1
0.0526775119847392,0.0759625266978471,1
0.0579297728563569,0.054550530984676,1
0.0564672665407459,0.0589998528767927,1
0.049431747803894,0.0549677085137371,1
0.0525578501827349,0.0405744991768748,1
0.0484826366612501,0.0338868128863443,1
0.038722936779989,0.0261471846823451,1
0.0253078695076128,0.0155079903304665,1
0.0223237328328519,0.0157535610482209,1
0.0238787964928729,0.0179373521109156,1
0.0251740046872734,0.0190207281550625,1
0.0255355622961925,0.0207529046787123,1
0.0233209051359523,0.0187005536560651,1
0.0240887185271571,0.0183928916355011,1
0.0252234426598756,0.0284791337687434,1
0.0241148917612411,0.0301460648768053,1
0.0241139744641697,0.0287703194904198,1
0.0254279768687762,0.0343810615982424,1
0.0238102275318907,0.0449838018664024,1
0.0212715691680719,0.0395345362448766,1
0.0186128833448907,0.0333456226768598,1
0.0152233661805199,0.0311377182622594,1
0.0191036450605651,0.0289701127901855,1
0.0232529138738403,0.0225858081339099,1
0.0210336022811261,0.0180520826623002,1
0.0216023092223668,0.0180746497737427,1
0.0236126728473454,0.0180320465715094,1
0.0232057872686044,0.0147416127509122,1
0.0250083688996455,0.0159363336962054,1
0.0277744288085187,0.0179794994835496,1
0.0299436539295378,0.0198150818579002,1
0.0349141607539375,0.0238794696676889,1
0.0355243708791167,0.0273126579107785,1
0.0210591013017821,0.0274736631314426,1
0.0196688562009446,0.0164494813854513,1
0.0427053343486426,0.0272569054223488,1
0.0394161666589859,0.0288637591583248,1
0.0390583137555237,0.0324371795123719,1
0.0437985156465783,0.0326232226747972,1
0.0476625644680152,0.0330234062533593,1
0.0661604380072762,0.0413429098459405,1
0.0764614543582491,0.0436711101427633,1
0.0845617249705165,0.0481993717110207,1
0.0953304194742229,0.0512335719155716,1
0.0941376298272114,0.0846921977907124,1
0.0463531267366295,0.0719019546289511,1
0.0275105118558476,0.0516132218768837,1
0.00870199351026744,0.0182969693266777,1
0.00875768139353697,0.0256345863735643,1
0.00913835986155451,0.0382313782772638,1
0.00883511002626292,0.0512822926699485,1
0.00871553706232057,0.0495129923557109,1
0.0148992251941067,0.0544669753469737,1
0.0153451659428399,0.0476769287553361,1
0.0119723614187603,0.0418631050983809,1
0.0111950210316918,0.0286009783334091,1
0.0107393957195795,0.0265058731522545,1
0.00863517072714996,0.0247122775635323,1
0.00929467089324409,0.0279877044868268,1
0.00966326272272713,0.0291390578499489,1
0.01018597324375,0.0300291015821408,1
0.0102562898486229,0.0297933233195542,1
0.00646068764342818,0.0268382372645251,1
0.00459692120747662,0.0241018453601995,1
0.00430511536051489,0.0155338383786511,1
0.00422298974917193,0.027087836653588,1
0.00375784842191041,0.0240319015346009,1
0.00891749418729487,0.0316191510524332,1
0.0119961976821386,0.0357910909396027,1
0.0228666144303278,0.031970981206304,1
0.0361671038165457,0.033038381354616,1
0.0343709367605059,0.0332392181984882,1
0.0342110337003692,0.0329502045510607,1
0.0343625078393234,0.031900562619347,1
0.0377090597662517,0.0388919636344418,1
0.0270616896291651,0.0200727821591234,1
0.0175590110635036,0.0127854135044411,1
0.0164617839841962,0.0142107702208982,1
0.0157258955718146,0.0132381009320148,1
0.0142396942732206,0.0193069717149921,1
0.0116637269710079,0.0217658086671569,1
0.011321465347202,0.0215345645807806,1
0.0120774647516087,0.0235211947749381,1
0.0129160381675679,0.0277515763508378,1
0.00801247260741774,0.0133560754132924,1
0.00911345674674788,0.027772957588539,1
0.00980614500461126,0.0226086508545194,1
0.0124412207653827,0.0261822351433978,1
0.0123586061865726,0.029247712426759,1
0.0122555008250913,0.0160720870536409,1
0.0257863528897915,0.0248119827185405,1
0.0301421636904341,0.0199783283933022,1
0.0317375862020478,0.0151063956486307,1
0.0757183462009714,0.0234918584898475,1
0.118594357805665,0.0272611824514517,1
0.120662353911097,0.0212121027273283,1
0.119641391510987,0.0227821393698622,1
0.108215461409435,0.0200346167635768,1
0.0934118681071583,0.0180917440580025,1
0.0792071308926173,0.0194444729837965,1
0.0791494164196732,0.0211909641994421,1
0.0815353078533853,0.0246109728165351,1
0.0802473868434315,0.0288601345553576,1
0.0533442892663479,0.0471339224944236,1
0.030856846474552,0.0168426871755837,1
0.0430163747802182,0.00935574663520182,1
0.0579208909978849,0.014418558829425,1
0.0685868938526759,0.0176612482738886,1
0.0781668999663473,0.0201067586935301,1
0.0862608764040899,0.0207283397256288,1
0.085500494082746,0.0204956020090657,1
0.0882170996858078,0.0205469299213848,1
0.0994176092865261,0.0231666999514604,1
0.106371963159608,0.021988077889642,1
0.0597047684507581,0.0179011146278866,1
0.0138797596821587,0.0382145348481381,1
0.0144174494862793,0.0396263364988022,1
0.0135320830041668,0.0415172351720792,1
0.0125911585057292,0.0387686741254538,1
0.0125328869017223,0.046185136653086,1
0.00837065783606587,0.0327080653727128,1
0.00704679964963068,0.0437055712907271,1
0.00730397626828523,0.0823545783681416,1
0.00591428660167218,0.0681103680444673,1
0.00456942095188433,0.0554131881751786,1
0.00400060610836247,0.0555695717224279,1
0.00298024625047196,0.0412414297614669,1
0.00908094701479633,0.0479004508499154,1
0.0106805405537008,0.0129025841117943,1
0.0139250438127738,0.0141165024440134,1
0.0159765336251239,0.0130257401671687,1
0.0171352663896157,0.00933465488248359,1
0.0189563812920454,0.00912122472292511,1
0.028947760210795,0.0128963945315655,1
0.0300454099405463,0.00719510500703968,1
0.0330723358078225,0.00851016645341019,1
0.0339624122774015,0.00862380105524203,1
0.0289105831697592,0.00704838008667681,1
0.0280258187712552,0.0110521646325048,1
0.0247084352969445,0.010345686427915,1
0.0222340404031783,0.0107791496297552,1
0.0232295308994832,0.0120563070874667,1
0.0318461561451235,0.0187113453335677,1
0.025016134655153,0.0181350917444467,1
0.0281557491140461,0.0608786817354098,1
0.0259428703288928,0.0389779801855257,1
0.0253025352721558,0.03356696552741,1
0.0269557252744605,0.0351892167310442,1
0.0277167029652724,0.0365033721170857,1
0.0207270332217246,0.0213610928439075,1
0.0161821727250946,0.0170310120464191,1
0.0147108729840492,0.01834333225436,1
0.0142615457657879,0.0181508578003242,1
0.0145853041573319,0.0176079307295619,1
0.014638840583937,0.01683719892408,1
0.0128936411083723,0.016640947998378,1
0.0224211789583075,0.0242403607796883,1
0.0330325342878937,0.0235082209038567,1
0.0306865729643097,0.0217384031994607,1
0.0306515581077148,0.0266764024512341,1
0.0254728653900125,0.021654043556146,1
0.0260002374206281,0.0210486916084176,1
0.0252287158565619,0.0154936526364941,1
0.0376940988825747,0.0210755408007268,1
0.0400694799990338,0.016522265210533,1
0.044209387973709,0.0170142321426683,1
0.0416143510783968,0.0154520315517959,1
0.0430563891723631,0.0206951992673304,1
0.0442438900952643,0.0127342637245889,1
0.0547502499764945,0.0149535874933484,1
0.0560446263189437,0.0142929094134726,1
0.0520174587171691,0.013974503983447,1
0.0512509052460549,0.0162575314696774,1
0.0408315654460029,0.01593437145766,1
0.0321500238306398,0.0175553606228273,1
0.027509380219358,0.0187274339173172,1
0.0263351331947231,0.0238454803746646,1
0.0163888369240071,0.0165120845326487,1
0.0148952021398876,0.0285032876782393,1
0.0337452442591187,0.0415559214373505,1
0.0488712980273875,0.0211603119358317,1
0.0641895613402571,0.0214511528759662,1
0.0755924693035517,0.0139629469438761,1
0.0882469169532313,0.0150870180611326,1
0.0944441819876195,0.0146355067868473,1
0.088850216549237,0.0135531857450299,1
0.085744307779502,0.0127643598775816,1
0.0786018216687791,0.0109337153911259,1
0.0729446347010171,0.00994913190499845,1
0.0730626187603611,0.0116154399448033,1
0.0691809059707778,0.0194871050794271,1
0.0330550577905129,0.0088841360700708,1
0.0286784473654806,0.0404487969810956,1
0.0218092264200045,0.032733068298257,1
0.0174948217274421,0.0283867141691409,1
0.0222674857998669,0.0365370062443761,1
0.0203559344444746,0.0347999435089408,1
0.01601828704267,0.0261716026948746,1
0.0276744488380844,0.0425021291372575,1
0.030749977908808,0.0239940039684383,1
0.0330432808339568,0.0203709307260385,1
0.0340613882763111,0.017826661881751,1
0.03113676082638,0.0184676866276203,1
0.0229395821601316,0.0128568231160246,1
0.0191170302706318,0.0111430497957573,1
0.0235124048048506,0.0149020254749263,1
0.0273909114246458,0.0175224255009439,1
0.0397404522897009,0.0268316050655777,1
0.0339053208093691,0.0228509031958765,1
0.0298007338241228,0.028911741202897,1
0.0243444777846379,0.0372465835448833,1
0.0198805374564179,0.0264179852602667,1
0.0203153296304056,0.0282696267109223,1
0.0197672288293566,0.0290817466305759,1
0.0176637670499121,0.0243527511628657,1
0.0173123840002039,0.0258172356591,1
0.0212257613058987,0.0198396528798598,1
0.0414386456663566,0.0366733027406864,1
0.0344752207212219,0.0232148544546677,1
0.0353371368972617,0.0221188232806922,1
0.0379469737096191,0.0268188498810108,1
0.040517756663572,0.025142834369861,1
0.0986472892362168,0.0413037898447821,1
0.132498892022575,0.0386374445000992,1
0.120185178245177,0.0410054160592279,1
0.0952182232448527,0.034768040664269,1
0.0790831592657035,0.0322274101397059,1
0.0789554295265125,0.0275560452137252,1
0.08311126132317,0.0256502743223874,1
0.0600219825478852,0.0141759581223554,1
0.071348367955104,0.0164047044931488,1
0.0981114513931786,0.0262926562683498,1
0.0934179388145912,0.0178518925795317,1
0.102237159315531,0.0223375868472085,1
0.111721014931025,0.0223916749533318,1
0.111706678565624,0.0219473845963173,1
0.118207503515103,0.0199316490667012,1
0.147189249987626,0.0293314258336729,1
0.139494146128676,0.0328651171984558,1
0.141472886877196,0.0314005882888188,1
0.137657563293379,0.0312943910041902,1
0.13133768477312,0.0299805532647712,1
0.130830998996271,0.0584225922516148,1
0.0997643816477754,0.0494397507176617,1
0.0618899002241863,0.0356034286895015,1
0.0400751129860337,0.0235228896287363,1
0.0263277695746302,0.0254805138438698,1
0.0357220199113033,0.0268428930888357,1
0.0466428231669733,0.0360027711281295,1
0.0465467085644552,0.0439503045332955,1
0.0455141169153532,0.0347061381644806,1
0.0525361918104319,0.0382079123692137,1
0.0559623424200096,0.0425255044686519,1
0.0486062725723884,0.0317817557278229,1
0.0509887560069977,0.0315019286924318,1
0.0422537126943515,0.0188948720567782,1
0.0376911766357376,0.0146211917950148,1
0.0512918911012731,0.0207000981068259,1
0.0492178400453948,0.0180562960179069,1
0.0644862348101948,0.0244975263448067,1
0.0859261176134579,0.0412055654668769,1
0.08301590461966,0.0258117411075788,1
0.0650088032974479,0.0195829912432847,1
0.0613267915398883,0.0197084911536737,1
0.0610547792689949,0.0192187422292194,1
0.0472120811647218,0.0233421291167544,1
0.0198263011335108,0.0103571860383846,1
0.0218292666624534,0.0145026318613595,1
0.025964482342312,0.0190766838965393,1
0.0347718422455138,0.026948757701993,1
0.0492969960701377,0.0395550071580027,1
0.055454487974812,0.0364096049833846,1
0.0550278321936504,0.0425312920564509,1
0.0470519271409781,0.0387843769396947,1
0.0518605034303204,0.042165997745346,1
0.0463545204761425,0.0338342515409636,1
0.0408953575989716,0.028991267403987,1
0.0418954771239095,0.0291797844548131,1
0.0422669934058108,0.0307386207965142,1
0.0468041978806443,0.0282793270352233,1
0.0415511261286574,0.0238158908395375,1
0.0357675944868623,0.0173638117011023,1
0.0428486705164992,0.0149463076719868,1
0.0409438361407345,0.014809208327091,1
0.0334591639461676,0.0113804864883844,1
0.0355117981176201,0.0117927231506271,1
0.0427952570787035,0.0137157888575381,1
0.0435271733654672,0.0114262404769543,1
0.0480737426077829,0.0111772574920732,1
0.0681787365816787,0.0226199218163061,1
0.0568390004092426,0.0142706129970982,1
0.0548950728237703,0.0160023978822258,1
0.061705472958171,0.0255318934730893,1
0.0598083461534981,0.0202703601209819,1
0.0719583568477344,0.0129172949936955,1
0.0762642004253754,0.0139493355995151,1
0.0463692439812843,0.00758076168412289,1
0.0534994730921896,0.0109499281334616,1
0.0558179508387269,0.0100971310529411,1
0.050051942028463,0.00884380915593614,1
0.0496559689910393,0.0102830396471628,1
0.0496075721380356,0.0102501776471981,1
0.0474253817764419,0.00939604736196164,1
0.0455537353860816,0.00945091389824354,1
0.0880551414759068,0.0283988585289173,1
0.0984668404726358,0.0198819678773531,1
0.101584842608792,0.0196848197322799,1
0.0863993663104344,0.0160492334105924,1
0.0821822855166401,0.0175356993456158,1
0.0920789431098777,0.0128233351001071,1
0.128249316947218,0.0162226438854475,1
0.120281988993297,0.0127943688848014,1
0.111645922606999,0.0117205331460077,1
0.113646275973829,0.0132225340277682,1
0.115911329608675,0.0154194031018657,1
0.13131048945146,0.0245211474232155,1
0.129680050329886,0.0190045248756411,1
0.133728723557046,0.0201343125494813,1
0.135884092538444,0.0178836799974294,1
0.12032372005174,0.0265513196639454,1
0.0590222595338174,0.0152296411800772,1
0.0618463620876681,0.0220286769097784,1
0.0625372615661729,0.0153645948362876,1
0.0712133290590113,0.0186250318576232,1
0.062778408250536,0.0170942903254265,1
0.0432920621140127,0.0118100394999452,1
0.0397494141816252,0.0162241553673734,1
0.0395413001907111,0.0124696401400664,1
0.0406250824087015,0.0141537711451471,1
0.0413939524009135,0.0132910159138052,1
0.0417199057387288,0.0122197431200714,1
0.0460059315308776,0.0122537336830928,1
0.0755804420807508,0.0297965447235548,1
0.0877828482267577,0.0361252378141388,1
0.113856445224841,0.0478547635198568,1
0.133943212850458,0.0608453217492726,1
0.120274768692466,0.0444569502190021,1
0.0720308180989838,0.0350069344650605,1
0.0655400796631344,0.0340097661821699,1
0.0522221181853671,0.0324032892108125,1
0.0240589374486866,0.0148062169618969,1
0.0235286906738886,0.0199682283887848,1
0.024572975928718,0.0230446517611569,1
0.0250025835708986,0.0230241116980163,1
0.0200500282522356,0.0176569962280827,1
0.03311709199573,0.0183972094228888,1
0.0421089101799542,0.021273304971696,1
0.0418683047769012,0.0235090623273241,1
0.0387243916531705,0.0207857964407006,1
0.0373292740298868,0.0191855259645687,1
0.0342986866317091,0.0163496144900884,1
0.0397376253116228,0.0188655483594484,1
0.0393315932336362,0.017054022798081,1
0.0401428374815365,0.0179625377418273,1
0.0365454150464914,0.0153767657482951,1
0.0262318900843491,0.0199999176151462,1
0.0176353067489609,0.0168947644993781,1
0.0183455384463712,0.0128737545912253,1
0.0258692755641494,0.0193344592406964,1
0.0254790108041307,0.0138852575801045,1
0.0245341038736415,0.0175404673237533,1
0.0216979194947967,0.0160368469057894,1
0.0217807279283543,0.0183964284603218,1
0.0200389327655836,0.0168813352537044,1
0.0182562828730545,0.0186791144568573,1
0.0309817811421664,0.025014140722284,1
0.0390862734943618,0.0158318556691404,1
0.0408142535665348,0.0189602643844936,1
0.0328717407246198,0.0145698166608009,1
0.032601108798404,0.0126052177033831,1
0.0700169242474799,0.0271341449872157,1
0.0708011956889687,0.0217032247752879,1
0.0691925160034644,0.0212519715946719,1
0.0662566097027762,0.0194761285147084,1
0.0597716654260843,0.0159351023228857,1
0.0689532264654496,0.0186352750970017,1
0.0776605481062606,0.0343155479399553,1
0.0469592708118771,0.0158379273721088,1
0.0459894077137712,0.0182083145174676,1
0.0490050723339967,0.0243966042375096,1
0.0372930381487601,0.0197621403292328,1
0.0375039878540738,0.023083332099845,1
0.0380983856703686,0.0230549999052065,1
0.0438483248208134,0.0200330625283393,1
0.0648074469862465,0.0324213726348151,1
0.0588563227367284,0.0364517803584013,1
0.0361225734273759,0.0159826860025749,1
0.0343505552587419,0.022042233899202,1
0.0347153530706587,0.0213016306510828,1
0.0365418808729276,0.0242281938573379,1
0.0339563781068307,0.022139339398701,1
0.0329242299551601,0.0243538099432368,1
0.0236112442448744,0.018945236267333,1
0.0221718907019534,0.0304377699705372,1
0.0201848428875067,0.0247119846624072,1
0.0245624883553038,0.0187752299786528,1
0.0239607815125824,0.0259858693511173,1
0.016392957985787,0.0200386054209835,1
0.0176082273195862,0.0167343297630954,1
0.0207067816121913,0.0157963022102123,1
0.020666059098959,0.0135253341373364,1
0.0227931032511948,0.0118898435962744,1
0.0261125952669476,0.0141479811127301,1
0.0319514375973437,0.0119538857637638,1
0.0398447691604376,0.0168238688961102,1
0.0322832815780748,0.0150979370723406,1
0.0381870134166329,0.0102807295015217,1
0.059687929427025,0.0105881507062723,1
0.0738424916771454,0.0126789952893425,1
0.0752814618255867,0.012779278222936,1
0.093083095611026,0.0153336661089554,1
0.128926211646467,0.0218445899171606,1
0.143241713989915,0.0220353030547248,1
0.14209747808407,0.0261594093733453,1
0.134160554026161,0.0243035314818708,1
0.131960639670137,0.0238836383286048,1
0.106654038879359,0.0277154723695012,1
0.0294585689862629,0.0127904966254672,1
0.0278321317394479,0.0177424111829549,1
0.0214939954351471,0.00963444864071417,1
0.0369258560295355,0.0315016616072212,1
0.0301924128308919,0.0172567171487346,1
0.0275558550271629,0.0191036353837322,1
0.0376657857399423,0.0217612577891679,1
0.0403411829648932,0.0219893425176709,1
0.033991344982166,0.0167176979708226,1
0.0299488890887874,0.0157166228567153,1
0.0306908796995678,0.0115457361399682,1
0.0371113590570714,0.0156469496688469,1
0.0346709870783305,0.0160422544600986,1
0.0377663438843968,0.0158556505999435,1
0.0414346877565751,0.0230863754500187,1
0.0398439236220482,0.0231525103393984,1
0.0377805652739261,0.0244710329477036,1
0.0352098417498937,0.0226938396493799,1
0.0355544969348925,0.0238311077118653,1
0.0395999555871653,0.0256758916096848,1
0.041432694804936,0.0378181809510146,1
0.0242298434016405,0.0181606085074778,1
0.023316769343492,0.0147923586009115,1
0.0260097281108095,0.0184562206384723,1
0.0283048246682571,0.0194811271689389,1
0.0283764202732439,0.0197925430097414,1
0.0266933905849458,0.0279453413396378,1
0.028605386655562,0.0119345572079212,1
0.0529097078519815,0.0272720851931265,1
0.100434597211878,0.0391927127833785,1
0.136077758613885,0.0365818243810724,1
0.137841090826923,0.040451594666993,1
0.177193232437017,0.0420146321934865,1
0.212973912286559,0.0539462899349305,1
0.211193004397645,0.0381378395799876,1
0.167484746864798,0.0295106843186835,1
0.116446978303185,0.0203861506046075,1
0.0803940942533012,0.0160674506925218,1
0.0723650191799785,0.0135839582971581,1
0.0781196036902072,0.0138256506427575,1
0.0982574214517068,0.0198194492533419,1
0.0996246112234685,0.0198075093508548,1
0.131106936780593,0.0361873030968088,1
0.169902080513941,0.045063577457416,1
0.174035898887868,0.0517885494419571,1
0.176013052519998,0.0422008481605878,1
0.140315555073557,0.0399318766246846,1
0.113684127531142,0.0312732358477308,1
0.0896673873671002,0.0226336771286773,1
0.0869721622118656,0.0187047696175309,1
0.087762851177976,0.0167205640578565,1
0.0860456660469708,0.0165756678288032,1
0.0976948224345551,0.0154410152194047,1
0.119649766868338,0.0212386337638149,1
0.118255891419055,0.0214830864066205,1
0.172505176711779,0.0325222409783358,1
0.180604875546322,0.0201354875433203,1
0.188762217714424,0.0212999252812132,1
0.185103233426373,0.0211747433162308,1
0.164743734613373,0.0223997804106496,1
0.158476163492614,0.022882702847106,1
0.152091182279424,0.0202657780024632,1
0.184654304850101,0.035110691462768,1
0.188526432287177,0.0341816728482624,1
0.156782074043375,0.027469293746466,1
0.0553251012483584,0.00722704999218714,1
0.0545904951354578,0.0303760124478566,1
0.0624454587024693,0.0171861084902975,1
0.0611856210407101,0.00976211612971608,1
0.0930391913245785,0.0193034327474318,1
0.098720752148515,0.0206223866586216,1
0.103493205868842,0.022814910438618,1
0.0826128250313989,0.0179946945594773,1
0.0647136872423189,0.01340068516759,1
0.0691674909858425,0.015619996197021,1
0.0715353900802437,0.0111682747469751,1
0.0737356493587367,0.0120583189335227,1
0.0734280213545534,0.0197279674614086,1
0.0757259675873879,0.0287974488002389,1
0.0639527542380303,0.0264980969679265,1
0.0642882087805593,0.026730767554572,1
0.0630900556224091,0.0283144322311942,1
0.0637879619453673,0.0304789930146917,1
0.064532197170226,0.0257905829170974,1
0.0719367462903444,0.0288374464637673,1
0.0964406062355698,0.0579643692775689,1
0.115874833004033,0.0709717740331759,1
0.136333216037596,0.110224067995669,1
0.114857676992003,0.11806697908523,1
0.108873616916575,0.113618827823308,1
0.0972735274860797,0.107362369353759,1
0.0746721868015656,0.0825242624513614,1
0.0476823622754476,0.0664610858550466,1
0.01943866765716,0.0729130179655305,1
0.0119192995156933,0.0353695026166383,1
0.0128512796603445,0.0370129567025656,1
0.0140217079146247,0.0359107413689411,1
0.0268851772471141,0.0282390075550065,1
0.0402042590450965,0.0264856991589293,1
0.0355176013371186,0.0239281765726248,1
0.0304608682146676,0.0202577553872516,1
0.0276242683042497,0.0193815060115655,1
0.0293968259062982,0.019908181322091,1
0.0267757449714767,0.0152276735986194,1
0.0190987388970698,0.00855092984547333,1
0.0212670483983031,0.0108000655263917,1
0.017946213412128,0.00485997421816999,1
0.0252101133263951,0.0175595358968884,1
0.0208469558375842,0.0134461125704598,1
0.021059279019952,0.0104736670924532,1
0.0239526276370427,0.0131591635063054,1
0.0238319325301291,0.0124247852227384,1
0.0207352556698535,0.0111852987738701,1
0.0200839623460322,0.0134935769881171,1
0.0200052931198553,0.0168339061993087,1
0.0178956262704113,0.0130203433417591,1
0.0184673222419886,0.0182690181364395,1
0.0131067091919247,0.0125327212498942,1
0.0324939083950469,0.0152444348139215,1
0.0730871578776739,0.0395175665471593,1
0.0823233836213731,0.030146229012936,1
0.079118257880136,0.0277495070846767,1
0.0738077756757384,0.0257346278000992,1
0.0785964320806212,0.0258074723318685,1
0.0852077527251181,0.0290857030990906,1
0.110640195431497,0.035711188233299,1
0.0855746001076822,0.0195672085211412,1
0.070440072691205,0.0157606583279832,1
0.0782355166522697,0.0217711780244137,1
0.114610273116827,0.0151879820436482,1
0.156165684704253,0.0200637382142031,1
0.138944311268367,0.0174136172601245,1
0.136097948674435,0.0148028229219806,1
0.160804550023658,0.0182844245199658,1
0.1641525179976,0.0142140527424649,1
0.163519363715296,0.0142729511914135,1
0.161506150560034,0.0171621998370622,1
0.135601173175684,0.0150300840685572,1
0.10415698790222,0.0128241851890492,1
0.0861628731121411,0.0230425572739229,1
0.067515920529286,0.0220050533809049,1
0.0883480031565348,0.0287232552810584,1
0.0869705277498315,0.0206461884648036,1
0.0521139350580131,0.0075176089493155,1
0.051202454616049,0.0109315136408614,1
0.0561036361959245,0.00739532638178076,1
0.0835316918425871,0.014742529280103,1
0.108694114501329,0.0193830070571497,1
0.115183011968131,0.013198142629456,1
0.14040584734421,0.0161898652533922,1
0.145811461524306,0.0173634181254146,1
0.139401456368536,0.0159358431397837,1
0.132742649001456,0.0185301750007968,1
0.12700586238641,0.023797548763531,1
0.120066672943594,0.0226154659688971,1
0.114752937013461,0.0225636309445056,1
0.103661620252821,0.0222999369067569,1
0.0840000673808398,0.0177163800036828,1
0.0695069645759379,0.0235539755833223,1
0.0575322619627526,0.0221858824047822,1
0.0609065372493867,0.0206527226547442,1
0.0912061595963138,0.0292421549831525,1
0.105154076952624,0.0231394069147757,1
0.109327439652335,0.0225700086647602,1
0.107338855306895,0.0226486036893599,1
0.105302394582834,0.030205035150826,1
0.103866177666083,0.02869812814746,1
0.0916209952082137,0.0268437121590979,1
0.0862689396869527,0.026424144020338,1
0.0817317025688557,0.0253924462216383,1
0.0956866852124124,0.0313291171370849,1
0.0643347339608841,0.0207863702724876,1
0.0531328689011774,0.0220602678971885,1
0.0575585793420249,0.0165257673345848,1
0.0535447949640811,0.0134338716517572,1
0.0519060961206072,0.0126037996199186,1
0.0483836888131426,0.010590381355318,1
0.0489591944918668,0.0100681134739069,1
0.0522428668691005,0.0102816280456119,1
0.0583739691311206,0.0120106077122764,1
0.0436726164091681,0.00884669806253825,1
0.0648191710223789,0.0180108610148061,1
0.0656223909341362,0.0181330361768833,1
0.0571383090289554,0.0241063402218413,1
0.0553130714120852,0.0204012373926535,1
0.0649440148416587,0.0233686022294681,1
0.068307631475872,0.0246396064198365,1
0.0869689670566052,0.0318064833157417,1
0.0983789567281231,0.0351527171290295,1
0.0948821961452767,0.0365520060667725,1
0.0941399772995122,0.0360649129633606,1
0.0604059884286325,0.0297037627095083,1
0.0459269274359478,0.0280147295086801,1
0.064926142154963,0.0339604434946432,1
0.0702350639780986,0.0252492957314467,1
0.0685346632756901,0.0264745436203869,1
0.0699923203459144,0.0280812699163685,1
0.0580029739092345,0.0210510234267767,1
0.0513623049427641,0.0124218179895512,1
0.0589800140419521,0.00896239776799479,1
0.0709287205585905,0.0135381186345919,1
0.117069188441108,0.0203535473380177,1
0.180637159284962,0.0307619379968677,1
0.168946923998462,0.030859849085574,1
0.156989272394656,0.0342780710330679,1
0.155928598000853,0.0325585247794518,1
0.14569824678995,0.031394731393013,1
0.133342442109547,0.0297924531480372,1
0.0914071901937068,0.0341957705347802,1
0.0346722950732553,0.0255820984424244,1
0.0333127099457808,0.0116975285221491,1
0.03128785077661,0.0179209071420013,1
0.0282724089633822,0.0147909471194601,1
0.0270350361505572,0.0152599117389714,1
0.0298028127413125,0.021483709959051,1
0.0370125076061307,0.0279494273031009,1
0.0310304396320847,0.0178757692235586,1
0.0331576406073557,0.0196256935725563,1
0.0427411619042464,0.0255040733963302,1
0.0445141271973779,0.0248974808960552,1
0.043732998498807,0.0329685670887144,1
0.0442817371064558,0.0384858504009485,1
0.0421237688849822,0.031997799809406,1
0.0604726892072745,0.0221952464557805,1
0.0965044797491618,0.0245156289265647,1
0.0890343993414421,0.0182346598706306,1
0.0894395439283193,0.0212639467302177,1
0.0875653382680428,0.0207899413704028,1
0.0784072988706928,0.0184010864873868,1
0.0767197254846518,0.0195722020688451,1
0.0753986826348982,0.0186629815766984,1
0.0698322049278909,0.0162699192996024,1
0.0658241100415044,0.0171913293238695,1
0.049785012432542,0.0294285680716963,1
0.00976370008270384,0.00882210925080278,1
0.00886738284380331,0.0301333831749688,1
0.00791436872817554,0.0248287846572781,1
0.00750166658582066,0.0211857657986375,1
0.00894872591052315,0.0224027041559138,1
0.00764821181876391,0.0195965697900323,1
0.00579281931030278,0.0204468119791202,1
0.0051791522910678,0.018292006019226,1
0.00424444203132001,0.0148011708215368,1
0.00466454475807391,0.0134719451656888,1
0.00896799678089884,0.0250526634518298,1
0.0131858989544521,0.0331347387505018,1
0.014298607272445,0.0395943936297274,1
0.018350598095899,0.0483138808999082,1
0.0238932857199366,0.066038775996052,1
0.0245560806679933,0.087737715732276,1
0.0233022344415282,0.0834866298640686,1
0.0166537997757098,0.078747546772772,1
0.0102189861968613,0.0607980810124146,1
0.00459145392118769,0.0459309397280964,1
0.00437427377988972,0.051425865288664,1
0.00360171904513816,0.0506196944996696,1
0.00111586236667372,0.0218873598902084,1
0.000764581283105465,0.0303794728266074,1
0.000803931336328226,0.036682638902036,1
0.000853769458550197,0.0421751871525564,1
0.000498855036414109,0.0277125340123969,1
0.000863118552108667,0.0567840932927312,1
0.00094541137613058,0.0600064823246802,1
0.000965403087633674,0.0634875377498379,1
0.000783767290978463,0.0668110765243504,1
0.000814544612287778,0.067210851196438,1
0.000992696016607698,0.0730369561116918,1
0.00213454037219431,0.0960368266456863,1
0.00385917658765313,0.0544752982962998,1
0.0831902916108927,0.00146963655570321,1
0.571329386959514,0.039077381290565,1
0.987052338911282,0.0565657898535673,1
0.989516309783907,0.0247106834489983,1
0.970344355109233,0.0247303708576487,1
0.956764453660939,0.0244004414514796,1
0.947625048058466,0.0241796182462176,1
0.94729662484701,0.0241468320431174,1
0.958699346037307,0.0244223502399583,1
0.976652943666223,0.0246576547196251,1
1,0.0413221645242589,1
0.647089606846195,0.0420460455737434,1
0.119406661283922,0,1
0.00200751149048445,0.0543913900283775,1
0.000943332928945374,0.0537706445595244,1
0.000806377648657971,0.0422311586071909,1
0.000911760849510517,0.0311470447273377,1
0.00150215477239388,0.0440879434640891,1
0.0018151265575956,0.0444198325508438,1
0.00188244595571424,0.0401207962369194,1
0.00248378219728252,0.0469873639358404,1
0.00310269110681434,0.0553440815193968,1
0.00276073796130771,0.0676504339615941,1
0.0023063812354082,0.0690339380741039,1
0.00233082739142413,0.0747363538247211,1
0.00116637207606117,0.0579271707621337,1
0.000652714248252797,0.0630130620409891,1
0.000682678656720984,0.0677975064382113,1
0.000565027839270191,0.0754467656971958,1
