Activity,Complexity,Tag
7.95848284657931e-07,0.241798832129917,0
8.20939645258764e-07,0.245768869100562,0
6.28575543615443e-07,0.210771253406913,0
4.36651647851733e-07,0.17428456915522,0
4.75695387490512e-07,0.170502177814727,0
7.26084017400216e-07,0.207914832398945,0
6.06614563679779e-07,0.184434159716068,0
5.54552914943182e-07,0.179775544289716,0
5.79228040035615e-07,0.177950903863821,0
6.86684592409476e-07,0.189736402444372,0
7.14236661429808e-07,0.18857815422196,0
6.79506589843312e-07,0.190272940540846,0
5.25318175802202e-07,0.17190482739574,0
5.15257611252385e-07,0.180498839360387,0
4.20976148691721e-07,0.168903728454925,0
3.55738661067827e-07,0.162040078394948,0
3.56686614341763e-07,0.166721089072343,0
3.52480688114239e-07,0.161258390280337,0
4.37484243714221e-07,0.180563497777203,0
3.67774783711512e-07,0.161035927614239,0
3.48061150922445e-07,0.158811529702147,0
4.36722685045579e-07,0.171947625327813,0
4.6214713392968e-07,0.167896500147902,0
4.65246428019688e-07,0.159776228868216,0
3.66804982442985e-07,0.143987209274528,0
4.30821479283383e-07,0.157658351454093,0
4.38311596058006e-07,0.152777157687904,0
4.65663412602189e-07,0.161284556505766,0
5.76361957682167e-07,0.180017708856026,0
9.61335732428026e-07,0.240391166714925,0
1.11500378966079e-06,0.261103127852412,0
1.05189916569183e-06,0.254951123730646,0
1.06966720335104e-06,0.272892388562252,0
1.07481546479675e-06,0.298172231419706,0
1.06127470197692e-06,0.284012919220981,0
1.15002300385e-06,0.283097871052018,0
1.25026160303902e-06,0.305365483793047,0
1.47832769991398e-06,0.329102706947161,0
1.65682956110276e-06,0.34738546759284,0
1.63309889360513e-06,0.322876444523223,0
1.77265888923277e-06,0.339527995477326,0
1.75320243855148e-06,0.351419859677938,0
1.84071314516517e-06,0.353041033430612,0
1.83846754585815e-06,0.333679366767581,0
1.74696215191321e-06,0.345454932138626,0
1.70239411563037e-06,0.320297832522441,0
1.74329268758718e-06,0.311138196492546,0
1.47542466323825e-06,0.276821606521412,0
1.14614966652302e-06,0.246516259899998,0
1.11243196858308e-06,0.250669380044471,0
1.51011241213808e-06,0.283428628587891,0
1.58236660170521e-06,0.266963910303427,0
1.49404664537181e-06,0.245830842911744,0
1.37415795984657e-06,0.228757171795202,0
1.48500694397503e-06,0.236926684945314,0
1.56392127621364e-06,0.261273422779927,0
1.35730728826886e-06,0.249565305111837,0
1.41871076495604e-06,0.266781595052997,0
1.32997856817611e-06,0.257441770703077,0
1.35079533742355e-06,0.264675634029254,0
9.39315450792756e-07,0.23569998248908,0
7.53133083162192e-07,0.220534087770727,0
5.06163726829011e-07,0.19836475151551,0
4.13319113238414e-07,0.193678958463787,0
4.84900634263465e-07,0.193375964352165,0
4.68941860247855e-07,0.190248370539699,0
4.573510621568e-07,0.184664591705569,0
4.29226450832469e-07,0.169808620460205,0
5.75392780642057e-07,0.196374230146418,0
7.99131226748196e-07,0.239128937236965,0
8.63619016043369e-07,0.236236289874736,0
9.85191245609042e-07,0.252703748386424,0
1.06485015750336e-06,0.255714701390164,0
8.01993064348408e-07,0.224392207419691,0
7.39754994267814e-07,0.227773329108269,0
7.36563938600519e-07,0.225341936730285,0
7.45672679660216e-07,0.230824798614379,0
7.63075169158478e-07,0.235870250931011,0
8.08813633723042e-07,0.24782313403507,0
5.97479854717938e-07,0.206232438553961,0
5.04040351446016e-07,0.186296528690986,0
5.48696154244273e-07,0.204614847498663,0
5.97755638832533e-07,0.219969225287557,0
7.50488726742438e-07,0.234496256249,0
7.72461567018021e-07,0.234788711923391,0
8.20649004507846e-07,0.228665595958685,0
8.6897589462601e-07,0.229754636454731,0
8.14909099368582e-07,0.226027853939865,0
6.04122768685118e-07,0.193155987132163,0
3.52812278249306e-07,0.149301950698967,0
3.29066629269669e-07,0.147553027665229,0
3.46805702730336e-07,0.148287082905199,0
3.57356661124484e-07,0.15286893481356,0
3.18330899264112e-07,0.144635019230349,0
2.53971076794408e-07,0.131176335860711,0
6.93569207619687e-07,0.220842868142527,0
7.0758238650544e-07,0.212122513890204,0
7.73655216596857e-07,0.214570492884407,0
8.92379466433174e-07,0.228027157306913,0
8.53868942708128e-07,0.218151885029118,0
8.70561434804986e-07,0.222038463121786,0
7.47026006868099e-07,0.206171172025159,0
6.39199287043005e-07,0.189409099337052,0
5.91043810048126e-07,0.186764484618273,0
6.49740882010898e-07,0.190450032470828,0
4.39855312933049e-07,0.159825338964211,0
3.99638023870461e-07,0.159498423484033,0
3.39896243229131e-07,0.153335283179084,0
2.04679504080736e-07,0.122946117007,0
2.09690185583353e-07,0.127858842834946,0
2.78253562212596e-07,0.145542241646927,0
3.64174234202718e-07,0.153337671871103,0
4.65723713067265e-07,0.169145348609779,0
6.14823417053644e-07,0.187939208212269,0
8.61226847904048e-07,0.222934464005066,0
8.60160790613631e-07,0.211778291224532,0
8.75187716448463e-07,0.20221195379119,0
9.02672618491135e-07,0.20409036956631,0
9.79783429987581e-07,0.21212054404733,0
1.05162949901572e-06,0.214427839376072,0
1.10213606992009e-06,0.218487012534307,0
1.03840784176262e-06,0.218271763815422,0
8.83028025364979e-07,0.20305066655202,0
9.64265610925682e-07,0.222926422363439,0
6.92353585200577e-07,0.186241713194323,0
6.5103365906234e-07,0.185313308711142,0
6.40524648817808e-07,0.18443246715669,0
1.18276203647789e-06,0.252281942142406,0
1.35435593631367e-06,0.254966843066232,0
1.30007640401176e-06,0.250932894005561,0
1.25476903159192e-06,0.247865033497561,0
1.21344660854001e-06,0.25120773874018,0
1.18257763940353e-06,0.248851075589619,0
1.04939725819682e-06,0.234163251569667,0
1.11953256682555e-06,0.245973776335226,0
1.06854558973152e-06,0.244333767026861,0
1.0764184833714e-06,0.261560238406367,0
5.21033471948462e-07,0.188703171825085,0
1.64612903757992e-07,0.117606975087669,0
2.40801355345596e-07,0.142918322783068,0
2.73396440900542e-07,0.155000373954923,0
2.41584762008831e-07,0.149412562566986,0
2.62918392385489e-07,0.160566924770093,0
2.75644287429871e-07,0.167823617613872,0
2.86087753690626e-07,0.181023793621378,0
2.29282967750905e-07,0.177010118890492,0
2.3095589990825e-07,0.186254987896865,0
1.53519615715223e-07,0.153644239305698,0
0,0.0704449125455471,0
2.83887473366666e-07,0.190098808863677,0
4.52375212599847e-07,0.222935843195166,0
4.48305243321529e-07,0.212446783165433,0
5.20378281802063e-07,0.205804139285802,0
5.35370750228281e-07,0.202077168779533,0
4.89649764059392e-07,0.189463782826769,0
4.60849737587953e-07,0.176078459646691,0
4.41995043100568e-07,0.163696571625982,0
4.47388376622757e-07,0.15285275041348,0
4.33022258990076e-07,0.145209509628731,0
3.53629268401371e-07,0.136945073184551,0
3.56850287032678e-07,0.140609933369654,0
3.03154657991953e-07,0.128651568831152,0
2.76075129883229e-07,0.131153551459852,0
2.87079527799429e-07,0.134455949055827,0
2.95004856626328e-07,0.136201114849155,0
2.90023513859307e-07,0.137276048819201,0
1.96798120934388e-07,0.121052642440853,0
1.33924461479687e-07,0.114067332912318,0
1.22991974677117e-07,0.112608177911435,0
1.1515603535952e-07,0.107888252409789,0
1.33658165637029e-07,0.12216104599707,0
1.61109234499503e-07,0.135513215932131,0
2.10818790561145e-07,0.152367750146209,0
2.20856383505219e-07,0.157790052553134,0
3.13805492932809e-07,0.183761752072301,0
3.04138067439968e-07,0.178351171390201,0
2.42044818352101e-07,0.156266024669444,0
2.25476298018843e-07,0.151326543192529,0
2.02017794110989e-07,0.151653853031914,0
1.53801267576937e-07,0.13847030317126,0
2.5890335520786e-07,0.168288056810453,0
2.67960160463269e-07,0.171964142944868,0
3.17923402953546e-07,0.177526014104158,0
3.18725536469289e-07,0.177569202677158,0
2.40112581710367e-07,0.149703614842032,0
1.16564918896508e-07,0.105441175034518,0
1.50854909449075e-07,0.121207615465455,0
1.63380052634575e-07,0.120224470301062,0
2.22057523825056e-07,0.134598183516197,0
2.36149480337025e-07,0.141556446916325,0
2.25799273801757e-07,0.138009977830878,0
2.3881481083159e-07,0.142284809321245,0
2.6022484676648e-07,0.147361121948549,0
2.90432383472389e-07,0.162525246262681,0
2.79752584332988e-07,0.168974785511187,0
2.41995254615797e-07,0.171591621461039,0
1.59357025333209e-07,0.133962474168526,0
1.68233428576128e-07,0.13627685893706,0
1.71903891667618e-07,0.132929723787986,0
1.74491318455751e-07,0.131946713287731,0
1.73785191270531e-07,0.130278476939417,0
2.13192980922058e-07,0.135489095849462,0
4.01117570064245e-07,0.186061607066795,0
3.50732848546863e-07,0.174041356713829,0
3.80348242176482e-07,0.178972391600787,0
3.23981040357021e-07,0.164096760112369,0
3.42141093462059e-07,0.166123561799467,0
4.1942294354474e-07,0.186447128016028,0
4.0106575910564e-07,0.187228037409322,0
4.10861650806682e-07,0.189490504392845,0
3.9161931047239e-07,0.179529875170035,0
4.35171477429532e-07,0.194682264824115,0
5.00146164889902e-07,0.210693068751731,0
6.51885606005752e-07,0.242572790945689,0
7.13161864941556e-07,0.253221379347418,0
7.1196933897387e-07,0.258619746991122,0
6.69385100600004e-07,0.253787922112847,0
4.40179911709848e-07,0.211865609558342,0
9.4078650748007e-07,0.28158416803406,0
1.02786150265876e-06,0.267334871390566,0
1.00062317084077e-06,0.276841877909008,0
1.03707648739502e-06,0.273587541339324,0
9.00186691243592e-07,0.243835580607544,0
6.96830052023993e-07,0.214848700019527,0
5.11666924552578e-07,0.185338591134187,0
4.36024423138411e-07,0.16580745742966,0
4.03307987579217e-07,0.162069599048825,0
4.30286515530083e-07,0.166619468574037,0
1.81079550013608e-07,0.117570817828108,0
1.51276388476179e-07,0.121676133331522,0
2.52760947585367e-07,0.150317113766523,0
2.83662751136575e-07,0.16066620106124,0
2.91630902032876e-07,0.159543310778818,0
3.63353373834468e-07,0.160921287535591,0
4.05485296297434e-07,0.158854395041814,0
4.20646431241904e-07,0.159090421607384,0
6.00916606690133e-07,0.179715076794059,0
8.02327775625559e-07,0.198728573155282,0
8.74575473217147e-07,0.203389260581075,0
9.30473255267084e-07,0.203280247326486,0
1.19959061036964e-06,0.222108418082191,0
1.41042300911027e-06,0.23247373979008,0
1.47432664545289e-06,0.237808254977807,0
1.76626129703344e-06,0.262650855393905,0
1.23805693872277e-05,0.205268762744499,0
8.7284307955772e-05,0.293266389043799,0
9.40101569104234e-05,0.205157817083387,0
0.000105485105573193,0.195968977825187,0
0.000104588491840562,0.168623015028195,0
0.000103954600367748,0.166807525140916,0
9.86226161392195e-05,0.158297565835268,0
9.37859913672344e-05,0.147723842012481,0
9.26299554207357e-05,0.145882024331804,0
8.71948464105097e-05,0.137684884286006,0
8.5860238065011e-05,0.168148207127231,0
4.08460782171686e-05,0.165906472537683,0
3.44273741133959e-05,0.232140294298483,0
1.54853285970257e-05,0.212694437434986,0
8.80406415828735e-06,0.254636464424138,0
8.32376134085155e-06,0.261180612215224,0
8.34503841613363e-06,0.260525380937907,0
7.90614753610473e-06,0.208828101569504,0
8.30592476291216e-06,0.201154246954487,0
7.85269797790595e-06,0.210415178241731,0
8.24313749667036e-06,0.242818690281344,0
9.4935349318129e-06,0.28332476781875,0
8.30831980250219e-06,0.215165882904915,0
1.41570404394026e-05,0.236247834310437,0
1.4105569061057e-05,0.214776511170724,0
1.90826027793167e-05,0.195971056315829,0
2.12657857366283e-05,0.165835358060007,0
2.15860597341086e-05,0.18024815080796,0
2.18305711286273e-05,0.174087732170648,0
2.15348260619442e-05,0.166935265870744,0
2.42100549465164e-05,0.160024114398394,0
2.1542292458039e-05,0.130311391080887,0
2.0420075958712e-05,0.135283126604116,0
1.94808349159466e-05,0.138554699478727,0
1.80088064298334e-05,0.138826685852134,0
1.67199906070802e-05,0.162218857541593,0
1.56601025661086e-05,0.196477462733738,0
1.12620727898828e-05,0.169834841281038,0
1.06501547815729e-05,0.185258208941479,0
1.03769325004007e-05,0.191661805798649,0
7.63175819748423e-06,0.210699358398965,0
7.24797307848987e-06,0.247101069089378,0
8.64352858970299e-06,0.285072342437644,0
1.06241104738708e-05,0.242835941772125,0
1.31151738728275e-05,0.20529996806776,0
1.26364739491207e-05,0.180744368182962,0
1.53729995673207e-05,0.184487023152579,0
1.6224661862575e-05,0.182880936614255,0
1.69748146295835e-05,0.184627949065121,0
1.73173381253737e-05,0.184209428753821,0
2.08606563753742e-05,0.187464194134215,0
1.70888966175288e-05,0.180932505317205,0
1.30005748989072e-05,0.137476638912166,0
2.1290650002931e-05,0.228723729664221,0
2.23018281272278e-05,0.289964450982416,0
2.23100035219586e-05,0.335531357390576,0
2.05373140455334e-05,0.265012354914624,0
4.82574353433549e-05,0.227739492231788,0
5.32160243603515e-05,0.154521288363132,0
5.35520249188763e-05,0.157807612651615,0
4.91766431483819e-05,0.157818635267958,0
5.07730309190966e-05,0.158499758111676,0
5.48980161944032e-05,0.175452848729135,0
5.26093412563916e-05,0.164269870667501,0
5.07688931586122e-05,0.158809395326695,0
5.03836162585471e-05,0.161335413278133,0
5.01420784385152e-05,0.182964087653303,0
1.89773498781003e-05,0.173684344402638,0
1.06754035725805e-05,0.239890197260165,0
1.33037391700168e-05,0.267804279051517,0
1.36199033724458e-05,0.26990139950076,0
1.30285103690212e-05,0.272190551498699,0
1.08838203321933e-05,0.244141013242837,0
9.65583731650851e-06,0.24153481992343,0
1.28187667494854e-05,0.292162746322591,0
1.54482600409437e-05,0.32613388876263,0
1.47697382338509e-05,0.341304477814951,0
1.54556833652777e-05,0.414873637254665,0
1.47176680956078e-05,0.497029700859085,0
9.14249071813168e-06,0.400547778573709,0
5.35455582870141e-06,0.310098857529392,0
3.45478668023373e-06,0.266476845584754,0
3.25966224053079e-06,0.279718471332337,0
1.81080311572277e-06,0.225233687918545,0
2.09947929496699e-06,0.240613546259327,0
2.39420699417621e-06,0.240858047278639,0
3.32168557603596e-06,0.277498927522647,0
4.04016049872529e-06,0.323276727598499,0
5.23165087146561e-06,0.399041377142468,0
5.53607608397736e-06,0.408957584955903,0
5.38479245445154e-06,0.425861441742996,0
6.52121277202276e-06,0.410152197770221,0
1.96574717074713e-05,0.417063580737989,0
0.000254168007376612,0.115151493899852,0
0.00235362554423791,0.0701695266711096,0
0.0121824091413349,0.0695392629515358,0
0.0300738463833956,0.0956109448709366,1
0.0592094015172753,0.153148231549005,1
0.0743295369305798,0.054716417602545,1
0.0682980385352514,0.0440722769447363,1
0.063229322250917,0.0398274188511332,1
0.0529039021382968,0.0248732270353842,1
0.044745601805771,0.0217247864339977,1
0.0355855484580836,0.0162564648692682,1
0.0332516651783693,0.0112247263664413,1
0.0392750954293991,0.0132695423147343,1
0.0391940472816821,0.0131168495800871,1
0.0336297413060131,0.00994195088455731,1
0.0300866229599196,0.012678476484264,1
0.0362342171483866,0.0154516851872632,1
0.0409761635889892,0.0143640875848439,1
0.0367348431607817,0.0171647023086305,1
0.0235207227966438,0.0106767378470752,1
0.0185697496280102,0.00944103618850236,1
0.0188341015609552,0.0101699458735615,1
0.0225495285283216,0.0124318782470126,1
0.021936738256306,0.00820074007558839,1
0.0305541696016148,0.0114417263388623,1
0.0386526691732772,0.0130205832510012,1
0.0398583642797552,0.0158089005124102,1
0.0407973073751761,0.0159245796534995,1
0.0398991781048392,0.0143591342382936,1
0.0395568744309611,0.0144528660739235,1
0.0394971206515259,0.0138782259569285,1
0.038366384333197,0.0200172203954593,1
0.0197998510222544,0.0123309694798192,1
0.0164335025082397,0.0152374135672819,1
0.0249984297332328,0.0246807686480419,1
0.0226680930166326,0.0198820724031204,1
0.0186147691187688,0.019571692262556,1
0.0105081722278697,0.0115302879069739,1
0.0101784685580197,0.0109213461825802,1
0.0116730686182132,0.0104596066489995,1
0.0138428732650293,0.0016484157862972,1
0.0399874383755725,0.0112603140945586,1
0.0417032559395303,0.00677862778664445,1
0.0413404992281859,0.00757129553392462,1
0.0404120556421281,0.00708049566877013,1
0.0407485291099841,0.00636466843450822,1
0.0417765526603424,0.00682222789175032,1
0.0503994344403429,0.00699416230250651,1
0.076708700662489,0.0123085987744608,1
0.0917070823126141,0.0171016887969715,1
0.108615076898331,0.0226784132123626,1
0.107838917022016,0.0253066857459834,1
0.10628613798434,0.0341915357737173,1
0.103432892151323,0.0343781724614223,1
0.0800985294604901,0.0350935316664164,1
0.0455288226393271,0.0209922375246166,1
0.0228851595865706,0.0099232459074752,1
0.014840056992225,0.00316309553723519,1
0.129218427059837,0.014273893465522,1
0.258307371966614,0.0254877714123699,1
0.288133893410823,0.0157955262474104,1
0.267547581157085,0.013610370760121,1
0.26129659750346,0.0148167607214207,1
0.316902461096798,0.0147968563400169,1
0.332645142832565,0.00596050151618241,1
0.428913881523041,0.0084869289343942,1
0.462730946517944,0.00806784631112085,1
0.438380332696973,0.0075268655803166,1
0.397994987722387,0.00967813466610548,1
0.332506422249499,0.00716975382764738,1
0.312927101059387,0.00949261622608153,1
0.329164381099152,0.00940591628413078,1
0.387332510379725,0.0105406083746537,1
0.271715810895689,0.00702381304755255,1
0.285781473637182,0.0229784896967376,1
0.287227625006934,0.0228206726258214,1
0.295996905352687,0.0319430245843086,1
0.252458271814817,0.0368956098824317,1
0.178212858710359,0.0271044954568846,1
0.124421548456247,0.0225291607288663,1
0.0533397055245248,0.00840567412775319,1
0.0124117888395213,0.0052550629062745,1
0.0114832506300487,0.00970624919067104,1
0.011307117481991,0.00945837455194381,1
0.0146121117659468,0.00997080773157539,1
0.0266809354840532,0.0169202680654193,1
0.0255107868677702,0.0146044374453779,1
0.0246617290272565,0.0154221195603259,1
0.0229360487345871,0.0135020754077496,1
0.0407898012382034,0.0157206194242068,1
0.0460261979980965,0.0124137170154285,1
0.0381621381790951,0.0123958564281375,1
0.0307078622490776,0.00920909372144491,1
0.030448508070489,0.00860743295388803,1
0.0298897236590496,0.00931967398639036,1
0.030065394466088,0.00930546802751064,1
0.0315951573051413,0.00986566248984351,1
0.0312421488277807,0.00820115277771703,1
0.0468308306271625,0.0109609056385816,1
0.0351861160021191,0.00723131286893861,1
0.0393205506036272,0.00859622518968142,1
0.0414506576788543,0.00777891067685987,1
0.0725197762407323,0.0132548036771971,1
0.0864792259738826,0.0134034525036019,1
0.0834563741986725,0.0122968565330141,1
0.0903024560914576,0.00860579336603359,1
0.10972158632103,0.0124747506772491,1
0.172261181702471,0.0167225096254352,1
0.235422163183229,0.0157800658540604,1
0.207132040471344,0.0152411173513368,1
0.228331466731692,0.0172690917344247,1
0.274014121555381,0.0208278437979597,1
0.312115312774383,0.0241108346167203,1
0.324484870548238,0.0276505266812578,1
0.223242358466047,0.0142504838433062,1
0.180050566426287,0.0124228814475069,1
0.162830585333513,0.00825890515801616,1
0.158110471906021,0.00914015867501588,1
0.173717729265042,0.0126301164089867,1
0.206259958107996,0.0143776474350018,1
0.213723815996149,0.0104754231227086,1
0.20708496548018,0.00840813677050096,1
0.222195155470738,0.00662057002575169,1
0.192207613859811,0.00442869215848066,1
0.183618287788604,0.00482414772599471,1
0.215938984723041,0.00705346138417059,1
0.231552003976896,0.0100891940345776,1
0.258769619547386,0.0114564902729542,1
0.346631385683969,0.0155802812326443,1
0.421774593881451,0.0199839669333824,1
0.354599623499332,0.0231438115640029,1
0.176685721052428,0.0153142405762332,1
0.172743437524503,0.0160910212960043,1
0.118205081453509,0.012665024501853,1
0.100039908863957,0.0117323545947431,1
0.0975689678355651,0.00993529103098251,1
0.0860384176189656,0.00731208917473875,1
0.0810066237095266,0.00658376733535224,1
0.0865059012697712,0.00835902916601457,1
0.0877605017467065,0.00669821716327045,1
0.0854624430071261,0.00742414860068089,1
0.0513285383226107,0.00251719674903243,1
0.0414100213416349,0.0066152531323195,1
0.0322623700792398,0.00493449932379304,1
0.0329344702348719,0.00577748994671485,1
0.0349502640846019,0.00734242154832857,1
0.0277943155377472,0.00404821739920145,1
0.0295145109858824,0.00475852626274733,1
0.0334593555108888,0.00640914968964779,1
0.0372317775481178,0.0116139374436818,1
0.03842733469159,0.00732965740227266,1
0.0540953154211996,0.011048690133083,1
0.0526107190573484,0.011793303105112,1
0.0519421397831995,0.0126487818068672,1
0.0478773231319306,0.0141670374719349,1
0.0441512509515492,0.0135470525246226,1
0.0799546574237991,0.0213956158292711,1
0.171288816926216,0.0364834285874099,1
0.237161357841347,0.0290419044730618,1
0.246435183421855,0.0258478236070749,1
0.313186495923935,0.036131883158167,1
0.403381301392402,0.0427583159215703,1
0.38792279007077,0.0392428687860994,1
0.396711358259862,0.0328502921003095,1
0.270777644754282,0.0186394254837223,1
0.161191629276207,0.0118019688542437,1
0.114282612904479,0.00779131760313172,1
0.112382954817857,0.00593887047051867,1
0.107478209782404,0.0068392965327037,1
0.0803074675138781,0.00620281605652302,1
0.0909525093278801,0.00564511319887981,1
0.0952800839052552,0.00464337063050468,1
0.105298948688439,0.00359109871765508,1
0.10486330990675,0.000499024815928954,1
0.220983398576611,0.00419125467394817,1
0.225778923100922,0.0017780624061985,1
0.258235039991819,0.00177995290928924,1
0.317396524868384,0.00138537196873095,1
0.398195095853829,0.00296310514998529,1
0.42663041239222,0.00349253023051903,1
0.467635687071187,0.00430851201223421,1
0.546753848207279,0.00623620264032857,1
0.65068107688717,0.00887577030738235,1
0.71068708671217,0.0127050727616599,1
0.489235316039923,0.0124096604982179,1
0.427806771870761,0.0136561281050408,1
0.135548673212721,0.00239473828573991,1
0.0890246957753222,0.0220702901652602,1
0.0813011722282135,0.0232688043686473,1
0.0508491767783308,0.0149447332931133,1
0.028376042735302,0.0105574952031603,1
0.0263371500800558,0.0124635475820103,1
0.0239382182616655,0.0119123406604427,1
0.0261310929488033,0.0155520765562898,1
0.0215107155729283,0.0139068309934397,1
0.0205110962905973,0.0140740635528426,1
0.0186993679316546,0.0167618415251401,1
0.00741364361944601,0.00627224358185612,1
0.00508994703512633,0.00605201008145306,1
0.00715405241333736,0.0102765108747486,1
0.00679691078554402,0.0106626683000808,1
0.00664265817672644,0.0116086316715843,1
0.00615292967599021,0.0167373024152836,1
0.00581349231368224,0.0135048176473193,1
0.0187880962592171,0.00341767930998755,1
0.0599211471237956,0.0110512032629528,1
0.0597994038350442,0.00874604740492211,1
0.0612615914340732,0.00707008688098026,1
0.119853839432063,0.0110275070834406,1
0.160279330177613,0.012582409429341,1
0.182482150682966,0.0152329247445348,1
0.176845040734794,0.014021476048211,1
0.16442309626061,0.0115245888208693,1
0.205939764906148,0.0129322184401386,1
0.411164492544837,0.0225710189493389,1
0.425752931840476,0.013495745639092,1
0.339279586048092,0.0113215594326513,1
0.284251557685385,0.00760065439235688,1
0.317817291505045,0.00916154730952433,1
0.290853377889875,0.00947597850517579,1
0.258814894694263,0.00740175549060583,1
0.262923937722501,0.00826455783076986,1
0.21940202461844,0.00744370662541885,1
0.226523324101328,0.00668148530283437,1
0.239198184270945,0.00781092864667232,1
0.249827741917789,0.0146768696507075,1
0.224976841226224,0.0120154922745127,1
0.213726747050194,0.0162797000142209,1
0.216365157965943,0.0155706345058213,1
0.259628906701865,0.0125727567624117,1
0.422421095983784,0.0204482215958701,1
0.355025782314443,0.0172241730891675,1
0.329157647724874,0.0144989999572294,1
0.298121387609896,0.0161200095403333,1
0.407637820792909,0.0229520366133987,1
0.490002428085265,0.0267743615807622,1
0.493449127222178,0.0311833487523568,1
0.306682115516119,0.0185303857726624,1
0.199967179319993,0.0133604319464159,1
0.134241738098479,0.0162918479077435,1
0.149260936307736,0.0201105687890498,1
0.116237610178731,0.0182049718674994,1
0.112175168490493,0.026948736854308,1
0.112636992233528,0.0234795894738198,1
0.0956145417296902,0.0204379655682503,1
0.0756849024629733,0.0155380029162129,1
0.0414671034628969,0.0083294299165627,1
0.0313171498951701,0.00759106770958456,1
0.0420197034416592,0.0106049211323334,1
0.0392140915787506,0.0124694013365955,1
0.0374993393328719,0.0138735105718283,1
0.0471588126151127,0.0175028296107345,1
0.0445091713597242,0.018055077181885,1
0.0450175785396381,0.0221175003954471,1
0.0410752500666433,0.0437645472977859,1
0.0284683399049406,0.021163408860703,1
0.0512040561455365,0.0203236521298217,1
0.19263006227869,0.0377870753635046,1
0.303265561490698,0.0422881019436196,1
0.354130708808002,0.0493690417983206,1
0.327079949672009,0.0356740882038184,1
0.367539983991792,0.0269868751385497,1
0.364575816595733,0.0235150365616384,1
0.282227412144462,0.0144865765628493,1
0.213332855423313,0.0106127551695664,1
0.17533678535026,0.00920949137673674,1
0.173541213950864,0.0032749438089952,1
0.29289364270942,0.0101584951727683,1
0.318044558108641,0.00927296870846001,1
0.343876423708192,0.00873937440151783,1
0.384599158160392,0.0114771039619867,1
0.396604485443956,0.0123425054058587,1
0.409980051589601,0.0138236859434615,1
0.394268607309874,0.0147867278228761,1
0.291003263643382,0.0107606928335179,1
0.216214112420007,0.00815862617284099,1
0.17796780165431,0.0116193440250794,1
0.160453873358838,0.00999465132320869,1
0.164853705529198,0.0116020758669303,1
0.183387310839713,0.0145336341425287,1
0.156588578715619,0.0110520926957893,1
0.202830345162544,0.0184435994603867,1
0.176008586131062,0.00979713067680981,1
0.204001782712629,0.0108110214721203,1
0.234384025974573,0.00933947667891464,1
0.377763745099053,0.0153283473188828,1
0.43719064026687,0.0170045880110512,1
0.512545279168926,0.019575613251991,1
0.598418978374176,0.0220091089925945,1
0.640199706986545,0.0251907312113449,1
0.52593746222709,0.0234991386904589,1
0.253658621165464,0.0127931155958855,1
0.163298540427837,0.0141869969284912,1
0.129001256235264,0.0119297081250504,1
0.0663641935823595,0.0135304330431439,1
0.0929150098410621,0.0175414408586853,1
0.0995497782666105,0.0126996565241559,1
0.0919935587358863,0.0119654947364431,1
0.0651214391849722,0.00709034511751842,1
0.0653195853787343,0.00813768273997696,1
0.0685858397678562,0.00771477327582748,1
0.0698487983207176,0.00555873496744982,1
0.0936892876237556,0.00709491249882973,1
0.0996948989259304,0.00853996018674551,1
0.101308758072995,0.00991707190780045,1
0.0743183164961974,0.00775024657725124,1
0.0513387276915756,0.00601720875724155,1
0.048436012656281,0.00437053353517191,1
0.0487835932711742,0.00388983684355186,1
0.0527773280232311,0.00358058940827801,1
0.0587671898779004,0.00525039386662238,1
0.0740898323629151,0.008713794036793,1
0.100412678640937,0.0117716686130208,1
0.105405023129184,0.010614664827884,1
0.136865102128066,0.0132036333093429,1
0.112019736004698,0.0089315338597008,1
0.157908126790499,0.00955443348432597,1
0.154593611275969,0.00820731207547499,1
0.0970529711947967,0.00381352388652136,1
0.18528555742416,0.00581319378295351,1
0.228555423628281,0.00671020053168774,1
0.229043636994188,0.00665350863081034,1
0.226437526676996,0.00778318936592842,1
0.202111928063381,0.00816727452826325,1
0.201531811853676,0.00892631336325731,1
0.163736743273941,0.00725625825733568,1
0.192298357957888,0.0116218881749805,1
0.188609245535944,0.0116779671091663,1
0.0974772297112886,0.00460161365277358,1
0.0795951592063893,0.014376125519817,1
0.0916285837184987,0.0232255720066182,1
0.125936067828623,0.00895253918030313,1
0.205438282680083,0.0141716214393711,1
0.21830517062294,0.00596807459459156,1
0.316037682106926,0.00867689586711129,1
0.34957908180699,0.00589485472933387,1
0.355452742986412,0.005946400466758,1
0.378757528536707,0.00589397632036535,1
0.398951599937361,0.00312286148854983,1
0.454068160569845,0.00493193351117457,1
0.456368837435767,0.0048928985221202,1
0.421384049821905,0.00869248528753291,1
0.335701103006969,0.00687077683693933,1
0.393209693548635,0.0105939575152308,1
0.390635325559058,0.0123588092513907,1
0.398430645184985,0.0166930588433151,1
0.524069279760249,0.0236566416154986,1
0.427776012353211,0.0257258800533376,1
0.310043424418516,0.0354945356843345,1
0.322548433565872,0.0386722734279964,1
0.293764945174393,0.0282418115307365,1
0.214727299792963,0.0180048090330362,1
0.117811169573663,0.00764181808789645,1
0.0885770183735765,0.0111864258005786,1
0.0967561270779793,0.0103382062663698,1
0.0978802259217427,0.0109424869713667,1
0.0969324629470869,0.0107282097059625,1
0.105868138893954,0.0115633848885163,1
0.107320609291891,0.0107242260209947,1
0.105272455448768,0.0104699320616491,1
0.100817177528619,0.0121275382300995,1
0.0823309774254763,0.0070636400000197,1
0.121724069236275,0.0120385771503227,1
0.10407097991028,0.0102861735147675,1
0.0984598293067049,0.00780052508590517,1
0.142540857001959,0.01386092129154,1
0.140834294506691,0.0129126228205509,1
0.105741944624502,0.00958225833641495,1
0.115698688797916,0.00934943212902355,1
0.189772513690133,0.0160543272750754,1
0.206853555109025,0.0156582864778574,1
0.207030046916383,0.0208822612037506,1
0.219795276890476,0.0305611238758313,1
0.151793836474359,0.0257342335048731,1
0.121201468352365,0.0209129690021579,1
0.178854109157048,0.0277800817965984,1
0.178597150524923,0.0167763091285463,1
0.112523721573858,0.0102701449779207,1
0.104452195059783,0.00896608527386368,1
0.104640459638678,0.00805037333879417,1
0.119856146756574,0.00780495767735216,1
0.124896143157251,0.00637511665107476,1
0.124860234801968,0.0046944649693104,1
0.12540502308969,0.00294783590241954,1
0.15908498640272,0.00440659083935453,1
0.164873642674338,0.00502341558975948,1
0.215587560520049,0.00773531017792018,1
0.210864410157637,0.00703342176400611,1
0.219528348068592,0.00622295978233658,1
0.238349125159876,0.00840898130879281,1
0.288606040153647,0.012120087527077,1
0.292118594299892,0.00946634470832631,1
0.302783957513946,0.0100110818588926,1
0.255253539174391,0.0114780899162516,1
0.246443021121497,0.0143271255855917,1
0.23245207666006,0.0163217699610944,1
0.162568642826251,0.0125752831259636,1
0.156159665265524,0.012302246242296,1
0.163682468375287,0.0149569856463907,1
0.205099729981778,0.0102101631182807,1
0.221511541291616,0.011709626677472,1
0.353757007386838,0.0227634980586316,1
0.455605352215456,0.0233562169324417,1
0.412261457502556,0.0185437785078367,1
0.400891381276904,0.0161491573572863,1
0.4095093764408,0.0137921103138562,1
0.436640418050803,0.0156445061013546,1
0.339531621981838,0.00822797275326893,1
0.181378760588095,0.00154194140637374,1
0.165011601668273,0.00380022396032654,1
0.166174498772102,0.00378459698766791,1
0.139806228615668,0.00256848105942342,1
0.117901794863468,0.00305532057712135,1
0.11310419553274,0.00294039245423311,1
0.118992956363228,0.00203937226658826,1
0.129363061208513,0.0034902174836766,1
0.117299038399949,0.00159903901362026,1
0.106406934787378,0.00398402447540103,1
0.0651409601999733,0.00343554401846988,1
0.0775525792230227,0.00550006669559034,1
0.0742971573456534,0.00513215669760299,1
0.0761868872505923,0.00538160971601892,1
0.149693548126429,0.0106967701265618,1
0.184363032210271,0.0120688943110295,1
0.288975741773801,0.0216392285311433,1
0.292144456053866,0.0169681183280217,1
0.351841555639112,0.0178705086066807,1
0.403736241449716,0.0161671743684914,1
0.348439262805393,0.0141798287261128,1
0.243337391694713,0.00919369197799411,1
0.178879107674908,0.00667415848804882,1
0.138140588764478,0.00251978026614478,1
0.175958691485657,0.00386463199282896,1
0.207769408796064,0.00383758269129799,1
0.199062762462484,0.00343454505066879,1
0.191960071667662,0.0039742459748573,1
0.196364025337107,0.0047442788938313,1
0.211256972271749,0.00825923458171493,1
0.201346198487725,0.00814589683961327,1
0.209765633138233,0.00799172632928594,1
0.331267113659766,0.00795636141581943,1
0.309437240907904,0.00652316933806783,1
0.1983577479176,0.00338380150409803,1
0.205327024911861,0.00552088675885809,1
0.205850851635561,0.00648534811158989,1
0.210522950899761,0.00608514809818409,1
0.252729249255744,0.00601538356152871,1
0.283288113570042,0.0075247761070746,1
0.303484674501115,0.00474539396912369,1
0.328983729180436,0.00513404787161247,1
0.236607982605598,0.00289951260392915,1
0.271420501712728,0.0057243289128892,1
0.271336886599931,0.00602055827147943,1
0.269278248452276,0.00574653326084194,1
0.272165299697937,0.00523773937294185,1
0.293738868685344,0.00590922339169852,1
0.240535067007662,0.00635705505839794,1
0.234132720519288,0.00555070870585884,1
0.211452451737618,0.00777987589162084,1
0.239447502210291,0.0130513474356437,1
0.21624916518173,0.0171146231253824,1
0.218532152083489,0.0191666448144697,1
0.206175901896423,0.0185088368604145,1
0.188619252069404,0.0180252354032349,1
0.08710098767381,0.00398009087844653,1
0.120134335290166,0.00881305200981957,1
0.123182342752466,0.0120451412660916,1
0.125227242693229,0.0105653765320911,1
0.127923520870011,0.0112833835023714,1
0.122743778171987,0.00835947414944082,1
0.166320257037179,0.0118745344964861,1
0.186449404223984,0.0126256891008841,1
0.201838267582724,0.0147213887232118,1
0.198191428803194,0.0103158909647869,1
0.192418249331091,0.0165134426535962,1
0.155933528729972,0.014615846296564,1
0.138909423516453,0.0119642036387977,1
0.134511476038502,0.010142928154544,1
0.152866406924127,0.00828877867265078,1
0.153195948793597,0.01018554524959,1
0.117752705613685,0.00805112674260361,1
0.104738228423703,0.00662737506058543,1
0.0769365533337955,0.00289734698320373,1
0.0744167680811163,0.00462718664905682,1
0.0817602936540965,0.00536701919119204,1
0.0845560531808227,0.00499580351296363,1
0.0877764065749024,0.00652488319028864,1
0.0778859395065829,0.010128569738677,1
0.0763877223337286,0.0152163976793333,1
0.115728082799575,0.0078633685759945,1
0.231096714946571,0.0149025446063553,1
0.24814629499919,0.0147280218743808,1
0.20575033455559,0.0139959414339557,1
0.20230506501661,0.0150444346833771,1
0.28743412318303,0.0131586962895656,1
0.331779584888276,0.00740186841831327,1
0.329060035619809,0.00632311480075729,1
0.316120713724956,0.0050106786069914,1
0.228504700442625,0.00149059548064514,1
0.212130899776892,0.00314340514503166,1
0.204317229207187,0.00240025799653343,1
0.224020453188778,0.00250889377228338,1
0.22793773139725,0.00114904852325971,1
0.241304706934893,0.00145899132843456,1
0.202351730517428,0.00138360134038927,1
0.167490894892983,0.00184701218449704,1
0.172253995462711,0.00167516508413414,1
0.154134912407281,0.00124165458086333,1
0.140117489142829,0.00110983446640369,1
0.247048881661694,0.00551558007674442,1
0.246301316094255,0.00291752613428273,1
0.240257939186467,0.00322697504306925,1
0.226995904014728,0.00526337699246655,1
0.181752870901843,0.00312951233318678,1
0.179844542702866,0.00228031275449664,1
0.178437792673736,0.00293807840005991,1
0.199792166291402,0.00693856748537711,1
0.317186803133672,0.0103154646944975,1
0.547629519849691,0.0207450990896056,1
0.629304541422726,0.0303950153151065,1
0.692930819736201,0.0401254169662825,1
0.681388455484944,0.0433513424066357,1
0.638407523088873,0.0345953873440623,1
0.499892445363676,0.0159425289091189,1
0.299491779014426,0.00949048819959432,1
0.250199732976811,0.00710314447608883,1
0.193437614087104,0.00437828229588638,1
0.1886603113627,0.00606292114858952,1
0.191972399637565,0.00451762737022593,1
0.186893246197794,0.00447668677177442,1
0.165880367164963,0.00402388746515894,1
0.164641110726518,0.00401558109725219,1
0.156816959445588,0.00363924653992188,1
0.145718968823485,0.0123751361795569,1
0.114050493943183,0.00787013590385694,1
0.116834468512311,0.00911892869213798,1
0.112204963195983,0.00843963097337601,1
0.0944799671706527,0.00497713280648514,1
0.0898072419441785,0.00796113305615146,1
0.117018157596162,0.0107469822140951,1
0.120049195991353,0.00803294597773306,1
0.105629959069741,0.00707520433781373,1
0.099571240258325,0.0103081011984233,1
0.0840274526107531,0.00726559089701464,1
0.0743797178989481,0.0138484918323851,1
0.0591839421659077,0.0115504758927216,1
0.0432055561778502,0.00739731355944934,1
0.0376465700801239,0.0110836374494173,1
0.0385002386080565,0.0102432029643284,1
0.0220371141492918,0.00365211807291502,1
0.0405508223092315,0.00725816367937209,1
0.0574608411831843,0.0110042941754757,1
0.0636110385806816,0.0112121469245309,1
0.125854291426446,0.0178400063814435,1
0.136492936063361,0.00849118428513465,1
0.130446074495194,0.00404611561752053,1
0.241069692454504,0.00937237123330793,1
0.225542344094505,0.00719475659905879,1
0.239988058018982,0.00704399517769764,1
0.176494619335403,0.00385705734119107,1
0.174444867062408,0.00444741995749423,1
0.17834920602892,0.00366673361852691,1
0.23683317037538,0.00647953171764614,1
0.301494920444667,0.00940101866166516,1
0.269052963628209,0.010330833421812,1
0.2296195676576,0.0103903264786608,1
0.291233097715811,0.0156027331175515,1
0.363120956282622,0.0221463277683649,1
0.390750609249753,0.0143202277436078,1
0.444128008913602,0.0134776949255518,1
0.495824907899992,0.00918120416757843,1
0.565821319830221,0.0118472883976409,1
0.456508368938613,0.00853333748351803,1
0.315998448763648,0.00485432567700293,1
0.319114505064576,0.00357155975407973,1
0.42521919840081,0.00790656856696029,1
0.492850664474374,0.00952068379611311,1
0.460534357579589,0.00780210065610114,1
0.423928221042967,0.0102970942753502,1
0.413208866251556,0.0108373313659251,1
0.463082613038792,0.0238518233496029,1
0.422946051124694,0.018507538928113,1
0.440614527573424,0.016287796088937,1
0.48694819868265,0.0180609228816256,1
0.534723920941367,0.026419635761572,1
0.579741630910426,0.0273384917620174,1
0.511518265177693,0.026182186846833,1
0.345409258337332,0.00681654458134643,1
0.277918011182428,0.00402378530974208,1
0.315036348871391,0.00445589097418967,1
0.332786289641923,0.0042360672483099,1
0.290634370212385,0.00411052421894951,1
0.234108376551491,0.00282895177470703,1
0.224303964437181,0.00123791676888286,1
0.242986649509707,0.00357510515661538,1
0.246656438881953,0.00387419676492837,1
0.211813044046666,0.00168586849154465,1
0.200569106565474,0.00612248146774393,1
0.130318748891138,0.00481770091090041,1
0.123952820569391,0.00889960287431321,1
0.14641197626548,0.0121399786611235,1
0.153056643725239,0.0115505387670048,1
0.141518482032497,0.0114051432647273,1
0.150712563035998,0.0141643435363079,1
0.150743333776551,0.0104063607987198,1
0.152907676602374,0.00992177352794771,1
0.130110711029185,0.00870533630645774,1
0.117389074157077,0.00688281794189338,1
0.173584058375133,0.0125085740821196,1
0.192235659020341,0.00938590475343582,1
0.170446757562547,0.00785495265233772,1
0.166229184473855,0.0082959429075336,1
0.170474366389536,0.00797113066749955,1
0.139505350925086,0.00610396687199507,1
0.139491971504462,0.0077990763432903,1
0.127297442774028,0.00735668773357045,1
0.124228954086104,0.00872677054367413,1
0.134607537655686,0.0104530644979775,1
0.129317630766214,0.0105104451024373,1
0.132973932158898,0.0176798765069572,1
0.109848343220913,0.0151231832070795,1
0.0858542613689344,0.012552307644933,1
0.0848219856974482,0.0132094739025058,1
0.0925868897039973,0.0155067149264795,1
0.118494323145746,0.0190824321901598,1
0.128552840000135,0.0256559709362973,1
0.135449212906141,0.026691151996999,1
0.128718731901352,0.0268359326256974,1
0.11935156429808,0.0160666004976181,1
0.284323734688359,0.018982578481433,1
0.295688696806099,0.0103457967758026,1
0.240399376933958,0.00800313130491284,1
0.202578735633612,0.00716937162242386,1
0.22338137252511,0.0100609699864994,1
0.261630618313446,0.011914685892914,1
0.282682632099792,0.0121329386240192,1
0.344618522745085,0.0137424422008899,1
0.352558288577996,0.0123622097860027,1
0.365074669584939,0.0142095583248986,1
0.190667758551644,0.0135016908201676,1
0.0898705693228096,0.0142523741510055,1
0.067787085540115,0.0107382688972913,1
0.067349891437769,0.0109946245638159,1
0.070358899823224,0.0108546628764659,1
0.0691555265695492,0.00828713162791589,1
0.0603739115677826,0.00597318958097235,1
0.0700991387811676,0.00837476454301301,1
0.0554608142493679,0.00986093048772349,1
0.0331985879129946,0.0087675601534341,1
0.0401471809368605,0.0109344837550893,1
0.0483258499023066,0.0132552944160172,1
0.050646920782651,0.0121854638936591,1
0.04862334702934,0.0116450842017351,1
0.0516046193633128,0.010889554708732,1
0.029986144727806,0.00901906993054314,1
0.0135098964208905,0.00459985590460412,1
0.0114854439849329,0.00421423146191159,1
0.0137556814071748,0.00828015533396601,1
0.0101433009377691,0.00542480482048848,1
0.0106276391322413,0.0081892925261888,1
0.0110773833943509,0.00782184943637463,1
0.0105772759055301,0.00943825651091942,1
0.0104899357750742,0.00700049400323769,1
0.0131980729771532,0.0122473657906906,1
0.0141717476488007,0.0122255785996738,1
0.0105266949515675,0.0121056259886104,1
0.00645387791437172,0.0103017262167196,1
0.00770668049910775,0.0132230299528792,1
0.00755125923731405,0.0104448104273025,1
0.00738493253303941,0.00821495901637009,1
0.00720939074290351,0.00964594986263769,1
0.00498336621042649,0.00687101918675926,1
0.0055222885526779,0.0135035388703707,0
0.00609562761970592,0.015803353795914,0
0.00651290471776703,0.0216506883802425,0
0.00487221343068231,0.0227252559677355,0
0.00508595901917387,0.0296348105508796,0
0.00531320670702557,0.0339000404351623,0
0.00274506637382318,0.0596497685267694,0
0.000753236689473692,0.192489078498446,0
0.00013755372000245,0.108041884533882,0
1.13268657020282e-05,0.494575276762434,0
4.66148250813612e-06,0.449219043664583,0
2.77485661383238e-06,0.365246947486124,0
1.66966557003989e-06,0.283931502361913,0
1.48334487339214e-06,0.301991647502474,0
1.51887595488322e-06,0.296553348517179,0
2.89086571974646e-06,0.353866430752761,0
1.72958388247752e-05,0.490055770731003,0
4.32630568143027e-05,0.75888545548638,0
6.01893068475869e-05,0.863641777036595,0
6.16075833992561e-05,0.466078533136406,0
6.06219360923656e-05,0.459909850037427,0
6.11873633160229e-05,0.461048627017486,0
6.18891906910614e-05,0.465332918586429,0
6.1341486685463e-05,0.459640229773025,0
6.18973232637228e-05,0.462662036771965,0
6.14507925769448e-05,0.468112047783386,0
5.68228270148898e-05,0.632784569242968,0
3.74579731145785e-05,0.536567847562602,0
1.50377668097487e-05,0.343661277475202,0
5.9862100668691e-06,0.420481941249229,0
5.92393666546011e-06,0.427196537101891,0
5.53744876226617e-06,0.443439724172391,0
5.33157885459437e-06,0.422712060212513,0
4.80356950524114e-06,0.375035936658553,0
4.17609148002832e-06,0.360352824221594,0
4.4541843658464e-06,0.328739286252257,0
5.5601906519514e-06,0.361027891341756,0
6.8466205488495e-06,0.381563972416171,0
9.65914472835272e-06,0.461459832731708,0
9.42660154042592e-06,0.44012433616236,0
9.94052542524271e-06,0.421521702688502,0
1.15405046317313e-05,0.464081211486431,0
1.15083325233517e-05,0.466861695267681,0
1.22665292225862e-05,0.509408530821425,0
1.23541089688629e-05,0.508012036023262,0
1.25196150186398e-05,0.575071759185179,0
1.175384405664e-05,0.571973665095137,0
8.80683573245847e-06,0.551425850426458,0
3.32616204285938e-06,0.354399509451811,0
1.81182984662292e-06,0.264727692870833,0
1.71524622966065e-06,0.283695629341512,0
1.82323537371983e-06,0.283885683459704,0
1.6850886312281e-06,0.272008096119774,0
1.91705041280737e-06,0.287360117175128,0
1.67303103512687e-06,0.28677371237813,0
1.57548698032233e-06,0.280907057006292,0
2.13242120183038e-06,0.308005249862808,0
2.75947662440494e-06,0.349035894824308,0
2.64637330177162e-06,0.333362662423125,0
2.42073220745071e-06,0.317999479442222,0
2.34262774916021e-06,0.331047764140544,0
1.87780642069244e-06,0.296272479348628,0
2.08439756187716e-06,0.323775939735686,0
2.14663800402573e-06,0.336813531588409,0
2.50651617341753e-06,0.35770058292061,0
2.40610428841997e-06,0.345086517487567,0
2.11762686350369e-06,0.327879413032693,0
1.46236143515737e-06,0.26722462372625,0
1.16894848583987e-06,0.250954171130598,0
8.33526212520488e-07,0.21623877532344,0
6.03106025439639e-07,0.183004761825838,0
5.84876433288957e-07,0.187481456191385,0
6.34218568504399e-07,0.188586032743474,0
8.72628879321825e-07,0.214726601983394,0
2.25152198624778e-06,0.2767468696648,0
1.5860873401534e-05,0.519572556934662,0
2.51852029811256e-05,0.559306572740911,0
5.08515270182959e-05,0.488733565817044,0
6.12829849969947e-05,0.377946692278235,0
6.19301506870945e-05,0.3898175416422,0
9.03189454651208e-05,0.231197294492633,0
0.000122828621091767,0.151956360956418,0
0.000106234846474292,0.12858690614177,0
0.000103101364018117,0.127859792626484,0
0.000111815623305513,0.133558803999093,0
0.000124970678257978,0.143264686647127,0
0.000129402659068726,0.149429580077021,0
0.000131868570182388,0.171555367960713,0
0.000134607111059609,0.185025376916122,0
0.000136003261460504,0.183042770510978,0
9.46115021123446e-05,0.277179249670371,0
6.25462791160765e-06,0.191294937645756,0
6.94319118186069e-06,0.307749896226073,0
1.12241502893265e-05,0.365999917559989,0
1.95752482155489e-05,0.337608215205133,0
3.37090351476557e-05,0.355779744612895,0
3.42230303193578e-05,0.303488426432532,0
3.20294012740261e-05,0.299166683675937,0
3.2138516276458e-05,0.293931781720423,0
3.55081917841127e-05,0.307773874839276,0
3.56075819320374e-05,0.3140023940248,0
3.62141796415499e-05,0.32375233309031,0
3.65304462174393e-05,0.356211823971926,0
3.5682164743291e-05,0.361416846979859,0
2.65721642403402e-05,0.481866117239682,0
4.12308799545629e-06,0.249921869057791,0
2.10753246577368e-06,0.26015171691183,0
1.71225255501879e-06,0.243014164895733,0
2.22149747331371e-06,0.318336597086636,0
2.44531082682988e-06,0.344266565002083,0
2.5269179556134e-06,0.362675322466502,0
2.56708393310012e-06,0.366969166632334,0
2.29411833465294e-06,0.374331363826649,0
1.94314753023355e-06,0.362633901495491,0
1.17529976029067e-06,0.303639424572515,0
5.33235889042414e-07,0.214965964680875,0
1.52406616447854e-07,0.130871879344639,0
1.4958410523791e-07,0.135634404274607,0
1.35709754752078e-07,0.119996082598142,0
1.695597891164e-07,0.119131432270107,0
1.64401165478973e-07,0.116054968299489,0
2.06228464474482e-07,0.131840608372951,0
2.26462578917577e-07,0.130477102519703,0
3.7850464596995e-07,0.160026926749371,0
4.74596745476733e-07,0.171360668574467,0
4.76194770224047e-07,0.170382220462051,0
4.45059255553545e-07,0.162365675014732,0
4.47804861822526e-07,0.163590827860672,0
4.10467637829922e-07,0.166205734177821,0
3.6047880197455e-07,0.166819191174851,0
3.44358352798959e-07,0.172388593122707,0
2.61368433226277e-07,0.152245894179307,0
2.24089512167814e-07,0.142676854725803,0
1.7562941170548e-07,0.136395564836165,0
6.89962166135357e-08,0.0984020571030188,0
9.63174459652906e-08,0.113122888761776,0
8.2167810747598e-08,0.103829374205062,0
1.36090159549349e-07,0.133380557596485,0
2.38287462664976e-07,0.169870182281408,0
2.8217871049819e-07,0.176395676421449,0
3.05524853290998e-07,0.180394003774374,0
3.0385441804732e-07,0.187085835928547,0
3.00476967774732e-07,0.196917931337718,0
2.13930569219491e-07,0.174471047979529,0
1.74101175695177e-07,0.156759985567875,0
1.40520808006964e-07,0.143217976686731,0
1.6349129013847e-07,0.166028355623347,0
1.93812935798993e-07,0.171193873439042,0
1.27678681631352e-07,0.147213105271299,0
9.49726082638781e-08,0.133920581190305,0
6.59878101810313e-08,0.120165175082588,0
1.51068270721978e-07,0.149927300934155,0
2.2686408263534e-07,0.154556897949589,0
6.39572825327688e-07,0.230523827496949,0
6.59501192692176e-07,0.222830473124864,0
6.24263373711359e-07,0.213170248060812,0
5.75657952873566e-07,0.198660687746144,0
5.21310629365575e-07,0.186746063144827,0
5.84693659208482e-07,0.201022864775149,0
6.92053955560454e-07,0.21314685373347,0
7.22979729482874e-07,0.207991334702985,0
7.15279247731747e-07,0.211601411645974,0
6.92162820996366e-07,0.217162253174988,0
2.96908004223834e-07,0.150040855600956,0
4.89382594296951e-07,0.195480008223325,0
5.6114077196399e-07,0.196965669532048,0
5.99663780257375e-07,0.205323459731428,0
5.96553999129963e-07,0.202640150728081,0
7.13312678527083e-07,0.213915862978241,0
6.18554430301575e-07,0.196883556846146,0
6.19848830346901e-07,0.208856524771269,0
6.72875286524688e-07,0.19914321065653,0
1.77624845232143e-06,0.314633676900341,0
2.08597910699426e-06,0.315540941758117,0
2.06593475798991e-06,0.31561814543109,0
2.32043118542e-06,0.331227325828185,0
2.98003487641824e-06,0.365948799060473,0
2.92193231959974e-06,0.359553611394111,0
2.9342894204954e-06,0.366855664138911,0
3.26438140736271e-06,0.375160412750641,0
4.2287220505441e-06,0.417167526236314,0
1.00119380300581e-05,0.546028361561477,0
1.57462161246795e-05,0.576613604387036,0
4.08885686964343e-05,0.133585166382796,0
0.000408643915433192,0.186660474887363,0
0.000634716607274153,0.144147529094476,0
0.00181046664911531,0.036063175865371,0
0.00416202353783324,0.0492249176580697,0
0.00461083140837793,0.0542145247217877,0
0.00445354313182441,0.0511891748878213,0
0.00395564724146269,0.0447882122819703,0
0.00342704523279627,0.0389118991634586,0
0.00271771563182579,0.0308941737467995,0
0.00229216212202194,0.0244030587811245,0
0.00288135557821638,0.0309811785323822,0
0.00345101742363184,0.0354082387454484,0
0.00362582296069489,0.118722000708735,0
0.0024825681096345,0.132215090922157,0
0.00199362731324932,0.115221963584727,0
0.00151394383564802,0.100181051349231,0
0.00105477206399536,0.0924815521351539,0
0.000961542385367825,0.119283850973587,0
0.000254469524059238,0.106822041314231,0
2.90358193925038e-05,0.676927965685079,0
1.80362701081099e-05,0.659043925149143,0
1.16396760500188e-05,0.556343790960503,0
5.39277920735467e-06,0.382680007285621,0
2.96119316588192e-06,0.291030448076763,0
2.75150298029857e-06,0.274766488002334,0
3.05304563082667e-06,0.298328427650884,0
3.25771664540093e-06,0.313277320739441,0
2.91842415589665e-06,0.281492023000973,0
2.88854795963444e-06,0.278584311461659,0
3.39846567131713e-06,0.304013167122482,0
3.53102881546519e-06,0.324759554009768,0
3.87918946839729e-06,0.336390997319066,0
3.97605473722127e-06,0.344637702971269,0
2.91671114827493e-06,0.336644713271264,0
1.13492366751881e-06,0.214344237792202,0
9.31084125195882e-07,0.194736598123302,0
9.40851427235429e-07,0.204514466106342,0
8.71725870493909e-07,0.206077830087978,0
5.13179055469725e-07,0.17300988052964,0
5.61544273212687e-07,0.189306162958545,0
5.88829172470577e-07,0.194846117804273,0
4.86817639731826e-07,0.178457499563222,0
7.00213494889384e-07,0.209884660977596,0
7.08352809217603e-07,0.201427709080435,0
6.96653894764738e-07,0.205730285111141,0
6.2888903112642e-07,0.199991661519828,0
5.1349466535732e-07,0.183389258204316,0
4.40778546761674e-07,0.179566967274799,0
4.78403165517428e-07,0.183619696073948,0
4.66677534088319e-07,0.176163597585236,0
4.53778478081084e-07,0.177429727482635,0
4.31501014338042e-07,0.177721775988388,0
2.75475870602986e-07,0.148100064699747,0
4.25896941302301e-07,0.183431906318894,0
4.46980880312192e-07,0.179286165550172,0
5.89387856903721e-07,0.199880326035083,0
6.13486694321652e-07,0.186805358820398,0
7.17104991005555e-07,0.204709780526683,0
6.36832212886043e-07,0.195302318637714,0
6.65481800309004e-07,0.196729862707728,0
7.20803419530122e-07,0.200404148968716,0
7.34062031105504e-07,0.20082786988524,0
7.24149283844815e-07,0.204473077818808,0
5.40439484973672e-07,0.18032289567288,0
6.02921128982547e-07,0.192137753108416,0
5.90907104024822e-07,0.189525029363557,0
5.7025662922764e-07,0.187086829161702,0
5.10228327742944e-07,0.180933070371616,0
4.64004837698434e-07,0.16947383308767,0
5.75526989751696e-07,0.192595768030276,0
5.90012085320641e-07,0.190271757916502,0
6.76767850086918e-07,0.204487388940458,0
6.96896969310287e-07,0.197135288379229,0
7.85921929217752e-07,0.20949348667612,0
7.95348901924394e-07,0.214834386599102,0
1.32031139237463e-06,0.281779144226555,0
1.77427626506101e-06,0.332321208526871,0
2.70032723653126e-06,0.380293010668227,0
4.57077675079326e-06,0.473308201917355,0
4.81533933204216e-06,0.439446254545802,0
7.77986800004705e-06,0.479651936693893,0
1.55123691732812e-05,0.388175197913498,0
7.08397978385851e-05,0.431228188801292,0
8.29737279614665e-05,0.323527104267093,0
8.64722791711648e-05,0.311936507405387,0
0.000187406408019566,0.225107254469598,0
0.000277614793143778,0.236891803578162,0
0.000335535058285522,0.247422325131053,0
0.000485552138341062,0.235042254540252,0
0.000581224716525901,0.165302786184446,0
0.000490284065026047,0.146198984723584,0
0.000407635789661008,0.108822775012256,0
0.000422310600730424,0.0809951616283537,0
0.00064735372717484,0.0587260724609238,0
0.000590055679810285,0.0363303741631836,0
0.000737230203432954,0.0235069876852382,0
0.00190823904867229,0.0359623207255086,0
0.00200913241802682,0.0298185137667626,0
0.00252852642644874,0.0295660016936321,0
0.00256569308427117,0.0255452875074199,0
0.00247494747318988,0.0230824556844059,0
0.00206660504884595,0.0160706678503006,0
0.00158614716620487,0.00997008081758155,0
0.00217084199084781,0.0118247107232116,0
0.00218519551404795,0.00743308396253103,0
0.00302012511652082,0.0147287617876943,0
0.00343919054235351,0.0181561855084888,0
0.00408001336823191,0.0230343451184908,0
0.00394726090209697,0.0252476870329891,0
0.00410037552840294,0.0284828980816792,0
0.00397931132126664,0.0318738238414799,0
0.0037553200133376,0.035845548034618,0
0.00368553523580679,0.0512408719009799,0
0.000821332742742127,0.0372529759372482,0
2.33284211977434e-05,0.297829760375275,0
1.03328729605863e-05,0.55406483735209,0
9.45092809637033e-06,0.541693103914836,0
8.58939737407294e-06,0.524201462766858,0
7.62851508116697e-06,0.501894624848847,0
4.30307452151186e-06,0.389568818883042,0
2.4766926620337e-06,0.331382055664652,0
2.42313985645477e-06,0.344898586525408,0
2.63598314461767e-06,0.366141855876371,0
1.93306312015821e-06,0.339369709072684,0
1.30735340920484e-06,0.300056553673073,0
1.26343581893244e-06,0.279552336323409,0
1.53926175683163e-06,0.270734793599198,0
1.71105840605722e-06,0.288429311464965,0
1.62149011773567e-06,0.288729412315286,0
1.59925073192606e-06,0.273639990341752,0
1.5927496426552e-06,0.267274212453994,0
1.31428983537366e-06,0.243392771693147,0
1.15205748910643e-06,0.234930924317224,0
1.13273986682506e-06,0.231693620544796,0
1.11048237839136e-06,0.23778071814004,0
6.95099191469557e-07,0.194694539164042,0
5.56771797273967e-07,0.206088502749467,0
4.81302581668338e-07,0.182580093065071,0
5.01203857519531e-07,0.176104407169229,0
4.72538414694782e-07,0.172592089402347,0
3.70296666515869e-07,0.162897381957388,0
2.99422396287188e-07,0.146652387150542,0
2.47747144940665e-07,0.132390386178176,0
2.95612106030308e-07,0.144544151115959,0
3.08622524387122e-07,0.140792026018573,0
4.28761400661864e-07,0.154327130225707,0
5.2785004626123e-07,0.165076946477322,0
4.81923688943173e-07,0.164554111026642,0
4.6166273267815e-07,0.161289079917921,0
4.49339090425632e-07,0.164485382502887,0
5.01274894713377e-07,0.170391753304349,0
5.0831307011415e-07,0.171388040639828,0
4.97576341343126e-07,0.172934855542444,0
5.50760602464711e-07,0.172579017562215,0
5.99886879493582e-07,0.184100537650567,0
4.28948169804206e-07,0.165683607621757,0
3.88973580750116e-07,0.162149065073433,0
3.46798836217749e-07,0.148398496316432,0
3.22784394481786e-07,0.147401244785609,0
3.18647507917173e-07,0.148363146175427,0
2.68146055685828e-07,0.137997841179644,0
2.48893852542548e-07,0.135069950358965,0
2.03520936138933e-07,0.122631561359842,0
1.95515331537617e-07,0.122633509102463,0
2.36246360587331e-07,0.133031031866454,0
2.15343198126981e-07,0.12929112325342,0
2.10686079599707e-07,0.133072103323741,0
1.74264598694726e-07,0.127538578657287,0
1.99510393405905e-07,0.141628820355883,0
2.66754650544513e-07,0.163840012401865,0
2.78874669487432e-07,0.160740936302473,0
3.66961414084266e-07,0.177594187448048,0
3.26225765744266e-07,0.168030048928796,0
2.87073535206626e-07,0.159871592170944,0
3.85228210248595e-07,0.174743169013692,0
4.05365319595702e-07,0.174070258792872,0
4.86451217651094e-07,0.184338561860703,0
5.0754015048832e-07,0.184456078973326,0
6.25213699053278e-07,0.194196846865655,0
6.35838441246307e-07,0.192577661953773,0
6.31005040614094e-07,0.1951542585136,0
4.51362089879186e-07,0.16850552029001,0
4.80740151864693e-07,0.17518257698798,0
4.99981992816252e-07,0.179315011438043,0
2.92062368714651e-07,0.152128899890694,0
3.18693575974342e-07,0.161118973463765,0
3.73252013532935e-07,0.163012916434781,0
4.97000677897042e-07,0.184037830733381,0
4.82368139576021e-07,0.187758624437078,0
5.83533093735746e-07,0.200715413441368,0
6.32884092994707e-07,0.204280790184163,0
6.97294602811863e-07,0.208981647613771,0
6.68423164609531e-07,0.200768675434203,0
6.40082195715897e-07,0.203895484286179,0
4.33321888630198e-07,0.163044870921212,0
2.57694848992703e-07,0.128904342755549,0
2.18646115526588e-07,0.130422150634198,0
2.24352062639971e-07,0.136954026115353,0
2.25369804650917e-07,0.139281360042371,0
1.99929375519342e-07,0.146453918474259,0
1.57928790715296e-07,0.140241277410929,0
1.01817522546773e-07,0.126097748375446,0
1.0361592461592e-07,0.129520408159886,0
5.68287563109308e-08,0.103077908840981,0
5.62468505806781e-08,0.101348441627959,0
1.02891819652292e-07,0.121206895582847,0
1.03155868272649e-07,0.116060844646431,0
9.50270409818336e-08,0.114085807464791,0
9.99879090567801e-08,0.114685539419527,0
1.01094416348613e-07,0.109317369028869,0
1.00543222656473e-07,0.110467605493966,0
1.04597211687318e-07,0.107441181053533,0
2.36084685427349e-07,0.157252179035852,0
3.08246489188769e-07,0.178943302562593,0
3.24527240221826e-07,0.197231124879889,0
1.96816722941212e-07,0.16057964094788,0
1.59542171481668e-07,0.150907146408054,0
1.65484451473696e-07,0.153256931502543,0
1.84910814345296e-07,0.149682268176041,0
1.81014630258249e-07,0.139816465926613,0
2.19493068642665e-07,0.155052729560956,0
2.26444101756436e-07,0.157206684552496,0
1.68504218863388e-07,0.138285332820096,0
1.13101699639436e-07,0.117194496553757,0
1.02241997870278e-07,0.11268019123446,0
1.01512899079316e-07,0.113819513409613,0
1.30532029725094e-07,0.122612292678355,0
1.91122761013434e-07,0.137286271768161,0
1.26541087764357e-07,0.122573899725567,0
1.28343859432422e-07,0.131153786144809,0
1.93459247977966e-07,0.150929618742169,0
1.99942234624731e-07,0.154758736476407,0
1.8147069153965e-07,0.14348173722126,0
1.82711657632487e-07,0.14871580741689,0
1.94181480256342e-07,0.141671267246713,0
2.44341978926367e-07,0.152561018635547,0
1.98639469918618e-07,0.146746333860868,0
8.8824208048583e-08,0.106159681644132,0
1.03313673216447e-07,0.108877717915335,0
1.06659537531138e-07,0.108915751981129,0
7.72229229201249e-08,0.0978176949399067,0
1.17723986221045e-07,0.113380049337361,0
1.61295629104796e-07,0.132175774489123,0
1.59832437695535e-07,0.130095462298739,0
1.48258119234688e-07,0.130782194928312,0
1.44750454914331e-07,0.127839273586421,0
1.47421153773281e-07,0.123522052462537,0
1.75741772820525e-07,0.135519042143242,0
1.70617481746029e-07,0.135454828457496,0
1.90163946165045e-07,0.145581561479048,0
1.91048852368871e-07,0.151709092653772,0
1.61399875250421e-07,0.141538681581942,0
2.14339438832574e-07,0.15200191485893,0
2.33205119740097e-07,0.151839820749788,0
2.27116770298509e-07,0.155538139734622,0
2.16295146462784e-07,0.158163053551774,0
2.29898332124304e-07,0.15664195335931,0
3.56288606303134e-07,0.189180135772154,0
4.6457725515675e-07,0.209925331514597,0
4.44090078513435e-07,0.200961700938757,0
4.55685121357724e-07,0.198266087610599,0
4.58562564668359e-07,0.199922082971998,0
3.61989060206447e-07,0.177329404539382,0
3.47839050451705e-07,0.169719940850897,0
3.78304892876536e-07,0.171797495037516,0
3.58831463182299e-07,0.158380865979128,0
4.98158621610428e-07,0.186021983896922,0
3.89837637724816e-07,0.163623026874518,0
2.73902814992348e-07,0.143126025472909,0
2.76652416323197e-07,0.14377480951169,0
2.72800302762383e-07,0.141676797524543,0
3.14185023810297e-07,0.146727775744122,0
3.91001698876689e-07,0.165110300730136,0
4.48160422328803e-07,0.180518499892404,0
4.39375905508855e-07,0.171493033044595,0
4.61602806750126e-07,0.179658434936242,0
4.74517843004834e-07,0.183009492530886,0
4.55075874422811e-07,0.185772086195627,0
5.03616500350926e-07,0.19355562972278,0
5.50578827149703e-07,0.202030235123326,0
5.5981740772012e-07,0.196379805457252,0
3.09571850963574e-06,0.26439375834803,0
9.99966819629517e-06,0.341925498721946,0
1.12054787434567e-05,0.295268068426553,0
1.97892962645564e-05,0.372559320736362,0
2.05695942702748e-05,0.328747295154489,0
3.08375654532798e-05,0.196345374530826,0
5.9730312316854e-05,0.184139594415826,0
5.36506180519583e-05,0.160239152035772,0
5.06423975146766e-05,0.161251086101888,0
5.1489507436932e-05,0.161032182717406,0
5.66650130822032e-05,0.177373621703306,0
6.34654063956376e-05,0.193323409573568,0
6.81847290349658e-05,0.204774447916713,0
6.86911600564029e-05,0.202704715725274,0
6.95914448763536e-05,0.21129531953559,0
5.62940466185959e-05,0.360470673571802,0
5.35199799034023e-06,0.260761032750907,0
7.4976462177881e-07,0.224694088650386,0
4.26771485314406e-07,0.179235022274119,0
4.20388749751399e-07,0.177263764523345,0
4.25332638813406e-07,0.185878372389357,0
3.3003655538388e-07,0.167192219774316,0
3.54161610395321e-07,0.165212394548314,0
3.9934139052674e-07,0.168410506883796,0
3.59806757660895e-07,0.165868830595607,0
8.64245741373956e-07,0.235216629034699,0
1.20246305985294e-06,0.251861108869897,0
3.76603795533019e-05,0.0773627812366319,0
0.000403033295489814,0.163496738766949,0
0.000708980440927852,0.220140179791925,0
0.00104385156137963,0.281878413329976,0
0.00137031576902067,0.325178156187993,0
0.00213588452346091,0.23281445786662,0
0.00300510206190094,0.168486641943187,0
0.00264361028140249,0.0997695706753486,0
0.00212734921360648,0.081321653349048,0
0.00168477791866212,0.060173003360568,0
0.00149525524484669,0.062546128275602,0
0.00191671212232932,0.0814067725306251,0
0.00237874172653266,0.0938330885754752,0
0.00270653645607029,0.102046558592245,0
0.00280926302997606,0.109377568916505,0
0.00229604259115859,0.15285635308481,0
0.000917389935395835,0.122870095943769,0
0.000562244823666076,0.171318474746221,0
0.000157228949759925,0.137257045213416,0
6.9901472663753e-05,0.312469809137908,0
2.95047947113948e-05,0.249659534158435,0
2.45861715442546e-05,0.298382258536073,0
2.75155775009987e-05,0.305174151762293,0
3.53914674372785e-05,0.398923697608082,0
3.53373203662466e-05,0.393265724601403,0
3.49417263437524e-05,0.419120803345115,0
3.27318848379764e-05,0.401618392941328,0
2.89815654535671e-05,0.364783067498205,0
3.01436581635495e-05,0.330054115253596,0
2.56936731071094e-05,0.268995789034055,0
2.52343238897901e-05,0.269032609214092,0
3.12423559833492e-05,0.341746419199695,0
3.63844300769868e-05,0.341167483702266,0
2.93392982747355e-05,0.315980170425142,0
2.03427426722078e-05,0.272132169582643,0
2.06400901332372e-05,0.273483579725622,0
1.96807099835936e-05,0.257571376664942,0
1.95665379819106e-05,0.26041893660744,0
1.38310953267546e-05,0.241146596677556,0
1.56545974956998e-05,0.256472058101441,0
1.59621891692792e-05,0.20245863708325,0
1.479135638754e-05,0.193738998631118,0
1.17073365426658e-05,0.17997214550511,0
1.29878196651272e-05,0.192504229697514,0
1.28669690436115e-05,0.193715387804916,0
1.55878818351846e-05,0.185737006834715,0
2.37681781322779e-05,0.181438146353145,0
2.61594437621536e-05,0.179781231058978,0
2.67418199109415e-05,0.175175598609215,0
2.21146150336352e-05,0.163041928360892,0
1.9651671876404e-05,0.164393525659202,0
4.67203329174631e-05,0.161515627999648,0
7.15014864524959e-05,0.141673263001071,0
6.69125886004508e-05,0.130317815257502,0
6.71142092604429e-05,0.115675918574542,0
6.84360753561128e-05,0.107784935898574,0
7.05358330569537e-05,0.119678869508175,0
6.14104206040805e-05,0.116712238197126,0
6.28662130339153e-05,0.119953823973734,0
7.52329220533737e-05,0.132765853619117,0
9.01867189049351e-05,0.152887073159821,0
7.49316963860357e-05,0.207606796481276,0
4.49740913748344e-05,0.244656151428022,0
4.8361806334664e-05,0.283260423871866,0
2.94107130019276e-05,0.337277004398452,0
1.57612876204233e-05,0.483841381726411,0
1.47894287701886e-05,0.525631765323154,0
8.32635750683752e-06,0.393652716765387,0
3.95316615385806e-06,0.29119424160277,0
4.45788728881558e-06,0.334388665288805,0
4.76160887105577e-06,0.348503970522809,0
1.19000851690139e-05,0.380577603812884,0
1.3664354553169e-05,0.245812104329191,0
1.26662113169829e-05,0.212415918317356,0
2.57968201113386e-05,0.252170309198541,0
4.28263191477751e-05,0.294182535336956,0
4.16166543646762e-05,0.283393551864352,0
3.4594260956431e-05,0.235616730172706,0
3.44002093156854e-05,0.202278573146843,0
2.96696465697908e-05,0.18427407649143,0
2.89061343158948e-05,0.168602415500847,0
3.77791690974306e-05,0.219530019285907,0
4.67509825327339e-05,0.294712144581749,0
5.42520937176187e-05,0.35606567936872,0
5.65113930905585e-05,0.504996471256562,0
4.58254011058788e-05,0.491733032800332,0
4.20254765363991e-05,0.466213601040678,0
3.82253855476234e-05,0.585189245852022,0
1.78325522903283e-05,0.61332977914544,0
5.16230845777204e-06,0.361152063518669,0
4.67854204654213e-07,0.211324449124921,0
1.01699293684609e-07,0.111708306322202,0
9.96558195389791e-08,0.1115747149246,0
9.5869874190359e-08,0.107172423233314,0
1.12404436497736e-07,0.10798902657266,0
1.0612282593827e-07,0.10161356163358,0
1.4345106104167e-07,0.112607680799644,0
1.78286627230625e-07,0.121232275059238,0
4.13099384835657e-07,0.169654472450083,0
4.14030733633702e-07,0.162852753491876,0
4.15353099112105e-07,0.160142792728684,0
1.85054012344138e-06,0.299432379988896,0
2.94931147734859e-06,0.284066208929067,0
1.60075726975659e-05,0.450796469022649,0
1.90308582386159e-05,0.346207445385211,0
1.94495935321366e-05,0.280855023873189,0
3.15620558155316e-05,0.336023994857518,0
3.11130838962608e-05,0.278289285731881,0
7.25170062102781e-05,0.193985289047312,0
9.09875224396122e-05,0.136779470744311,0
7.82866855468798e-05,0.124741707382613,0
6.9653237871573e-05,0.113302552864743,0
5.97122914666859e-05,0.100139431416856,0
0.000136808138584984,0.0809594671234441,0
0.00035994885102513,0.0903975535771785,0
0.000336716062494778,0.0788175323022732,0
0.000329750806960756,0.0778136178615312,0
0.000371101999451939,0.0563353235998508,0
0.000528504132147559,0.0536000470888672,0
0.000536612543673462,0.0536384374872859,0
0.000523029582138729,0.0512856939895853,0
0.000434692956409689,0.0459962797641374,0
0.000381409687167971,0.0404491653150978,0
0.000903342971894855,0.0627059437745376,0
0.0014470656749926,0.0769952128474665,0
0.00130851481801017,0.0668511563426493,0
0.00108843138908757,0.0533030460540401,0
0.00109987543357472,0.0556792365801994,0
0.00108633515777791,0.0500277611891236,0
0.00096217183146039,0.0461812376503635,0
0.000867877212037382,0.0430285266656428,0
0.00077639491167242,0.0396950371499503,0
0.000879970928491727,0.0427431872111036,0
0.000876304377564571,0.0289412581753019,0
0.000847311146030966,0.0237908120862066,0
0.000851076435786115,0.022944335686154,0
0.00102236890832877,0.0239698938438694,0
0.000975911634130244,0.0193892512580333,0
0.00110025062294357,0.0244505338154462,0
0.00107583664905288,0.0249311504771198,0
0.00110260498481367,0.0241466969206858,0
0.00111046054987269,0.021185385598331,0
0.00115750993156649,0.0230540402843998,0
0.00106605211431396,0.0349770204414356,0
0.00105129082201544,0.0435887579940835,0
0.00126866565392343,0.0478745380200304,0
0.000886577791020606,0.0325169350870301,0
0.000854923718318365,0.0298941474916837,0
0.00108744402153201,0.0358324257961864,0
0.0011721573420047,0.037018857117655,0
0.000904378032998383,0.0340153255174608,0
0.000693210040571307,0.0334196896301005,0
0.000753241857086219,0.0345842330868667,0
0.000740277015393964,0.0313427106827325,0
0.000738779739115609,0.0326169548818092,0
0.00074781341558456,0.03625860204482,0
0.000372889919477509,0.0377603392890516,0
0.000259940373392321,0.0603635514299397,0
0.000304201280679682,0.0721298246809013,0
0.000379419276932224,0.0964610868992934,0
0.00040221525226441,0.103117776501904,0
0.000408998912635746,0.112743363266148,0
0.000440332897610267,0.126471945365972,0
0.000357328868852369,0.17897515532693,0
0.000148666638281091,0.109941612800968,0
8.98834163048085e-05,0.169218467517664,0
4.62160885681705e-05,0.245990405886972,0
1.81568907638768e-06,0.259338119491913,0
8.38233394166799e-07,0.211916164323018,0
8.39519304705654e-07,0.221043287448508,0
6.33963883310295e-07,0.202402509656816,0
6.06357007034958e-07,0.211052433776772,0
6.10561684805647e-07,0.213205811102623,0
6.62749177991095e-07,0.22999483471379,0
5.59303667732995e-07,0.225895416545576,0
2.1799392167659e-07,0.151703684139277,0
1.59094724552419e-07,0.131403627904933,0
2.24941334265543e-07,0.144440268609599,0
2.33228216191523e-07,0.140777088647406,0
2.76066265839708e-07,0.150294423670613,0
4.8624334958826e-07,0.196946258591623,0
5.1454649023983e-07,0.195430457317572,0
5.10663165258171e-07,0.196515423074427,0
5.54803605075418e-07,0.201232084636357,0
5.66634606261303e-07,0.199799229931128,0
6.32337893129902e-07,0.203181081588178,0
5.5252404774251e-07,0.189375842164169,0
2.75978374478606e-07,0.138502733645299,0
2.44134735091949e-07,0.138295384413241,0
2.70360318726326e-07,0.147811194849864,0
3.56088228981303e-07,0.160858742927375,0
3.72364735261125e-07,0.162826442959046,0
4.69716902250302e-07,0.172258867134326,0
7.32116560821331e-07,0.210173186328515,0
7.61724838246997e-07,0.20318920430545,0
7.64496412418123e-07,0.205644398362779,0
8.18531621717652e-07,0.218338937004572,0
8.48944030189995e-07,0.222249209664728,0
8.14178003046685e-07,0.215990743501225,0
8.08833609032383e-07,0.217643655359675,0
6.8230812697845e-07,0.213351814572576,0
6.13033629336652e-07,0.214982300174255,0
5.31157458105438e-07,0.212865013848153,0
2.29111304936253e-07,0.146545061375543,0
1.5808796896161e-07,0.134371774848301,0
1.22156507363911e-07,0.122393948204626,0
1.01234243514003e-07,0.115278705615012,0
7.9172138574799e-08,0.108309314369751,0
9.35008025024642e-08,0.122137022296633,0
7.24005087080505e-08,0.110970605699955,0
5.8615048348789e-08,0.104239648063031,0
4.87640997013743e-08,0.098503294211151,0
5.08704960714293e-08,0.101323621951765,0
6.84737374285736e-08,0.110344961756174,0
6.95959752765125e-08,0.1050283805449,0
8.5299564715286e-08,0.11629579416639,0
4.24349853593807e-07,0.207324711375518,0
5.00173131557513e-07,0.197264050638453,0
4.8280160378873e-07,0.185262957060965,0
5.68207037643525e-07,0.192473745336246,0
5.39892036652032e-07,0.18019459086113,0
5.08456517804358e-07,0.167221971884759,0
5.03405261454641e-07,0.166398275675372,0
5.388253551332e-07,0.169836441203166,0
5.98992984400553e-07,0.184637598031066,0
6.09045558826632e-07,0.185494549839777,0
3.40433204513366e-07,0.149583541799602,0
2.64804186433005e-07,0.13843731879456,0
3.27117163923628e-07,0.152932711810918,0
2.82772975951097e-07,0.149430045081347,0
1.96898122326778e-07,0.137620912977215,0
2.67039423548312e-07,0.161900460155043,0
3.17989446320056e-07,0.161837493298285,0
3.86678542552468e-07,0.180275693023284,0
4.4353613821626e-07,0.192527295794841,0
4.58764939521124e-07,0.190043351359575,0
4.68665202213475e-07,0.18513632032048,0
4.47845811206676e-07,0.191619960394127,0
3.82718312629844e-07,0.179388717996554,0
3.78426742263519e-07,0.1803126785863,0
4.23235231332554e-07,0.188401413220802,0
3.3964168288071e-07,0.166104360257522,0
3.5041586535675e-07,0.17291766731788,0
3.17012528847577e-07,0.16635731434121,0
2.14624711219106e-07,0.136508292969756,0
3.02792230973089e-07,0.16052373419258,0
3.5438146364376e-07,0.171649318444676,0
4.02716593577027e-07,0.164764486381903,0
5.77914039217997e-07,0.191064646021436,0
7.37711520122185e-07,0.199303756441138,0
7.11037490793093e-07,0.191567741140238,0
6.84103407905512e-07,0.190210385637348,0
8.18062201948129e-07,0.210170570694101,0
8.86410844001952e-07,0.212930894247393,0
9.87413873310327e-07,0.21939923542925,0
9.87845339992102e-07,0.214861654297328,0
1.00309948497069e-06,0.217518602677699,0
9.79249589845429e-07,0.219923849075519,0
6.93782781130251e-06,0.328620791813698,0
2.29119834393341e-05,0.606075226596496,0
3.49604781653966e-05,0.710889521383676,0
4.2906203780665e-05,0.731404596555051,0
4.02216761399031e-05,0.484911854075008,0
3.66032296278583e-05,0.426521395749306,0
3.59290720513196e-05,0.423648315486472,0
3.13743857867379e-05,0.404370459880342,0
2.18690099909301e-05,0.331118375784446,0
1.18142562586011e-05,0.231019715865119,0
1.12128835906296e-05,0.281337024186555,0
1.31249202007922e-05,0.279582580016083,0
1.58299722222112e-05,0.297344013754007,0
1.47916092000489e-05,0.307579386939037,0
1.62644994959144e-05,0.375398438105862,0
1.6227415334122e-05,0.368261767879951,0
1.45850984594843e-05,0.301998609548435,0
1.59241511864658e-05,0.278020582292364,0
1.35371606473262e-05,0.21449402381495,0
1.40818954480367e-05,0.221200435850318,0
1.66610724334121e-05,0.244797195637029,0
1.87277459033106e-05,0.284866163298861,0
2.06095667369523e-05,0.300732518866598,0
2.23922164019978e-05,0.30969776083966,0
2.43671972094263e-05,0.367383633150273,0
2.27889349095624e-05,0.407897459204813,0
2.08743870284784e-05,0.474825399878409,0
6.40852006684209e-06,0.303339501763719,0
3.6690382277052e-06,0.353090459829031,0
3.29280427502464e-06,0.33296821564271,0
8.20814562368581e-06,0.298158658062932,0
1.38686065856298e-05,0.294671719069431,0
1.33157643062403e-05,0.288677477363978,0
1.34582662903969e-05,0.285452663500821,0
1.41020603979712e-05,0.259955128107292,0
1.26463417519353e-05,0.213201657729017,0
1.3358571394159e-05,0.219016634373971,0
1.43753007817675e-05,0.232408583768805,0
1.52448384819687e-05,0.23630724524464,0
1.53289159322894e-05,0.236271365853008,0
1.30216484757254e-05,0.261477712171837,0
8.66387993424279e-06,0.250520358512702,0
1.10310689492322e-05,0.258976374008293,0
1.38498221792622e-05,0.293842775248168,0
1.50731121208629e-05,0.364135959542237,0
2.13670540630139e-05,0.565168767934827,0
2.77530820563832e-05,0.663999097632014,0
2.57260261168843e-05,0.447916505275693,0
1.91338194724682e-05,0.375800247268102,0
1.25963445514192e-05,0.302820703039428,0
1.20633459940209e-05,0.31144093946838,0
9.47520446435004e-06,0.283528905648832,0
9.65951364734711e-06,0.243468333194923,0
1.43750479692587e-05,0.276797192091332,0
1.56799127046109e-05,0.213257691371135,0
2.99279018510562e-05,0.205714231786237,0
3.43924514049199e-05,0.157089764569022,0
3.93640580813229e-05,0.1780159704766,0
4.04411188957353e-05,0.183506401664242,0
4.72417977312477e-05,0.202997988003373,0
5.32211319221044e-05,0.217633332568256,0
5.23792132082098e-05,0.21919362227522,0
5.32586485493441e-05,0.233202385859741,0
5.5202814445817e-05,0.244900568251193,0
4.91525515520136e-05,0.294032138107676,0
8.1630919376946e-06,0.176368534342418,0
4.18796592751203e-06,0.324407760086459,0
3.83603093987986e-06,0.369699100551724,0
1.31614716460536e-06,0.231952642426336,0
1.20655699950247e-06,0.273220382762533,0
1.12010386067271e-06,0.273475972772767,0
1.15445202931374e-06,0.308188181878402,0
9.56579111891097e-07,0.280016758357993,0
8.49593227743592e-07,0.276764262890798,0
6.85990450409863e-07,0.26538950719007,0
4.09177607383515e-07,0.204287972040364,0
1.82124258692165e-07,0.13465564474008,0
1.75127906595326e-07,0.135391268488813,0
1.8874008114605e-07,0.132127206580621,0
1.9315574812166e-07,0.128120146317411,0
1.84820925453259e-07,0.126877169127161,0
1.83082074775088e-07,0.128928060402594,0
2.13235802991459e-07,0.13011030722488,0
3.38413700738946e-07,0.15542737378965,0
3.38073496251724e-07,0.156648420586105,0
3.2538917481991e-07,0.158111636161926,0
2.92147263779352e-07,0.14821380002823,0
2.98717267867435e-07,0.154752806029208,0
2.88916257493374e-07,0.153905406040238,0
3.43608654470237e-07,0.161031522255083,0
4.20813225074904e-07,0.171089708171234,0
3.69476680067403e-07,0.163498450225384,0
3.61950108353232e-07,0.167246199427137,0
3.71779833234471e-07,0.164753888298881,0
3.86132092996296e-07,0.16131658029488,0
3.4039575080835e-07,0.154473323763123,0
3.1622350412859e-07,0.153114953460777,0
3.21900487043427e-07,0.148070617576517,0
3.62381450189324e-07,0.156455034369083,0
3.22296123014071e-07,0.156618740967398,0
2.27302415829701e-07,0.136386055631252,0
2.31001967965419e-07,0.129962554148438,0
2.1902065257674e-07,0.129100151219523,0
1.36288039957513e-07,0.113789889552194,0
1.07366288944775e-07,0.109840968112004,0
1.12360116280135e-07,0.111167781297711,0
1.06235062207632e-07,0.114590888412834,0
1.03381214731158e-07,0.119768987647933,0
8.84440529426787e-08,0.112658728748172,0
8.68990876108016e-08,0.109673558934311,0
7.97897501704995e-08,0.108707907133032,0
7.45522240611738e-08,0.110906042419426,0
6.12077186556246e-08,0.103948199099132,0
8.85850037192191e-08,0.11609022005852,0
8.85870012501533e-08,0.116147336259809,0
7.65447611679829e-08,0.108783624373087,0
3.65242289024068e-08,0.0869099097571044,0
3.77227474628933e-08,0.0917894388796963,0
3.83141414650833e-08,0.0892625433197388,0
1.07736331550325e-07,0.118841078047093,0
1.11571466098198e-07,0.115898066465765,0
1.53913129309249e-07,0.12654059474436,0
2.18296547613113e-07,0.136675741104361,0
2.3877423598449e-07,0.138125501555786,0
2.35193661785037e-07,0.13717225403458,0
2.58653663841093e-07,0.140674239872385,0
2.90280571121394e-07,0.13975064021766,0
3.14527600365503e-07,0.141513399144747,0
3.52463709101298e-07,0.150337434334094,0
2.73135763113635e-07,0.136787640516162,0
3.06859079109323e-07,0.148362738508,0
2.61750461017432e-07,0.135700902723092,0
3.37577234660273e-07,0.15796676989143,0
3.25946111413486e-07,0.153947021926095,0
3.39839313597508e-07,0.15111138378049,0
3.65562518201948e-07,0.152688560013356,0
4.92245930045362e-07,0.175575734258304,0
4.87933385604229e-07,0.170530287371575,0
4.80003187795677e-07,0.168504026760615,0
5.05363715689886e-07,0.168343105847612,0
1.01364145447564e-06,0.234269052026676,0
1.26334842695407e-06,0.259437590467645,0
2.09520457876793e-06,0.323832359353281,0
2.69107267571338e-06,0.344611922289996,0
4.85749734725296e-06,0.462948835730156,0
6.82198400107324e-06,0.522435579798556,0
1.33579457924396e-05,0.725004704563934,0
1.80855991345286e-05,0.827646846822866,0
2.98062960380017e-05,1,0
4.61667695294064e-05,0.602119975163532,0
0.000390908438526973,0.120824549795147,0
0.00202435477167637,0.125330831502607,0
0.00806489950831922,0.0714348113162082,0
0.0296702803558939,0.0707705063103565,1
0.0451333524221771,0.0755610061077673,1
0.0493523223680218,0.0466142885199281,1
0.0449189341788765,0.0405888227855099,1
0.0423789955055119,0.0343368950550313,1
0.0356172827795936,0.0228800132280881,1
0.0265369761183061,0.0174411334242354,1
0.0199792694109363,0.0138899286946192,1
0.0158881807300679,0.0112326995711055,1
0.0183000848575453,0.00981511706882692,1
0.0231118832833561,0.0171464455050388,1
0.0241026501826289,0.0176384179531788,1
0.0235343779196078,0.0219254534017848,1
0.0231201826112731,0.0151935485974013,1
0.0395401380105372,0.0242715327357878,1
0.0541582167540734,0.0381850716442709,1
0.0571496603446491,0.0367274457046826,1
0.0429923290847178,0.0253759023759772,1
0.0294219533265994,0.0192255538299595,1
0.0385699678211432,0.0243083806705575,1
0.0462443900053027,0.0202042261461761,1
0.0437879255196768,0.0167992878594321,1
0.0470715718993993,0.0162153238360075,1
0.0624836262836666,0.026665379526825,1
0.0669643481140193,0.0230255501560233,1
0.0641797496617978,0.0229693311912129,1
0.0600225525321148,0.0216726461572571,1
0.0601529421659746,0.021104048627259,1
0.0630965924658719,0.0207407949920596,1
0.047441560002318,0.0198966965181907,1
0.0302718752012411,0.0146236851518642,1
0.0302357094411252,0.0178941042847738,1
0.0276735435600232,0.0196319832849719,1
0.0209497883693562,0.0139059385471418,1
0.0199287252541153,0.017935230511941,1
0.0200462478236742,0.0198128335401736,1
0.0204181745783052,0.0202868484019983,1
0.01975074399643,0.0253864130919618,1
0.0186701538818154,0.0280277490161857,1
0.0177756329225185,0.0258106170981694,1
0.0276833532296938,0.0417448364488481,1
0.0269093401094869,0.0445333695389734,1
0.0336481214975141,0.0237744904322668,1
0.104147150733657,0.0308680257684991,1
0.118455260564272,0.0256111876991948,1
0.15721233084326,0.0289820610418449,1
0.1602512701165,0.0205487571524172,1
0.136333102120526,0.0166081615581026,1
0.145396707812695,0.0157889463436395,1
0.153484117760285,0.0168597746942287,1
0.132164273946623,0.00918118367544104,1
0.113337307328833,0.00768161007600027,1
0.0940038041212199,0.00731274813783508,1
0.0905629399735412,0.00926526379394645,1
0.0880186230404634,0.0097764935936578,1
0.0843440725012998,0.00929242219016898,1
0.104874810799968,0.0108767637915774,1
0.138154744215132,0.00707570142809042,1
0.213940225824733,0.0132669386303512,1
0.260184743780631,0.0159090417124762,1
0.283217109123844,0.0174489005886901,1
0.297469208166715,0.0127169397494501,1
0.309730144707186,0.011625127054476,1
0.321347541941133,0.0116172732192926,1
0.335500468269195,0.0124235400310024,1
0.395473008792722,0.0137669333081796,1
0.467296720881482,0.0174469954060023,1
0.509085566771794,0.0345788994665163,1
0.426729103075724,0.0307940384410277,1
0.285277975863078,0.0209539617039273,1
0.12447171421529,0.0114189616262679,1
0.117431180390668,0.0270009244646931,1
0.0991946330995741,0.0189964620815023,1
0.0754431060699279,0.0113284227024832,1
0.0493289967717074,0.00577519438076952,1
0.0419301466112999,0.00830789742282356,1
0.0429073695886577,0.00895821360597975,1
0.0409273673839719,0.00802125320536846,1
0.0386615498412487,0.00751242442684685,1
0.0371354793102851,0.0049407439197494,1
0.0683611126219662,0.00954180340978221,1
0.0616205988597555,0.00553831391609902,1
0.0576949887649858,0.010341333276197,1
0.0523627413184355,0.0136459259473136,1
0.0428228034098093,0.0114912921890553,1
0.0413165327896151,0.0105989484576212,1
0.0506592946288485,0.0122701418401426,1
0.0602898166778932,0.00785784265839091,1
0.0684747779068561,0.00326549985315689,1
0.084918071046424,0.00709416306101325,1
0.0691501111947714,0.0061442700923643,1
0.0671893890028545,0.00362339408153246,1
0.0864316353227297,0.00528873002019574,1
0.091704339308254,0.00513277540442763,1
0.0919252837683913,0.00502148651797229,1
0.105604720351658,0.00637798663187684,1
0.101024310310803,0.00514748080397364,1
0.100058433647608,0.00502293999052708,1
0.111654698884074,0.0104753326114283,1
0.0898875261591614,0.00809619360290302,1
0.053491920378003,0.00434034297600945,1
0.037825788946552,0.00396126040229287,1
0.0874948162616106,0.00602724471467425,1
0.207400726009572,0.0188376797750901,1
0.201818212215964,0.0152499295716646,1
0.21257538271381,0.0147589771586398,1
0.216044616961,0.00584962577498933,1
0.374159883062738,0.0112209720856006,1
0.387165235751016,0.0105156055582792,1
0.33850168539473,0.00940712517703223,1
0.302552292367709,0.00804049623434077,1
0.2851054957936,0.00701108806783029,1
0.276781928932485,0.00907519828384184,1
0.313312329430312,0.0090946546133303,1
0.344550160536675,0.0101118733311798,1
0.301811043709822,0.00951503109315904,1
0.269550587876337,0.0199143797192634,1
0.153024524007102,0.0184620386744537,1
0.131795587510768,0.0239317288241093,1
0.134146340563449,0.0209382665327857,1
0.132443849286042,0.0202369152450418,1
0.158136803840325,0.0247947302160393,1
0.139202628498955,0.0218000314453248,1
0.14522807067263,0.0280434167050213,1
0.155386849760993,0.0310871898539939,1
0.133232961371039,0.0277390282381062,1
0.107576615807762,0.0194606457481724,1
0.0693357921265811,0.0108121333374737,1
0.035211497159514,0.00336962473452458,1
0.0499724022732466,0.0113664818025687,1
0.0535337658045917,0.0094036115169858,1
0.0462763737185498,0.0081334672322292,1
0.0598835404262632,0.012050915796467,1
0.0618522516592548,0.0139295443012521,1
0.0541862331335537,0.0113195796551179,1
0.0542413909052999,0.0112033476479252,1
0.0331839520512815,0.00745161851497766,1
0.0333653424136128,0.0077137381496262,1
0.0415358564889832,0.0106009444459746,1
0.069941484909636,0.0206288957011402,1
0.108159843552927,0.0286893134731416,1
0.110198705890023,0.0234619116364605,1
0.0896295504513268,0.0215733536103015,1
0.0736451147117434,0.0194850847975044,1
0.0522785508443189,0.0162503722677516,1
0.0456697746518398,0.0161564988201191,1
0.0228514766612746,0.00989610078844554,1
0.0207916951748537,0.0119257578188501,1
0.0263060447960184,0.00720760850667943,1
0.0490887417821465,0.0222656308894744,1
0.0440371739564324,0.0101966949475053,1
0.150631651117019,0.0196082446469253,1
0.159706219457085,0.0156016640849237,1
0.166422151330832,0.0163459947516882,1
0.156539416976423,0.0122164637382146,1
0.148873520861415,0.00997911972644978,1
0.13971627139097,0.00882275674000702,1
0.101849035438982,0.00519851716150933,1
0.116245471489813,0.00711840031007285,1
0.148234585523116,0.0098773956374469,1
0.151622440194254,0.0123720919533339,1
0.205643639694846,0.0219559555852517,1
0.247326552714922,0.0303035481005251,1
0.280488980722065,0.0286109773313769,1
0.279025063670366,0.0286627187617547,1
0.173225015528234,0.0217232127061602,1
0.149806158832965,0.020873059849267,1
0.183883820050093,0.0186727673039009,1
0.338569698634736,0.0303331092674129,1
0.387526207970098,0.0304658724788105,1
0.391457038678257,0.0281064053302216,1
0.366402502850836,0.0280076177998697,1
0.330648570650348,0.0222673648088256,1
0.301811793173441,0.0235597141677538,1
0.179618262483541,0.0123715694753531,1
0.161496570877308,0.00542056430370573,1
0.200795324300159,0.00792209874567448,1
0.211102567865187,0.00719040588857729,1
0.18495669887931,0.00586383775020322,1
0.199504312753949,0.00630990986364529,1
0.262580236360623,0.0101771342247796,1
0.270409307596573,0.00962114152543576,1
0.269440156869563,0.0104732788163635,1
0.281849464609495,0.010673509001022,1
0.198316932415464,0.00901243757044809,1
0.137873610602207,0.0118662784221456,1
0.137017451802897,0.0105880616373131,1
0.124263448192483,0.0233809205848694,1
0.0507971667491644,0.0108706667870052,1
0.042271708474225,0.0131141393237736,1
0.0337018841610712,0.0109184750251346,1
0.0377911730542082,0.00842085923597619,1
0.0262678754242345,0.00415956433522796,1
0.0282583147660043,0.00719507313945342,1
0.0329766602225629,0.0094398618903392,1
0.0337118048940861,0.00944507219537936,1
0.0369900010240132,0.0091054391684047,1
0.0436430010392433,0.0114386808296947,1
0.0359056030843447,0.00911403143431554,1
0.0455319482292888,0.00583759221597878,1
0.0801211728320745,0.0138278546088041,1
0.0813846302691606,0.0125101423156657,1
0.0657327286258535,0.0105851594363339,1
0.0695355836235265,0.0106599488317657,1
0.0750042694509541,0.0115307676768388,1
0.0695351360998172,0.0107908127045823,1
0.0623453118609375,0.00886234660802521,1
0.0799108695262189,0.0126249059979497,1
0.0710861296563286,0.00737276955661536,1
0.0723439549942709,0.010995551570151,1
0.0600599514399875,0.0071562787662503,1
0.146322700136032,0.0163440870596774,1
0.16457422282328,0.0149129941111804,1
0.186616608336855,0.01463051395746,1
0.205862281691339,0.0122724915153135,1
0.293043090299399,0.0166613026726306,1
0.273843827943813,0.0147199194129276,1
0.174420836117446,0.00857961068847837,1
0.1230859338674,0.00649208659287721,1
0.123115795910156,0.00428003398637914,1
0.108306392166337,0.00325102795359467,1
0.114747724152714,0.00540777023041512,1
0.120449729915713,0.00515775199337666,1
0.149339843755984,0.00821317246109147,1
0.15910720109318,0.0116605201315042,1
0.117136331748077,0.00918966635165154,1
0.135273407519326,0.0129052196597202,1
0.14770498055604,0.0137905277474715,1
0.1761025922009,0.015695008716692,1
0.196518681325698,0.0256567697701338,1
0.246328069000462,0.0318570255185101,1
0.263240208463367,0.0343270477949364,1
0.295798548867358,0.0282300159405888,1
0.285476549822097,0.0249977092974105,1
0.265840856149692,0.0271484811046777,1
0.192279900162684,0.0199570070130121,1
0.165733887100573,0.0162793418945582,1
0.122031986445473,0.0105575742448238,1
0.0921843577796582,0.00704292995334456,1
0.0546222892691186,0.0029940640765024,1
0.0534764469726681,0.00573172280957145,1
0.0460676037704987,0.00201196289805051,1
0.0426928319153546,0.00304216472792169,1
0.0545314382227366,0.00493487556815177,1
0.0640279136019833,0.0039919156889125,1
0.0643023630313281,0.00462738451613687,1
0.062448950936937,0.00406444779498739,1
0.0630750238008868,0.00463538371327487,1
0.0683663289268063,0.00355529213409317,1
0.113664236239449,0.00581199309407296,1
0.153225008253893,0.00847143944741925,1
0.147384172957122,0.0107727079583773,1
0.119565331743555,0.0122705958043955,1
0.131476027695017,0.0159143794988504,1
0.13141279211242,0.0157746235668444,1
0.167640562577787,0.0111418805085562,1
0.191662141410877,0.00881795442270514,1
0.140899287324242,0.00471539898763299,1
0.181599312395699,0.00529234747208969,1
0.201768878404834,0.00193570998373844,1
0.21852713485021,0.00267552027141106,1
0.216243751754045,0.00291460800301923,1
0.210136658771203,0.00284880826960482,1
0.233873208091056,0.00349159137296214,1
0.24425380902593,0.00216592816775495,1
0.28337611414927,0.00374493526984791,1
0.284016196634627,0.0044388745394307,1
0.282682366815699,0.00448744255984581,1
0.205762839906365,0.00315161506717959,1
0.204794997438146,0.00897866793857367,1
0.212008283571118,0.00934912314644928,1
0.208383023886555,0.00858841908463356,1
0.217417636158424,0.00717554192101129,1
0.136160233666988,0.00174846332096726,1
0.167367972350484,0.00393844397099124,1
0.162844347740743,0.00367419658995357,1
0.12726065488103,0.00254595870293085,1
0.119664486148247,0.00319286456553899,1
0.0976095081653304,0.00152425716464227,1
0.125937170907528,0.00284046079204779,1
0.182508618310045,0.00168754384721452,1
0.267384671146951,0.003288642880024,1
0.300836409856529,0.00296787166872731,1
0.335266542940675,0.00517448613134162,1
0.388844328571794,0.00740725038413844,1
0.493711575603151,0.0116150188404871,1
0.542123297298864,0.0108345342827516,1
0.520772920809013,0.00944006524945057,1
0.554373477133382,0.010207714367156,1
0.577177394933085,0.0113394422675583,1
0.443303348018027,0.023295370007738,1
0.150273888752368,0.0102865244624219,1
0.106804795050666,0.0147072122806145,1
0.101685710898107,0.0135577279622654,1
0.086786912829811,0.00969586118509959,1
0.0899854813158198,0.0100159937605744,1
0.0858866044729533,0.0108616022950761,1
0.0784823578977073,0.00866084787382323,1
0.0785599126560843,0.00962277312920173,1
0.0723884371866618,0.00899349476972773,1
0.0817322363345955,0.0103137588686216,1
0.0862098835865581,0.0124565566239336,1
0.0877987874912719,0.0129818628893499,1
0.0587282268749663,0.00558254577128547,1
0.0821344865366599,0.0098548238592059,1
0.106462155698081,0.0123177282583433,1
0.103177916756924,0.0135362287116311,1
0.13699738669218,0.0107813156674701,1
0.199121281250441,0.0153703492948237,1
0.213103197197528,0.0157357218995806,1
0.257309692135632,0.0160224321434938,1
0.316637210472563,0.0135199072094327,1
0.332887691290389,0.011761124009259,1
0.356811568590328,0.0146889815654111,1
0.31123164009797,0.012816824265134,1
0.244916892612573,0.0101035097905227,1
0.213972846881186,0.00791278719971547,1
0.22842996229987,0.0129622608604539,1
0.292563817029382,0.0144636194791124,1
0.39085728854274,0.0133468705530287,1
0.398470534140887,0.0126757144251658,1
0.384385500675624,0.011574098247063,1
0.40614268142221,0.0128425936590334,1
0.339534432486888,0.00820955368854777,1
0.272911165966435,0.00687758154374796,1
0.253790700135579,0.00640599434269437,1
0.234217834381543,0.00603439221836042,1
0.238445702965147,0.00552849977909082,1
0.264247464988492,0.00667360617162268,1
0.219619005067204,0.00652394860746531,1
0.169283554847596,0.00624445248636755,1
0.10104555044225,0.000653427668639498,1
0.205351056410014,0.00783908767201116,1
0.222297731277875,0.00437919358313602,1
0.273574479870392,0.00533280818143437,1
0.285407986669191,0.00457586961690143,1
0.294162887386387,0.00442399300633056,1
0.291249667955144,0.00453439402609004,1
0.263914947377339,0.00296765693861948,1
0.295061256851704,0.00106540271156562,1
0.423036427519149,0.00450976040664954,1
0.52729707067911,0.00773527331710718,1
0.510871423763395,0.0074929059346057,1
0.514362278181281,0.0128631878316697,1
0.415911507660259,0.00895851777424707,1
0.420963286758203,0.00986102021987169,1
0.371232783112009,0.00913872370931062,1
0.341563887639943,0.00823187086508051,1
0.246443121913912,0.00654821800253967,1
0.178475278759601,0.0138771867944988,1
0.192125978569961,0.0146414095077516,1
0.239201040473385,0.0175947851303046,1
0.277951870485336,0.0178431731714202,1
0.27843080852322,0.0168162948583152,1
0.225410405377528,0.0209929143634951,1
0.164310634250402,0.0199932417228453,1
0.17167770147851,0.0151191705292506,1
0.187703964461657,0.0124921488307879,1
0.167265841424197,0.015426264391734,1
0.165425822117033,0.0142997828762673,1
0.158052988631858,0.0141696742796334,1
0.105655686921102,0.00659014626381925,1
0.0786999094418136,0.00567803203236717,1
0.0808242476001368,0.00597518364018309,1
0.0902071933067439,0.00740259344084275,1
0.0948282265556712,0.00761530999764848,1
0.0867938629441854,0.00646997916911166,1
0.130510303661288,0.00893065354507224,1
0.124772303354415,0.00632242036348471,1
0.154252815803116,0.00778876660466482,1
0.174724116352218,0.00787634527604437,1
0.163354138150778,0.00764057965152222,1
0.118450376186775,0.00320229386082571,1
0.120757818837789,0.00113027515060333,1
0.145211964792945,0.00186026049573562,1
0.144706566472404,0.00132037286573685,1
0.169653819456862,0.00298557999696905,1
0.166441813407348,0.00443376385742874,1
0.169232692127538,0.00395405215126259,1
0.138163891738255,0.00201092094199441,1
0.125196557187695,0.00151702921016121,1
0.123986784228309,0.00170856219956543,1
0.169448833698205,0.00521955955077403,1
0.302375016140189,0.0171957995696881,1
0.303396351982324,0.0134029780553426,1
0.33783076447387,0.0154768924415745,1
0.30246212731315,0.0136175146510937,1
0.258164914154484,0.0114343194860859,1
0.263979267655563,0.0102612382405224,1
0.264749992594156,0.00987051724307686,1
0.216151246266899,0.00672069005394084,1
0.201359628958248,0.00494738896719239,1
0.209903767087413,0.00568346253885228,1
0.127118343491288,0.00132265455617569,1
0.123513573544578,0.00253003123779199,1
0.0929006546868779,0.00100457860342474,1
0.0834418124839343,0.000662087263066547,1
0.0843829202002564,0.00095739619926233,1
0.0853950927533806,0.00114590488280555,1
0.120984053166337,0.00588959438566049,1
0.14774056705216,0.00982083897264541,1
0.148758154710396,0.0150502267025431,1
0.139142249755637,0.0163286410479785,1
0.138418689493726,0.017677696696824,1
0.139485010572584,0.014172228384076,1
0.16264207218936,0.0161087895259911,1
0.160851851656353,0.0151001692422677,1
0.132529109036844,0.0122605179227935,1
0.12805338604301,0.0205805143832898,1
0.115904148017723,0.0179063925299748,1
0.129347580971872,0.0169431053323147,1
0.195703015493696,0.021521851482855,1
0.253444194246637,0.0243596469934775,1
0.280020215168017,0.0247400658856154,1
0.300616576080146,0.0315526344947409,1
0.338352133511165,0.0391490886117409,1
0.334964813523626,0.0201310820368518,1
0.244839896185316,0.0176679118747036,1
0.138494228327155,0.0110301468363267,1
0.10558448630226,0.00794012514729709,1
0.104343497071897,0.00783582178127974,1
0.102078671439739,0.00797104979808735,1
0.119560428015352,0.00908671558044582,1
0.121831952087718,0.00757766606571425,1
0.118208666924656,0.00759900423322478,1
0.106692153257555,0.00301836269968343,1
0.166246598099963,0.00931110420255503,1
0.150415781278726,0.00671937417554205,1
0.171225338031867,0.00489566496662457,1
0.164152638464372,0.00201590581565591,1
0.171383248096229,0.00253660078001357,1
0.200111578603975,0.0024944353026874,1
0.218437823968718,0.00113088485536995,1
0.238405801725304,0.00213125699806989,1
0.235268800505654,0.00194201809173293,1
0.235190311917046,0.00376070009343065,1
0.189624223721266,0.00227232983506847,1
0.193651528376446,0.00301255280458385,1
0.177363465654192,0.00590269658757546,1
0.136017514017879,0.00716003218249208,1
0.132807253484554,0.00736335698745205,1
0.0634254540734355,0.00563572942004512,1
0.0135475405705049,0.00844008745150865,1
0.0223741204846173,0.00513635582203159,1
0.0938736843475471,0.0193941249273554,1
0.107971059546076,0.0132198736531687,1
0.234940757781777,0.0137033904441052,1
0.267138672827858,0.0103642221890136,1
0.257441880051584,0.0101312350786944,1
0.247354536839896,0.0081150983674839,1
0.24136945365014,0.0063801210909709,1
0.22277495234953,0.0065329273867939,1
0.150557770904188,0.00321212809815019,1
0.124955717200726,0.00219494275516463,1
0.130421684286927,0.0027126639427047,1
0.116416464143699,0.00276734596077863,1
0.0699090660818411,0.00336113541696965,1
0.115137228655089,0.0121210195461012,1
0.163675932412247,0.014573330643688,1
0.151433066490428,0.0169011918718296,1
0.114798446449843,0.0200970676495106,1
0.130630994995691,0.0190006735833816,1
0.138691896294034,0.014151756172621,1
0.135936919416552,0.0145249479451772,1
0.1097457139174,0.0128026766058603,1
0.108140651701186,0.0121958326142031,1
0.0983848821389424,0.0106945582692045,1
0.0760637376078022,0.0139614814762275,1
0.0574191514967166,0.0106791280893845,1
0.110067340021597,0.0122374894332287,1
0.122376024721905,0.00676082266558445,1
0.119400474696947,0.00526749731530431,1
0.112491300372872,0.0073320226250328,1
0.106291156296411,0.00638219307964742,1
0.106467067173334,0.00576237165203607,1
0.180394754121029,0.010619028801305,1
0.242337167064378,0.0139461166097191,1
0.248726598133221,0.010867757833954,1
0.24524656191353,0.0114017540606686,1
0.246972421019051,0.0134538875264262,1
0.200165572968761,0.0114206095115166,1
0.187367151438012,0.00836364275755163,1
0.161033818195995,0.00441427607439327,1
0.190758729337396,0.00570126834301194,1
0.190455289042593,0.00493381585989683,1
0.173924985814618,0.00322329829640361,1
0.161253447989638,0.00211568328792299,1
0.138723497527923,0.00161894088954858,1
0.156795327886469,0.00275990206311833,1
0.138680174917845,0.00242337158952353,1
0.142441202078188,0.00473832590613382,1
0.137196487387996,0.00878889355336947,1
0.121295785366357,0.00649656139798222,1
0.130568847030111,0.00469527541421787,1
0.126454221568091,0.00417922931159731,1
0.0915686621916592,0.00244551626108194,1
0.097617190486529,0.00384205077270497,1
0.105281614348703,0.000866028457907788,1
0.216800474839655,0.00606563776647265,1
0.250549913385331,0.00651803685285148,1
0.428473480401634,0.0112291435159809,1
0.473041792274826,0.00817085159048367,1
0.449932332043435,0.00801371052450353,1
0.503385515970223,0.00975949969858064,1
0.421255898579387,0.00761907472725801,1
0.375965676794354,0.00650049250523414,1
0.281791323248016,0.00395468660012146,1
0.202187065174488,0.00339209339860059,1
0.201546776772655,0.0034156797961081,1
0.174642585537731,0.00250208156137956,1
0.157242759273928,0.00262743734581401,1
0.150123689799119,0.00546045322543756,1
0.193613057791979,0.00697448492506444,1
0.191004324526281,0.00835835435226697,1
0.180488104020058,0.00868929852193825,1
0.222644690234799,0.0123771564730357,1
0.18818943481871,0.00968167925126837,1
0.15348728233868,0.00696819340514022,1
0.170674779405248,0.00797277786381156,1
0.136020972360164,0.00627983217647336,1
0.126202834978717,0.00541888978577447,1
0.116461851841832,0.00760236699123055,1
0.129228524867227,0.016563320555452,1
0.161155398399704,0.0270130181211457,1
0.146729604896788,0.0190046237887583,1
0.15545256347797,0.0202028097317722,1
0.190030968332851,0.0285515294771173,1
0.161292060478328,0.0141599247905457,1
0.263256269493488,0.0135644166508367,1
0.245273830057498,0.00855546959161656,1
0.254562226811553,0.00902483717950058,1
0.255136726566652,0.00787578415291955,1
0.256208577626004,0.00695876323838843,1
0.250088441387893,0.00631537553572897,1
0.259788635159087,0.00503931413711742,1
0.279263048776137,0.00583049612323374,1
0.228447462383112,0.00399668829794297,1
0.226957101712284,0.00688964321143604,1
0.170267694916522,0.00801197021673743,1
0.176443619916188,0.00343011017369317,1
0.295969414944451,0.00778310259969552,1
0.407234969396831,0.0108711266041098,1
0.424439117799367,0.0115434544933391,1
0.477322693875998,0.0119584602634625,1
0.501855266892564,0.0161465354915526,1
0.45322115865209,0.0144743883023645,1
0.441308030006706,0.0110118200777593,1
0.357155416534023,0.00847464312981443,1
0.165217082941944,0.0014641539470248,1
0.131649210502244,0.00408745563661579,1
0.193675097093249,0.00641052473634069,1
0.304853349727942,0.0140615608384796,1
0.362134006626138,0.0143709458789732,1
0.378140570652855,0.0160009350149149,1
0.391490638385041,0.0194426738071863,1
0.23413330464028,0.0136194702496291,1
0.170237468097275,0.019538637799405,1
0.117048111906496,0.0165080315169933,1
0.0933435588282795,0.013766046980854,1
0.0539433212819058,0.00747322018741641,1
0.0524922689480333,0.0184918745206159,1
0.0464567180303611,0.0157897315866202,1
0.0423389055312058,0.025964313920333,1
0.0490392038010081,0.0260435449066885,1
0.0538786065491261,0.0240842261490501,1
0.0640982338661211,0.0311425436846212,1
0.17334521421458,0.00942797792542465,1
0.516287938451298,0.0321716815299167,1
0.570785437613712,0.0290609054305545,1
0.92711564762721,0.026869363920208,1
1,0.0143373803438343,1
0.869963809391687,0.01295870060574,1
0.783333486624588,0.0121132134610127,1
0.662283991446556,0.00972311103213795,1
0.517843482856817,0.0063314879238903,1
0.404393162228826,0.00391095039163053,1
0.374059557928886,0.00582779081269004,1
0.397822297807291,0.00649498066607342,1
0.42470956096931,0.00707275876076337,1
0.253581153004547,0.0074210432463459,1
0.185642915668327,0.0132153560022144,1
0.193929596213226,0.0108924852093378,1
0.12458172058906,0.00560951656132266,1
0.0837588013645126,0.00203784318211713,1
0.0868637700337813,0.00251300574482934,1
0.0874322550188654,0.0023130014844982,1
0.0901637079072582,0.00293228277719318,1
0.116473269884459,0.00204552128677671,1
0.178618453167602,0.00592012906412172,1
0.16300030437416,0.00495083070925965,1
0.223645051170278,0.00805415541202835,1
0.339680328543896,0.0188385000503454,1
0.390602138021808,0.0179884755962615,1
0.341409814979698,0.017670767414996,1
0.306986461231894,0.0152843291095944,1
0.252735452093796,0.0114534954585932,1
0.175613471892402,0.00665020900720768,1
0.166553634707761,0.013530921844412,1
0.214508216420536,0.019953423330475,1
0.228170582790592,0.0237041504850258,1
0.269278463866636,0.0441850206679433,1
0.220983779584538,0.0235245930203695,1
0.156641599243124,0.0171213517354579,1
0.168363950610708,0.0126200773758978,1
0.114735162577436,0.00820310641836824,1
0.115080903147358,0.00985086514958528,1
0.104515615182902,0.00710524580273958,1
0.158938817554149,0.00757538569783441,1
0.195236457372506,0.00874332126881236,1
0.216685653915952,0.010085259996592,1
0.21707004978003,0.0092351567869412,1
0.202172546519275,0.0113048906358497,1
0.125331026899838,0.00698249599537926,1
0.116461969777057,0.00980462801163063,1
0.167632878083274,0.0123373471353099,1
0.224483425345431,0.0108626616962217,1
0.192275258739881,0.00886670167106701,1
0.258482010353909,0.0140419381000026,1
0.268032044180761,0.0123348138397382,1
0.280307554064721,0.0096612621004719,1
0.359068908400403,0.0125882255208647,1
0.339179733072375,0.0100207593504764,1
0.290283947516346,0.00805882027384984,1
0.285341705178891,0.00682121902752165,1
0.332875232416291,0.0106948851349654,1
0.384329835487075,0.0146964394404734,1
0.416366297556667,0.0145404865455075,1
0.267446698011469,0.0110661819180218,1
0.211903537389566,0.00819355895528692,1
0.248809823642216,0.0111658033352147,1
0.345508175298144,0.0149758365008104,1
0.398071452372577,0.0175831008598958,1
0.498143916971229,0.0173577988211793,1
0.503548598089121,0.0154961954971178,1
0.474366202653737,0.0133391750388508,1
0.366949653584935,0.00970589403172477,1
0.292093018464755,0.00721918924794513,1
0.256486588542141,0.00540637686346683,1
0.27139863674549,0.0050886798152268,1
0.347748506642559,0.0098979717526477,1
0.32273553878031,0.00922244354635697,1
0.301502143381691,0.00778797820802515,1
0.172413956346016,0.00288515902205448,1
0.208224999758683,0.00685724624058686,1
0.305918427923951,0.0138020920844182,1
0.231842213940293,0.00862616520742102,1
0.199420024753381,0.00691413499962512,1
0.201041287773697,0.00834706687182055,1
0.179548089492365,0.00932246259986096,1
0.226407787621221,0.0124598966278924,1
0.240871471605271,0.0131758382690712,1
0.200634580810577,0.0134489333066564,1
0.111581596770466,0.0108813727017969,1
0.0996717012152918,0.00902386903068466,1
0.0994702455677095,0.00996982950868111,1
0.0716967605505872,0.0151932455173347,1
0.0250342792207803,0.00586642875279336,1
0.0255762713819298,0.00522805499517918,1
0.0243023216619231,0.00624428817389371,1
0.0296477373623613,0.00662515967090008,1
0.0432933133568096,0.0111043837353477,1
0.0457545997868532,0.0181451953042139,1
0.0404426661921858,0.016781427686817,1
0.0401249628176392,0.0155780854611074,1
0.0353894293698249,0.0134948975590218,1
0.0272901431186696,0.00754634131711791,1
0.0504334929230528,0.0214047573566899,1
0.101062501120214,0.039766939999809,1
0.226456468052965,0.0532545592850042,1
0.282402247455847,0.0650942805730255,1
0.326023220551051,0.0491149309883913,1
0.28428208261078,0.0348099632062039,1
0.270285106315794,0.0301362698715103,1
0.258077368932533,0.0299317410118889,1
0.370054870130439,0.0319092565039738,1
0.373965960767114,0.0158314756924121,1
0.308031645922072,0.0116107473411916,1
0.28011196063709,0.00896897001878464,1
0.305972375434277,0.00638313211682187,1
0.362277492019742,0.00828763629463985,1
0.440680349063811,0.0109446976979912,1
0.450646108076354,0.0106676516978393,1
0.479937542428591,0.0123852863042842,1
0.526638313618127,0.0139678469018118,1
0.381420069858729,0.0126216392723942,1
0.221816340556153,0.0100802182964525,1
0.218294433517634,0.0112597118654499,1
0.0832006071419401,0.00445115743325997,1
0.0421954309402485,0.00850374599557861,1
0.0438805473679934,0.00854373903200184,1
0.0589043659377131,0.0130793130217148,1
0.0434888920849852,0.0134965481468825,1
0.022580914154964,0.00487324216500657,1
0.0387092466243412,0.00966193859090559,1
0.0589158512576814,0.0146761919662401,1
0.0644180091795044,0.0148386435901569,1
0.0686682331893606,0.0159206485885517,1
0.0655804765388981,0.0133319939824585,1
0.0594581270463755,0.0116533342590893,1
0.0529033363056992,0.0116009269628941,1
0.0542548413463877,0.0120060443575211,1
0.035692504862295,0.0167371519424003,1
0.00410730856613507,0.00437894585108544,1
0.00366881628454002,0.00503007396671981,1
0.00399324935004235,0.00724087863068319,1
0.00304816160614376,0.00612490755049147,1
0.00318407663216846,0.00785680986570824,1
0.00397269388281022,0.0132607299956241,1
0.00489425379249729,0.0208119610670813,1
0.00475156441060035,0.0149589881357289,1
0.0171509447817193,0.0173949541526114,1
0.0216241260652568,0.0166267987747532,1
0.0291437889647549,0.0215520758870593,1
0.0273898854777406,0.0198974707126589,1
0.0224535633375732,0.0145528055804547,1
0.02192835804961,0.0136358435565483,1
0.0261697828318297,0.0163171750596564,1
0.028552050453773,0.0163396047755261,1
0.0303025497891442,0.0164245282647305,1
0.0336590938174556,0.0186724435012838,1
0.0290097349019701,0.0327438064649004,1
0.0275352247252476,0.038613856380124,1
0.0168168273057186,0.0337299078626007,1
0.0114815611258753,0.0319924844870826,1
0.00643350036809382,0.0306748760322825,1
0.00599459627052756,0.0284187788325339,1
0.00598228048106854,0.0260960829763644,1
0.00490823861143761,0.0383443275055209,1
0.00232424258867615,0.0263317322717337,1
0.00210622407439746,0.0217171328546189,1
0.00156877371269142,0.0183878998976757,1
0.00151879711133849,0.019930934235068,1
0.00153002681326566,0.0178039752587218,1
0.00315238848171333,0.0116024293519033,0
0.00614341960499794,0.0144756589279118,0
0.00603388247534011,0.0154335566811665,0
0.00625777276575774,0.0157930277540005,0
0.00641313339886706,0.0162624204065428,0
0.0066454586183407,0.0173659628358193,0
0.0065265220913914,0.0171307216351676,0
0.00679253169423373,0.0170733677062659,0
0.00749222322842228,0.0189692687607219,0
0.00811902249349759,0.021236329047781,0
0.00710397092800221,0.0447231296734362,0
0.00238646902626019,0.0399531929514712,0
0.0016448341874659,0.0368832348813171,0
0.00150317920099531,0.0491287807875526,0
0.0015577153136488,0.0485510798813426,0
0.00155248295602591,0.0706707080395275,0
0.000368023490670066,0.0645126382910581,0
1.72864912539232e-05,0.434761703210179,0
6.87359033760254e-06,0.512143595310006,0
2.93182609031655e-06,0.350270913906104,0
1.71105141469895e-06,0.277338725365477,0
1.66507387065071e-06,0.295953172684735,0
1.69296639384963e-06,0.303715999413494,0
1.5219078323042e-06,0.302473089936502,0
5.5603108783445e-07,0.179154137611699,0
3.73844905683326e-07,0.164424452556236,0
3.3237853555848e-07,0.158503689334089,0
2.67466895168219e-07,0.153665785158168,0
1.25687480373356e-06,0.223985082617064,0
3.86807220998331e-06,0.381612500000241,0
4.54137659112179e-06,0.371608083268914,0
4.51840947982374e-06,0.359702201985986,0
4.75711130531187e-06,0.313558610167195,0
7.7978289242871e-06,0.351284567451689,0
7.6516055400002e-06,0.282101374670667,0
7.41862152196538e-06,0.277674031893441,0
7.48448810698784e-06,0.278762374316514,0
7.09165866730641e-06,0.271170291051129,0
7.60939184361462e-06,0.327752437460517,0
6.85957815748224e-06,0.306501637597437,0
6.46917808995378e-06,0.307992947169201,0
6.42294586071143e-06,0.308159997338317,0
6.4891084548492e-06,0.370137443610766,0
1.35797895804547e-06,0.18902475273492,0
1.0264087982869e-06,0.217447140802037,0
1.05136682369788e-06,0.211834707529574,0
1.51492084363362e-06,0.253774280158048,0
1.63277317121718e-06,0.254246448555917,0
1.59966709228014e-06,0.259156670574621,0
1.73394673972906e-06,0.278204409961555,0
1.82219703217112e-06,0.282132692121388,0
1.83444089803196e-06,0.277284650761775,0
1.90911459694307e-06,0.28892774559646,0
2.07516335090566e-06,0.328218185226635,0
1.44301784497385e-06,0.286166642037804,0
1.51049793560837e-06,0.309389439355734,0
1.26280846937343e-06,0.300369414371334,0
1.10693875851419e-06,0.294092282131678,0
1.09557917462876e-06,0.295448650236057,0
9.6223899094731e-07,0.273166105237696,0
7.657160298991e-07,0.233894680344449,0
7.4995501144597e-07,0.242011642592728,0
6.54835085275698e-07,0.222367854872259,0
4.54490722704789e-07,0.178941520611571,0
3.2663064029548e-07,0.159165702084576,0
2.53924509354506e-07,0.145360399234106,0
2.60142823152496e-07,0.13794827576714,0
3.68626855500608e-07,0.154100242861484,0
4.22971682094931e-07,0.160737837958241,0
3.72441140819356e-07,0.154768429947456,0
3.67087633070167e-07,0.151837024982081,0
6.51723806000086e-07,0.194032516484863,0
1.36714350512564e-06,0.26484656438156,0
1.28986265380843e-06,0.247516004570541,0
1.3033783226459e-06,0.244616990558582,0
1.57458809140197e-06,0.263560487959862,0
1.37579780789782e-06,0.233503901610103,0
1.551171036261e-06,0.256548970386526,0
1.57900662982829e-06,0.249988147740033,0
1.73446759592014e-06,0.259240124620643,0
1.56528171962547e-06,0.242359924111695,0
1.62282846346155e-06,0.259218754183469,0
1.35444520097729e-06,0.232191459074041,0
3.05442854646151e-06,0.31358574181852,0
6.54644957784474e-06,0.444240166234261,0
7.0333713388765e-06,0.438455698191591,0
7.40496652534525e-06,0.463627943485724,0
7.53709208537306e-06,0.466109111363985,0
9.93340672437616e-06,0.538672159039519,0
1.16963709717571e-05,0.547938405123235,0
1.16009599054532e-05,0.547287467433456,0
1.20463170428073e-05,0.54921612595074,0
3.04766324627091e-05,0.243528339365997,0
0.000293043095478622,0.287773836893629,0
0.000717098118874913,0.408456445788554,0
0.00116317437947534,0.447934904725608,0
0.00160800116487568,0.419162504999589,0
0.00208820652315174,0.415512504882954,0
0.0025550605372254,0.339135299414727,0
0.00228196353020695,0.223198744813618,0
0.00175344954149269,0.164920908338191,0
0.00118917344809561,0.113685796678268,0
0.000635066140355683,0.0780996445700582,0
0.000479127610061314,0.0675280098860745,0
0.000468614634218495,0.0689746989272107,0
0.000731094097146639,0.0676968999802127,0
0.00198957867011064,0.0860673381814289,0
0.00218594814275455,0.0342977741152355,0
0.00237947902031913,0.0250028870928708,0
0.00274295585754558,0.0238130275276937,0
0.00279890362368723,0.0130294081779587,0
0.0046208640064959,0.0148963309032773,0
0.00420925768714339,0.00983054128466323,0
0.00377931287924256,0.00778955835273157,0
0.00380257675959159,0.00588353278104927,0
0.00441414267922885,0.0070382879888089,0
0.0041848641598545,0.00612330995751926,0
0.00521308652309333,0.00964383659918338,0
0.00681680845585188,0.0151848687251963,0
0.00768642764682572,0.0178412137538767,0
0.00838276467363291,0.0325285918308351,0
0.00470638347627059,0.0275197911849237,0
0.0045794236261212,0.0377765651383468,0
0.00345399982221158,0.0425782807415876,0
0.00252413853951037,0.0587626334213635,0
0.00201974878594595,0.10181382903737,0
0.000340397223987415,0.0754069898058412,0
0.000108473414971814,0.179394017753273,0
8.01551329109173e-05,0.237383791686896,0
1.21822490228758e-05,0.153083110490713,0
6.53685031809503e-05,0.41703668064646,0
8.79056967576235e-05,0.252441422658961,0
9.00843519365358e-05,0.229533739135163,0
9.43557457422778e-05,0.219371054809662,0
0.000161927771115048,0.107060611357504,0
0.000371857195984556,0.138568811857735,0
0.000366152926797159,0.114067665403152,0
0.000334212867591076,0.102666170028093,0
0.000401546898763691,0.0882812600068213,0
0.000456215355332309,0.0760044413060118,0
0.000466492719529995,0.0736182171778157,0
0.000509540193317613,0.082233231636285,0
0.000515706334104517,0.0866193889429524,0
0.000522221822577111,0.0879957269664612,0
0.000575863218652975,0.15112845361737,0
0.000482471495821615,0.152014502689813,0
0.000487500897684764,0.173396232522686,0
0.000507516399221284,0.197694136121718,0
0.000327394735204181,0.321380945189702,0
5.24707614242241e-05,0.303128402684495,0
1.35876813257928e-05,0.355625331420539,0
1.48652806378138e-05,0.456484824224493,0
2.12640858378033e-05,0.527983245433626,0
2.14524019430086e-05,0.399603743299862,0
2.0485594973352e-05,0.393514807589399,0
1.77193378550368e-05,0.364802738644485,0
1.68817465422196e-05,0.35482690141972,0
1.48209498083294e-05,0.332064159804813,0
1.35681233755709e-05,0.364862095516231,0
1.33274408733159e-05,0.374938660565047,0
1.59403381783906e-05,0.378912734505158,0
1.62581483463093e-05,0.317368072849627,0
1.28651454227143e-05,0.293456684582334,0
1.21268420092072e-05,0.370654860190653,0
1.11888043539839e-05,0.354760950727014,0
1.08779935344584e-05,0.341259245917426,0
1.04910068727594e-05,0.294101544949607,0
1.2525327332883e-05,0.327376504959995,0
1.26238511766107e-05,0.280334827812639,0
1.55349593754611e-05,0.25261928538395,0
1.265584600412e-05,0.224621944820234,0
1.03412839391215e-05,0.231746086334448,0
1.1347441394261e-05,0.219369958519434,0
1.31186885285061e-05,0.212880058817747,0
1.41420391069328e-05,0.206240305362214,0
1.74740185841009e-05,0.233561834086947,0
2.02166893565284e-05,0.263711900135318,0
2.14444723694285e-05,0.270208290537308,0
2.07441723564805e-05,0.32160724102342,0
1.023786976513e-05,0.273519034973362,0
1.01251840513076e-05,0.316109238259218,0
1.01666973634094e-05,0.315770696794101,0
9.84376090688523e-06,0.389717919626873,0
2.19371244224819e-06,0.243220079567617,0
1.11693377908023e-06,0.233448375050593,0
1.08683860348936e-06,0.224216637656641,0
9.27521029392106e-07,0.205682509534874,0
9.54068215506874e-07,0.208647850016337,0
8.63072566487197e-07,0.20820638945289,0
4.12561549631639e-07,0.15514894643102,0
4.7495193144596e-07,0.160790662550294,0
5.31444603177221e-07,0.166388362773547,0
5.48254325370776e-07,0.165193075449531,0
5.55932334898893e-07,0.168009382010198,0
4.83234693464388e-07,0.157190922889153,0
5.74579785551861e-07,0.181844579911402,0
1.26919956959722e-06,0.255034608182539,0
1.26297226691003e-06,0.238991293206875,0
1.71800981370804e-06,0.272615681580169,0
1.65945219437361e-06,0.264598395202514,0
1.85832138034965e-06,0.264833352505646,0
2.44941375536862e-06,0.291938533173335,0
2.54647740398349e-06,0.283810292089414,0
2.34303586969919e-06,0.263536822382481,0
2.30045088225123e-06,0.268560805461986,0
2.31544634697384e-06,0.279647655908855,0
2.13898858415911e-06,0.261731465618589,0
2.60878039381945e-06,0.273799023677517,0
2.50517995006827e-06,0.23558956295848,0
3.9070955997757e-06,0.255935446393748,0
3.93187497101376e-06,0.235680517215653,0
3.75007306387609e-06,0.222456377986967,0
3.80746013008312e-06,0.225842537571056,0
3.76216474284888e-06,0.226247726412991,0
3.68978920327751e-06,0.220708897743024,0
4.43331953101085e-06,0.237846123335965,0
4.50647410764654e-06,0.241227554571395,0
4.38055287870019e-06,0.247455482267852,0
4.28329309751672e-06,0.275234282450959,0
3.49855994889615e-06,0.285030072254148,0
3.65417472486992e-06,0.334999765111787,0
3.14401318956759e-06,0.336142635100229,0
3.12012271959523e-06,0.342813059683175,0
3.82055694165283e-06,0.371541627701438,0
3.97334870703393e-06,0.377197558903546,0
2.22002841415734e-06,0.297033039674529,0
1.3542993812191e-06,0.237771758996697,0
1.02467793773247e-06,0.216378605402371,0
7.8903308364768e-07,0.192542061195735,0
7.93848131964435e-07,0.191722496948767,0
1.44852603652475e-06,0.254457908847561,0
1.41749239593189e-06,0.249731349179472,0
1.35625558823204e-06,0.247002285069703,0
1.37520354244491e-06,0.257160826423217,0
1.31177257185958e-06,0.262787691187971,0
1.26500275710459e-06,0.262577158598109,0
1.17050256490663e-06,0.252448881558107,0
1.08492297132352e-06,0.241396356510949,0
1.098095189686e-06,0.236498476048211,0
1.04466573164225e-06,0.257645904101255,0
1.85715444774707e-07,0.122220442924771,0
1.36375431935881e-07,0.114888751080897,0
1.4698169696777e-07,0.113883441775461,0
2.57797846681495e-07,0.14266675990483,0
2.47768119015474e-07,0.143313906785119,0
2.26813644979252e-07,0.14657273533235,0
2.32195492698571e-07,0.149834077478658,0
2.27022761498921e-07,0.148394396533477,0
3.28738160276686e-07,0.163965170906003,0
6.14229775829153e-07,0.208118404047015,0
5.72760409407907e-07,0.194124498072656,0
6.18214225814353e-07,0.198339957680186,0
6.37155812897374e-07,0.195468074675204,0
6.65474933796418e-07,0.196660537131616,0
6.52536801090284e-07,0.188440177784718,0
7.51112955159357e-07,0.200945084332463,0
8.48957638369484e-07,0.205175467144623,0
8.79745957194497e-07,0.199149300372801,0
8.51029577330925e-07,0.208699254271353,0
7.91118630788611e-07,0.203779057540214,0
1.04994670404939e-06,0.239173664635327,0
1.08226063712535e-06,0.247553556988735,0
1.03477433299342e-06,0.252048528603356,0
1.0257115351452e-06,0.258619960261483,0
9.93546293278151e-07,0.262791495780577,0
7.47325636508221e-07,0.232242733260527,0
3.6797353803946e-07,0.16953257379051,0
5.22021126149714e-07,0.206851773716302,0
5.63634814180952e-07,0.214530592152543,0
5.68651488276372e-07,0.216430353523941,0
5.30174048657421e-07,0.212428037455606,0
5.20960062686634e-07,0.208260716881962,0
5.30112250044147e-07,0.221352062559507,0
3.29084607048076e-07,0.174725971085811,0
3.3390477403785e-07,0.183590962853847,0
3.78047086540348e-07,0.192919079136799,0
3.79679069313544e-07,0.185375955759647,0
3.97940122576438e-07,0.191978937718094,0
3.43444981779321e-07,0.18188369155161,0
5.72958164970386e-07,0.215271415425029,0
9.02990350755347e-07,0.253974408510006,0
9.39377873634449e-07,0.26348635224409,0
9.80716776316559e-07,0.269231210038353,0
1.0075865636772e-06,0.28738369252734,0
8.49853530993449e-07,0.244103569802063,0
6.26979391553378e-07,0.206514386888633,0
6.04346991532474e-07,0.20797431493677,0
7.137671168146e-07,0.231902054421873,0
7.73125870899309e-07,0.242473272759207,0
6.87110066498447e-07,0.25044509848345,0
4.62986096922021e-07,0.210724640022996,0
4.47628704563271e-07,0.204210264790183,0
3.5601694209609e-07,0.175990239108163,0
3.23174911779411e-07,0.167202783152704,0
3.0314866539915e-07,0.171397637840637,0
3.29320440543989e-07,0.176391024618589,0
3.12152536084804e-07,0.166206863874494,0
3.19366743899149e-07,0.166242927272828,0
3.01749519825467e-07,0.167220686646375,0
3.01784476616813e-07,0.161983816433249,0
3.26898434286339e-07,0.163376835066415,0
2.89208895775226e-07,0.147334592815425,0
3.60679179296382e-07,0.161572624576546,0
3.75026445230872e-07,0.166123275099205,0
3.95380661221383e-07,0.164564874430921,0
5.0396045020865e-07,0.190567280694726,0
5.2990500620973e-07,0.203983085664248,0
4.59227367932378e-07,0.188491201830522,0
4.4299380856764e-07,0.176902954571533,0
4.04258687458186e-07,0.172241303919154,0
5.17355018733236e-07,0.194637709264956,0
5.95507917148888e-07,0.214836397406454,0
4.55889868278474e-07,0.189551089896102,0
4.24419767176502e-07,0.173258711549505,0
7.53525597990753e-07,0.238257785155875,0
7.64120502065453e-07,0.236700961942844,0
7.58731538142181e-07,0.219644457990777,0
9.09163720107319e-07,0.240928724102716,0
9.53619644966479e-07,0.232071124878135,0
1.12792019921802e-06,0.239771560730238,0
1.07532520972201e-06,0.240263760311403,0
9.4500192197953e-07,0.226490603226032,0
9.94633948871791e-07,0.232421023406471,0
9.65920065921887e-07,0.238039658159738,0
8.29447254352967e-07,0.216913801235435,0
6.99318101648154e-07,0.194914127862779,0
6.14110423355837e-07,0.187572492179189,0
5.65029964692769e-07,0.181965055303847,0
5.52345643260954e-07,0.189199959415677,0
2.69111362509753e-07,0.141301747948344,0
2.46523657243502e-07,0.141617288423471,0
2.42233959562428e-07,0.141834316877071,0
2.46713422682246e-07,0.14442355277473,0
2.90705670673317e-07,0.143107569653153,0
9.67343057021098e-06,0.282107529486199,0
1.78928403956801e-05,0.219722007867855,0
1.72345720541114e-05,0.210854130946845,0
