Activity,Complexity,Tag
3.02640835701998e-05,0.0739028017117067,1
3.44827867035377e-05,0.105437246917751,1
3.5218238154866e-05,0.102717503579742,1
3.52408577877765e-05,0.0968786008776961,1
3.51382890489749e-05,0.103331755496778,1
3.06729107084769e-05,0.0974331516717776,1
3.46377255073298e-05,0.0995246617066639,1
2.85516472380493e-05,0.0910958797852081,1
2.34489877002602e-05,0.120941263037354,1
2.05073504504268e-05,0.143788954836445,1
2.19579002510611e-05,0.1360504451443,1
1.45957517230758e-05,0.110217553371491,1
1.49038153261156e-05,0.125561403313186,1
1.58406759816281e-05,0.129706943064531,1
2.03838163287594e-05,0.153678635374437,1
2.09308429180792e-05,0.145638802469575,1
1.60226128502292e-05,0.13340436860488,1
1.59985860631456e-05,0.141001683878758,1
1.31924181780461e-05,0.131329002829632,1
1.30686702705456e-05,0.132529358743575,1
1.51957477352715e-05,0.170412796648805,1
1.33087515383226e-05,0.144690513781014,1
2.07190111253578e-05,0.15897162534303,1
2.01683705639556e-05,0.143625914545409,1
2.11808008908174e-05,0.139200922978273,1
2.32592786749905e-05,0.136997476634446,1
2.24685264322977e-05,0.137968622709627,1
2.56574237645512e-05,0.129493635519463,1
2.76807044752392e-05,0.115879584589534,1
2.85057189334696e-05,0.119428814281283,1
2.58870971492262e-05,0.113323910642797,1
2.4082513107144e-05,0.118835364490297,1
2.86015645033068e-05,0.131201756137552,1
2.71926501342491e-05,0.135368809539004,1
2.35813616823089e-05,0.137091791533669,1
2.72291303081772e-05,0.173925456809176,1
3.03744767145266e-05,0.179199966823849,1
3.02262806869457e-05,0.181492672603566,1
2.91550638235749e-05,0.181293079777087,1
2.90967838447434e-05,0.183435108767253,1
2.79731813197086e-05,0.184311398880483,1
2.67005528012477e-05,0.199320411919854,1
1.4184483371166e-05,0.137366295757915,1
2.65496439551039e-05,0.156856759642615,1
2.67989077644622e-05,0.131926258417373,1
2.40901669519029e-05,0.120470970250947,1
2.13598472501813e-05,0.114554378621967,1
2.06140204459559e-05,0.10231480215811,1
2.28790612949291e-05,0.110976206716589,1
2.16314404829164e-05,0.101716773802037,1
2.48819164904675e-05,0.108800972211889,1
2.53369491084952e-05,0.105561257467849,1
2.94853576997094e-05,0.111150151542639,1
2.92321804621356e-05,0.113116766571683,1
3.08892961728651e-05,0.127782487559919,1
3.28727390800136e-05,0.133545007015636,1
3.36297876908933e-05,0.140203126210655,1
3.28021097664315e-05,0.149148413790453,1
3.79868298655025e-05,0.141081362236951,1
3.81926686363936e-05,0.132304826629748,1
3.48686578777786e-05,0.122557910129006,1
3.35911731121832e-05,0.114436607519921,1
3.10564395965577e-05,0.119505851247823,1
2.4530594733368e-05,0.114859940471949,1
2.59905174664062e-05,0.118934138715167,1
2.4361793828891e-05,0.115849304478578,1
2.74482332701303e-05,0.109477073880529,1
2.81200729083526e-05,0.111540431452731,1
2.31114174188679e-05,0.120085878098582,1
2.83112658457104e-05,0.147290151702185,1
3.12315456791466e-05,0.156110079833876,1
3.84102818932084e-05,0.148363901059975,1
3.82096703474739e-05,0.12588533445541,1
3.92692022943893e-05,0.140008325397192,1
3.95519694297098e-05,0.142986340652757,1
4.11787443742637e-05,0.143059820330514,1
4.28904705007413e-05,0.152042431405583,1
4.03155474765867e-05,0.134194891493521,1
4.39132842016466e-05,0.140696412055094,1
4.378800102444e-05,0.142198561436913,1
4.25180307361843e-05,0.130711465920134,1
4.63100523277382e-05,0.14954103010548,1
4.27477854463717e-05,0.145556104817773,1
4.48205593042001e-05,0.150683650984,1
4.27360464985828e-05,0.137451140764673,1
4.94221433952356e-05,0.146809066376605,1
4.72933022809401e-05,0.137706502681821,1
4.56551034414041e-05,0.163723282717668,1
4.36067008343361e-05,0.159968643393715,1
3.89146226149847e-05,0.147086312531233,1
4.18983945013547e-05,0.156216724671898,1
3.30530850879076e-05,0.151052303584781,1
3.10524013949534e-05,0.189520711880009,1
2.72836278708514e-05,0.176784980558385,1
3.31822201978739e-05,0.156808891730681,1
3.38514467248395e-05,0.119861706136574,1
3.41504937794671e-05,0.135940278391183,1
3.28299195266965e-05,0.126078024934968,1
2.95418852808572e-05,0.110146148296674,1
4.66197535815058e-05,0.108950860626211,1
4.79265810375714e-05,0.0957015637321251,1
5.63537971061467e-05,0.108517850510636,1
5.8862334894415e-05,0.111675574807644,1
5.98472863333017e-05,0.103866400288412,1
5.59896379498178e-05,0.105797503852285,1
5.51963991517341e-05,0.129155207476248,1
5.63277560086679e-05,0.134636761841286,1
5.75817576426594e-05,0.13800071538359,1
6.31917718479931e-05,0.136219682861105,1
4.56244540839008e-05,0.142028607073747,1
4.38188049004166e-05,0.175025917988015,1
4.06265107240581e-05,0.165066898384165,1
4.02713995322982e-05,0.14112793445073,1
4.08881631940654e-05,0.151884612199257,1
3.81331249927862e-05,0.176018343343533,1
3.43619570450723e-05,0.171649117127736,1
3.11492205314376e-05,0.158700051777685,1
3.21927998663819e-05,0.129702116312861,1
3.26853529564668e-05,0.140150987316888,1
2.95854089125825e-05,0.137371409091537,1
3.08725877906532e-05,0.149139382791786,1
2.78536977655796e-05,0.14641614898574,1
2.89575408648322e-05,0.161663141859698,1
3.21403451337347e-05,0.150857608834825,1
3.6341596591959e-05,0.148285759873053,1
4.11652893467597e-05,0.155285603075705,1
4.01834815288416e-05,0.151421269392249,1
4.30746760169221e-05,0.16980068380347,1
4.00110687689736e-05,0.145893027157854,1
4.22297222141391e-05,0.158342555014774,1
4.17214702922434e-05,0.156868509265504,1
4.31921057119478e-05,0.137371898925803,1
4.45928037533537e-05,0.146746673014372,1
3.59904057355129e-05,0.155757117937386,1
3.27952677285334e-05,0.156742210970891,1
3.09146741889064e-05,0.155337806958314,1
3.37830245633813e-05,0.122744468135044,1
3.51966924643375e-05,0.139956530020908,1
3.15850977605707e-05,0.168508382009368,1
3.03022285776298e-05,0.16304544619946,1
3.3704187388913e-05,0.161631469495682,1
3.72397269191623e-05,0.158519653071463,1
3.49810300171755e-05,0.14547646785353,1
3.45561356313762e-05,0.140733458918074,1
3.47321401937691e-05,0.139044402640314,1
3.44229338001738e-05,0.128757636245301,1
3.5405179327596e-05,0.140580562602746,1
2.75978722128287e-05,0.119703421690497,1
2.74789717514827e-05,0.122813111366897,1
2.43028093260321e-05,0.111907563092686,1
2.10042688266423e-05,0.0954725258416766,1
2.39598946216216e-05,0.102201832258206,1
2.37203815183828e-05,0.0996708200456444,1
2.47648478584356e-05,0.10431394654278,1
2.4635745390079e-05,0.107183794254502,1
2.23441043028785e-05,0.0939228620513333,1
2.10210223278028e-05,0.0929609639400097,1
2.44055628854159e-05,0.103633554300724,1
2.51855820543621e-05,0.0991486311781575,1
2.55729802543531e-05,0.100934736923372,1
2.51769289084447e-05,0.108747732852828,1
2.01386005246289e-05,0.107017577845617,1
2.19683688497853e-05,0.127093582750932,1
2.12504098477317e-05,0.128107924473671,1
2.37624390627899e-05,0.120674316847317,1
2.59935404359641e-05,0.117833916112207,1
2.88248987314024e-05,0.145128265948383,1
2.92582218938289e-05,0.149866809604283,1
3.15357916621087e-05,0.136554700463497,1
4.47248291497475e-05,0.139649793536817,1
4.38306084629961e-05,0.128896657487134,1
4.64429808829382e-05,0.144097262801086,1
4.4283527843156e-05,0.135383380308304,1
5.34494389141442e-05,0.122051614928495,1
6.20699610465402e-05,0.108981173705061,1
6.23750890213943e-05,0.12294540330745,1
5.87033557723272e-05,0.118100991951988,1
5.40692364631407e-05,0.107606587766056,1
6.87402306616347e-05,0.113015716767381,1
6.08600893092577e-05,0.0974966443816622,1
5.9828411573127e-05,0.107060169528281,1
5.33055953611405e-05,0.0982068071036044,1
5.41219933256364e-05,0.0979809293123876,1
5.10912441469824e-05,0.106419905567132,1
4.42811526925766e-05,0.134959665403316,1
4.25145531235911e-05,0.134449888708252,1
4.15380846040699e-05,0.128385108993137,1
4.23725054161476e-05,0.135359028003507,1
2.23546003071864e-05,0.132393843666942,1
2.25196016391651e-05,0.19739937021158,1
2.40653010637797e-05,0.144307206870787,1
4.85660000931937e-05,0.170231602690718,1
4.6101574711079e-05,0.143805789271472,1
4.73765059669919e-05,0.16323245276858,1
4.789683149673e-05,0.158615412193743,1
4.83130894473336e-05,0.146580129751505,1
5.15651848352235e-05,0.150689350933808,1
5.05036845880998e-05,0.147466427390807,1
5.22834602269416e-05,0.147882255901291,1
5.23807940536545e-05,0.143030605458231,1
5.23640842231801e-05,0.156240457435769,1
3.31750243382947e-05,0.149410276510438,1
2.99848857336324e-05,0.171176841251613,1
3.1469166237449e-05,0.178043543541569,1
3.21909366209109e-05,0.141525747904583,1
4.07187316269511e-05,0.176140430995167,1
3.91766467314429e-05,0.17843500073694,1
4.07945983035276e-05,0.191038025692493,1
4.21060316801165e-05,0.181488395455963,1
4.18449809074956e-05,0.155670331663668,1
4.15840867700396e-05,0.176673841018083,1
3.71080419758723e-05,0.176742141166344,1
3.66557648444502e-05,0.193381523001569,1
3.11280506093381e-05,0.156182978965296,1
3.18484060402902e-05,0.190195720979851,1
2.49528097220478e-05,0.162481194243219,1
2.27123524614058e-05,0.16462476130344,1
1.94544077638923e-05,0.158006852755175,1
1.88417918146591e-05,0.142355059928724,1
1.88352203790479e-05,0.138295719990493,1
1.86280733814563e-05,0.140865007371984,1
2.39482801130071e-05,0.155626472216907,1
2.55940356523065e-05,0.14582262682692,1
2.50698564073319e-05,0.151437049014826,1
2.36125379845702e-05,0.150373542678123,1
2.41818376264322e-05,0.154251034038601,1
2.76459586514153e-05,0.167635314638004,1
2.94718478610381e-05,0.13543214457193,1
3.38350645359155e-05,0.140156536457765,1
2.9834671385083e-05,0.142449157582529,1
3.00279025848706e-05,0.141231704916293,1
2.95340585358309e-05,0.13432159048011,1
2.98255568004367e-05,0.126523471372692,1
2.87653185470169e-05,0.128584170211756,1
2.73991295942106e-05,0.133797732381077,1
2.67997210195855e-05,0.133579936288843,1
2.26757572063075e-05,0.118621924656656,1
2.44695565942154e-05,0.131583357592314,1
1.59770960750228e-05,0.107504735353588,1
1.97630130171253e-05,0.127957219756485,1
2.0624325502417e-05,0.125434447740496,1
1.87329805072496e-05,0.118904788781194,1
1.74666954901558e-05,0.119912682325706,1
2.6459862260557e-05,0.129021243680223,1
2.86406381812448e-05,0.109146736381463,1
3.40651933434596e-05,0.118470704911542,1
3.53871340876471e-05,0.122910570094476,1
2.79200772084156e-05,0.125242913766819,1
3.88855767069322e-05,0.168565767690829,1
3.8396530528906e-05,0.126883803937006,1
4.38702477431616e-05,0.143307159892286,1
4.78707529672344e-05,0.157776719012323,1
4.97456697632908e-05,0.174658906861941,1
5.2092140733718e-05,0.136888792709181,1
6.61362100375952e-05,0.128729035474052,1
6.35374472750354e-05,0.123470392753245,1
6.41439523361478e-05,0.128141222038199,1
6.57593363615438e-05,0.11509788552034,1
6.47314888342344e-05,0.112967029772093,1
5.9653142505299e-05,0.121205331835396,1
5.55450115438199e-05,0.116045841882986,1
5.05170806824586e-05,0.103826191741396,1
4.9429833000939e-05,0.0977803502022733,1
5.11585684140241e-05,0.116155283702108,1
4.2115874518015e-05,0.125994610215581,1
4.00077885657062e-05,0.126659011231984,1
3.9795793564936e-05,0.127193660297592,1
4.01559394743384e-05,0.132639442665567,1
4.37397695367889e-05,0.131418998315203,1
4.41659027440911e-05,0.133368878872493,1
4.30909562704437e-05,0.130067203963845,1
4.9249176285026e-05,0.143779585454623,1
4.9343073718926e-05,0.136520040079348,1
4.58382293335574e-05,0.144394889313254,1
4.22847731245116e-05,0.143781727661079,1
4.12542221366436e-05,0.14383279247761,1
4.20167782671853e-05,0.137536126649214,1
4.33660726803399e-05,0.127445672207855,1
3.75098942817161e-05,0.127787777178572,1
3.68019862217486e-05,0.132299998308758,1
3.85634691905553e-05,0.136940431025935,1
3.49485310055882e-05,0.133686365598925,1
3.28735073275932e-05,0.139955406920506,1
2.41772036318964e-05,0.130196897650498,1
2.30806273570878e-05,0.146373784005871,1
2.41090675579939e-05,0.146339335352405,1
2.17036887312181e-05,0.139546597556018,1
2.78213627418747e-05,0.177315109421992,1
2.27505820250876e-05,0.129424860818777,1
2.12811682705453e-05,0.125361082471787,1
1.95938010288942e-05,0.126656454004023,1
2.06666676861172e-05,0.114534488006477,1
2.68171963125192e-05,0.119229872893923,1
2.77509229278768e-05,0.122596282988234,1
2.78540578259301e-05,0.12289857989101,1
2.73323630196548e-05,0.110283704890205,1
3.77486714447706e-05,0.108114308358855,1
3.334328570927e-05,0.0964327562222402,1
3.34582367586464e-05,0.115530228327652,1
3.5370433503772e-05,0.107994180163835,1
5.23735764701371e-05,0.103438978278829,1
5.6535254711249e-05,0.091641500083665,1
5.68753397334495e-05,0.0977884880283945,1
5.72097930196231e-05,0.104182893812154,1
5.71474503301288e-05,0.0981563740550492,1
5.91242253250995e-05,0.0997080629905997,1
5.00446930886935e-05,0.103610017406346,1
5.09335920790082e-05,0.122867142617719,1
5.03633804773599e-05,0.110810741734933,1
5.01930005210859e-05,0.108021206209274,1
3.34506359425777e-05,0.113795156852595,1
2.63562371813336e-05,0.135214999927007,1
2.34744910467144e-05,0.126116680457803,1
2.15654261136474e-05,0.11436316908638,1
2.36565376490547e-05,0.125854007982932,1
1.90933943452234e-05,0.114392130208328,1
2.11978931740094e-05,0.131278936520987,1
1.91862287544128e-05,0.124441588728309,1
1.90004153325888e-05,0.15645361736314,1
1.6628622048526e-05,0.134027345913271,1
2.02535011076257e-05,0.122568518968299,1
2.53405897063276e-05,0.140862468624296,1
2.86676352434105e-05,0.151578124877653,1
2.82771079050763e-05,0.144795468415423,1
2.30162175513176e-05,0.125499906264458,1
2.90338846882161e-05,0.130860639107703,1
2.8673378829868e-05,0.122720556318461,1
2.85918634837332e-05,0.121934265003488,1
2.78520450752021e-05,0.116222178658276,1
3.18547660295693e-05,0.127970994792779,1
3.32337459257986e-05,0.126143208104012,1
3.10660582879757e-05,0.121241498372136,1
2.92399247676014e-05,0.121309396520945,1
2.9199609594445e-05,0.130270301645738,1
3.86535837626787e-05,0.135244798027884,1
4.60921083100383e-05,0.11824008077658,1
4.78701929352475e-05,0.123267418145151,1
4.94392997361942e-05,0.12576325631888,1
4.99793350051686e-05,0.1189473437045,1
5.58418372979126e-05,0.129829222370086,1
5.27141172494211e-05,0.13149844717934,1
5.0814184837175e-05,0.133021222623618,1
5.06925349050831e-05,0.12818901708735,1
5.56257755759064e-05,0.113296456186165,1
4.94236095939587e-05,0.110007113650656,1
3.76409883338864e-05,0.130765952125507,1
3.50502293385982e-05,0.121853619372062,1
3.66220941884612e-05,0.103083686220268,1
3.96553620070918e-05,0.101148131046583,1
2.93693915296913e-05,0.0958108877437263,1
2.93069797692139e-05,0.11023756609342,1
2.9084452668977e-05,0.0911072433925463,1
2.99790564768749e-05,0.0822486835527384,1
2.64857809241482e-05,0.091282223437044,1
2.56047560259046e-05,0.104568031303751,1
2.7273435221845e-05,0.0965822900175741,1
2.99107822610062e-05,0.0987861813450052,1
2.85067171205799e-05,0.117128094322057,1
2.73276349994582e-05,0.134242158660855,1
2.80002262859431e-05,0.134667661449022,1
2.8966212058329e-05,0.114744433935183,1
3.74748686090058e-05,0.132890471064578,1
3.1649255234443e-05,0.132493274038569,1
3.28905522637403e-05,0.137322176005228,1
3.49927236232061e-05,0.117733638564607,1
5.04309736756164e-05,0.135084387526868,1
4.78593344196832e-05,0.120871216812229,1
5.05039286760417e-05,0.125087981585447,1
4.78237656485173e-05,0.109234311184731,1
5.56191679337315e-05,0.107779341420812,1
5.33568946030837e-05,0.118993131786388,1
4.77975288127848e-05,0.130258108045618,1
5.23199840715558e-05,0.146630247100492,1
5.30912418091079e-05,0.117890250684827,1
6.69288022421533e-05,0.120696143212165,1
5.41678769568868e-05,0.104197186287615,1
5.79695020888043e-05,0.118455570139227,1
5.83338135355105e-05,0.109395067591737,1
6.37254962572101e-05,0.115470267074564,1
5.41381880202628e-05,0.109387256715564,1
5.35652715097933e-05,0.107735113941017,1
5.57686483473833e-05,0.110287499717309,1
5.33890536071864e-05,0.0955321511006845,1
5.91170606588675e-05,0.117547191372822,1
4.25119846856638e-05,0.126070128359113,1
4.0152842420581e-05,0.162641029743938,1
3.49455214046077e-05,0.153383714874932,1
3.21107599149902e-05,0.156606546082376,1
3.04331287854282e-05,0.165344636649913,1
3.20808759085414e-05,0.171126796038979,1
3.36200960293238e-05,0.182944442063963,1
3.22833001219624e-05,0.18446570571069,1
3.98492865904257e-05,0.148689066405619,1
4.51032658353031e-05,0.132324133482525,1
4.53909742196293e-05,0.135310056482599,1
4.68467021158983e-05,0.138665704191258,1
4.82280843454812e-05,0.143788588515511,1
4.95247409878834e-05,0.150402978802033,1
4.90885204091215e-05,0.133826414806101,1
4.96539800385387e-05,0.124475355266102,1
4.91371588585487e-05,0.122944643527099,1
4.91628363307231e-05,0.123872382257065,1
3.84261605323848e-05,0.156007004872333,1
2.47753822974034e-05,0.13958643942073,1
2.68376574772085e-05,0.1408109724028,1
2.84494193979707e-05,0.139780009241165,1
2.74846957306934e-05,0.135856206340044,1
2.47444568787775e-05,0.116387437765901,1
3.93573693990043e-05,0.137848079690086,1
3.99396025824481e-05,0.114851018193584,1
4.25171279115926e-05,0.115934079695148,1
4.0687017016641e-05,0.107462560260099,1
3.9372400136161e-05,0.114411211118422,1
4.36393451177975e-05,0.120540069803886,1
4.22725681703965e-05,0.116334151262961,1
3.99961989003646e-05,0.109035900595838,1
4.68773590489287e-05,0.116536985337847,1
4.82876535007904e-05,0.131250766770144,1
2.89971051695597e-05,0.134174266104179,1
2.96564994420839e-05,0.164834909497619,1
3.1590147963482e-05,0.166472405116863,1
3.24270381746096e-05,0.158221857374824,1
3.6281968280695e-05,0.176640394269886,1
2.79376337154568e-05,0.204976369525329,1
2.52687586690447e-05,0.223626316723794,1
2.77818284050415e-05,0.252346615213549,1
2.71795114964095e-05,0.24949813331593,1
3.44961210796309e-05,0.132962022287454,1
7.59539533339131e-05,0.129360543748278,1
7.50187901535122e-05,0.120993750798096,1
7.01844335073528e-05,0.115570196567649,1
6.83733878748035e-05,0.116530977078456,1
6.86217632307907e-05,0.10672448394091,1
8.20927789962803e-05,0.105703616662888,1
7.74229884235013e-05,0.0960164501962861,1
7.37301358301191e-05,0.0880646018189789,1
7.67249142890476e-05,0.0837451086548366,1
7.23976059472013e-05,0.106595044158282,1
4.82495738879847e-05,0.111426879105079,1
4.97896399055002e-05,0.133478206982521,1
4.03263662206333e-05,0.11420074050502,1
9.81621522336257e-05,0.104661850772291,1
0.000171724381962713,0.100982332552403,1
0.000171584360374575,0.100169392411258,1
0.000196178375193368,0.0935658946609351,1
0.000218171675103092,0.0832237245595461,1
0.000215585189262155,0.0817139490749655,1
0.00024378144434551,0.0784683353127975,1
0.000513287633269064,0.0898878141756602,1
0.0007819610050528,0.0773156899028374,1
0.000670253594102235,0.0709216782999737,1
0.000655655461546935,0.0789948513573725,1
0.00065910442795261,0.0730929815679162,1
0.000567998595313043,0.0630017782841881,1
0.000595531392187758,0.070795902246502,1
0.000575254062705017,0.072877914983876,1
0.000572817894039271,0.0625244536751029,1
0.000743500357155755,0.0794811937321727,1
0.000660728005913291,0.107469166665089,1
0.00039826633335543,0.115963300653633,1
0.000369684522484855,0.10996144310488,1
0.000266432279515669,0.0709010502495044,1
0.000119797790561241,0.0487381447472468,1
0.000215748368345633,0.0423003236720417,1
0.00029751484042117,0.0386975437945127,1
0.000281291462175162,0.0396210380506789,1
0.000313380484114919,0.0486323043621616,1
0.000333290267512254,0.0445277624411631,1
0.000491142196609365,0.0385558274683531,1
0.000532507559750835,0.0306113650565434,1
0.000523234308472972,0.0302980896913626,1
0.000512579939440549,0.0309848971593528,1
0.000509615344221393,0.0316692788078446,1
0.000439878666592595,0.0391797895471569,1
0.000382771953325644,0.0421865268178899,1
0.000443871256950436,0.0469711812442445,1
0.000454165701434817,0.0501376985841019,1
0.000368360752585069,0.0463477314160043,1
0.000461484524743046,0.0719327291297339,1
0.000595521056049354,0.085962928529548,1
0.000485269229060042,0.0752007806401911,1
0.000445150095061681,0.0720036576232121,1
0.000355433995667764,0.0658291696795613,1
0.000306960116101728,0.0566141306712311,1
0.000313138588062764,0.0380365283385214,1
0.000464769089620248,0.0421748748917278,1
0.000599230588950936,0.0462917663202136,1
0.00101696778366967,0.0548862225982044,1
0.00406955709454333,0.0249818681221598,1
0.0137947882770168,0.0297031088085969,1
0.0146182330788862,0.0230426519438874,1
0.0286595412872597,0.0182705063611894,1
0.0556496529748196,0.0304816125754773,1
0.0685608597073078,0.0376988669413592,1
0.0766134952347459,0.0431978944903204,1
0.0786161391928362,0.0427579764842466,1
0.0761300468597323,0.0389093422737981,1
0.0893750262306458,0.0251657135949824,1
0.0989992772044361,0.0130253918708869,1
0.0867311453005203,0.0132769173551376,1
0.0550171821843682,0.00905442377597111,1
0.0451894842972003,0.00865803745655002,1
0.0527922540975952,0.00952426925008167,1
0.0618593016290361,0.00975664127395738,1
0.0624639835088558,0.00975155676498173,1
0.0706352375195849,0.0104386409425534,1
0.0943631678024778,0.0133136666210886,1
0.0775377840848898,0.017900370702992,1
0.0386855231936912,0.0254650543948036,1
0.035971569874779,0.0154621019911007,1
0.0330586626945647,0.0121985565409673,1
0.0298850319051304,0.0101380906478706,1
0.0280933239215297,0.0102835497805564,1
0.0271116924301339,0.0129249673722327,1
0.0191660541536462,0.00955442199274931,1
0.0186656981787719,0.0106801282670963,1
0.0148246806645943,0.00932350136706289,1
0.0134005840016034,0.0085936165561904,1
0.0126859241023092,0.0071967311753345,1
0.0103247518487206,0.00991305664055964,1
0.00449726474549404,0.00529053291453356,1
0.00422488908334692,0.00681836383711432,1
0.00454651018971789,0.00745031523636164,1
0.00734929422107035,0.0137287565186953,1
0.00890389820641579,0.0149839710200777,1
0.00777637338924156,0.0139484987562935,1
0.00713236952174542,0.013248116704994,1
0.00726941624080136,0.012713681641914,1
0.0132472870069466,0.0188165949245068,1
0.0138138503024408,0.0108478761245125,1
0.020919355015574,0.00273723005096241,1
0.0628272062423501,0.00939302569317531,1
0.0625489519897186,0.00687204928997368,1
0.0584695690665634,0.00502790845343267,1
0.069173436687138,0.00543359757288702,1
0.0747677628713838,0.00384936252453974,1
0.0801199287014639,0.00383198474855275,1
0.0987941857459324,0.00331613558241082,1
0.117154412232697,0.00338169432061371,1
0.119100026285902,0.00320783422868579,1
0.130150575216473,0.00524081866565247,1
0.125993866147649,0.00398438831212461,1
0.131855318653805,0.00312557247253634,1
0.135614934497869,0.00362837553540279,1
0.123767935722934,0.00305859966713797,1
0.11581835466919,0.00369333038883915,1
0.106067866640118,0.00342146482776626,1
0.0896230363098636,0.00462865663612391,1
0.068211252680254,0.00357899837672048,1
0.0729860288710914,0.00520249497544105,1
0.13207607386007,0.00899676124636226,1
0.223335755294246,0.0182040761832819,1
0.30917629829262,0.0396693162238599,1
0.3002762770592,0.0376049462144134,1
0.365766133247629,0.0395674963506877,1
0.396714611943177,0.0441112036729685,1
0.435365237119366,0.0404846405869825,1
0.306751016725013,0.0265376814206895,1
0.208747539329503,0.0199151515890793,1
0.109697518891838,0.0127460913897624,1
0.134957913006901,0.015715585513906,1
0.15718763295852,0.0145285317792561,1
0.162049282043334,0.0155394292313803,1
0.153727847344016,0.01518263964607,1
0.149350746773996,0.0177536236758227,1
0.159279417595002,0.015967110385138,1
0.0951126495513586,0.00930390436290316,1
0.0747769754352249,0.00797792677057786,1
0.0947162285246258,0.0101290428977703,1
0.122592675116602,0.0124422616275865,1
0.154723865436076,0.0180029234573286,1
0.211989468457401,0.0288158661718643,1
0.224584031837653,0.0284513030425006,1
0.188677906499986,0.0271207107883102,1
0.126758385928919,0.0197135458893812,1
0.0892551035342354,0.0252265859318587,1
0.0667248785327821,0.0343787942995034,1
0.0241136825468688,0.0163750796495853,1
0.0218110346147249,0.0159595703741121,1
0.0369059729517377,0.0224392141427108,1
0.0617662314546242,0.0224158772492152,1
0.0585017744248713,0.0142097711134025,1
0.0591674526841956,0.0103179725770612,1
0.0612374240313361,0.00817177848445207,1
0.0618751510993136,0.00866185486398244,1
0.0696215984875057,0.00997162821292823,1
0.0786958873967492,0.0111394408544287,1
0.0870107551388175,0.0127025565639432,1
0.0886908122187731,0.0132539674224558,1
0.078754798013152,0.0118988446933047,1
0.039320246716431,0.00697853262682431,1
0.0412722731058077,0.0105066752509998,1
0.0322354177101475,0.0168202974516389,1
0.00829517474263035,0.0117868051815802,1
0.00787292223058193,0.00939433351370892,1
0.00892986556638685,0.0111579693677536,1
0.00922937311447351,0.00911109242616863,1
0.0096482802741664,0.00803209229890772,1
0.0112986863882683,0.0121165383621503,1
0.0116072687937113,0.0113980631531349,1
0.02567313156133,0.0168117331610054,1
0.0258216761923906,0.0104190376422518,1
0.0277412013486567,0.00506071993577382,1
0.0617161612520617,0.0115491898776348,1
0.0709191794444877,0.00744347593260219,1
0.0710177206768811,0.00720158835091643,1
0.0715310913540817,0.00710641500387184,1
0.0673041795371331,0.00665913179536922,1
0.065926869467235,0.00593425677905547,1
0.0608490899721074,0.00531062458337524,1
0.0604677118831406,0.00553092322536946,1
0.0577311332942344,0.00688709505745644,1
0.0750022505525975,0.00535920448108146,1
0.120533583539058,0.00845538379117214,1
0.119864091371888,0.00981302428159247,1
0.107561822953157,0.00908314783662759,1
0.113650477658339,0.00957260877108074,1
0.134080960801748,0.0112457687254248,1
0.130394567863397,0.0129531306644137,1
0.14326442636413,0.0102179022982135,1
0.187054872664468,0.011714521206556,1
0.124540846141951,0.00642381945649751,1
0.11454452755962,0.00844941065654425,1
0.13527853542328,0.010415871645248,1
0.120428104609912,0.00889543686652046,1
0.0927383372516622,0.00599567505383221,1
0.0826829793869444,0.00541111867977015,1
0.0990594095030458,0.00650346606203041,1
0.0942607600793897,0.005770628209904,1
0.0913600239372096,0.00727818520696611,1
0.0849330165701301,0.00725094845790852,1
0.0770292511395669,0.0078207378194592,1
0.0647423620609154,0.00969245845306758,1
0.0788802657230708,0.0109784813890886,1
0.113194409695685,0.0187663897204529,1
0.128700226021035,0.0229158115916041,1
0.151251825835861,0.0253360914024423,1
0.147006805451789,0.0279936371810801,1
0.169282408190099,0.0341315380041626,1
0.157494486449968,0.0403119710177748,1
0.185080073282429,0.0423191898301005,1
0.154702158906745,0.0295102615904383,1
0.0918754451744829,0.0188507820037864,1
0.0687161465129935,0.0166712322242798,1
0.0685945511184587,0.0157929795148551,1
0.0598225557471018,0.0149742071085156,1
0.0577283023871285,0.0178568654800066,1
0.0612629280435454,0.0205075634676946,1
0.0583613541670399,0.0147607041595679,1
0.0520163231331889,0.0133853647489241,1
0.0324771018564256,0.00799226275112346,1
0.0321350313545038,0.00765559697743061,1
0.0430949600982048,0.0111397355438823,1
0.0476082947716207,0.0124640587127393,1
0.0458778730783822,0.00957782079397527,1
0.0519636058339953,0.00988459150685098,1
0.0504789154424666,0.00889285312033337,1
0.0496004204681702,0.00891539463490069,1
0.0401886388782268,0.00822987601713964,1
0.0425491428015401,0.00874621336302443,1
0.0450132135963998,0.0119941786746625,1
0.0267078842301217,0.00799752772548904,1
0.028043034167044,0.00863603422464966,1
0.0261642415708612,0.00926262595659622,1
0.0132087561236633,0.00188704783755835,1
0.0230782764214582,0.0061458686623482,1
0.0256359545773778,0.00522304269069804,1
0.0741390789408049,0.0132487652958626,1
0.0976453668279487,0.0113472514935055,1
0.0947296304021197,0.0100661141463154,1
0.0796623258180244,0.00849560344166192,1
0.0711430228193087,0.00777357380522936,1
0.0729797644047538,0.0075228889443454,1
0.0938478891492148,0.00682582779399496,1
0.130280969351317,0.0104747129444917,1
0.138655160029912,0.00786218446293249,1
0.13034608161968,0.0074690923491774,1
0.129313388861835,0.0101662053131636,1
0.148607323844967,0.0145184324756617,1
0.13643702887011,0.0110113018403003,1
0.125598046715365,0.0067002506525712,1
0.119150201045556,0.00544158147401922,1
0.0914310243387703,0.00208010769712654,1
0.223630991036537,0.00918041002807832,1
0.302329914838598,0.011886165464465,1
0.44742668455407,0.0177601440422171,1
0.421121702236684,0.0133565532376268,1
0.398247539115534,0.0123358692528606,1
0.397292217779833,0.0122495682534727,1
0.35874606815611,0.00909514728194743,1
0.321600653054858,0.00514985625132025,1
0.338060581216708,0.00561698231023457,1
0.290340441472144,0.00575798006195236,1
0.293129533350406,0.00488185018792588,1
0.300944502590763,0.00576867820861581,1
0.275376863020683,0.00516090271000634,1
0.277134077145724,0.00565923940104658,1
0.275264521231187,0.00521890520296028,1
0.254547237670378,0.00440945786026594,1
0.252251448515039,0.00627828344269065,1
0.209152832036951,0.00827041619643116,1
0.180737780127608,0.00791869856222099,1
0.195437625460221,0.00742430160969126,1
0.327308044959901,0.0161623645953235,1
0.374267668289963,0.0163249124923084,1
0.414111398503367,0.0196762704188694,1
0.511459504909182,0.0257138623236059,1
0.501041579983653,0.0251841621503604,1
0.403447549160455,0.0273128267565054,1
0.197772996954944,0.0175925545244128,1
0.125289911786508,0.010868652757289,1
0.0994944516556381,0.00749165863210625,1
0.058817458667909,0.00500067869807647,1
0.0797796000519805,0.00841808585249688,1
0.0843727546085019,0.00790920391165274,1
0.0752516557480301,0.0082149741593292,1
0.0573655876993457,0.00557738841018419,1
0.058464926886002,0.00531656186963335,1
0.0865519000248576,0.0080847066125836,1
0.0951154520307418,0.00845601628621479,1
0.115311064012065,0.0125040008260425,1
0.113866901439632,0.0144428250311457,1
0.119016109931685,0.0183172166568579,1
0.0685388120259191,0.0117416661271102,1
0.0422674062270112,0.00918973144190499,1
0.0397315352949983,0.00804333816669177,1
0.0237704293272413,0.00538874906511544,1
0.0127069593771001,0.00959353035464375,1
0.0132899580546421,0.0112673430535394,1
0.0119067554517247,0.0124468082919611,1
0.0104530446816075,0.0183934822434201,1
0.00894317271458713,0.0139608812022957,1
0.0102548444751915,0.0165026828645604,1
0.00901077268770442,0.0122388595395525,1
0.00989356253527751,0.0118132898886772,1
0.00978619317744004,0.00960174973493714,1
0.0558629271841219,0.0158979222761573,1
0.0857179344492687,0.00831944370660066,1
0.0821643487521825,0.00803430105531773,1
0.0893136751040203,0.00762780687819893,1
0.0899007315293636,0.0051027120045115,1
0.0922663163863826,0.0051681930434878,1
0.0872228120544826,0.00346493901195437,1
0.0961250028265309,0.00392996049865695,1
0.0917211856757883,0.00384382877517148,1
0.117282818730242,0.00372274287007166,1
0.150144914867903,0.00499294648990746,1
0.144125669213059,0.00674089072376173,1
0.12647890277438,0.00593110205960551,1
0.141489313360776,0.0072068435070517,1
0.155408887297599,0.0100764587288416,1
0.0998179275424969,0.00621550595481111,1
0.176614320407733,0.0101625689506725,1
0.228711633300546,0.0125267225168809,1
0.223188848729231,0.01286100928836,1
0.2779709495137,0.0158979279790623,1
0.272874259736974,0.0163980437683508,1
0.3023959151771,0.0172057473295793,1
0.474798181554976,0.024489188502107,1
0.595947137929341,0.0273919976606886,1
0.588089880551656,0.0267697422451528,1
0.434321982291153,0.0164989132430743,1
0.407360083480608,0.0177926336674197,1
0.376127525776091,0.0160470347360499,1
0.345724308353677,0.0135749643428387,1
0.335035296658842,0.0123700865822909,1
0.350311895270707,0.0118650410190344,1
0.389217769113895,0.0125838542863977,1
0.324490025562812,0.0111967424364536,1
0.248728222235188,0.00839254245659444,1
0.178743406164766,0.00548253735783112,1
0.297960679670406,0.00863178735638032,1
0.365627261149486,0.00922912808869392,1
0.363019301933669,0.0096286907205179,1
0.406623663678717,0.0117054268830331,1
0.32595137024681,0.0102686622647889,1
0.392796582503943,0.0136273631681559,1
0.456545948899703,0.0190354964867652,1
0.375270461390766,0.0152438437561826,1
0.318758702706451,0.0132519238696767,1
0.192943253339608,0.0074219627648219,1
0.1740540520211,0.0103819341108528,1
0.155913205787097,0.0148924540290621,1
0.0643787577630454,0.00529780372412818,1
0.0546132335620448,0.00651239600131493,1
0.0679673163470141,0.00891753921381722,1
0.0782731125961069,0.0116367513780483,1
0.0846625745484832,0.0133343877458073,1
0.0949877556246797,0.0180476371252387,1
0.0969103705989608,0.0196228142564554,1
0.080216267782027,0.0197260747773817,1
0.0587575746282372,0.0168773756358283,1
0.0538203847490923,0.0145999399554169,1
0.0250947707761553,0.00821130071459414,1
0.0185183074769655,0.00423067099993914,1
0.0345639840936564,0.00629542343804592,1
0.0373557622567514,0.00647727459782944,1
0.038290119669435,0.00676120889247418,1
0.0373438891054907,0.00664451529167083,1
0.038097155719875,0.00600246883677122,1
0.0431303681345088,0.00660322677768908,1
0.0435206418334982,0.00613178611275744,1
0.0463262568741149,0.00440681106407733,1
0.0611055555041687,0.00705100411477626,1
0.0710255295302947,0.0119481108259326,1
0.0744454264983308,0.0164309949666556,1
0.102696338452461,0.0219374677301792,1
0.0925229602110384,0.0130495364443535,1
0.0747920975555203,0.0107636395424942,1
0.0626704554459846,0.00866166376141239,1
0.0676879017838608,0.0098384873289901,1
0.05264922845198,0.00898733147475348,1
0.0356509945639189,0.00640036627495936,1
0.0551161030434733,0.00550087315974265,1
0.0635652858573962,0.00401364638899712,1
0.0851888105339352,0.00552347332600948,1
0.125363762462122,0.00826676499044382,1
0.224632512771817,0.0159507137013413,1
0.401574477269519,0.0244068221805921,1
0.515150920126048,0.0272895900891826,1
0.552195715850669,0.0279090137428598,1
0.600152242899933,0.0280663152642994,1
0.505304719034362,0.0243343317259665,1
0.447304999927846,0.026812722975332,1
0.22613527109768,0.0159132195861855,1
0.206886641971035,0.0140061879455535,1
0.141232103223464,0.00663610967874475,1
0.152416743205966,0.00528473598226328,1
0.159277547400656,0.00498643022910276,1
0.279747655806498,0.00836143413962854,1
0.352783078410752,0.00829358524240965,1
0.352566328881567,0.0087835994158543,1
0.320452226843625,0.00788313217117763,1
0.276026170015884,0.00662874987493021,1
0.236249044501723,0.00709838680337487,1
0.238539726505794,0.00697359402263324,1
0.186237695822257,0.0067469439594655,1
0.189985457733615,0.00770258051491211,1
0.241377955686292,0.0115020351871689,1
0.303293621115361,0.0138896765973489,1
0.523398329848124,0.0249417093827841,1
0.611842218519696,0.0218350588584705,1
0.695836497448285,0.022242625541378,1
0.85685324464029,0.0263485052501353,1
0.951932273999365,0.0280469099314057,1
0.870632008558075,0.0306906433982871,1
0.573220833025523,0.0218945220923334,1
0.380128560711883,0.0182911247130288,1
0.218348762786175,0.00980472517062664,1
0.112977638083951,0.0112709763078167,1
0.112949490468876,0.0107389547409108,1
0.0664609446874181,0.00965976579861419,1
0.0255171891520317,0.00570807064780171,1
0.0236733993994853,0.00357161692823932,1
0.0280367422371922,0.00482402262482659,1
0.0351288413853323,0.0068753202230984,1
0.0381218435483513,0.00684800741590547,1
0.036477731016123,0.00700169682215147,1
0.0342012882073294,0.00802536978804581,1
0.0360048045373436,0.00866613922747073,1
0.0232236657518697,0.00411767476175529,1
0.0233309053646559,0.00460062503109409,1
0.0216896828710908,0.00747560933523441,1
0.0143593447404979,0.00650702701974323,1
0.014680623370431,0.0068886667173811,1
0.0154692817328446,0.00668737222927647,1
0.015417301667245,0.00756842414982287,1
0.0143084459017068,0.00614291496627757,1
0.014142115234044,0.00418391471866246,1
0.038559529857936,0.00786583741546734,1
0.0625356556427718,0.00951687894576243,1
0.0609367959552744,0.0116503402872893,1
0.0592309689739145,0.0116382528200195,1
0.0583340232809138,0.0104060498615345,1
0.0615259755219276,0.00770008197272872,1
0.0702344528919421,0.00906067392392118,1
0.0759592778796392,0.00925148391627332,1
0.134550671158199,0.0137443773714069,1
0.138835864025136,0.0153498245611313,1
0.146204199417541,0.0169943385091782,1
0.174432359122027,0.0213288389425473,1
0.147771735635796,0.017050567112432,1
0.147829434515991,0.0146251376985508,1
0.0921007701217795,0.00832163033962226,1
0.0667957713785676,0.00609420765039336,1
0.0909943313501337,0.00661450154188864,1
0.153809440082516,0.0114429595662646,1
0.173020026504324,0.0131873699457168,1
0.174137345611392,0.0113976088358041,1
0.18102854178984,0.00707308359988176,1
0.219949818320547,0.00852816374571138,1
0.262480422520138,0.00816816402933985,1
0.452655630837028,0.0141824083810086,1
0.396956951392832,0.0076927339404799,1
0.381826162311945,0.00582214236642922,1
0.413142852421149,0.00656386581198288,1
0.415385106915566,0.00666625870872335,1
0.406605859880066,0.00639001087986579,1
0.292365236192044,0.0045795452801942,1
0.280558975147378,0.00590796293870299,1
0.351545217226156,0.00769242635335448,1
0.372623128705104,0.0110603004689406,1
0.264950799949393,0.00807475728343067,1
0.22963158270602,0.0115881627030619,1
0.221527093642222,0.0161849761497367,1
0.133437244030578,0.0127579207359736,1
0.134929981692958,0.0138066100052556,1
0.139831046367659,0.016992753484828,1
0.202194802913862,0.0212726645506743,1
0.220592560785788,0.0231750729439143,1
0.295754562269999,0.0229139484605108,1
0.402753949361289,0.0286248597893,1
0.436783065521795,0.0276305989656939,1
0.301604154249399,0.0144519164310388,1
0.216652413010229,0.0123443798492053,1
0.157391259651857,0.00896563945144448,1
0.130116582640685,0.00819708231017272,1
0.137554212041027,0.00743815264576888,1
0.15524865383309,0.00848078749243178,1
0.153074501576483,0.00874731782521613,1
0.170420488872283,0.0119671259968923,1
0.172453901417093,0.0118963266117905,1
0.171688305009587,0.0124345300128359,1
0.165437816525711,0.0201882969468769,1
0.0814718278482332,0.00813303290482044,1
0.0928554736913466,0.00626355688786798,1
0.0663177497716613,0.00379595480487386,1
0.0647875209415923,0.00372920456648164,1
0.069484709939107,0.00326499896748225,1
0.0839278827646701,0.00440125824387991,1
0.0859733093433773,0.00426297672474041,1
0.0849154930581861,0.00418437359825104,1
0.0937115894526709,0.00488485701240259,1
0.0946182313473212,0.00468485006649087,1
0.0901042258243216,0.0074880182340979,1
0.0512349861490415,0.00496556692700006,1
0.0576974606356326,0.00398935125826237,1
0.07347630360489,0.00553759205851051,1
0.0676642191526426,0.00584400669010764,1
0.0662890778164735,0.0057500395448159,1
0.0625581079706103,0.00449433821553983,1
0.064326537897141,0.00451921683842922,1
0.0718778416164157,0.00462905983122614,1
0.0732593082944105,0.00320220975265735,1
0.0730886992592079,0.00307693028700977,1
0.0733480911868925,0.00391797929269166,1
0.0756724723885302,0.0048892717728236,1
0.201595080289854,0.0108285589544693,1
0.348153765653242,0.0164741742660466,1
0.43109806124903,0.0211255490980844,1
0.417584118971801,0.0213760112677943,1
0.349625564187304,0.0186537279481695,1
0.344331033209509,0.0202820029764565,1
0.370019943473326,0.0226239919144556,1
0.298634903266315,0.0153882843166406,1
0.20084232143086,0.0113681671964423,1
0.0884357221399773,0.00496400273525027,1
0.0759585465957305,0.00707044146361582,1
0.0894362575068611,0.00774666088270924,1
0.102133795214626,0.00804835492913813,1
0.106390966918748,0.0093556215193569,1
0.094908208993736,0.00876080225983693,1
0.113745206383244,0.00691985079996865,1
0.109804094695936,0.00532755281011485,1
0.168309262017839,0.0106113058193701,1
0.173486814861074,0.00617743711276562,1
0.18344939894388,0.00407572784411345,1
0.234088460578666,0.00616413956370042,1
0.246877640469848,0.00626813697004206,1
0.264746461891216,0.00623212553109365,1
0.343302806505675,0.00564157719416322,1
0.432050578266277,0.00627261452704608,1
0.373375957984082,0.005599157495661,1
0.368946162415549,0.00683157295811903,1
0.336193580846885,0.00588585316866562,1
0.332063854899585,0.00613316112670167,1
0.478426033391866,0.0119538302083786,1
0.45932151195714,0.0105335392847545,1
0.483816230556697,0.0100554794075396,1
0.517750565119797,0.0111634648269468,1
0.628617350000486,0.0172252773691671,1
0.679110650309378,0.021950722997486,1
0.540386994293158,0.0204899630577719,1
0.468201299344268,0.0181393868598017,1
0.289425884536356,0.0135995650880538,1
0.120108461302012,0.00740810536639116,1
0.0986750217123887,0.00863207755645961,1
0.0662626580791067,0.0068547300219511,1
0.0387459977051551,0.00839898603842012,1
0.0463304099149182,0.0105289448755309,1
0.0494801106218811,0.0129899207689017,1
0.0480520602226314,0.0131860418411676,1
0.0149236450076711,0.00522711841962909,1
0.0112850817738477,0.0124353157887584,1
0.0096900105144682,0.0116800410571715,1
0.0103676275964071,0.00957529456516203,1
0.00944952227990186,0.00738997748345943,1
0.00875944660539446,0.00429818982762219,1
0.0160716913338446,0.00872976273216309,1
0.0141674115226244,0.00746018665463391,1
0.0154966291565693,0.00460337498951996,1
0.0630616543873331,0.0128459516011885,1
0.0877598458069008,0.00814102365753104,1
0.0863242141144957,0.00729618862673783,1
0.102048416284237,0.00824495356183042,1
0.0996137360179643,0.00714431731869605,1
0.116177400745732,0.00711295819968513,1
0.117679293917872,0.00574788531889867,1
0.11959787229333,0.00588559679494843,1
0.14161783592431,0.00322348773512714,1
0.174279412480797,0.00363570485024735,1
0.179454446292578,0.00448555386178792,1
0.185798757770327,0.00615669555833777,1
0.173857486636621,0.00518383990749243,1
0.212133488776531,0.00611531545857667,1
0.167074637851884,0.00490467931655952,1
0.240876087475659,0.00559731618898914,1
0.411015963052307,0.0115088611330769,1
0.394207934290069,0.0120343825959946,1
0.431144890834688,0.0187791111741062,1
0.543090438443612,0.0284032982196686,1
0.524407141405366,0.0261781018951238,1
0.516972689650694,0.0265042989128602,1
0.412910388583908,0.0204687113484292,1
0.343161622050943,0.0197582448563448,1
0.124769169174981,0.00822787934049724,1
0.0921028453845322,0.0112169019688758,1
0.0981045471536086,0.0110195459791514,1
0.176238326489573,0.0144343930717848,1
0.233896237685111,0.0151823365302201,1
0.198309551271409,0.0136902843030228,1
0.176231472771995,0.012491363410508,1
0.125575434507362,0.0104394606818055,1
0.205348567364099,0.008370884466003,1
0.395773490460924,0.014357747580056,1
0.405899158123874,0.00711104297007188,1
0.486629343911933,0.00870305373817168,1
0.487943864839449,0.0073131875526058,1
0.478045261999243,0.00778787464217586,1
0.484003814055703,0.00818291973937591,1
0.489432042643183,0.00718813513394096,1
0.50680821159235,0.00741253197226855,1
0.513139260223137,0.00665259619244207,1
0.623612021419956,0.0114910745765582,1
0.738011346216797,0.0131557633105222,1
0.892266510836797,0.033082812039762,1
0.840287906636652,0.0352085246457833,1
0.822119591313285,0.0399769529735004,1
0.794279068850762,0.0529208385320631,1
0.525074030487714,0.042965474129205,1
0.225886570045716,0.0410656874353781,1
0.122317653879725,0.0269345318420262,1
0.0434094102927672,0.0110915373752382,1
0.0166120511214697,0.0150607098452239,1
0.0159526340427095,0.0114051459159984,1
0.0101600587631602,0.00622003948055415,1
0.0102927913157429,0.00599855345120665,1
0.0108726610844356,0.00578316208440015,1
0.0102353880264914,0.00551401966804944,1
0.0104319746860588,0.00443620171260814,1
0.0191224750243886,0.00844702687239507,1
0.0227791629094044,0.00823871341474031,1
0.022341465701644,0.00788363336389499,1
0.0370121748692569,0.0067031639993492,1
0.0556909156432234,0.00866084495703177,1
0.0547103855493684,0.00780829590645237,1
0.066314748588874,0.00309958044113708,1
0.131612202169071,0.00639326125078979,1
0.12254011541032,0.00567617939682595,1
0.156468199215556,0.00732024206397996,1
0.176490211699597,0.0065983969413675,1
0.167177718040371,0.00570395365596998,1
0.151872753411652,0.0043655115127263,1
0.147638179991268,0.0036961466045465,1
0.152639378079329,0.00339505552950317,1
0.161497628244365,0.00348092692956263,1
0.179776147845255,0.00569272517013781,1
0.200447343201713,0.00701147562687185,1
0.195747995020201,0.00495086119029368,1
0.365691318161173,0.00946728454046653,1
0.376823308783257,0.0092931422716631,1
0.314898822297268,0.00751988623768473,1
0.352022974225134,0.00925636078118563,1
0.337974089234943,0.0104756645583952,1
0.292446923974111,0.00937883135944698,1
0.320733950244312,0.0118942668091454,1
0.426597963692633,0.0133026978370293,1
0.530953169116844,0.0171682412793536,1
0.425951074043363,0.0100109785346744,1
0.546238203254128,0.013186164381652,1
0.473856736254585,0.0114057443301939,1
0.392052997858798,0.0105095289116916,1
0.373115100678282,0.00969183822710497,1
0.365693426408217,0.0108810852344571,1
0.363889451829662,0.0109384765141668,1
0.395207400433567,0.0106666289978015,1
0.370446326078124,0.0134003097261257,1
0.230675852824433,0.0091833246255664,1
0.197130114901145,0.0144476579422237,1
0.178404741336338,0.0156152541370793,1
0.198222741817125,0.0168747498068001,1
0.197381403658387,0.0182907111242026,1
0.164694888963635,0.0150149718380344,1
0.179949475886555,0.00841601789256257,1
0.206065512582369,0.00880059852438525,1
0.244457465644877,0.010831100550411,1
0.30092601027807,0.0130112065360575,1
0.402053203318904,0.0155311820382281,1
0.499842021103842,0.0182351033360954,1
0.531287768337082,0.0181348246069998,1
0.501949861113207,0.0229302906916426,1
0.406877264902951,0.0170771963942812,1
0.169669628097384,0.00673082339332803,1
0.109109482729803,0.0164811881961961,1
0.0986484146936188,0.0174175950928566,1
0.0684677797165722,0.0132232833828803,1
0.0544600848001792,0.00973726891485161,1
0.0489095871152805,0.0118286302190931,1
0.0554851281907359,0.0117036473636634,1
0.0437269660469559,0.0122620746897048,1
0.0276873021474634,0.006836208489116,1
0.0361255129493851,0.00579294778320962,1
0.0353504794398587,0.0042583207321836,1
0.0535475035380382,0.00722990076835329,1
0.055245229557333,0.00447057527982967,1
0.0566354133534529,0.00427787204594007,1
0.0517329100089369,0.00358593731429352,1
0.0564363524780257,0.00393835879075831,1
0.0525878990823799,0.00300567367224893,1
0.0484435707181185,0.00282335221207196,1
0.045298133243349,0.00331184250645813,1
0.0448443698852925,0.00428365430962738,1
0.0609906319471602,0.00745410208072798,1
0.0652439242674861,0.00873754409592042,1
0.0655302835239493,0.013475751833639,1
0.0558147244950602,0.0114166546043113,1
0.068104698759069,0.012533681151918,1
0.079460237277438,0.0103816578402059,1
0.129043424189195,0.0104042597765884,1
0.125758381514581,0.00918136922294524,1
0.154185603208097,0.00779208351214377,1
0.185498025091387,0.0084039664439374,1
0.195465601086208,0.00833473198442919,1
0.296081926534253,0.0115841715597221,1
0.412119262280066,0.0155030903686563,1
0.43127304550823,0.0122817317372311,1
0.375418117407141,0.0102698096117133,1
0.479248870939366,0.0117100925428967,1
0.536130994942529,0.0139082952197536,1
0.425099364945254,0.0117058331112343,1
0.432916270530908,0.0124000461539028,1
0.363872075162182,0.0101532681289433,1
0.257603010031836,0.00581621384041358,1
0.238185792995685,0.00484242468905911,1
0.230546269336392,0.00490756540435336,1
0.223383256844204,0.00578686141886905,1
0.138516985586688,0.00308446167658792,1
0.156805583538366,0.00561399201288705,1
0.157165123899341,0.00634755769255703,1
0.149583910114138,0.00703796239666829,1
0.117974956812501,0.00530314306958537,1
0.107226275633412,0.00617552978526476,1
0.0719431997940777,0.0082370554290061,1
0.0536535448023552,0.00993976138925194,1
0.0673890922576598,0.0103121386239686,1
0.0964955255326367,0.00501981976639254,1
0.160127069198979,0.00912221267437359,1
0.192085773945292,0.0125000203456499,1
0.20398018890959,0.0118789627258636,1
0.258907542957085,0.0141125162186834,1
0.339871419828259,0.0180188223247023,1
0.401940444924655,0.0204714151082775,1
0.411158493953611,0.021895464286914,1
0.387067546216185,0.0212538381026332,1
0.366654211102155,0.0213892388048944,1
0.310195766338594,0.03322068915099,1
0.437489376578194,0.044735908125089,1
0.441815844177228,0.0365997144606455,1
0.333581926789342,0.0344152383775284,1
0.313842452735345,0.0366822753656557,1
0.271888082644075,0.0237710185881144,1
0.201570597721734,0.0171239011320278,1
0.154948708668523,0.0136980023946786,1
0.0715496329002374,0.0042601880016251,1
0.0441310962076529,0.00470692958028615,1
0.0442308278402278,0.00441978615223495,1
0.0440777674017677,0.00394793439671115,1
0.0418409547851808,0.00534875175294269,1
0.0401732648817906,0.00509716462604832,1
0.0499775565105736,0.00606944775394541,1
0.0465838954905964,0.00756597018990815,1
0.044689473341356,0.00750757898975468,1
0.0417828937390847,0.00724630767610124,1
0.0330446246250783,0.00467590391169865,1
0.038960740153114,0.00597169076387414,1
0.0386395515013936,0.00647806002042449,1
0.042779827491799,0.00796559203832844,1
0.0462382097296438,0.00716465291181855,1
0.0481022297011406,0.00753212522419152,1
0.036361676713313,0.00468903051455403,1
0.0389360318649213,0.00368283966237031,1
0.0576067553836129,0.00792062436887824,1
0.0548910956051253,0.00626862785299686,1
0.0667443507694378,0.00269834867879796,1
0.140475069898216,0.00689721419858763,1
0.140014754018523,0.006305921272647,1
0.198224284238463,0.00875089180454781,1
0.186600307033129,0.00439150488849311,1
0.205307463359653,0.00322869840298863,1
0.21913040432835,0.00299116633649038,1
0.19759520174993,0.00254032578068113,1
0.20182211895163,0.00262466502527416,1
0.174241231681229,0.00190112386048009,1
0.169516724687125,0.00255351052107924,1
0.168931946660402,0.00199067472821615,1
0.174543008632331,0.00216562691098627,1
0.159654736208723,0.00170912495245767,1
0.139007563260359,0.00218264101771143,1
0.130145074356145,0.00451128775775364,1
0.111395931892913,0.00565633636841388,1
0.14868433161429,0.00223098613811875,1
0.284865657799347,0.0041871573645973,1
0.305922966233785,0.00423963343459755,1
0.32277949902006,0.00310403872901498,1
0.35897807923261,0.00358577719783952,1
0.360233507739984,0.00364460577377514,1
0.384182179511645,0.00215595042068851,1
0.594212841396173,0.00562059443623506,1
0.69549734631925,0.00699481280726354,1
0.734524252624004,0.00628548230366595,1
0.710201841020151,0.00786730085200427,1
0.790438926613552,0.011074262976615,1
0.619241591234187,0.00989021882689712,1
0.595519263940312,0.011790531703205,1
0.592690676743192,0.0117675027318708,1
0.339013726327375,0.00705488027018349,1
0.200603950152965,0.00623686158003012,1
0.326115666321718,0.00777265174744241,1
0.376586424333249,0.00573724151680534,1
0.344424173773046,0.00616266932995244,1
0.380669750224274,0.00749833756770021,1
0.427730108902596,0.00835702063740764,1
0.547122481090871,0.00840354550763702,1
0.54372139534361,0.00748953638999804,1
0.59638185097864,0.00947401260025333,1
0.503886774413543,0.007217739676649,1
0.392521783416949,0.00493531758151814,1
0.373320098015762,0.00531386892052346,1
0.335798345336236,0.00777795303665735,1
0.206372617091918,0.00414459188697635,1
0.188761991726183,0.0037775868337426,1
0.196018236747694,0.00428819465997818,1
0.192187459968516,0.00571838534606293,1
0.145418123015705,0.00513550083554614,1
0.13966695335654,0.00846736315223224,1
0.163301708302778,0.0112650610655642,1
0.17360227898141,0.0130262124218752,1
0.146534690457911,0.0218265917541475,1
0.109090627166014,0.0171087319988605,1
0.0535391503384351,0.00744108291714075,1
0.0316033214567677,0.0078065310162299,1
0.0355521670697327,0.00900626585431075,1
0.0963180501701677,0.0162369786155435,1
0.0990366411252162,0.0124715949261528,1
0.0980046206250004,0.0132110856773056,1
0.0847435187371895,0.0120584530216303,1
0.0768909294710961,0.010506340351977,1
0.0862913754773197,0.0109459401383265,1
0.109323460495248,0.0139386697524041,1
0.110884541314804,0.0117180428287659,1
0.115331217989239,0.0113528560312741,1
0.12160697995791,0.0089839906577785,1
0.0903563399187615,0.00750042461980806,1
0.0739398975470957,0.00839832898976884,1
0.0856353577041539,0.00910208426947715,1
0.0844557268625327,0.00752769269945509,1
0.0761020903539303,0.00647238837728941,1
0.0772612799583978,0.00639788043470669,1
0.0828269140271955,0.00703704874500067,1
0.0782520050384207,0.00656795962448316,1
0.0533241550992563,0.00359245448434138,1
0.0501549866873625,0.00457632574785422,1
0.0523433324835493,0.00495366059504327,1
0.0527029946227941,0.00503830545733474,1
0.0492970392672848,0.00475271196947431,1
0.0475343448198379,0.0050900459392742,1
0.0459076540076406,0.00429773664541831,1
0.0545324585552475,0.00640860938627662,1
0.055276816484472,0.00571432890787185,1
0.0471492521284936,0.00994459158957072,1
0.0211783727868573,0.00511149354764859,1
0.0204376798718349,0.00657395139520773,1
0.0197442926714833,0.00630551773114969,1
0.0157119631479231,0.00502906648352362,1
0.0155383145371614,0.00490644035663287,1
0.0158731834042786,0.00584044513394446,1
0.0169867248805827,0.00870449932283419,1
0.0156988856500467,0.0083434110148061,1
0.0160145729266374,0.0130113393701318,1
0.013766888258356,0.0133104313909111,1
0.0137863309656068,0.0123744035870952,1
0.0116330484734501,0.0113136229495866,1
0.0109396458775106,0.0119134187054581,1
0.00887169306868935,0.0150502652001015,1
0.00372474444819032,0.01473082526367,1
0.00416400346139174,0.0195677406554705,1
0.00461183510223747,0.0218763728740948,1
0.00443207417369706,0.0236630156546544,1
0.00414361188014763,0.0238521121955235,1
0.00430553097242369,0.02491360266519,1
0.00310481231237788,0.047400065745205,1
0.000145169906603747,0.037138788151888,1
2.82446191427317e-05,0.816286182207805,1
2.29767293360764e-05,0.835053872551928,1
1.61881719860987e-05,0.770197637404298,1
1.25400360585671e-05,0.703847175577671,1
1.01355708626497e-05,0.668091475202748,1
8.65894342375842e-06,0.649075326575647,1
7.00587727792403e-06,0.567270590664573,1
5.93165783207587e-06,0.389747870521018,1
4.62119044660682e-06,0.301054636943478,1
4.14043947083887e-06,0.281920743849269,1
3.08964611733115e-06,0.243543453042463,1
2.60220606247115e-06,0.217361901428484,1
2.50082088838608e-06,0.208619368114833,1
2.58637354488667e-06,0.211188206306095,1
2.65991765395476e-06,0.213180647082083,1
2.68016581264464e-06,0.214020511784853,1
2.78131826207866e-06,0.22210557732953,1
3.42120287840786e-06,0.311019646779748,1
1.86500566700841e-06,0.256149909386883,1
2.3380655888104e-06,0.262775170621666,1
3.48404232195629e-06,0.276474627530063,1
3.4700740524861e-06,0.259088536358594,1
5.05527405827602e-06,0.295149100370684,1
5.67546464344733e-06,0.293225412663187,1
5.65914461840808e-06,0.285198170433352,1
6.62892896064894e-06,0.307518476559953,1
7.26010127510591e-06,0.322057617087064,1
6.8172511074213e-06,0.312950436225292,1
7.2769563774544e-06,0.329798748286003,1
7.70111114671068e-06,0.378470615394711,1
7.01788760783352e-06,0.408893996787053,1
7.26402539818335e-06,0.477650982593872,1
3.6762781197538e-06,0.425622517191444,1
1.04520840750164e-06,0.257413402163575,1
2.35673202198776e-07,0.138921614174777,0
2.394089397401e-07,0.14660829810855,0
2.11116016807995e-07,0.144952135607336,0
8.03481579255155e-08,0.0908966214627906,0
8.67371124556016e-08,0.0963375544758824,0
8.67231868541742e-08,0.093334728294682,0
7.92934885758089e-08,0.0939111375420346,0
7.95950614003209e-08,0.0956960993709856,0
1.15472758108288e-07,0.109436099749331,0
1.00091764224492e-07,0.103052480150808,0
8.0701088368092e-08,0.0947286155622669,0
9.87486678180205e-08,0.104107874428473,0
1.03457192172658e-07,0.106429737502601,0
8.55678075549446e-08,0.106392352735633,0
7.4217885367545e-08,0.103814023384304,0
7.3969675447703e-08,0.105864096433813,0
7.62476810316049e-08,0.101886824950097,0
8.00100443228579e-08,0.102270244829891,0
3.80945410503992e-08,0.0763700421726983,0
4.01942989360305e-08,0.0764435940914888,0
3.62533537320722e-08,0.0748219336989001,0
2.73267090026657e-08,0.0686901556462673,0
3.08760662944849e-08,0.0717943652577471,0
3.73985951934628e-08,0.0757563987914101,0
4.51813353192159e-08,0.0819069601599932,0
5.72397921072422e-08,0.0907430843895485,0
5.5300791364489e-08,0.0874645655040947,0
5.88300957902527e-08,0.0890574095562521,0
7.89471310171063e-08,0.104578644564638,0
7.73634002179694e-08,0.110485647608475,0
7.66888440848254e-08,0.118246124139948,0
9.56560702530203e-08,0.127633653889128,0
1.21715549525792e-07,0.142899422500128,0
1.25280503491209e-07,0.128545279159179,0
1.31662662327799e-07,0.123689289978357,0
1.0786158139212e-07,0.106780405896195,0
7.25551685571119e-08,0.0873225312417226,0
7.50890709928441e-08,0.0886649557120566,0
7.87587454809963e-08,0.0906846550748874,0
9.10146115948576e-08,0.0985339436775217,0
1.06073756978463e-07,0.0982844603886917,0
1.32190721133926e-07,0.109312816177535,0
1.33721423242828e-07,0.109927496760284,0
1.13868194609415e-07,0.111404933064643,0
1.06731490985083e-07,0.113799509384481,0
9.81877445925243e-08,0.115765515375669,0
9.66622785097598e-08,0.116014510374252,0
1.17174132388283e-07,0.125762792627031,0
1.28299462475861e-07,0.124146739131701,0
1.62368836284869e-07,0.139155542091238,0
2.09463326430589e-07,0.166997705889654,0
1.82821979827775e-07,0.156210646036187,0
1.52097312672009e-07,0.148503367686876,0
1.44197374684643e-07,0.134976727547138,0
1.44110590336547e-07,0.138880235416503,0
1.61300241333735e-07,0.144031463860562,0
1.41492577268193e-07,0.135166202486342,0
7.23225553108684e-08,0.102572159911608,0
9.22934274251398e-08,0.122817051142041,0
1.07685227575643e-07,0.129440740676635,0
8.08793360663628e-08,0.104739998055999,0
7.10837338078857e-08,0.106304928808618,0
7.05673725069573e-08,0.108443445755009,0
7.50907420650154e-08,0.114260198555407,0
7.45832931490004e-08,0.114046532720395,0
3.98770180331082e-08,0.0896050157317428,0
2.60375325249213e-08,0.0781267726976967,0
4.06033774035621e-08,0.0925096657286412,0
4.22865926992965e-08,0.0940391660593204,0
4.18632544159032e-08,0.0916102509340452,0
5.78693406965726e-08,0.117064682128072,0
6.45158631506601e-08,0.115673583490397,0
7.97613887837701e-08,0.117375459540816,0
1.1554595106939e-07,0.127514581500161,0
1.21256561702744e-07,0.118887459004716,0
1.02328884242603e-07,0.104111712996141,0
9.98401007554954e-08,0.101297424816409,0
9.75527371674341e-08,0.101780956704038,0
1.05613098083244e-07,0.100939611286671,0
1.1155932989275e-07,0.102216703621261,0
9.77978277525564e-08,0.0932563895533355,0
1.00394896716363e-07,0.0958625549068386,0
8.53842124257254e-08,0.0899634509611051,0
4.33573043418474e-08,0.0685211491269165,0
3.39681068354278e-08,0.0662556997650443,0
2.8703561066997e-08,0.0656591882672097,0
3.9623015063072e-08,0.0731105326196924,0
3.8835717260772e-08,0.0725146704185631,0
2.2106613753991e-08,0.0586077636232507,0
4.27919249238944e-08,0.0785127956261412,0
4.89899316072078e-08,0.0846920608471449,0
4.05001051433763e-08,0.0790599288901146,0
5.89322540023242e-08,0.0891254038901672,0
6.20609467262242e-08,0.0902275279093668,0
7.77332641918815e-08,0.0947364195401705,0
8.26234897939436e-08,0.0957166268960453,0
7.65988289971986e-08,0.0956520024057118,0
7.67609229978136e-08,0.0974715354631258,0
7.63434891694257e-08,0.10099322565032,0
4.63747036591397e-08,0.0846109805092556,0
2.79603795700188e-08,0.0723999487773897,0
2.18843611552095e-08,0.0649037200237596,0
2.53236504933466e-08,0.0715316280272822,0
1.73145357907893e-08,0.0655678491189965,0
1.06559816170685e-08,0.0646203286629731,0
1.18618272958711e-08,0.0751977807467997,0
1.46136375427396e-08,0.0765262153286827,0
3.47523967078198e-08,0.101846877861327,0
3.74822602068387e-08,0.101221961382479,0
5.12898839389596e-08,0.104809020011235,0
5.75985156000123e-08,0.0969030614978749,0
5.39416526651734e-08,0.0920811237575368,0
7.61646844470976e-08,0.104040246697676,0
1.04496264848765e-07,0.114623107573494,0
1.06686929060515e-07,0.117954997383481,0
1.06686929060515e-07,0.117954997383481,0
1.34916908274168e-07,0.131978835345084,0
1.29309235686566e-07,0.124615802537987,0
1.41333825411921e-07,0.127859401500506,0
1.30875698739933e-07,0.121329434383833,0
1.5091920679125e-07,0.129695565682707,0
1.70588840295443e-07,0.133348068620978,0
1.29636320212893e-07,0.118695900989899,0
7.84102712308767e-08,0.0975528906407832,0
7.86268421842758e-08,0.0985510436101569,0
7.88273708448305e-08,0.0960598053633007,0
7.86129165828484e-08,0.096798905437764,0
7.49071469357965e-08,0.0973271390273781,0
7.26952044050663e-08,0.100726049898145,0
8.17438374029765e-08,0.110788123038696,0
7.17788998311419e-08,0.11192442405552,0
4.2240248297746e-08,0.0930251260535392,0
1.51282163666854e-08,0.0655259596574429,0
1.13983832803668e-08,0.0574972850580833,0
1.04349544712126e-08,0.0534901880168645,0
6.81296124234796e-09,0.0488427239864361,0
2.54398457116568e-08,0.0669270914448387,0
7.4395576041759e-08,0.101835195720176,0
7.52940558458556e-08,0.0983632040064985,0
7.43716240073037e-08,0.0945454542579289,0
8.09542000996368e-08,0.0947641960251619,0
8.59986099607031e-08,0.0974627818355077,0
8.60686835870859e-08,0.0959901872030583,0
9.56356831725305e-08,0.0992554221572729,0
1.21390247476447e-07,0.105022340458994,0
1.25001991462661e-07,0.102195815878571,0
1.32476697284839e-07,0.109574300427843,0
1.03471340583708e-07,0.0985063634010836,0
1.03209873491307e-07,0.0983874240042724,0
9.69417931816107e-08,0.096905895347566,0
9.53842425131572e-08,0.0991816999028628,0
9.20857688566541e-08,0.102492888727054,0
9.49828509776134e-08,0.10587493128245,0
1.05534557691194e-07,0.109300850575048,0
9.99024874498901e-08,0.10945597917565,0
9.63085682335033e-08,0.117037515959628,0
8.04088735477392e-08,0.103419650566253,0
7.41504854566362e-08,0.101634796429582,0
7.20766848920659e-08,0.100337532556437,0
7.54935818631077e-08,0.0986088753130055,0
9.63250561455929e-08,0.108297748316248,0
1.01609209160834e-07,0.105524067494292,0
1.24086578127228e-07,0.120211001628596,0
8.45735196130272e-08,0.108006990569585,0
7.50467371645045e-08,0.108974458333817,0
7.06306504398434e-08,0.111119988033079,0
6.83636739322716e-08,0.109515786455472,0
6.768065103346e-08,0.10907125330347,0
8.09645607470987e-08,0.112919891575024,0
7.98968570344561e-08,0.11495347306511,0
4.37102347844239e-08,0.0904145801676804,0
4.90265837901648e-08,0.0925544744445828,0
4.41755726817223e-08,0.0846282648874298,0
6.8517858191276e-08,0.104607612452947,0
7.03217248977775e-08,0.103479351174749,0
7.07344797240861e-08,0.0984771418766166,0
7.08707278084521e-08,0.0995760289344469,0
7.74391554897345e-08,0.101652405538538,0
6.51347168780947e-08,0.100209178043048,0
4.32013376058603e-08,0.0899815229838453,0
3.79118371596716e-08,0.0822815832283772,0
2.50601781143398e-08,0.0770790529470744,0
3.21603409605268e-08,0.0845740222207685,0
1.9223123020025e-08,0.0659578504134519,0
2.33384167538543e-08,0.0732399299744849,0
2.50967188924853e-08,0.0713038064461937,0
4.0582099084581e-08,0.0900865044658415,0
5.49701418841964e-08,0.105043993795045,0
5.04052183314788e-08,0.0984288461292611,0
4.79097505556861e-08,0.0916624003827251,0
4.74195693854413e-08,0.0912683638635739,0
7.54990406988673e-08,0.107072872745866,0
1.26545505124876e-07,0.13603689348056,0
1.14407393896685e-07,0.124342468830978,0
8.87896347011911e-08,0.108263559648579,0
9.22043035760045e-08,0.114687560959573,0
9.15866753014957e-08,0.112065714550872,0
8.98903142380138e-08,0.113342778559765,0
9.26615089220691e-08,0.110537982505549,0
1.03768123001329e-07,0.110260066962236,0
1.39692721134903e-07,0.129458163377682,0
1.30251831795985e-07,0.132789045740094,0
5.60271507349429e-08,0.0936026145821067,0
5.62785913943163e-08,0.0970656965866354,0
7.12277802290509e-08,0.114484927358017,0
7.29384011083945e-08,0.115611081821761,0
7.302362578913e-08,0.122077312849151,0
7.51219354122129e-08,0.117151909125825,0
7.03802124237726e-08,0.12019916657521,0
6.44000021467842e-08,0.122729606774294,0
3.95829093309613e-08,0.100168216221944,0
2.09168103680328e-08,0.0769033330443684,0
2.80463840844344e-08,0.0802416955185787,0
3.97126959362648e-08,0.0810176000782283,0
3.97656132216889e-08,0.0761100573080569,0
3.63682120926456e-08,0.0719656393931307,0
5.41600060955552e-08,0.0778697893456381,0
8.36806100495014e-08,0.0964371952945741,0
8.68489628862666e-08,0.0963706885748358,0
1.04851534792382e-07,0.10373481078232,0
1.12227758761266e-07,0.103919892760768,0
1.12723287362459e-07,0.104139999576876,0
1.0686785047426e-07,0.104628856806229,0
1.07088097786436e-07,0.109972624747268,0
1.06299797340833e-07,0.109557447003287,0
1.11524237377153e-07,0.112088446104009,0
9.81996649073462e-08,0.111382482099255,0
6.36428950483785e-08,0.0866317409508636,0
5.49693620505166e-08,0.0825765604852173,0
6.15819060371212e-08,0.089917842474837,0
5.83372409045337e-08,0.0914998353768289,0
5.00515080552225e-08,0.0806308682154223,0
6.24571022356313e-08,0.0872154383470842,0
6.1866656735109e-08,0.0901020417546726,0
7.06319872975802e-08,0.0947050638902734,0
7.39579779425039e-08,0.0976308132707721,0
7.70309682606942e-08,0.101375642811713,0
8.28462994167822e-08,0.109155059813106,0
7.53126604493626e-08,0.102355194168327,0
6.56391578642011e-08,0.0943325380486085,0
6.40234538841867e-08,0.0914862796546991,0
5.84513194314271e-08,0.0886927371043566,0
6.03007507057992e-08,0.0946214768426833,0
5.37357765736706e-08,0.0864639992347321,0
6.98120478855342e-08,0.0989030995715027,0
7.63657701317094e-08,0.0991273741204367,0
7.85532036039276e-08,0.0985374160032681,0
7.33840203540715e-08,0.0937948851253635,0
8.61724014665172e-08,0.0992556210081547,0
8.6874808802516e-08,0.101379078582936,0
8.3127596565616e-08,0.103065880882645,0
7.97046837347576e-08,0.107238763406862,0
7.75879923177908e-08,0.101741647110546,0
7.64941084744645e-08,0.10308279839334,0
4.86066990559254e-08,0.0880806566878664,0
5.00452693857828e-08,0.0934328827108088,0
4.76981928188008e-08,0.0937451248868941,0
4.81209740781372e-08,0.0966119201842763,0
1.98380775790596e-08,0.0712821360650942,0
1.47182466606623e-08,0.0713847368376358,0
2.6901142623044e-08,0.0866081316894962,0
2.75895129528039e-08,0.082084206385926,0
3.48905386739799e-08,0.0871375130606864,0
3.79155135184484e-08,0.0854005958452949,0
3.69614427134534e-08,0.084508862053945,0
3.46335277740355e-08,0.0845459932964761,0
3.26607713734222e-08,0.0849198218853981,0
3.49365488610961e-08,0.0871433725516926,0
4.01694556630839e-08,0.0975930378429476,0
4.05714042226847e-08,0.0900011941233201,0
5.54595432207615e-08,0.0999755944841711,0
6.57452152446722e-08,0.0993109536228538,0
1.44179549914815e-07,0.136609328140458,0
1.63554183478371e-07,0.142164015221737,0
1.63940201149939e-07,0.142327557212859,0
1.64267731295511e-07,0.145138925363749,0
1.70612012496218e-07,0.14512677432454,0
1.77180440177501e-07,0.145226129221572,0
2.66679946337056e-07,0.144466805738627,0
2.43692978341786e-06,0.350638172092726,0
3.77702149072029e-06,0.399046345199253,0
4.76360144514035e-06,0.424008148326547,0
4.83359486005888e-06,0.373980534783884,0
4.69584203090521e-06,0.366428693397931,0
4.39543795426974e-06,0.348480446157263,0
4.20134670933803e-06,0.335318186541536,0
3.97722429220165e-06,0.324984386407057,0
3.60587651760624e-06,0.310262143630981,0
3.52591460016191e-06,0.328547500344985,0
2.66247105223248e-06,0.344834893789937,0
1.76805139648792e-06,0.289081970038062,0
4.02793008071433e-07,0.149406520179777,0
1.85328031060652e-07,0.131843739169612,0
1.75245450007959e-07,0.138343973512472,0
1.3172003580568e-07,0.126271934968998,0
1.6141521109912e-07,0.141254585533047,0
1.6858622740537e-07,0.144537118295709,0
1.59335060460299e-07,0.146357766953329,0
1.20929922795662e-07,0.117499550045552,0
8.8060044591206e-08,0.0972223507468109,0
7.06808940097935e-08,0.0922070194654044,0
1.16175165444286e-07,0.112479840839406,0
1.37062119322859e-07,0.115320420921363,0
1.38017192771156e-07,0.115710882119427,0
1.35026530608605e-07,0.115436600779051,0
1.27288463812231e-07,0.1104287888394,0
1.2529153256754e-07,0.108032124819876,0
1.79089361621171e-07,0.111336300950341,0
4.18820929695141e-07,0.159100795315672,0
4.37227789661897e-07,0.16114035123919,0
4.27688752684118e-07,0.160063397168138,0
4.127855740365e-07,0.160986348369572,0
3.96783832543475e-07,0.165975040200009,0
3.72322343885703e-07,0.164083964499427,0
3.74185923571125e-07,0.165407433100897,0
3.51263826597545e-07,0.164902039482139,0
3.45261335358273e-07,0.163408200533522,0
3.03305726353703e-07,0.176037338249591,0
2.87142559288932e-08,0.0748619762563803,0
1.5283291864181e-08,0.06988468726413,0
2.06155717579549e-08,0.071151969895448,0
4.65835876805507e-08,0.100869841407798,0
5.79149052644431e-08,0.0939784759831018,0
2.49454534395402e-07,0.166860122084397,0
2.94433447172269e-07,0.164905503361392,0
2.95244474199402e-07,0.167445081965939,0
3.0728343514543e-07,0.173678520760911,0
2.966375913662e-07,0.1610660703058,0
3.11925896446895e-07,0.154662164063901,0
7.07910176658815e-07,0.209302022119134,0
8.99809977545091e-07,0.218292490369725,0
1.21088682450272e-05,0.232738904805054,0
3.18035945689449e-05,0.273956836819721,0
3.21201572450478e-05,0.222002572360238,0
3.18556256290942e-05,0.180876816166989,0
4.17650635519759e-05,0.167380735471231,0
4.00979293179602e-05,0.140395076836111,0
3.78272883719267e-05,0.138968482787515,0
3.44866573523057e-05,0.134799510035537,0
3.48267014889403e-05,0.13719978838585,0
3.29775594214588e-05,0.128108361994266,0
3.85202210629286e-05,0.15695489576049,0
3.1697608487553e-05,0.122140076049763,0
3.45020757782061e-05,0.136041946974839,0
3.67258824757334e-05,0.160501734610076,0
2.85915760593198e-05,0.176610721015302,0
2.93311346718306e-05,0.217540450825625,0
3.01991380186915e-05,0.219979191902776,0
3.14367546786387e-05,0.217665871212794,0
3.22730063173874e-05,0.207445572539693,0
3.96669124579398e-05,0.137851541177237,0
4.23223218933908e-05,0.119608446637344,0
3.78212261677085e-05,0.137954322675596,0
3.79905632635428e-05,0.134790188506046,0
3.78116588339086e-05,0.136550399429976,0
3.88136843970031e-05,0.122522392267358,0
4.58320636342694e-05,0.116819311994227,0
4.50968338785158e-05,0.109464370967957,0
4.33005399140706e-05,0.110257557820989,0
4.19161084233944e-05,0.109665306789544,0
3.65263252651342e-05,0.128651441040628,0
3.41623023552631e-05,0.128832555344815,0
3.43590168492893e-05,0.115201012860971,0
3.39679441844033e-05,0.115010473589092,0
3.46728655927813e-05,0.116827478402222,0
3.47901785355646e-05,0.138789836729167,0
2.55973043808784e-05,0.142767446356992,0
2.56922394391919e-05,0.158955307526896,0
2.64603494337974e-05,0.158569719989649,0
2.73977603176735e-05,0.158456159005841,0
2.67607809160164e-05,0.205135362103678,0
3.05952225632338e-06,0.12993065906996,0
4.0400865737364e-07,0.162485024165797,0
4.59235141728913e-07,0.175133948421961,0
4.8267816760069e-07,0.187254012219045,0
4.76031310932168e-07,0.184917193173549,0
2.83457845151238e-07,0.149936539456388,0
2.5840479694483e-07,0.143306471801708,0
7.96772892916296e-07,0.244131785037948,0
3.8464440673851e-06,0.358861140620245,0
1.51591481353856e-05,0.610236297907189,0
1.93812042193328e-05,0.481826640278071,0
1.86451944070897e-05,0.445810795761212,0
1.79439002279666e-05,0.43668831274608,0
1.70870137444277e-05,0.424524480870223,0
1.57099851034703e-05,0.405321453098213,0
1.49138720612521e-05,0.383142062220559,0
1.46788262909512e-05,0.380187687981904,0
1.61635837187655e-05,0.402797491341902,0
1.69730332537684e-05,0.505093002824874,0
8.08822058543051e-06,0.379796677377898,0
2.37957067675759e-06,0.24533842172505,0
1.99118576435183e-06,0.246825621246986,0
2.23461953711888e-06,0.267849113878883,0
2.32683787770113e-06,0.267647082022948,0
1.74927333568951e-06,0.239699265481559,0
1.08648210765552e-06,0.198324910374292,0
1.07983124041378e-06,0.195749623827076,0
1.01397049837967e-06,0.195258040331466,0
8.73306772908438e-07,0.184777079999507,0
7.37298765911228e-07,0.185493935112639,0
6.90383080487837e-07,0.181825028954074,0
7.85893544652333e-07,0.192861537636983,0
6.49495732219967e-07,0.17489687472843,0
6.87286917968871e-07,0.195937857762764,0
3.9337607076697e-07,0.161348017444378,0
3.7696491659198e-07,0.162792557567811,0
5.41705004287909e-07,0.183163523601201,0
6.10951449945868e-07,0.182176704390053,0
6.1699237584508e-07,0.183097773737083,0
4.99589417974142e-07,0.161887791892571,0
4.62399818206901e-07,0.167350239191539,0
4.7759810819997e-07,0.176949326711422,0
4.95786503331531e-07,0.185771675262566,0
4.89203036000708e-07,0.184542364840067,0
4.94948739149659e-07,0.181859347060828,0
4.92136881709436e-07,0.188338365052648,0
1.09696641445819e-07,0.104554384229514,0
8.64033436405893e-08,0.111399471451318,0
8.14302328588314e-08,0.110593410914201,0
8.1264351094628e-08,0.112988040387854,0
6.71895786247236e-08,0.10609684001082,0
5.6725101878485e-08,0.0923754798362153,0
5.21864698612622e-08,0.0805305070221823,0
6.60380984938937e-08,0.0903089813949292,0
5.07199369237383e-08,0.0896846604268369,0
4.8499750436963e-08,0.0922052884230162,0
6.36428950483784e-08,0.103816554000413,0
7.92413511240647e-08,0.106953467028689,0
7.75273881003787e-08,0.108143153077652,0
7.93410584302851e-08,0.107014920832229,0
9.39538047345333e-08,0.107163610591796,0
1.12477305538845e-07,0.117653318575203,0
7.92547197014351e-08,0.106925915053749,0
7.47205438766692e-08,0.111266046303683,0
7.52004758042634e-08,0.109035860297166,0
9.22253590853626e-08,0.113614391253474,0
8.81509509173243e-08,0.110236477290369,0
6.05128654667415e-08,0.0928015501154359,0
6.26214243324746e-08,0.0961775919172199,0
5.67331230249069e-08,0.0962331641167393,0
5.1504115391319e-08,0.0994128171672227,0
3.47333464850671e-08,0.083514960108313,0
3.0888877847798e-08,0.088143486787885,0
4.30525007778043e-08,0.0921936490877366,0
4.94631792461173e-08,0.0940281324359697,0
4.32066850368086e-08,0.0878157915420803,0
3.70011028263186e-08,0.077144196158204,0
4.45649324976328e-08,0.0849970713659767,0
4.50470925214556e-08,0.0817512065227575,0
4.73002548324111e-08,0.0772634353474456,0
8.24261918729199e-08,0.095661436536659,0
9.0121479221709e-08,0.0950569876175594,0
9.47805398400759e-08,0.0944798587983553,0
8.99852311373432e-08,0.0949893856289543,0
8.59593954670832e-08,0.0959085120583438,0
8.02171458672865e-08,0.0961196832498367,0
7.5373376071586e-08,0.100500458841806,0
6.1717374287807e-08,0.0900055167360726,0
6.19780615465283e-08,0.093786930905402,0
5.82258360931145e-08,0.0921896659663302,0
6.35224664472341e-08,0.0944617013488001,0
1.01456361759567e-07,0.122450321757817,0
1.03711974976373e-07,0.126493492751141,0
1.01354649166741e-07,0.131113932831398,0
1.10251883025933e-07,0.12604506428805,0
1.17009253267383e-07,0.130968181875018,0
9.37774509180565e-08,0.123541863024212,0
8.32633990307363e-08,0.119741080670997,0
9.64154054476543e-08,0.1312942637656,0
9.72772330687944e-08,0.128582493488251,0
7.89471310171064e-08,0.11990533554661,0
3.46553631170737e-08,0.0921097184101796,0
3.12587418217103e-08,0.085940535075432,0
2.70307064187246e-08,0.07509954465006,0
2.05157530469233e-08,0.072062543471614,0
1.63978970024312e-08,0.0671668882028156,0
1.86794675402987e-08,0.0645704449973244,0
2.12840006264708e-08,0.0674281290203837,0
1.46023856567862e-08,0.0585145299413968,0
5.27969682278396e-09,0.0492864942792001,0
2.9048804577585e-09,0.0499228414180235,0
4.30590736616778e-09,0.0478601067775197,0
3.09438004198274e-09,0.0448260853849221,0
4.82460816813609e-09,0.0473596190105379,0
1.38810395028462e-08,0.0563160349600729,0
1.49652311275789e-08,0.0562572517168258,0
1.6560436622292e-08,0.0606994056480419,0
2.16021727678843e-08,0.0660857996010705,0
2.25233791535107e-08,0.0633324130960575,0
2.31003446718513e-08,0.0646026583401115,0
2.3198046691466e-08,0.0633656427792587,0
2.83622167248082e-08,0.0666793689638027,0
3.66418223094913e-08,0.0722267061014379,0
4.7308164574022e-08,0.0786915015546046,0
3.0207080401912e-08,0.0683008393179344,0
2.76591409599408e-08,0.0674464561819854,0
2.97473127451845e-08,0.067883207676173,0
2.79822149130569e-08,0.0691950435229346,0
2.29248820938658e-08,0.0658951857898829,0
2.43776008347736e-08,0.0688924326947991,0
7.00017702793813e-08,0.0996701086341071,0
1.64859847868205e-07,0.140193754874326,0
1.6641205110571e-07,0.143878210053081,0
1.41568221135147e-07,0.135035808495692,0
1.46634020720006e-07,0.142880594398936,0
1.3122005101203e-07,0.132754224174162,0
1.30359226034193e-07,0.125209528827832,0
1.36603688523868e-07,0.116006395101763,0
1.1323753197197e-07,0.105952986782508,0
1.02879224011014e-07,0.0997311827531323,0
9.33768392161926e-08,0.10166867557649,0
5.57749302418896e-08,0.0837912121871226,0
7.62983702208008e-08,0.0973160100131203,0
8.29208292356217e-08,0.099267323479946,0
9.79016570367995e-08,0.0980930687788661,0
9.8476505863723e-08,0.102235560023741,0
9.44859855186832e-08,0.111548585866228,0
5.91684322025331e-08,0.0918169877518166,0
6.00026314304407e-08,0.0963556619442698,0
4.74718182419969e-08,0.0853280371330311,0
4.64276209445637e-08,0.0827524511618671,0
4.78651886311185e-08,0.0821320906280844,0
3.37413980441896e-08,0.0727000721692739,0
2.89379567902233e-08,0.0678590985242845,0
3.93600997081226e-08,0.0889452589939256,0
4.91334210043158e-08,0.0972949934756346,0
5.09961094512467e-08,0.0940446732472757,0
5.49353835830336e-08,0.0972237646833605,0
4.99622728012756e-08,0.0854032420607123,0
4.99818800480854e-08,0.0872412416585378,0
3.23549651660762e-08,0.0730910246003719,0
5.31395380229544e-08,0.0915543845446098,0
7.46914672208886e-08,0.10407879134947,0
7.489879157494e-08,0.102297697372881,0
1.23035473731487e-07,0.113967311171159,0
1.09790221487411e-07,0.104470332580138,0
1.06118318903031e-07,0.104278211134176,0
7.80011927633448e-08,0.0917033640155851,0
7.23966395104625e-08,0.093217735321812,0
6.58209705164375e-08,0.0892878014853477,0
5.64907061552588e-08,0.0841607110990706,0
5.45735407555436e-08,0.0836778920508371,0
5.29039168468024e-08,0.0857741751059612,0
5.06419535557449e-08,0.0917891971510653,0
1.30997575603626e-08,0.0630648309156058,0
1.46653293752382e-08,0.0616774973335175,0
2.15041365338354e-08,0.0624272503540577,0
3.89337534948208e-08,0.073969723244372,0
4.19313227556803e-08,0.0755109433900312,0
4.22486036586025e-08,0.0779992713810908,0
4.21835432487335e-08,0.0812648790842471,0
4.20080806707482e-08,0.0794704823977257,0
3.94742896398275e-08,0.077475794369393,0
4.28101953129671e-08,0.0784262860027402,0
4.22714416449435e-08,0.0772581936209948,0
4.4380557534734e-08,0.0847907727150837,0
3.90607549798387e-08,0.0843587856961597,0
1.88313122982633e-08,0.068175193236985,0
2.00194446120502e-08,0.0660262730242033,0
2.84834251596324e-08,0.06823029999231,0
3.79501604147998e-08,0.0739295862240667,0
3.83262630581513e-08,0.0765058592726927,0
5.93291893454112e-08,0.0902825994880843,0
6.2013599681371e-08,0.090196962463311,0
1.16031676047178e-07,0.114509127582506,0
1.28907844151022e-07,0.112786806963925,0
1.44744595118334e-07,0.121304285909055,0
1.55390995921621e-07,0.124492954281203,0
1.86205009736145e-07,0.139329395478821,0
1.9719899355106e-07,0.145564809941466,0
1.82823316685512e-07,0.137971760292338,0
1.81944889747471e-07,0.137644635906354,0
1.68723366728227e-07,0.134806471329723,0
1.78431627614551e-07,0.13632894966018,0
1.35215584573584e-07,0.125150370543717,0
1.17623427992737e-07,0.125992032519954,0
1.15098437941918e-07,0.122277274481515,0
1.14622182373101e-07,0.124453272600839,0
9.56022617291047e-08,0.114256283923804,0
1.12536127279274e-07,0.127273034809936,0
1.22665052733518e-07,0.126086089188449,0
1.45479866873702e-07,0.134297950140088,0
1.52146330789033e-07,0.132667084814776,0
1.6001652369175e-07,0.138168419256556,0
1.49110883892291e-07,0.131154877498932,0
1.45830235005615e-07,0.126508515442236,0
1.43973673823313e-07,0.133860052854106,0
1.24166789591451e-07,0.124502336504531,0
1.13846247861565e-07,0.11516199989025,0
5.78658871474187e-08,0.0829274067154101,0
4.46282104305191e-08,0.0831800261251288,0
3.70443278931493e-08,0.0779025210991398,0
5.32305557538839e-08,0.0917511859391696,0
4.72392049957534e-08,0.0833977799872221,0
5.4819633983969e-08,0.0927244316083782,0
5.34131482398002e-08,0.0898480669460941,0
5.68289311627276e-08,0.0851974115588041,0
6.8656000157436e-08,0.0910010660582008,0
5.75227603282472e-08,0.0873071187188412,0
4.78402339533606e-08,0.0805802524704823,0
5.90056697730496e-08,0.0866178761388409,0
6.21794814455742e-08,0.0870424110512254,0
5.49248001259488e-08,0.0855093937881582,0
5.59777984034842e-08,0.0879291847949413,0
8.10923420657967e-08,0.103822460972064,0
8.9563563926121e-08,0.110908963433069,0
8.63988874481326e-08,0.116331383600409,0
8.24452420956727e-08,0.116347191857002,0
8.34496678754291e-08,0.108334571186672,0
9.22934274251398e-08,0.108128881307669,0
1.08613786678823e-07,0.110805243652695,0
1.02990963036867e-07,0.109868494766527,0
9.04406540064253e-08,0.101548127973262,0
1.1100598219443e-07,0.113974411828624,0
9.57404036952647e-08,0.104525825508639,0
7.70773126622445e-08,0.097655347713081,0
7.84000219882262e-08,0.0966782621981136,0
8.05442303936135e-08,0.0946433813653268,0
9.08394832313063e-08,0.103510881749354,0
8.19917131083847e-08,0.108600563800871,0
5.03143120053607e-08,0.0960258818447026,0
3.98579678103555e-08,0.0871230297537901,0
3.83722732452675e-08,0.088016547436026,0
3.67897678990564e-08,0.0844902218642275,0
3.64947679584179e-08,0.0863624124099718,0
3.4632079511487e-08,0.0824154177714855,0
3.44743302985173e-08,0.080235633858729,0
3.62452211808388e-08,0.0838939981787507,0
2.75164313965128e-08,0.0737585215830142,0
3.90642085289929e-08,0.0787335283858635,0
4.59157158360919e-08,0.0807767373798876,0
4.73152944819528e-08,0.0802536201369392,0
5.08219837309984e-08,0.0811616407109881,0
4.76869409328475e-08,0.0804706007289901,0
4.35810052031775e-08,0.0790090146392642,0
4.3134494719009e-08,0.0803429576390182,0
5.01121122726346e-08,0.0813976154738137,0
4.56353099257496e-08,0.077502746142045,0
5.19541908294529e-08,0.0826710739370965,0
4.61825303594412e-08,0.0843772825936031,0
4.19099330318878e-08,0.0793414835531778,0
4.50248115591716e-08,0.0817883094617206,0
2.95832134579638e-08,0.0677415672722814,0
3.2246234070131e-08,0.0673456364199315,0
2.97133342777016e-08,0.0617863198707226,0
3.53794943912992e-08,0.0650521303746288,0
3.64350549794971e-08,0.0675083885875484,0
3.41294210023631e-08,0.0702193035171044,0
5.96238550716153e-08,0.0886959107372236,0
5.82731831379676e-08,0.0845739408786382,0
5.81778206193926e-08,0.0860547060484302,0
5.70289027992255e-08,0.0869246362306123,0
5.72197392411865e-08,0.0887477469262962,0
6.13697912761787e-08,0.093439915033045,0
6.97210301546046e-08,0.103081804309121,0
5.26713036005591e-08,0.0912073704153059,0
3.77273507919612e-08,0.0811817003206394,0
4.82368350820133e-08,0.0899203989683554,0
3.80024092713554e-08,0.0796519102328646,0
4.13062303588065e-08,0.0789224861496157,0
5.88247483593046e-08,0.0865773603761599,0
6.50849189273899e-08,0.087313047534901,0
6.34673210655816e-08,0.0863089911793944,0
7.5597856766596e-08,0.0934551485487869,0
1.59247719088146e-07,0.127100139441236,0
1.87801217874161e-07,0.131721522866956,0
1.88212970057167e-07,0.133764934158067,0
1.72774936909924e-07,0.130145380922116,0
1.74275002695685e-07,0.129724434321649,0
1.87760220903559e-07,0.142010119302805,0
1.72489406378257e-07,0.138485813142956,0
1.62449938987582e-07,0.132326375677993,0
1.79908409794725e-07,0.132862444802894,0
1.99917605164124e-07,0.140142671286139,0
1.05659331079983e-07,0.104218727573254,0
5.94429336578704e-08,0.0838496169439617,0
6.2079217115297e-08,0.0840666875141845,0
5.97872859299677e-08,0.0799637527471333,0
6.69038252834332e-08,0.0829866961420507,0
1.1846119217461e-07,0.108353728936786,0
1.18518231438057e-07,0.106682986416162,0
1.08037712398974e-07,0.110525234108273,0
9.42275263561905e-08,0.109247412421506,0
7.01613019693338e-08,0.101213671961378,0
6.80740214225814e-08,0.104304649778179,0
9.44430946662866e-08,0.114878369347936,0
1.25779040022311e-07,0.124034955251536,0
1.39112859091465e-07,0.127023155099163,0
1.71268743859535e-07,0.148124030313454,0
1.4995533236285e-07,0.150706071131722,0
1.55965287724487e-07,0.160891205505971,0
1.51951149559426e-07,0.150036557275552,0
1.61081553688919e-07,0.159695946642785,0
1.63592506733499e-07,0.150660650513192,0
1.57316405277381e-07,0.144903643943693,0
1.16593601915977e-07,0.134050722680153,0
4.2603427982973e-08,0.0969808810627152,0
3.95086023217447e-08,0.0969508219158292,0
2.55041262878457e-08,0.0798180038980157,0
2.64727911231366e-08,0.0728469849921357,0
4.33115169643541e-08,0.0879708872918706,0
5.52954439335409e-08,0.0998482973890136,0
4.43680801958549e-08,0.0888480458823535,0
3.76414576823569e-08,0.0851206935599319,0
4.83437837009759e-08,0.0889640216739209,0
1.03337654810005e-07,0.117387114958143,0
1.08270659859652e-07,0.111454538677687,0
1.02342141415162e-07,0.115699536684228,0
9.72335623827178e-08,0.108776339444726,0
1.06129905003418e-07,0.11553575318357,0
8.47545524315836e-08,0.106055776377469,0
6.5759475060534e-08,0.0944097854241375,0
5.98496726243622e-08,0.0943098641008099,0
6.73722825154514e-08,0.0936554396962082,0
9.0208040760182e-08,0.10916536172616,0
4.35854613956343e-08,0.0861068098484298,0
5.04989097778824e-08,0.0937904264413974,0
5.18674064813572e-08,0.0926260998632571,0
4.79783759195206e-08,0.089618388546358,0
4.48489033619405e-08,0.0870977430491296,0
4.767457499878e-08,0.0873646764088626,0
4.73555116188752e-08,0.0890953031309285,0
4.50222492485089e-08,0.0893185423451903,0
4.11969422388042e-08,0.0905585052407406,0
3.13549955787765e-08,0.086039593750408,0
3.78286177655413e-08,0.0899367694861196,0
2.78262481770698e-08,0.0800123839190826,0
2.96999657003313e-08,0.0843217175606444,0
3.21487548601391e-08,0.0832701955962986,0
4.57401418532951e-08,0.0932724270113072,0
4.0153301965428e-08,0.0920967765446915,0
4.17924009558405e-08,0.0827178348172869,0
4.49134067477524e-08,0.078511420979882,0
5.5536969564698e-08,0.085923319022706,0
5.47927854244169e-08,0.0809626606630813,0
1.01079256472912e-07,0.102779109816678,0
1.05748454929118e-07,0.104260615168507,0
1.00553425763013e-07,0.0978723943299698,0
1.02213914477218e-07,0.102484964043011,0
9.02312129609569e-08,0.0981097615533727,0
8.9972753798464e-08,0.0980031237169208,0
8.60431718852709e-08,0.102768652154198,0
8.08187318489506e-08,0.103661378160554,0
6.01933564675907e-08,0.0945473719418771,0
6.05235603286377e-08,0.0991292858223661,0
1.79539994083361e-08,0.0673386254439811,0
2.79041201402519e-08,0.0876583346940392,0
3.7943587530926e-08,0.105479679364803,0
2.82962650764479e-08,0.0910813430776242,0
3.34271250711757e-08,0.108479599609576,0
4.47217904721111e-08,0.116801092983034,0
6.91631148590167e-08,0.135265512204149,0
7.51064501434256e-08,0.131216070172422,0
7.92216324724435e-08,0.123171473908012,0
8.06878311955332e-08,0.121096459094812,0
8.40717523423945e-08,0.117312412734846,0
6.13261205901023e-08,0.0996893840220424,0
4.05053411695131e-08,0.0766151214568057,0
5.13606259942108e-08,0.0882279285894398,0
5.95503278960786e-08,0.0921058586569495,0
6.5761368942328e-08,0.0984148401489122,0
4.78095976302202e-08,0.0837552432671088,0
4.25668872048274e-08,0.0851744324167255,0
3.9345060058581e-08,0.0865540933695935,0
4.52805970061905e-08,0.0916525876769292,0
1.14986141892008e-07,0.13611302986318,0
1.28180147922831e-07,0.135310173478244,0
1.20939615014256e-07,0.146111461332675,0
1.32287866129484e-07,0.144111943322981,0
1.28760232775891e-07,0.129009527792704,0
1.0333019068764e-07,0.114085458898798,0
9.59403753317623e-08,0.11220905551246,0
9.69439098730278e-08,0.112757089374571,0
9.65268102590737e-08,0.110421813363151,0
9.62523088037364e-08,0.112414466106052,0
5.54157611298739e-08,0.0875436248452062,0
5.0345505352558e-08,0.0874810967619155,0
5.58890087687829e-08,0.0878683766567662,0
6.32319226990526e-08,0.0936556016888066,0
5.52241448542325e-08,0.091027669153696,0
1.04347428020709e-07,0.119274295218846,0
1.45848505394688e-07,0.134462688747864,0
1.46770380209183e-07,0.127947879653162,0
1.47461090039983e-07,0.132783587473767,0
1.41875698414664e-07,0.137836439252951,0
1.42107420422416e-07,0.130723350833129,0
1.60661334740245e-07,0.132628236924883,0
1.40930985613829e-07,0.126572599076488,0
8.64139270976742e-08,0.0985591538780845,0
8.89010395126103e-08,0.108326604052188,0
8.888767093524e-08,0.10882574233315,0
7.67573580438483e-08,0.10537652049928,0
7.72377355906884e-08,0.108034405918088,0
7.38385519846623e-08,0.103573405844867,0
1.44779464824308e-07,0.125421584430079,0
1.53142735422368e-07,0.120844591338252,0
1.52028687308175e-07,0.126032123688607,0
1.79221376322703e-07,0.138863749894161,0
2.08726606412673e-07,0.135327597295624,0
2.90240170070446e-07,0.1446331556159,0
3.48984484155906e-07,0.155813531235449,0
3.59968552942604e-07,0.157855039157301,0
3.80901517008293e-07,0.1546178981617,0
4.72206115327275e-07,0.167628524260314,0
4.30105791472671e-07,0.160379656953621,0
4.17427923933154e-07,0.162006938659199,0
4.31372241368887e-07,0.159286594055976,0
4.10458438930762e-07,0.145120000972258,0
3.85143700822329e-07,0.149804731573023,0
3.22390707407569e-07,0.146284362031726,0
6.84559728185326e-07,0.180971198094495,0
5.17504447979444e-06,0.411364671608399,1
1.65294156183379e-05,0.647392177323784,1
4.02249525269165e-05,0.919824914809625,1
7.08683633527344e-05,1,1
0.000112621677262059,0.910228800859036,1
0.000114044995381995,0.549492929769328,1
0.000105016099306095,0.432945418775365,1
0.000106784012894831,0.426158107478825,1
0.0001105930833217,0.443901898792304,1
8.14979726658197e-05,0.243621408185378,1
6.31564378067648e-05,0.16369044486975,1
5.12047974001899e-05,0.125398807326361,1
4.83284740061714e-05,0.115595164695346,1
4.54499269721169e-05,0.107686362661552,1
4.84698828070214e-05,0.0934737379635813,1
6.28403966165841e-05,0.0935602849459075,1
6.29705977591909e-05,0.0908533593013461,1
6.36611961851792e-05,0.0948779017120553,1
7.33845684657438e-05,0.0912651255456781,1
0.000125676522641127,0.129746901242004,1
0.000156413975838505,0.182335424634315,1
0.000167309630201907,0.193460612703176,1
0.000141057973173245,0.181282186522084,1
0.000113070450934972,0.167553224956379,1
6.96050919471943e-05,0.148626079074619,1
7.30399340052593e-05,0.185423185937078,1
6.75514994355816e-05,0.184488536940096,1
5.32588154781823e-05,0.142870480232651,1
5.50307758466933e-05,0.192200139646893,1
5.41083226184176e-05,0.162208791042213,1
4.67971814517695e-05,0.12793156921401,1
6.86383175401483e-05,0.11750294028021,1
7.89635052962888e-05,0.11212873907747,1
0.000176419482371789,0.13844570215318,1
0.000267192238577247,0.168036006741592,1
0.000231993268998565,0.151807073283117,1
0.000222649709698596,0.107092371957495,1
0.000351988950154426,0.102495239373465,1
0.000323107678917373,0.0758644075279242,1
0.000374802677540674,0.0676395970066419,1
0.000304198198764749,0.0528302449347731,1
0.000424048650714562,0.0521389742582047,1
0.000391212047901824,0.0300296740455132,1
0.000428435511055377,0.0305586734286066,1
0.000468262047669262,0.0300580691724106,1
0.000409167262848058,0.0252989211489815,1
0.000368123317404373,0.0254052823128795,1
0.000400706791106416,0.0271371845232478,1
0.000644056828452256,0.0352559234153757,1
0.000846447059506664,0.0455102863298895,1
0.00125970664007165,0.0558222302998979,1
0.00135261700506147,0.0437008578490839,1
0.00286043253094922,0.0286951130287735,1
0.00994483985275374,0.0418587415313295,1
0.0304799958395321,0.0574274626409265,1
0.0429459944300386,0.0515886099980348,1
0.0807308120385081,0.0399200163122637,1
0.0857322589521114,0.0270083729745693,1
0.0870028279343911,0.0257918022026148,1
0.0903038483766278,0.0259350700174065,1
0.0827613230960286,0.0229238458900394,1
0.0719262813848311,0.0172411000474543,1
0.0494137875638052,0.00937505567029198,1
0.0468583466087836,0.00338623829960152,1
0.0606120706460764,0.00351737004974314,1
0.0579035261154263,0.00310260773312338,1
0.056431934102712,0.00333177614250606,1
0.0532187037688689,0.00356742360280689,1
0.0526639987597801,0.00390918490878532,1
0.0692402932840227,0.00563457177448275,1
0.0714664452104682,0.00573290630456036,1
0.0672641706408694,0.00515959509044551,1
0.0735727525904216,0.00658483989585535,1
0.0707077666830283,0.0179961431585308,1
0.0340672303470149,0.0151888538933216,1
0.0352544481979723,0.0163086887153645,1
0.0282940654538411,0.014286176844601,1
0.0190173180751996,0.00901005726446548,1
0.012734859506163,0.00461490818345442,1
0.0131438634955677,0.00598299746937249,1
0.00908126384060436,0.00597926281892046,1
0.00810660696384549,0.00799177882198944,1
0.00811675274930389,0.00793542241228052,1
0.00740003661753829,0.00731816411031902,1
0.00858794049353133,0.00303542054563866,1
0.0243638001266066,0.00622637549615684,1
0.0292022075925249,0.00516584117140052,1
0.0294174776808535,0.00518051861651395,1
0.0345735840306313,0.00566413115648671,1
0.0389119009458666,0.00409460627797363,1
0.0407361557355011,0.00442934611171563,1
0.0473415580102781,0.00426496712181761,1
0.0543728445362481,0.0035323549680678,1
0.0623834319774364,0.00442744907949227,1
0.0635155277964099,0.00494940171402165,1
0.051683042973101,0.00441427698989091,1
0.0482750336818419,0.00491473849422663,1
0.0465072769599926,0.00427230879053279,1
0.0440698412467747,0.00442509367459155,1
0.0433467616360857,0.00527252620478285,1
0.0444117521911606,0.00496350727855658,1
0.0363660223054125,0.00560956748231269,1
0.027251286098243,0.00652279158562788,1
0.0251894466404802,0.00510556838789511,1
0.0241027959513877,0.00717963425974726,1
0.0266504313880102,0.00815441146575084,1
0.0266479989756919,0.00634869500028188,1
0.0283046554169669,0.00965735448641463,1
0.0194568595016033,0.0059367168433575,1
0.022574510814989,0.00764831505415213,1
0.0298024939763483,0.00942471689756272,1
0.0294376374080751,0.0108774988684801,1
0.0283657926529274,0.00793393800666544,1
0.0872820645892966,0.00960288710313971,1
0.242846885270176,0.0206370978003131,1
0.30085307630274,0.02187354295671,1
0.428845928006599,0.0282075015570654,1
0.462079565158634,0.0294301134371531,1
0.496556141482312,0.0294746702982594,1
0.578566360592034,0.0298536532817146,1
0.70434898134156,0.0329334773485658,1
0.542171125093104,0.0266097558164264,1
0.330740744292248,0.0151653422351766,1
0.279080081832659,0.0154760444909779,1
0.353364095104901,0.0195605917351866,1
0.349796398015581,0.0170422532124982,1
0.347301484478725,0.0170022690183124,1
0.374175556376069,0.0146685494210194,1
0.369242500378773,0.0147034421337882,1
0.350863427922513,0.0169015883045716,1
0.199156382882834,0.00940790126207805,1
0.132831781811969,0.00590385174779936,1
0.109336543294768,0.00588945380991875,1
0.11974707905677,0.00588895800581958,1
0.106018852559513,0.00429073494312425,1
0.144567192587206,0.0059589511630651,1
0.19402667887846,0.00915513414180483,1
0.194119367333978,0.0113394938956762,1
0.129261596625973,0.00760331975756931,1
0.152757372772211,0.00963407144195654,1
0.161992409135679,0.0107531907111736,1
0.191660363019944,0.0121203704817867,1
0.177790329915085,0.0107362080386289,1
0.17281038442542,0.0102819410831102,1
0.10488718756634,0.00635161037863728,1
0.0842070548574794,0.0139730170326791,1
0.0874333526791424,0.0162099686371496,1
0.0585033734448668,0.0194675941431946,1
0.0213378417370735,0.0173870096474006,1
0.0186351022063429,0.016213411107236,1
0.00883930684946046,0.0109255149237461,1
0.00965826586719292,0.0177663575340893,1
0.0105669439074701,0.0132941646859301,1
0.0116825948444619,0.0133541636626149,1
0.0108837342259367,0.017684387537763,1
0.00849884050017658,0.0130419261066415,1
0.00926881830517659,0.0103188300901014,1
0.0113976560939271,0.00892041977557773,1
0.0131135137724453,0.0050095278508393,1
0.0150836540076389,0.00527583437412063,1
0.0154460722800829,0.00484055628057278,1
0.0164158146762955,0.00498391847277143,1
0.0146792649006061,0.00609779521524535,1
0.0119310026103369,0.00546395622053784,1
0.0136456013175639,0.00516794474302607,1
0.0197095969584348,0.00782376420821264,1
0.0187135356426447,0.00671361354298804,1
0.0172597315390247,0.00513999861925961,1
0.0327680944992657,0.0113181774036287,1
0.033520199020317,0.00829912794688833,1
0.031628713897504,0.00830873524515746,1
0.0274703082729918,0.00723494622627264,1
0.0255690629834514,0.00639921263242401,1
0.0300346309661318,0.0067400712014008,1
0.0335917899057014,0.00808861748464147,1
0.033674478219727,0.00837920581933389,1
0.0308413038798109,0.00883683104874098,1
0.0274750415674265,0.00808953144175918,1
0.159652841643349,0.00650756027085469,1
0.345682876750238,0.0145257024142369,1
0.357063225865965,0.0155424706618028,1
0.369155191421856,0.014302372990649,1
0.322522104150176,0.0123105569030769,1
0.304304520575123,0.010870688865931,1
0.297038927726506,0.012092850560346,1
0.368240769163233,0.012271102130642,1
0.382152448568099,0.00867305544737016,1
0.271103851464751,0.00566753297485205,1
0.249710644038889,0.00883273510974347,1
0.239241174734933,0.00966990725361316,1
0.234923055113736,0.00959197083678812,1
0.241920581453129,0.0123773665065028,1
0.194867833491978,0.00990132377171941,1
0.187191925960641,0.00744059377253188,1
0.203565420445772,0.00450223336846495,1
0.169905200286501,0.00487862261850893,1
0.132146261331476,0.00545205971821074,1
0.131476049771968,0.00526287970556325,1
0.18061011517792,0.00807341468110505,1
0.178400153392095,0.00673496303706758,1
0.173940594233795,0.00663450067519656,1
0.161028414999801,0.00527267769694692,1
0.120890394650263,0.00348624845629777,1
0.11803589669974,0.00502493972292604,1
0.145594785008749,0.0145975475810309,1
0.143368664727732,0.0186213247371224,1
0.170871599755752,0.019905327599259,1
0.187315000650537,0.0240599910389591,1
0.238653647052977,0.0315108082124218,1
0.245452140386528,0.0801215016817845,1
0.175503106898395,0.0440033608253272,1
0.133991974971588,0.0367825125334627,1
0.113674984940501,0.0349447491102108,1
0.0676922371984624,0.0284733515811068,1
0.0566847093292281,0.0267569270836651,1
0.0475677232114313,0.0232071815968626,1
0.0350493202454805,0.019570614298149,1
0.0192821481067654,0.0112564677967235,1
0.01331047028674,0.0100198187530383,1
0.0131058548169906,0.0100401896707121,1
0.0092296434263281,0.0115467672299816,1
0.00256745314739674,0.00923097838498788,1
0.00650994905820296,0.0241928699181644,1
0.00825657978943745,0.020810861118154,1
0.00853370367159021,0.0212317858478513,1
0.0086797299692603,0.0223327536010713,1
0.0069240369278592,0.0151979264585282,1
0.00735882449539129,0.0130797510578341,1
0.0122716604503432,0.012267014583838,1
0.0143376139719307,0.00567482013565883,1
0.0178405997880453,0.00577293561545976,1
0.0195083289522735,0.00598689277994581,1
0.01826104807199,0.00512934131796767,1
0.0188369862157167,0.00538901137870862,1
0.0201711756331664,0.00582140001469679,1
0.0212248388013535,0.00502614530818085,1
0.0217494506054763,0.0053818865684073,1
0.0185980725951367,0.00466845342674351,1
0.0168706479598109,0.00432147280150783,1
0.0163674574704315,0.0114390454241474,1
0.0122912249194879,0.0106993780507506,1
0.0118957400116773,0.011630962187552,1
0.015889151118286,0.00873509450347659,1
0.0613890932573174,0.0196977368159529,1
0.0726873731748821,0.0154825609810594,1
0.108093861595908,0.0155048947425144,1
0.195847618964986,0.0238692376365399,1
0.227092792163271,0.013618674689521,1
0.209835748716511,0.0123185444426503,1
0.208368860436965,0.00970258978755029,1
0.216792523025267,0.00927200528080059,1
0.163485611231459,0.0069263236162479,1
0.164724000913685,0.00584303706557147,1
0.226520741874674,0.00935702458112828,1
0.279086395669264,0.0122501096296752,1
0.441606766585166,0.018180210201545,1
0.470538879892572,0.0161041733980382,1
0.455124346638455,0.0184159746955948,1
0.335983203608522,0.0149289838533514,1
0.293466776421941,0.015568432399723,1
0.285415552954276,0.0142285681909234,1
0.203638966902919,0.00941231480024819,1
0.195938108553778,0.0122198046673357,1
0.201812031277149,0.0123241430158603,1
0.220564840751404,0.00963951651061144,1
0.143782895712354,0.00477014642593929,1
0.132464556753453,0.00495329725385332,1
0.162835712379035,0.00684551716954093,1
0.139742672540276,0.00534166315525656,1
0.152247838775225,0.00584926114470511,1
0.137529423921818,0.0052452226012103,1
0.19172148423411,0.00670607133934451,1
0.369603799537415,0.0129289486354218,1
0.474757491774785,0.0143765416825644,1
0.489471728256053,0.0205754769729439,1
0.541115832004791,0.0257443267549316,1
0.6597041292602,0.0310678127057166,1
0.593034598003108,0.030978588906407,1
0.542613495556127,0.0307053076458227,1
0.311298457070599,0.02181137994973,1
0.125558592607041,0.0111028873527018,1
0.0653442107859256,0.0132685730767655,1
0.0818105581611897,0.0120264240000583,1
0.0756253046728932,0.00742248398023336,1
0.0578848898755151,0.00497409171956482,1
0.0477911654412556,0.00535439408018212,1
0.0556560675703925,0.00575613080621882,1
0.0661980972653401,0.00713152986747781,1
0.0700421439779414,0.00761459551223131,1
0.0713847251566556,0.00774682482370796,1
0.0766231952404244,0.00839073538028679,1
0.0802297378372602,0.00937962865524505,1
0.0309442308011235,0.00475167003164769,1
0.0146004609573019,0.00929862387193793,1
0.0214984665230145,0.0105308825919439,1
0.0202091708203981,0.00938733166278924,1
0.0226898237539829,0.0173404906564,1
0.0198760983228892,0.0146718408976288,1
0.0210518379497458,0.0153415055229201,1
0.024273633553391,0.00423113116239594,1
0.0955236835337253,0.0120358708647046,1
0.100110436464088,0.00759009013857712,1
0.111908704119954,0.00712727187022404,1
0.113163639462959,0.00548997519690298,1
0.118806246184723,0.00576655028643177,1
0.120218602263723,0.00527877724448861,1
0.145351002980977,0.00522912755424008,1
0.17529877749158,0.00673008279014297,1
0.150784975062114,0.00617481415813598,1
0.124858890696781,0.00554761851513089,1
0.112998159464612,0.00569317224112704,1
0.130305491282543,0.00787040262631398,1
0.133012187878643,0.00890787208828698,1
0.167523788040975,0.0112121049206815,1
0.220639861878384,0.0155121253718351,1
0.188213986113609,0.0120586298448704,1
0.28226723816227,0.0156654070802702,1
0.566931623226544,0.027410429674434,1
0.6700891655054,0.0210224758258063,1
0.614377827402526,0.0175338386546252,1
0.490006754267506,0.0128152977485611,1
0.491859680556348,0.0125190792749392,1
0.4230786375953,0.0127837730312916,1
0.411922475717264,0.011609817186792,1
0.431818432913,0.00971212449639668,1
0.431759186203321,0.0100959158918683,1
0.432388373088523,0.013043214791002,1
0.288121523019998,0.00899135152153874,1
0.234855662952926,0.00865582280000951,1
0.245836186777586,0.0101378159153374,1
0.207014000691178,0.00931263798599929,1
0.194313075759893,0.00926703735640661,1
0.196114276546918,0.00623176751668957,1
0.177100147644778,0.00623262991419693,1
0.186944413281625,0.00870319106550414,1
0.18571167646424,0.00804954640052631,1
0.183017910973411,0.00719966844920793,1
0.196766354776464,0.00889431339084957,1
0.150819262800049,0.00622631038887749,1
0.115298060176721,0.00428011932426897,1
0.122212188580288,0.0049302329575415,1
0.113175455105497,0.00477474414763537,1
0.104639110890552,0.00712897190503744,1
0.0838060259440398,0.00751604646724121,1
0.0837981419709189,0.00826359190224861,1
0.116749043094307,0.0128957332352928,1
0.135923977542488,0.0153527388824925,1
0.172873223192073,0.018336315144708,1
0.246914121126048,0.0275920219416474,1
0.262957701766267,0.0316316030666382,1
0.311222155770878,0.0389741483213652,1
0.317921535364714,0.040127392692034,1
0.261569361486271,0.0488890729614482,1
0.130671354843363,0.0510350843661252,1
0.0943058012914082,0.0437519807746434,1
0.0731698904485347,0.0355390645399642,1
0.0551180413272147,0.0281157380306766,1
0.0321670101911806,0.0137722039219142,1
0.0332171309483886,0.0133441875984897,1
0.0203718827178847,0.00905013094317626,1
0.0181405389875537,0.0101405089444123,1
0.0253754346795425,0.0167871361294521,1
0.0255905440864834,0.0106501375231802,1
0.025460641455297,0.00965713689615083,1
0.0221492323397126,0.00858931443433112,1
0.0252219261138916,0.00927712809095498,1
0.0175319925812176,0.00723020624863807,1
0.0113432327797746,0.00618955512560199,1
0.0112833440848299,0.00634589355350635,1
0.0149280943804823,0.00848810735823505,1
0.017294275933146,0.00524687150576137,1
0.017450229720329,0.00486410516516551,1
0.02245569305701,0.00590060594915724,1
0.0287711194512499,0.00378125309762742,1
0.031393750298835,0.00358061086090851,1
0.0848461338793257,0.00429418260640895,1
0.141343328065424,0.00335934899011552,1
0.151497171512155,0.00392846562821316,1
0.157644593930889,0.0038518181936463,1
0.169306195636311,0.00312172418259561,1
0.19951608714524,0.00437327530643001,1
0.21121533693292,0.00473494614088829,1
0.221605280782984,0.00560642662886789,1
0.218771574688964,0.00561454363001974,1
0.23424866170013,0.00529224512227776,1
0.25176814060779,0.00858958527088799,1
0.234714174925987,0.0154747525652323,1
0.351940497225203,0.0144079060559759,1
0.554587559853459,0.0193042233084608,1
0.573412660942678,0.0272993303293502,1
0.503226688707502,0.0255789674604412,1
0.426656052015084,0.0255253268970824,1
0.299704605602776,0.0178151495851872,1
0.149091859384777,0.0106065271798047,1
0.107691708367844,0.00688140642155755,1
0.251319474809827,0.0130205135503459,1
0.26252041019334,0.00789916327863888,1
0.294147486674512,0.00902198318131837,1
0.337930884697234,0.00904477111191758,1
0.32683947969641,0.00890621119841603,1
0.325101848932652,0.00952118104623255,1
0.32284305025836,0.00914916466640032,1
0.322218972892112,0.00760225645451164,1
0.379736959671244,0.00887748873465726,1
0.402976382255055,0.00638929413034842,1
0.353992831435847,0.00688250696767416,1
0.278727198848532,0.00510302340311811,1
0.255274068856362,0.0064516293640888,1
0.217221732991156,0.00590537389241664,1
0.300412491352259,0.00783890162565467,1
0.347139767683216,0.00425871109114432,1
0.402606554338758,0.00464561880917015,1
0.396080710709934,0.00547876794271041,1
0.351583851461911,0.00477030102660735,1
0.328242848595199,0.006318621442772,1
0.275795381816073,0.00505118099830325,1
0.26439829438756,0.00599717660336671,1
0.309879230601957,0.00571747954955083,1
0.392829222489518,0.00798747007314606,1
0.284532519560968,0.00593545482826501,1
0.291202966946948,0.0124114936826726,1
0.36229022025118,0.0183610068959704,1
0.380485841717665,0.0189309917195603,1
0.26752414333799,0.0165495066553317,1
0.23582907529356,0.0163733196344187,1
0.242275783156396,0.0162501263127754,1
0.109919011136739,0.00914926687717432,1
0.0546366303736359,0.0131534570188306,1
0.0634318227453702,0.0144657611037669,1
0.0572622128148302,0.0174929152323689,1
0.0400220438642141,0.020378001548105,1
0.0380159938442733,0.014963567234505,1
0.0297616176188336,0.0116190219427984,1
0.0247450637654001,0.00875108555270278,1
0.0320577140768804,0.00885376326369023,1
0.0385909587229259,0.00927672234963577,1
0.0375437141172143,0.0104680196623641,1
0.0381720396821327,0.00650822469017508,1
0.0527079085473189,0.00840014071462813,1
0.0462551513321467,0.00683559346968538,1
0.0389247612963811,0.00504102956974603,1
0.0349540830589895,0.00395866424205243,1
0.0458019497403159,0.00585098477673761,1
0.0484673634086008,0.00253823943041906,1
0.102488990210433,0.00691690989504245,1
0.112106825769379,0.00354386477309607,1
0.116797290775873,0.003739382313816,1
0.111291538622369,0.00456230750214876,1
0.108632454350265,0.00448408372207047,1
0.113816018262575,0.0049385245033471,1
0.107689499689474,0.00453442723944977,1
0.107793618029876,0.00491555758456613,1
0.149123783072173,0.0069865465836032,1
0.156405754644691,0.0081395767157118,1
0.143085887089166,0.00590535547640348,1
0.272205120118572,0.021682451634194,1
0.31878207489535,0.0181386357560097,1
0.396076036183654,0.0175978287234843,1
0.41839487260707,0.0167077632250602,1
0.395818464764215,0.0150122991830504,1
0.301141062120696,0.0102499934408132,1
0.206672974830502,0.00702432589487251,1
0.203437093586625,0.00673129652274893,1
0.221592334360778,0.00830662384133327,1
0.220034888872169,0.00886645097569618,1
0.305409916808958,0.0121894453981161,1
0.340392400466415,0.0148907665427323,1
0.311088816999099,0.0143716866902381,1
0.305219607645078,0.0129315944911873,1
0.301448445396834,0.0120815756598378,1
0.258246853757701,0.00984068050542905,1
0.164441627753125,0.00493346727069154,1
0.150687076334578,0.00437200851158379,1
0.159761233389209,0.00470924234008123,1
0.201490947632484,0.00495551760883888,1
0.204668798316415,0.00419593503721231,1
0.16779435038082,0.00304096754394078,1
0.161817472072013,0.00321093090954062,1
0.151091756110578,0.00355086853833587,1
0.150984065401886,0.00404971220856958,1
0.167936993769791,0.00407243856517484,1
0.236296191566028,0.00679292291931009,1
0.258262894383038,0.00497644432877037,1
0.275958152757776,0.00529725102354561,1
0.256755396687948,0.00592956794857032,1
0.242473745043857,0.00554579192779218,1
0.283680041659926,0.00614357619130293,1
0.26332011746849,0.00609910928068345,1
0.26838738733673,0.0063032385971699,1
0.254740074952556,0.00603677834969575,1
0.232659949229866,0.00809547848015073,1
0.171337483977789,0.00485339742707425,1
0.210030430080416,0.0119267317309833,1
0.171601428164305,0.0088967369937826,1
0.164205586734015,0.00856384661167196,1
0.124720961924561,0.00895465987259255,1
0.190482608076038,0.01494780099007,1
0.236452639907131,0.0174115839600937,1
0.252952328072191,0.0182191675075627,1
0.300284582807149,0.0208191137699538,1
0.29558072856627,0.0223123406835445,1
0.186927673554444,0.0173463225414449,1
0.182815255256447,0.0230685609812927,1
0.159068625619252,0.031256460872794,1
0.0645242360505331,0.0204043156278856,1
0.0302851431965228,0.00954750789687923,1
0.0189164691730176,0.0116411717617826,1
0.022998074528692,0.014143818957824,1
0.0186148112758924,0.00903630621499112,1
0.0185696205864682,0.00947473700135766,1
0.0242889549479288,0.0114309303611247,1
0.0270063345497788,0.011037779980313,1
0.0234705410086497,0.00967830846517594,1
0.0201906960828166,0.00604741306704619,1
0.0269085247108051,0.00783735725013005,1
0.0235507135168371,0.00703225769295778,1
0.0237227499726419,0.00595132757115582,1
0.0358529893867674,0.00900071225721378,1
0.030567256254254,0.00821002735005016,1
0.0347191821444658,0.0107751199914271,1
0.0438150846538257,0.00477286037939136,1
0.0537851391885732,0.00473707196845631,1
0.0510548516121001,0.00485440381811224,1
0.0532723723799274,0.00594663725200043,1
0.0542259452054154,0.00526790374468168,1
0.0671639295664578,0.0059768106513584,1
0.0703250835046319,0.00500363233412006,1
0.0640628988132,0.00452612900724161,1
0.0670312731822359,0.00410751752159902,1
0.0697626503370906,0.00377781647057461,1
0.0633495334842703,0.00510168438561549,1
0.0620739693367325,0.00612950588275825,1
0.0666531879886639,0.00585625814986226,1
0.0746265190164976,0.00567275229778587,1
0.0812951352915018,0.00721830678210937,1
0.148319858737556,0.00848239843444783,1
0.31719128418749,0.0241635042568982,1
0.437366972087834,0.0324114747123011,1
0.577227514391526,0.0431970528471861,1
0.654918959874873,0.0450477960671316,1
0.591533767104699,0.0438774149683809,1
0.511716036262548,0.0268482359144182,1
0.469944169699116,0.0261008332529051,1
0.396324756790282,0.0168109738190764,1
0.242975905929969,0.0102388778648831,1
0.189643280873854,0.0100905017591563,1
0.185741067679973,0.00979361222083071,1
0.212248760137021,0.0100261704518909,1
0.23655099558122,0.0109615103950077,1
0.276585947509738,0.013188375317674,1
0.218191667876835,0.00622510607932462,1
0.214344778335587,0.0117405451175416,1
0.206978018576968,0.0116899780706968,1
0.192705289007336,0.0136897367408399,1
0.196032225251063,0.0144854953109584,1
0.150787910879243,0.00858827022265348,1
0.193697236753048,0.0112350282616259,1
0.207155842242347,0.0121742867118957,1
0.236370242934624,0.0102336768216552,1
0.338577837387368,0.0155939064177537,1
0.305031778197224,0.0145643456248874,1
0.345593149873542,0.0122153660534523,1
0.414961060417861,0.0117270527869807,1
0.394749670878066,0.0105953320320787,1
0.344642607911757,0.0092374385213821,1
0.32645921811415,0.00822278894787945,1
0.326113668358307,0.00775444870908615,1
0.357294986455988,0.00813503643297653,1
0.379464717445881,0.00965775797084091,1
0.338014274964621,0.00881488016470446,1
0.344028724968861,0.0109570487613884,1
0.353816957840951,0.0134633725150893,1
0.326062252404785,0.0133095695674591,1
0.342894349308909,0.0148009535238813,1
0.219823157989035,0.0102932227826331,1
0.190811607650962,0.010707388946619,1
0.181013998165653,0.00876305527621547,1
0.188356317463495,0.0105868172520648,1
0.197464537678109,0.0134271041891208,1
0.181106166801865,0.0126228795636852,1
0.173436025313188,0.0119634074507075,1
0.167045031808461,0.0132264211773992,1
0.0742648218040085,0.00847674529226938,1
0.0576195499926999,0.00800525167790919,1
0.0211957187695527,0.0068675105092424,1
0.0157153703853172,0.00844705850163919,1
0.0163099364748669,0.0210319024559981,1
0.019857808760937,0.0228067761824509,1
0.0201710435343543,0.0154704087582636,1
0.022691621103508,0.004871012393262,1
0.0923854442552509,0.0126033872157389,1
0.148104490586813,0.0161526442763497,1
0.150212807742874,0.0140564927764098,1
0.245168758153493,0.0167242086388251,1
0.241702507958975,0.00698227620562952,1
0.241778344597138,0.00691407388209214,1
0.253553272484353,0.00663973210859769,1
0.265505839300252,0.00483456677565214,1
0.255886992124123,0.00473766498505258,1
0.24950904799725,0.00481624464184649,1
0.319698001890183,0.00768769108921064,1
0.332657495784765,0.00768640026543404,1
0.335345166590635,0.00782095486699853,1
0.209722980060653,0.00518754026459995,1
0.157570311726288,0.00715677856663679,1
0.169265354216236,0.00436062492494323,1
0.165216029065301,0.00410385026223531,1
0.153261338441334,0.00519647903497564,1
0.155038033294194,0.00507614907456915,1
0.153124912184022,0.00584029629652414,1
0.160650711254521,0.00485880869808453,1
0.205296456796564,0.00728945618925775,1
0.362937239402304,0.0128427743558815,1
0.368981300109808,0.00736929366177892,1
0.314049807750339,0.00560213707616805,1
0.309461693806112,0.0071132709541858,1
0.359580995052283,0.00953106353125588,1
0.326502821709018,0.00845393573224286,1
0.276653424357144,0.00690508720299771,1
0.275155033237028,0.00578447043220885,1
0.302610130200369,0.00530492576949894,1
0.299038910612788,0.00541322807298538,1
0.284249999600839,0.00491005934107525,1
0.225247793768228,0.00776696249919686,1
0.140798453393722,0.00384856086303886,1
0.165162546599985,0.00466099566489631,1
0.199244123034859,0.00387592281586785,1
0.299409177265073,0.00755262166163381,1
0.310146480732044,0.00818000535773808,1
0.311429479993917,0.010165380158164,1
0.248889873279467,0.00961670891164535,1
0.266373638614994,0.00867813729480751,1
0.279429005581251,0.00443327151812365,1
0.353148123958572,0.00651507525217864,1
0.329181710700424,0.00755939643306962,1
0.236978709872789,0.00533849279775194,1
0.227210739643685,0.00735613550697817,1
0.184728239620221,0.00524596478473671,1
0.192946301914337,0.00510627543046595,1
0.167436910656493,0.00423185698359526,1
0.184312818249343,0.00359697016822793,1
0.18577744625728,0.0033125974136469,1
0.168924336863211,0.00733343605346578,1
0.147447041501118,0.00557001956161174,1
0.233491638568868,0.00454974095322065,1
0.328382098511174,0.00542607121454162,1
0.312338949154853,0.00498720571179102,1
0.302553678617021,0.00525798583080728,1
0.300876052361197,0.00572090240045792,1
0.346755981809747,0.00667304964986536,1
0.375826521788111,0.00870325584830554,1
0.341581137895488,0.00909701286456212,1
0.343361502046734,0.00739513323003957,1
0.414434664111193,0.00888647223318256,1
0.307448075353253,0.0110958896156911,1
0.205369518449271,0.00776437776568954,1
0.277065911798648,0.0100454741825042,1
0.259656661733383,0.00935457871037856,1
0.277875132147105,0.00946235850048954,1
0.295831080158944,0.00971289041637384,1
0.275495057829805,0.0104045654034958,1
0.227702864096182,0.00871358776566091,1
0.134555472349967,0.00622663843717836,1
0.135195380167128,0.0075610619473352,1
0.0386938704473967,0,1
0.0425740656579619,0.00668236543024846,1
0.0533320099187406,0.00792645630840536,1
0.0536338139495676,0.00930738542715492,1
0.040934760270195,0.0093547266153791,1
0.0353493230329615,0.0154567713587367,1
0.102187619892796,0.014327972684555,1
0.143937004853879,0.0129243725781438,1
0.191058226432031,0.0124582296539351,1
0.249217537913485,0.0127380275109197,1
0.226094355370596,0.00984199204472024,1
0.231604934836286,0.00993698323253552,1
0.2396467493732,0.0103452475199114,1
0.234930865027723,0.00901304433928535,1
0.281968364401837,0.0105289895265455,1
0.284850890987207,0.00962810636802667,1
0.258843769131081,0.0117890831901696,1
0.248983179633416,0.0104395041825625,1
0.202054100670734,0.0137448243386207,1
0.0627485372133919,0.00481216666899593,1
0.0433371403422513,0.00433891458168449,1
0.0429025877093075,0.00455962502905839,1
0.0403611973345326,0.00453070462082317,1
0.0377918390172492,0.00626897650151383,1
0.0315420204667635,0.00545147307033921,1
0.0300170894417009,0.0079825527020421,1
0.0364322922572604,0.00549385718286263,1
0.106428445453133,0.0133681887787686,1
0.26147108430857,0.0302913519834584,1
0.440085454593418,0.0478262364949111,1
0.472828478628452,0.017583857726916,1
0.452751141630506,0.0173983141694429,1
0.432015375583353,0.0142055796800691,1
0.499712247499591,0.0119644294635044,1
0.509439302951114,0.0116616741243003,1
0.464770510052426,0.0104038914659445,1
0.53856261547287,0.0103572652664641,1
0.518093784788195,0.0105904920207642,1
0.577922762563687,0.0114830831934315,1
0.623120261337838,0.0115510583128339,1
0.700779568133867,0.0169598704776358,1
0.417818863595401,0.0109769033740272,1
0.181508497590482,0.00293306173793968,1
0.3494685400169,0.00982976871845622,1
0.383100571569474,0.00684857070105561,1
0.378814579996882,0.00714138720526072,1
0.380711194105972,0.00788958986793507,1
0.405647927222493,0.00919162858342889,1
0.417773898285485,0.00905581221499797,1
0.524987351777782,0.0122485119533268,1
0.474592456340903,0.011141534440025,1
0.417481293961827,0.00502435080643544,1
0.493934586847094,0.00759539730968339,1
0.468144618768776,0.00471937441211708,1
0.461868724708756,0.00846933732934816,1
0.379919082350594,0.00587278073259079,1
0.460555831729835,0.00664263095633325,1
0.666891830529588,0.0095541438390777,1
0.890773945704933,0.0130854499855321,1
0.826304276794949,0.0126267804695588,1
0.605387194633488,0.00636464868431037,1
0.653710272758425,0.0122385831702151,1
0.745092310919596,0.0137097927762745,1
0.811488887633416,0.0223065148115839,1
0.868952983660742,0.0222159931777399,1
0.997056130351039,0.0321724389367809,1
1,0.0338601450042237,1
0.774322838943017,0.031028633316769,1
0.432092941119469,0.0198900798298623,1
0.142650631809923,0.00307593314899666,1
0.122330816999997,0.00730696058693163,1
0.130739151083573,0.00425669519248452,1
0.143950725381329,0.00333928563578591,1
0.166465695951003,0.00385688529680422,1
0.17283906968613,0.00383096254489053,1
0.178144316816172,0.00397787374607734,1
0.206117719505597,0.00618640320653805,1
0.231057367792481,0.00697392535126366,1
0.329195102087818,0.010589606744016,1
0.368591635513505,0.0170774452881873,1
0.286380910224832,0.013870776997292,1
0.24288887981015,0.0133497624152384,1
0.224946808501603,0.0196280791929664,1
0.0879667103834918,0.0133830051643533,1
0.0695067362901506,0.0124404932057677,1
0.0552380738842544,0.0104024985673358,1
0.0576785456481831,0.00861199394144456,1
0.0566664307172548,0.0124828988548058,1
0.055805490659473,0.00987530956512298,1
0.051752975377843,0.00773748680371799,1
0.0412478800474439,0.00495470864271716,1
0.0550100594286263,0.00819079473857586,1
0.0588678232052139,0.00673504274078569,1
0.0590950217920504,0.00622654163725452,1
0.0622710264165962,0.00552686926930078,1
0.0759013136443243,0.00659707624467755,1
0.078651559263645,0.00535193252076664,1
0.0788143137900713,0.00475963159792826,1
0.0812054922620781,0.00580315103490505,1
0.0801820084683619,0.00532410331017868,1
0.0754491859534329,0.00566896697363839,1
0.0523514353194433,0.00326645189917286,1
0.0541199992744289,0.00483903624287512,1
0.0565287742087011,0.00519373384886012,1
0.0555374552375383,0.00661358230384205,1
0.054555057092543,0.00604657672902755,1
0.0579957787045213,0.0112553913338779,1
0.0476655706856241,0.0125317815365699,1
0.0480137221903233,0.0149161333365081,1
0.057172680988241,0.0176023923063787,1
0.0563686488536491,0.0206272877594687,1
0.0519660852996954,0.0155957693310175,1
0.0469128367087837,0.0126467163620642,1
0.0426440284094859,0.0105485468479289,1
0.0510779365689824,0.0123001140069144,1
0.0504109504685296,0.0153555643569721,1
0.0451740015399231,0.00613422648190022,1
0.0750029342483814,0.00967405091192671,1
0.0765218599061782,0.00850987968695071,1
0.0893534677930674,0.00503333005113186,1
0.155637109527323,0.00946195879808679,1
0.161985699274353,0.0109014937096336,1
0.179021998339607,0.0112332303140203,1
0.255372925918833,0.00612783254566729,1
0.442154869640744,0.00755696276945139,1
0.37574884723704,0.00672046449739398,1
0.349731129054123,0.00637545169426944,1
0.399056144435459,0.00776667775929065,1
0.348084859083054,0.00641255167106638,1
0.294712973143576,0.00552623574970513,1
0.311808810288101,0.00615043473848567,1
0.317054923813202,0.00597021607537907,1
0.333581174818897,0.00472082870399486,1
0.545703002418001,0.012784754024769,1
0.550175666342956,0.0129981352382557,1
0.512368383646006,0.0108544197225434,1
0.532303769774585,0.011744975358801,1
0.532005972850273,0.0102949081623806,1
0.528641930557937,0.0103934227058206,1
0.550375007343665,0.0105186838403544,1
0.479662397015837,0.00746119713104757,1
0.355051241447745,0.00465113151378903,1
0.372976207393617,0.00484931255246907,1
0.330654710627538,0.00481705991348111,1
0.301233569283154,0.00517973086599826,1
0.299392235481871,0.004943890016848,1
0.286958448548389,0.00486218015001759,1
