Activity,Complexity,Tag
6.2365948123955e-07,0.330545266959832,0
3.69527643018666e-07,0.303850996327613,0
1.00573395834394e-07,0.250028735068734,0
2.83545574839364e-08,0.246242251338035,0
0,0.239259126907128,0
2.02329982179925e-08,0.240358281525871,0
3.33368331288235e-07,0.333932275629051,0
9.30796865160842e-07,0.429958917043397,0
9.93519007163616e-07,0.414946890172978,0
1.22680270330254e-06,0.458058195928137,0
1.21739613544167e-06,0.470139572850068,0
1.06931503160265e-06,0.457215923355187,0
1.05381089889688e-06,0.451094591688693,0
1.04180212510087e-06,0.455015231657306,0
1.13720685551369e-06,0.470943717432355,0
1.14773765765748e-06,0.469555689398487,0
1.02722756947622e-06,0.433779010531283,0
3.40086800088367e-07,0.314382158248382,0
3.39928058749745e-07,0.323396779306634,0
2.29415117198233e-07,0.283507437358095,0
9.25456921731432e-07,0.404944612165567,0
2.05755084917724e-06,0.558802421775637,0
2.21189266397545e-06,0.575051096652832,0
3.71785988446873e-06,0.608190824274424,0
1.11416213651159e-05,0.97816089241103,0
1.23554948659216e-05,0.923689356383082,0
1.08856102124134e-05,0.854840714740881,0
1.29116782663077e-05,0.871947215036672,0
2.02515809500637e-05,0.852714828051008,0
0.000198053939973987,0.434844361840332,0
0.000430347802886499,0.542768418094624,0
0.000741635316298773,0.632621435365031,0
0.00109992331627692,0.528769477129567,0
0.00216631589594811,0.350560052778887,0
0.00214504478629878,0.158014518989431,0
0.00195954603948885,0.12142007061401,0
0.00206900877528094,0.112137597235903,0
0.00166725404729508,0.0898249103696933,0
0.00115948481624023,0.0645941499617672,0
0.00167141016778922,0.0704773230375353,0
0.00199579503584024,0.060418508228831,0
0.00179446132446637,0.0535955283494391,0
0.0019802702662522,0.0579823121793208,0
0.00197990392173726,0.0610142349832347,0
0.00172329624195511,0.076126895006076,0
0.00163718504726875,0.0832178606121706,0
0.00168355288742511,0.0930559694905504,1
0.00181581376592667,0.102628050833912,1
0.00214412508319998,0.12366710016391,1
0.00186347505202575,0.19319170994937,1
0.00121649446159793,0.217968347205934,1
0.00126222818025318,0.245010417715214,1
0.00148777392361812,0.351460984464306,1
0.00144983735944661,0.549092080916625,1
0.000923494086773518,0.511113308700598,1
0.000773058674385858,0.686533017230593,1
0.000446229229701872,0.556243933807415,1
0.000226519453757087,0.260889133509731,1
0.000385441433415042,0.384760020682088,1
0.000920221761985739,0.543488360458072,1
0.00170442031446203,0.319238618031297,1
0.00249159395272019,0.215608386079901,1
0.00268572547028392,0.212374276272113,1
0.00285166105497578,0.214925482528542,1
0.00301577510855796,0.231249989707565,1
0.00251919512618283,0.213290277820104,1
0.00160460720865953,0.148025588859552,1
0.000923577070714195,0.0912225324310276,1
0.00105668994566063,0.0517790042584046,1
0.00126080139937907,0.0212194716366432,1
0.00242320531619414,0.0415878612149055,1
0.00375471239268802,0.0623025748492812,1
0.00504362714403526,0.078746120937023,1
0.00574154739920586,0.088106127220245,1
0.00595285896903564,0.0898633616941723,1
0.00557641490371812,0.0688704369368944,1
0.00514259101993083,0.0622619367674576,1
0.00512385015726007,0.0626075073441231,1
0.00311389489949399,0.0686815839177224,1
0.00101532446438501,0.0485615271584116,1
0.00446585411518381,0.0747993374015836,1
0.0088370551769561,0.108622592202172,1
0.0113466795516697,0.0920438965387114,1
0.0284447885559444,0.0839847317075437,1
0.0352209073243508,0.0524689420539349,1
0.0338162288008698,0.0518843477203405,1
0.0337229083269528,0.051385165481418,1
0.0348368651038437,0.0515728581165296,1
0.0327247657716162,0.0528521657899974,1
0.034225394070588,0.0437650570997332,1
0.0435847078653448,0.0372476810390635,1
0.0380037298918708,0.0338994736639654,1
0.029297700232742,0.0281324185227615,1
0.0292623815749897,0.030855347747696,1
0.0290357762194669,0.0277027004353928,1
0.0243779339878323,0.0222333479847535,1
0.019164417363048,0.0151411472510985,1
0.0187761295817214,0.0157286073237561,1
0.0189395040097685,0.0136919613125907,1
0.0179915083564589,0.0177692093607362,1
0.0103151842126645,0.0104922237159668,1
0.013343430542929,0.0130203290582534,1
0.0142607154381855,0.0136169212937085,1
0.0154161903384315,0.0191837677494576,1
0.0138106129670879,0.0264685644562011,1
0.0180556472974364,0.0374361385264913,1
0.0166852619501236,0.028068085961655,1
0.0130012959157031,0.0131703945592278,1
0.0121597469237637,0.00967917153403821,1
0.0123829923164044,0.00989484846502093,1
0.00884467462991374,0.00573328520080669,1
0.00879841279915464,0.00669485184153067,1
0.00922286228214131,0.00694869486280173,1
0.0114597800751317,0.00672850729772182,1
0.0137572495137121,0.00824611069776319,1
0.0133706600881789,0.00702753737721941,1
0.0136645942835775,0.0102399508216432,1
0.0120138816009891,0.0118965376497175,1
0.0130827172257867,0.0130864167454792,1
0.0137355679550372,0.0160728590325983,1
0.0151301478851611,0.0146060452604001,1
0.0181634008440587,0.013951741883449,1
0.0151454400397319,0.00859901798405914,1
0.014755967153172,0.0112877720078335,1
0.0154271029551707,0.0133567762251419,1
0.0154053796561639,0.0153278640464379,1
0.0145580424718484,0.0177767088741494,1
0.0127447598885763,0.0174539781450636,1
0.0120588468834881,0.0247910023196448,1
0.00871077147010724,0.0175254023094967,1
0.00624549665954429,0.0139412993810307,1
0.00441013271220403,0.0197106149983252,1
0.00399550600771973,0.0343887067809289,1
0.00471667897251959,0.0389270519742906,1
0.00419942809403313,0.0173018482267235,1
0.00492153367995294,0.0173298140288999,1
0.00467484827848961,0.0151813056647211,1
0.0049800909549324,0.0200938726856214,1
0.00513088571908421,0.0210685678818705,1
0.0055580646823049,0.0175613766076683,1
0.0106228650435773,0.0320483579239437,1
0.0133441890520762,0.0261206743363419,1
0.0132099860830772,0.0245038156019239,1
0.0123844310435383,0.0260693852277441,1
0.0136153346200973,0.0379470359003595,1
0.0156965043792471,0.0297347197628609,1
0.0151098026383506,0.0292177352185639,1
0.0129786242007286,0.0254381953725679,1
0.0111070304394961,0.022345169244235,1
0.012441607252608,0.0162071242795429,1
0.014149011166775,0.0136596076768724,1
0.0139724313845804,0.0164694527702858,1
0.01339295649204,0.0137443668400832,1
0.01770868340563,0.0169598435330689,1
0.0255448246877546,0.02221969006371,1
0.0680878881513257,0.0534147398063501,1
0.078773741967295,0.0499273580155006,1
0.100030813213,0.0513132890188366,1
0.101820772271233,0.0451034444279675,1
0.113494689665851,0.0506520159373115,1
0.114661149497732,0.0493719374218708,1
0.081666531759899,0.0345741826123464,1
0.0513242105701005,0.0138301137332325,1
0.0471064931996386,0.0116762522346015,1
0.0449096206826301,0.00704869426211312,1
0.105266390881944,0.0250999515659886,1
0.126072614441017,0.0284723551881715,1
0.123491547333502,0.0279709423827738,1
0.118116289619264,0.0287603689702776,1
0.119284411706753,0.0264735720793838,1
0.122674082591689,0.028867231115661,1
0.0932675832364923,0.0232505312614489,1
0.128531238471476,0.0203630070011837,1
0.205834027871119,0.0328661131010591,1
0.262663892694698,0.0334939029612018,1
0.261241431233069,0.0349800837957512,1
0.265995909445966,0.0348747849786866,1
0.257608192801397,0.0352487868941182,1
0.23171640022789,0.0316932892886369,1
0.205693737446066,0.0291285030749097,1
0.233908928085775,0.0343136196291928,1
0.281324952541748,0.0371113274161103,1
0.319518109861517,0.0873623586074972,1
0.288343966832634,0.0946884348165351,1
0.164940702424247,0.0954640656277167,1
0.153441048832956,0.0865544574974502,1
0.147610898524385,0.0866929746495152,1
0.13670953166703,0.0900979272329621,1
0.0927777555946257,0.0773050987312216,1
0.0726528139265881,0.0733345890704894,1
0.0580076129687307,0.061174275685233,1
0.04958376917695,0.0811092819405446,1
0.0501466289444433,0.0791996250141223,1
0.0514586444428615,0.0906600929099187,1
0.0363758739400825,0.0705710765089345,1
0.0317451284456453,0.0684088046109113,1
0.0248639844532416,0.0587468381505211,1
0.0102674523984832,0.0380679126163935,1
0.0082832506359829,0.0379283526035607,1
0.00806829524529585,0.0419893950706074,1
0.00796256971905951,0.0416694930159054,1
0.00805362941272384,0.0399357069734095,1
0.0082086744851962,0.0321847730758811,1
0.0090218930828957,0.032386313693983,1
0.00886842103916752,0.0391064126452752,1
0.00415043081372189,0.0219730265274355,1
0.00424981619869584,0.0451185345779585,1
0.00860535277359819,0.0696206578606745,1
0.0123049629116197,0.080315379321065,1
0.0122458974468285,0.0778877911604543,1
0.0120295024954884,0.0663630513240023,1
0.0121548118003953,0.06330441089212,1
0.0104666312588687,0.0681758572718671,1
0.00626408551628667,0.0463069488009334,1
0.00686546655007197,0.0424023712954511,1
0.00718046154707254,0.0198033649518332,1
0.00858956699699476,0.0254351426508047,1
0.00796547659113001,0.0244618410581923,1
0.00784374117482881,0.0212115755885203,1
0.0134995793322392,0.0324737157064215,1
0.0285219047568767,0.0490636264303198,1
0.0283566310707096,0.0215487855219927,1
0.0288182866300398,0.01257618874254,1
0.0365046935967391,0.0170634736400406,1
0.0459958944473592,0.0198240763352199,1
0.044859579052031,0.0230026110392212,1
0.0454709669171924,0.0136130037247698,1
0.0553545976033211,0.0140923889594803,1
0.0504718124864191,0.0130483231131436,1
0.0502113413106379,0.0140586290801197,1
0.0802981181204564,0.0113355231102907,1
0.11775770471301,0.0256628004269719,1
0.133247023288087,0.0269422761330999,1
0.249174401263223,0.0422643319539447,1
0.4220470971256,0.0516659704621682,1
0.372521502676994,0.0324275420351373,1
0.346270288336614,0.0352015948996925,1
0.334632667888906,0.033400568004954,1
0.288045991562367,0.0296040053337492,1
0.197288401601736,0.0200520185126604,1
0.169235159151327,0.0230741497826167,1
0.175843843376836,0.0210670454289693,1
0.183134036265631,0.0246674327378702,1
0.176905262997132,0.0260799014043111,1
0.0856142120580204,0.0119927702172357,1
0.134644323676279,0.0311404229022335,1
0.111928031694241,0.0227965827102907,1
0.187858551214803,0.0241554283872677,1
0.369143440510575,0.0422090653274206,1
0.476314905570031,0.0552690261857471,1
0.494005144627241,0.0407799150633779,1
0.463893494062081,0.0325444253565394,1
0.415393439185496,0.0246666658572926,1
0.281145029733203,0.0153893457947361,1
0.26807453529537,0.0153513939260116,1
0.340279012546988,0.0114946250774921,1
0.340508300365323,0.0014075794309066,1
0.478474446272138,0.00941963436410836,1
0.443227269927065,0.0071317590479619,1
0.452687504114363,0.00602250304964219,1
0.53566626078029,0.00986142306260762,1
0.541658096562261,0.0125271696763019,1
0.459321022180491,0.00969569046674133,1
0.461302571016742,0.009305827828715,1
0.507821777724572,0.0107592034848059,1
0.3137936431857,0.0108187237789779,1
0.192072697957548,0.0193409304434251,1
0.304364904648005,0.033906850105807,1
0.341820411723857,0.0451648411428469,1
0.396449843346492,0.061258992228185,1
0.444803300590761,0.0658941898716926,1
0.447365765231116,0.0750265456953686,1
0.298396369719523,0.0679065882039108,1
0.162936349789216,0.0490413524429123,1
0.103829779209259,0.0379855303548746,1
0.0316273613935646,0.0066041933803444,1
0.00387242522960384,0.0323995703330252,1
0.00348022957348572,0.0186433832807385,1
0.00353412313127929,0.0257410417963809,1
0.00347045285928026,0.0242910518428584,1
0.00378822732106211,0.0197197435537778,1
0.0049969508394716,0.0265739156158085,1
0.00607741131968119,0.0341841950461928,1
0.00706658230094777,0.0393701326803405,1
0.00752593912966405,0.028480773311847,1
0.00835592008017392,0.0296679871468909,1
0.00595762532257711,0.0249469810852704,1
0.00580357332304366,0.0267477065652324,1
0.0059535906741064,0.0281830025782129,1
0.00664250551077428,0.0251362852967611,1
0.00810694217458589,0.0329648367013619,1
0.00794117767917417,0.0325582885901644,1
0.00712306791573451,0.0248763976379073,1
0.0061956373231276,0.0200791953400124,1
0.00651911929738144,0.0104267042961593,1
0.0140466984298955,0.027361134413025,1
0.0134804317390207,0.0262200753925193,1
0.014032617320282,0.0292103707906943,1
0.0137899522185632,0.0222993202592383,1
0.015241073565205,0.00992024367908646,1
0.0452964598338705,0.0272312374335744,1
0.0503207048522372,0.0219217769296185,1
0.0474910568393624,0.0215710653668292,1
0.0405464543809696,0.0146159061380156,1
0.03798179542453,0.0154716331542669,1
0.0382502820878353,0.0160135111374809,1
0.0360524837361109,0.0156896086021998,1
0.0436244035141213,0.0134168245561013,1
0.0449947563155632,0.0148419011209435,1
0.057939488945376,0.0127413630805397,1
0.140366062096559,0.0359921233686168,1
0.149590982005617,0.0291523980604283,1
0.131279630290163,0.0256451106577074,1
0.117790002726047,0.0272026181407802,1
0.12486157734214,0.0197953091452329,1
0.173871516512259,0.0261102268328557,1
0.178458640016276,0.0168929606723268,1
0.161085693503151,0.0166305789597371,1
0.152608189848103,0.013152025084314,1
0.159495918776838,0.0184630013685497,1
0.269695210149683,0.00690366397758233,1
0.480004642605157,0.0143948836612713,1
0.438496742894158,0.0129198787577066,1
0.387098584203306,0.00970932641119022,1
0.387826563585876,0.0092972630062323,1
0.386507942584212,0.0104671695746138,1
0.381707904505598,0.00982995460786077,1
0.389810434520584,0.00994372664148405,1
0.38036492851173,0.00990101052377356,1
0.306502622343419,0.00465583754555636,1
0.315059857543256,0.0175795005645668,1
0.240866210235266,0.012170136078114,1
0.330281566672202,0.0186764134569029,1
0.346423407189165,0.010370212512293,1
0.389691933629319,0.0124931197175471,1
0.38577445465492,0.00983657520095294,1
0.373372918566347,0.0112060262116279,1
0.343562728585273,0.0100223925405636,1
0.341486342897706,0.011363801181974,1
0.320416661249231,0.013929926357577,1
0.2711317044107,0.0131804229388981,1
0.23479384917115,0.0171227924003939,1
0.187520865360519,0.00943860055117523,1
0.165013171978363,0.0126177530859986,1
0.110475035883114,0.00352037021343525,1
0.182814922746624,0.0147296068247573,1
0.279243873563669,0.0238736945431437,1
0.380438576430078,0.0327559291431553,1
0.436720436777794,0.0349114264891018,1
0.439360190778437,0.0350198160296008,1
0.453793581021521,0.0338043051634612,1
0.340879488672639,0.0252168002654783,1
0.350511981609378,0.0276157179356277,1
0.243209073212863,0.0498183525295103,1
0.068554697490477,0.0340812833859826,1
0.038786186965461,0.0200540074461872,1
0.0249053484980521,0.0141373297329017,1
0.023123958340139,0.0120081041404437,1
0.0218280035915279,0.00984190103832766,1
0.0213525073701396,0.0114994052408603,1
0.0203938293014606,0.0145501543023637,1
0.0091798110122361,0.00837092127074568,1
0.00705726492640596,0.0443095502446473,1
0.00586826581472106,0.0378989344575774,1
0.00509291964003565,0.0363656251959344,1
0.00565163638819299,0.0430743684883657,1
0.00615312277259675,0.0255206739988766,1
0.00611693412082498,0.0283229561531648,1
0.00516721510326926,0.0316708835487788,1
0.00488221755766022,0.030686237238719,1
0.0046690623461022,0.0406114548566103,1
0.0053689170660871,0.0349060503721321,1
0.00586474003829407,0.0358886035890821,1
0.015765300089724,0.0273955592219056,1
0.0294088018854375,0.0344607034765571,1
0.0289203742935556,0.0357959739604236,1
0.0326928028654417,0.0453669722851795,1
0.0399011128934623,0.0516802679467857,1
0.0413610469147718,0.0336909380301292,1
0.0603815821902134,0.036208667908805,1
0.0478233586484162,0.0250557246561123,1
0.038307681447923,0.0200591562890323,1
0.0282552466297992,0.0126222001460421,1
0.0273294601746019,0.0183580344723513,1
0.0431027481940487,0.0230969399844643,1
0.0598237036274963,0.0229928725727795,1
0.0593305472880146,0.0133327116720828,1
0.0657722550063061,0.0158513932612545,1
0.0646646737037551,0.0219350329449381,1
0.0698545092936109,0.0161025909466593,1
0.079528555338297,0.0225856763289421,1
0.113042212278123,0.025685450864311,1
0.257941829680846,0.0503124600269113,1
0.380420990653247,0.0635422607358568,1
0.432877676286715,0.078957254389399,1
0.462825473272838,0.0878247306058483,1
0.493102678526998,0.0782808928601538,1
0.439011373004138,0.0502990124284795,1
0.292595279673132,0.0364386172080067,1
0.330384006527519,0.0341164974996003,1
0.262955092792641,0.0160709749638472,1
0.195901235737674,0.0102689668772972,1
0.328253433080753,0.0190816011793547,1
0.45089341636231,0.0255248889339335,1
0.554404183198239,0.0299265535206362,1
0.575112264833734,0.0281449885715711,1
0.540502396632021,0.0336631444519603,1
0.546803081256559,0.0318359320195082,1
0.555404274164588,0.0238334643345855,1
0.334462386990642,0.016100006242131,1
0.181965356314828,0.0101630221540445,1
0.132955362029445,0.00775919360629643,1
0.177124774708273,0.0133394748428414,1
0.17389090875807,0.0102004885741244,1
0.232207618364597,0.0112746395231654,1
0.278642288221819,0.00752275906110556,1
0.307460929079852,0.00936867043087574,1
0.32403425743544,0.0117572786697157,1
0.405344454179377,0.0201312344556308,1
0.39875405078414,0.0172306983797466,1
0.389116737799474,0.0153648206527017,1
0.379203187423017,0.0128984756955377,1
0.351568222614033,0.0138162925346219,1
0.361880833236727,0.0102208297309124,1
0.298611797933231,0.013418201540644,1
0.197232289128711,0.0107964581031305,1
0.212276631175177,0.0120114702790541,1
0.214880425793808,0.0122724459257888,1
0.202307063470204,0.0127891625373953,1
0.211041090528631,0.0182102228572787,1
0.189034973668852,0.0153005752090646,1
0.190545077739454,0.0165767915049296,1
0.122091481879063,0.00777186662708008,1
0.134469389417304,0.0154029388032586,1
0.165419688046239,0.0194739700801739,1
0.184180030817081,0.0351371202558729,1
0.119622385558145,0.0276372160742684,1
0.131908347181509,0.0334659403983233,1
0.133321184115625,0.0334152480071486,1
0.131956926506549,0.0521003371697236,1
0.0685967371506225,0.0472563848910949,1
0.0567580693067024,0.0575652911375134,1
0.015029602381891,0.0325341941319181,1
0.00989500073119761,0.050125236996117,1
0.00616659119671941,0.0336078052190178,1
0.00348941283531442,0.0209224400541982,1
0.00329691555678233,0.0253801506407755,1
0.00375307462255101,0.0357706430809727,1
0.00334654076378595,0.0487811809553646,1
0.0034795222207255,0.0746417757688938,1
0.00317034515596051,0.0741671917172861,1
0.00710995583779426,0.0235769431235569,1
0.0293546918827275,0.0543322119403239,1
0.0308514629340441,0.0461641316253677,1
0.031014069374375,0.045700337010364,1
0.0277523296428702,0.0430657913584672,1
0.0230739009973663,0.037240561644196,1
0.0211484402772558,0.0352478418675344,1
0.0193149284615101,0.03153518959163,1
0.0188100685383667,0.0309525984250032,1
0.0154975204801624,0.01366815769002,1
0.0141995914719606,0.0214985531837038,1
0.00764859147168357,0.0148055405697916,1
0.00728872547640725,0.0169041773430615,1
0.00734702761983384,0.0166708657501586,1
0.00741321837901444,0.0162333995741828,1
0.013578916159828,0.0222356630347044,1
0.0161977579094203,0.0108401286673868,1
0.0178140010038972,0.00471498383140463,1
0.0390166413372993,0.0163079552820883,1
0.0576149940644949,0.035439298283974,1
0.0649962187891206,0.0345686502975416,1
0.0616673229911692,0.0357735791464016,1
0.0534977691546556,0.02113653817822,1
0.058812372260486,0.0230739719165133,1
0.0576235812776704,0.0143545842518183,1
0.0761113334286084,0.015997793416507,1
0.0780887544801178,0.0227863127406629,1
0.131463037076864,0.0109945181425906,1
0.337941085394983,0.0307708103002484,1
0.361505970669182,0.024136644459461,1
0.357523846829235,0.0241182970191441,1
0.385850092828971,0.0193611745089045,1
0.513663574860762,0.0303612204782359,1
0.405771423425298,0.0152806591218566,1
0.29467995602049,0.0103389706973959,1
0.36182638590647,0.00949185097964425,1
0.362538944065902,0.003945021493303,1
0.363956840960151,0.00529587274307336,1
0.369073473952615,0.0056614052973715,1
0.358427131988873,0.00649515718777236,1
0.293345447462765,0.00328649437716014,1
0.279168389248263,0.00396244681644121,1
0.280963304805225,0.00365815868097296,1
0.260643347742937,0.00372005126182372,1
0.207969177585535,0,1
0.206527167669843,0.00248837870264037,1
0.160783464574053,0.0063119799598565,1
0.136481356231929,0.00922258305896867,1
0.199622637877174,0.0165985747054844,1
0.212568388736785,0.0168348639188066,1
0.188814653958198,0.0146241669783931,1
0.191767608591186,0.0153038419845884,1
0.12616486408754,0.0114252630738371,1
0.10503017602648,0.0123547132806813,1
0.10014757199448,0.0119535667621222,1
0.111130890660055,0.017607982402549,1
0.0858901238623482,0.00951950990142125,1
0.0736352117468186,0.0107485278212027,1
0.0668874838766508,0.00757752393697092,1
0.109398164733468,0.0241242850739747,1
0.128431832937533,0.0217125732950431,1
0.125497504296427,0.0238235542997786,1
0.202433592138826,0.0257455156092447,1
0.232269103342,0.0154502368133277,1
0.232868205560348,0.0146857110765652,1
0.262580420917153,0.0161687419056136,1
0.263865353429236,0.0138912113556953,1
0.271099769157369,0.0135952179018111,1
0.262547205726987,0.0149166821880221,1
0.196800663214939,0.00823631026772317,1
0.164460101342307,0.00649646337810986,1
0.162972996262359,0.00503717674940421,1
0.131216400381207,0.00264865342775688,1
0.196880429008891,0.0141221208269388,1
0.248418696208408,0.0203915628259691,1
0.160113854843857,0.0120337333273172,1
0.152116001064356,0.0166642413754223,1
0.152969598605893,0.018398208040185,1
0.149402293493068,0.0178314828201916,1
0.14629942759787,0.0162780247575831,1
0.152455555192889,0.0153226094143711,1
0.167095315756239,0.0188163679003479,1
0.181664057608281,0.0294186676811211,1
0.222014780133164,0.0390943781346373,1
0.246035437272512,0.067807095692214,1
0.198320226638878,0.0644782133209792,1
0.139178882471321,0.0473534894551859,1
0.0788924379758917,0.0281252530359969,1
0.0603834857377379,0.0270654477429103,1
0.0423762787765414,0.0267075464217077,1
0.0111312178962273,0.0123475674370279,1
0.0107438436879071,0.0309139568170133,1
0.0100230416458782,0.0287052743225418,1
0.00770575752452645,0.0189598177007089,1
0.00709189069854492,0.0166923563016186,1
0.00667696445050995,0.0152349258870204,1
0.00832708266050777,0.0179886736839687,1
0.00812091339114537,0.0176225914637841,1
0.00671077667481321,0.0402212934163228,1
0.00569200988162924,0.0534807303199451,1
0.00619758599707056,0.0562082610080247,1
0.00598530105652462,0.0537654736534704,1
0.0042314080165337,0.0441550199632155,1
0.00398746286786097,0.0481204171001131,1
0.0039144332065368,0.0413622486128067,1
0.00209896151819941,0.0277195094726399,1
0.00189285984587978,0.0408564173307068,1
0.00173853928920661,0.0475543569993849,1
0.00120051584239088,0.0398407358847784,1
0.00119507634577945,0.0527680429762774,1
0.00151028055979838,0.0732269882466452,1
0.00151940135259026,0.0671738874687243,1
0.00268711826035124,0.0369482206514483,1
0.00856890564247461,0.0623259340000227,1
0.00851277451725733,0.041261402548884,1
0.0169435110295779,0.0141914756640642,1
0.0411639170603096,0.0245646208144894,1
0.0389941591291578,0.0205503435402321,1
0.0422050615600264,0.0179099787516661,1
0.0484323547513908,0.0182397265158606,1
0.0430749463071565,0.0148066422600483,1
0.0342646460905192,0.0106729955356991,1
0.027878823699273,0.00768090533567127,1
0.0279401421476945,0.00765596632454181,1
0.0227570873582806,0.0048458033422946,1
0.022704914400567,0.0143253832893798,1
0.0258065384146674,0.0254611503055683,1
0.0201160895299681,0.0190127746046211,1
0.0211361507335713,0.0228559893400941,1
0.072335967503096,0.0384246562757109,1
0.107727903205638,0.0344075504591207,1
0.101876658138203,0.0312902527376563,1
0.132114481614517,0.0230033241422131,1
0.162668945732183,0.0258728898653988,1
0.164016845700594,0.0249081944510137,1
0.233012183785064,0.0321461631693217,1
0.26509807696423,0.0343001277611526,1
0.228075932899979,0.0327025763426978,1
0.167257909930964,0.0162541652758897,1
0.162405834630848,0.0165615886701246,1
0.154447205651119,0.0198969584086087,1
0.132861387946452,0.014494292300836,1
0.124006063800269,0.0116109899597923,1
0.124627392725543,0.0114282483952914,1
0.119701069890389,0.0130060893034979,1
0.151092044203454,0.0171461467283189,1
0.169673881976469,0.0110624458897463,1
0.199371861495411,0.0142726570030008,1
0.195541312405263,0.0151997106797322,1
0.168242714635823,0.0135014682482566,1
0.171634137843355,0.0132611558417966,1
0.150901225650663,0.0138728788344448,1
0.207300145217578,0.0178243064539776,1
0.320237431185855,0.0213553118455069,1
0.326405845896002,0.015820535881689,1
0.326750177776451,0.0178524462805387,1
0.319764761125969,0.0247329612541674,1
0.342284683620829,0.0256669776148543,1
0.331753449772432,0.0175036311527326,1
0.341629471450681,0.0211474019440199,1
0.384698166111907,0.0169685374202264,1
0.623783256607079,0.0281256645576946,1
0.691487553856465,0.0335644294469087,1
0.837220769054692,0.0342120168534535,1
1,0.0331446777773434,1
0.886443290144821,0.0287925283203274,1
0.825518464063894,0.0242066518180317,1
0.693783651943529,0.0155019514449031,1
0.601489280516012,0.0136943699627809,1
0.611053002825946,0.0120696826073596,1
0.597461399688335,0.0135986932321501,1
0.556845604038654,0.0132306680574132,1
0.531829614753655,0.0128088935425127,1
0.397179722094252,0.0117867649184595,1
0.259296699137412,0.00675413349160796,1
0.242315667345846,0.00479337096855869,1
0.254496532034109,0.00588219421302759,1
0.304036494921945,0.016509591035047,1
0.284025675004957,0.0194554233545057,1
0.278555255269036,0.0209645539548752,1
0.192887476652926,0.0116011371060081,1
0.219792163589463,0.0128892840275633,1
0.182036479673271,0.00953322633301467,1
0.153889267983089,0.0108657168760833,1
0.155743041265457,0.0131652482747297,1
0.100845902764917,0.00744617277251003,1
0.125705343735931,0.0132031018239382,1
0.126913940743254,0.0128114204548801,1
0.168045691930578,0.0147460458231707,1
0.171117819954635,0.0232385265278713,1
0.196120842712592,0.0399505114878932,1
0.251927941609375,0.0532991397351668,1
0.214117581863325,0.051803656564388,1
0.20410140645224,0.0495385389675256,1
0.165258862030973,0.0425954893470624,1
0.125129993403668,0.0464596876919871,1
0.113766926582777,0.0494053887703492,1
0.0336475299396249,0.0200547182901831,1
0.0106653180810771,0.02831494241226,1
0.00648741776415755,0.0197869820261691,1
0.00636212717717541,0.0220844259607583,1
0.00666822679442377,0.0200545717173426,1
0.00681187182174715,0.0268948269268896,1
0.00616491137944092,0.0351466808864146,1
0.00541583412687942,0.0335763080033614,1
0.00456476541720169,0.0282605550789684,1
0.00379814910960377,0.0477987630655723,1
0.00293986986465669,0.0657671550926723,1
0.00267950234696967,0.0690297556651926,1
0.00237126595237452,0.0418274341340197,1
0.0122285999063198,0.0298139942057509,1
0.0281697233949037,0.0505900700333371,1
0.0307773579280587,0.0381429257602673,1
0.0305434597657136,0.0373215227362461,1
0.0298997255193513,0.0356460766027762,1
0.041913550144906,0.0314873804795339,1
0.0489631185828937,0.0220192420335311,1
0.0457763017833876,0.0176923905868335,1
0.0616791504874389,0.0234695103924327,1
0.0536749789002432,0.0106543177192172,1
0.0557077661610764,0.0151197576043554,1
0.0545032373071505,0.0144532903453516,1
0.0527865490500239,0.0160100740247884,1
0.0430251544464819,0.0113683628388907,1
0.0360362252211939,0.00835927415231296,1
0.0338668910796083,0.0116014836928829,1
0.0319310564749461,0.0162416420371634,1
0.0315711551181307,0.0191061096314485,1
0.0148433685708606,0.00866001278421969,1
0.0133609408712044,0.0333403028971455,1
0.0158647328185821,0.0454731499320592,1
0.0295123220509534,0.0720520875423981,1
0.0408473687078177,0.0895852341463598,1
0.0448331799398161,0.0421321722707206,1
0.0420132250401986,0.0341098344943036,1
0.0373512398324287,0.0313324042763607,1
0.0266992731632863,0.0188156696245122,1
0.0273685477667985,0.0134722293109682,1
0.0407721750764336,0.0250500919741858,1
0.0695205515066021,0.0352601341506651,1
0.09218861872246,0.0388543915603273,1
0.113438540551699,0.0378369990487844,1
0.243569326474661,0.0204373146946494,1
0.519791874147689,0.0465360106038866,1
0.519512121183811,0.042030244014753,1
0.464353877424614,0.0343396648257369,1
0.397203974725569,0.026100564195454,1
0.357628609320053,0.0226428829206424,1
0.395081735243128,0.0248180247662002,1
0.435321406546778,0.0259749714335727,1
0.436779724052688,0.0257301873285952,1
0.46483376589517,0.0255415014463171,1
0.411213948042675,0.0519325911825921,1
0.203940700693449,0.0280048616797157,1
0.134797136885004,0.0183058636196815,1
0.265018408424506,0.0274616052305654,1
0.616206366873412,0.0662000808140829,1
0.685314754387302,0.0473227790192038,1
0.626224736288351,0.0487442044819434,1
0.539423299131882,0.0297719239376308,1
0.508103100850364,0.0252059645688409,1
0.380232438687389,0.0181893412125641,1
0.411385870993873,0.015148026803277,1
0.501545322274226,0.0162580986164777,1
0.491158160824649,0.0151283924541919,1
0.491874560240028,0.0190602265004023,1
0.340543730915728,0.0125431104977327,1
0.304352761813337,0.013505450950183,1
0.251677584443666,0.00857362092756481,1
0.21745727303949,0.0109318544035844,1
0.203259492966638,0.013980975853044,1
0.138431470461143,0.00701440564702353,1
0.13075475334749,0.0142918068075973,1
0.111891182360171,0.021922912651531,1
0.060173912779624,0.0129152971704776,1
0.06848927956884,0.0289402861014257,1
0.0779545219266124,0.0240689730257018,1
0.154236970119873,0.0324619987114571,1
0.142817375716679,0.0191626951683824,1
0.14625421687856,0.0180800006759609,1
0.156889467696448,0.0207838905040347,1
0.164623964492921,0.0156964183783811,1
0.172891139845878,0.015645040350332,1
0.267976998578143,0.0230984653504366,1
0.372980602867216,0.0334028398470448,1
0.412234895556773,0.035397614453586,1
0.474171009490948,0.0455459690615696,1
0.4300299755525,0.0498168097356924,1
0.489027528304081,0.0676434114558264,1
0.460411688915415,0.0536351739656407,1
0.280256264343606,0.0395697455241171,1
0.116585040715291,0.0254209856845678,1
0.0814732715837078,0.017400851249739,1
0.0782564113176435,0.0198896802751601,1
0.0769688844907806,0.0209395375701486,1
0.0468556857797932,0.0118584807698703,1
0.0360124725104002,0.0115562699018361,1
0.0412020251208642,0.0125322534925849,1
0.0374430011677228,0.0113431321427625,1
0.0315452200524212,0.0347334036234133,1
0.0121445820604333,0.0166101084577326,1
0.0135315042916101,0.0169348298212759,1
0.0161556120901152,0.0222671645643866,1
0.015932603899388,0.0160946090882851,1
0.0165497799548927,0.0155955886993981,1
0.0160668454936955,0.015053956716009,1
0.0159154769646506,0.0185906584153797,1
0.0163303213885563,0.0220357500073084,1
0.0160007933438263,0.0217049299385741,1
0.00816036218392598,0.0110208965044863,1
0.00751871382162416,0.0246841293589345,1
0.00838444910489269,0.0268528293333079,1
0.00839985868942751,0.0230533195797318,1
0.00718005447244404,0.0355447546304045,1
0.00323034932215624,0.0175358546411835,1
0.00518757287522887,0.0281038131642809,1
0.00530645297007398,0.0233541182019568,1
0.00514132125863631,0.0278628892948247,1
0.00528220377871768,0.023785352860092,1
0.00609849873747893,0.0263115181628442,1
0.00613050817976956,0.0271695989570905,1
0.00636920674524972,0.0223681948198911,1
0.00933618081963635,0.0274163479132601,1
0.0144030298361441,0.0191856449016062,1
0.0316755849113293,0.037798959093614,1
0.0346546877971032,0.0365476811387815,1
0.0378948952823412,0.0383893634101049,1
0.0330523477849298,0.02363801635143,1
0.027461016490091,0.0210507428170852,1
0.0233814426068733,0.0182851797237371,1
0.0178814450315369,0.0133762605364937,1
0.019242287137407,0.0140522478500556,1
0.0214403166603988,0.00206824163178131,1
0.057520024227749,0.018513529457724,1
0.0653163652998546,0.0104518962013793,1
0.0677521846478674,0.00986185198336929,1
0.0730984495926079,0.0122937379133069,1
0.0752287664852479,0.0148601908218576,1
0.0747991758795631,0.0142330529641659,1
0.0755283229563045,0.0139242227443714,1
0.0768328234730486,0.0112003533888553,1
0.0774783096320246,0.0123433478099262,1
0.0730308723731921,0.0220152811409427,1
0.0348003764343302,0.0146093556322008,1
0.0279328583674435,0.0221601155803776,1
0.0400660923160495,0.0398013598613695,1
0.0351114092702203,0.0220992057538559,1
0.0303457911028274,0.0123805589240891,1
0.0417521660222002,0.0151094108407253,1
0.0361958477292592,0.0106326557471832,1
0.0333052542777504,0.00972386804756791,1
0.0350163570785695,0.00990754213849896,1
0.0315374393931446,0.00922169589250098,1
0.0317223276150061,0.00801734723931478,1
0.0303193000431228,0.00966247265496291,1
0.0327586694277117,0.0064984530705904,1
0.0447457500694791,0.0144222701931011,1
0.0397854639538303,0.0148907493522328,1
0.0346612355788131,0.0153371678394362,1
0.0362555510087865,0.0123044845831975,1
0.0644548126860185,0.0241463233027363,1
0.0727956018196346,0.0102866113518701,1
0.0788515708770254,0.00936094065083795,1
0.084999249991853,0.0106949156604663,1
0.100624653557146,0.0132486086292423,1
0.0975453059448203,0.0157291840453248,1
0.0779887135821885,0.0113399838251337,1
0.0768289395565096,0.0112072470480018,1
0.0688619374401081,0.00808336629039449,1
0.0608851327756611,0.00956149301917767,1
0.0519804758822986,0.00711935701928996,1
0.0434728733745347,0.0228916826313699,1
0.0234884881505228,0.0135946513318672,1
0.0284148090843389,0.0190592948636902,1
0.035091597916104,0.0243583919529081,1
0.0513982190120525,0.0357635407905169,1
0.066361256057214,0.0440054201465426,1
0.0785613038381384,0.051265084297941,1
0.0803322620472387,0.062768694473863,1
0.0686409898391865,0.0582621762611868,1
0.0592583045542644,0.080941140113206,1
0.0180515837123002,0.0588184818653134,1
0.0100802522548906,0.122313310590331,1
0.00488538735095997,0.0926793976982091,1
0.000404376277832189,0.0810113119491449,1
0.000228047049612029,0.531459970132007,1
0.000190248055224874,0.593459814956705,1
0.000128113482004463,0.479921369107463,1
3.83345473430253e-05,0.292643711005914,1
0.000112266666561,0.422801897928949,1
0.000337525557381066,0.801279592497388,1
0.000935384615213704,0.64656908269596,1
0.00128631893521686,0.387550233873231,1
0.00146600561288646,0.343006860645315,1
0.00193044982061641,0.342834581223046,1
0.00191284510341963,0.30646775375036,1
0.00164277386187892,0.283439875787945,1
0.00110418207837848,0.199627670436644,1
0.000750712268697227,0.159710160325092,1
0.00068355407796279,0.154981161636633,1
0.000755706111960685,0.167849776324355,1
0.00088283721090854,0.240267772371143,1
0.000895043071987198,0.277869188514199,1
0.00107373975497841,0.432272802812314,1
0.000903823425766353,0.531093343193691,1
0.000848980512771228,0.526516468314814,1
0.00059415119780543,0.359068391342524,1
0.000401946824657662,0.321609114091834,1
0.000394341778196507,0.322630321072044,1
0.000367596753357481,0.316062195974726,1
0.000296636956602293,0.29444769398106,1
0.000244086362392471,0.293940047539572,1
6.94365524797809e-05,0.210231786527012,1
3.82682342923636e-05,0.215354435730529,1
0.000109829301392882,0.280128529190207,1
0.000114543328910008,0.211456697600398,1
0.000111917110848534,0.235280414487566,1
0.000131168914282863,0.179298882769143,1
0.000380118275569228,0.17721252912211,1
0.000391882259886806,0.111320950206337,1
0.000410332998280852,0.111606390729354,1
0.000391705128270927,0.107332798355705,1
0.00040900753893679,0.108339350604768,0
0.000444758658242187,0.117220835135276,0
0.000441745602616378,0.128068897093985,0
0.000432884627211621,0.136398346319231,0
0.000436483704188216,0.139364357943832,0
0.000420878467649968,0.176833284434728,0
8.89516874651492e-05,0.124988269438969,0
4.78164375455349e-05,0.297222483368115,0
4.99604402491583e-05,0.362784418304552,0
5.01197455684805e-05,0.385838897170391,0
4.84320713560866e-05,0.426352112120785,0
6.36267699262549e-05,0.463908003771957,0
7.10210239840934e-05,0.486104721610014,0
4.79911031646957e-05,0.431093716476807,0
3.54170841588381e-05,0.398824966397977,0
2.08904631666094e-05,0.344024696238114,0
2.0415683408921e-05,0.332583049686424,0
2.17180298785482e-05,0.325581625418958,0
2.31106381641628e-05,0.316708990256393,0
2.28492736842894e-05,0.361635694884082,0
2.05604289116756e-05,0.393656927063989,0
1.64454603730779e-05,0.386252531959635,0
1.4390114791782e-05,0.385735893489929,0
3.23779258323996e-05,0.473204555077724,0
3.37615133068535e-05,0.377595543041337,0
3.39282738784141e-05,0.384171943540066,0
3.29343857171663e-05,0.406711993068491,0
2.42524725753483e-05,0.323601510489485,0
3.51144379519572e-05,0.447077699575616,0
3.87111961529891e-05,0.471524061140092,0
3.94404901173096e-05,0.476203474799045,0
4.10421221193947e-05,0.485980672498827,0
4.12273856288211e-05,0.545552380037035,0
2.42549785538765e-05,0.560479247362999,0
2.55202036071178e-05,0.817250569322573,0
3.30910149658536e-05,0.807240274647343,0
0.0001846245413167,0.370122803770574,0
0.000403127643366514,0.253550838365397,0
0.000372332992633588,0.216454098416697,0
0.00036245462247397,0.204494591091307,0
0.000339543277876819,0.180407172994473,0
0.000316432528576778,0.17988073247712,0
0.00031272194961708,0.178050358324085,0
0.00032345064816692,0.181397416794285,0
0.000354914669110029,0.185877127726061,0
0.000394254112995778,0.192879687966971,0
0.000306609475792429,0.298318960465621,0
9.48085889205197e-05,0.395841643829135,0
8.72415914198576e-05,0.536093590766557,0
8.62918187811041e-05,0.128688430504635,0
0.000536973196669719,0.302941065009729,0
0.000682119211445285,0.254365217519742,0
0.00124868162388082,0.090902858482566,0
0.00466040105137647,0.161652904700764,0
0.0067852738935446,0.130349170621374,0
0.00633994707277576,0.0882842954597331,0
0.00588690135395367,0.0772389872884647,0
0.00535167133658283,0.0701839249610912,0
0.00451239381613371,0.0509871872494274,0
0.00399111504949071,0.0469560634816228,0
0.00422405169487921,0.0504782029084777,0
0.00413665374815383,0.0449857716352715,0
0.00402720377367452,0.0552009038984585,0
0.00294445896409563,0.0452986940577676,0
0.00173365338412391,0.0363789847244809,0
0.00162793396798909,0.0477128896964617,0
0.00156878520109687,0.0542206152213225,0
0.00141731474910066,0.0544301520998882,0
0.00113510803293296,0.0565376656040942,0
0.0011535010065906,0.0577092669749032,0
0.00105624306829327,0.0516841236532853,0
0.000990732570638939,0.0641567544131385,0
0.000610817772495953,0.0669347371459331,0
0.00060118262744175,0.0753658483433585,0
0.000927967589651545,0.0880412847232323,0
0.000985340966475723,0.0797383802464409,0
0.000954548957930543,0.0765613099321538,0
0.000811355619514291,0.0738247090562067,0
0.000762619366887002,0.0963455738297108,0
0.000744286277001681,0.0960494254485545,0
0.000743010835579513,0.0936875952177536,0
0.000606763806712117,0.0823827215749493,0
0.000491247153844326,0.0669200560675712,0
0.000419047474235065,0.0617335386583672,0
0.000491690462835158,0.0812610942676968,0
0.000718235319780615,0.146685288264666,0
0.000951781093295414,0.17574972816515,0
0.00111229722293573,0.197443080793933,0
0.00117204730422104,0.211361381286202,0
0.00118869618475828,0.250591915276197,0
0.000947496665413085,0.256715136555937,0
0.000870544738387024,0.297981360154501,0
0.000332076597617345,0.230062441125672,0
3.57663388218288e-05,0.422516385333765,0
3.38029735966901e-05,0.482864978216844,0
3.77490305084695e-05,0.622561426992691,0
3.75465260294072e-05,0.470528310106936,0
8.54841599610559e-05,0.4649924355118,0
0.000175459271641304,0.494191895312705,0
0.000175149522394823,0.370040291764522,0
0.000171642833046722,0.400791601985155,0
0.000170277533014955,0.408815455334938,0
0.000173874638007363,0.391793482892972,0
0.000167493207733141,0.344316787486144,0
0.000163135517927699,0.337693226113038,0
0.000152158671257974,0.316115949921455,0
0.000143360722602399,0.326107432670184,0
0.000117867409811927,0.392340243707658,0
3.71129876780874e-05,0.268689996676796,0
3.734425822233e-05,0.43605301240071,0
4.21743663174567e-05,0.507122741388685,0
4.14185678014344e-05,0.462135084004334,0
3.12097556063033e-05,0.407738334520933,0
3.53523624180949e-05,0.621356731872817,0
3.3506831718746e-05,0.572577883740303,0
3.04210893318782e-05,0.555076790799044,0
3.22135531574963e-05,0.572072890904311,0
4.25049332114179e-05,0.614691788164297,0
4.32644088680537e-05,0.633779709603046,0
3.61305126294333e-05,0.578147895607802,0
2.58060735481961e-05,0.424765540166155,0
1.56366568195985e-05,0.332566202017405,0
1.88292572006971e-05,0.363940605818888,0
2.25958635516208e-05,0.30704660602795,0
2.28183184456003e-05,0.316333120266577,0
2.6031508103503e-05,0.33616330540647,0
2.61325861849806e-05,0.383862554788438,0
2.13665890915088e-05,0.358656399224551,0
2.46809456040603e-05,0.305796831770263,0
2.85866432505065e-05,0.315943324159131,0
2.86067229286482e-05,0.30994274035641,0
0.00018658567281233,0.308389757567084,0
0.000373556352496461,0.238107004842897,0
0.000387475504607502,0.210749382483033,0
0.000402792909554767,0.208090501950655,0
0.000383946208595339,0.191478961778836,0
0.000374100763795036,0.183910030997223,0
0.000358863790898604,0.174915726230505,0
0.000342697837259903,0.17630755678273,0
0.000376046345924302,0.179778152727746,0
0.000414710076722899,0.188810519607516,0
0.000304056187940577,0.252447688403091,0
0.000117399392401381,0.27673280026793,0
0.000111827127549901,0.345311197362187,0
0.000102407132408054,0.310036391532155,0
9.81877422244152e-05,0.356905560914499,0
7.66727848715765e-05,0.306995454449523,0
5.87827017417097e-05,0.272482536050598,0
6.2235516786817e-05,0.270244321347316,0
6.15737370216009e-05,0.311178432273035,0
4.79839464207163e-05,0.31441218699619,0
4.5855158151091e-05,0.341601277185795,0
5.021232158584e-05,0.39702585928831,0
0.000101895881107806,0.604687974895014,0
0.000108727654291364,0.375878294960135,0
0.000125201303873423,0.378466603955819,0
0.00014256074638878,0.272526525862742,0
0.000216173892760019,0.29223415941688,0
0.00020162600974621,0.226511608421189,0
0.000214657419980135,0.233791108424294,0
0.000216349384274618,0.223620820178284,0
0.000217253583071301,0.222267716240858,0
0.000221158213406719,0.206848073623377,0
0.000210471075609484,0.210803193911141,0
0.000204047492309744,0.211851137760415,0
0.000219047188919719,0.212710212467566,0
0.000469678597995216,0.284931521025212,0
0.000550027266933257,0.253473931702602,0
0.000844783676224928,0.205855186012766,0
0.00115401358423657,0.123950262575525,0
0.00115924111440256,0.103409136499087,0
0.00125315178082348,0.10858385101988,0
0.00131315840488404,0.114602762886248,0
0.00124434580802195,0.114074704431666,0
0.00127050635097929,0.121861409014139,0
0.00131951041210385,0.130304991632096,0
0.00118418252218514,0.135460089903733,0
0.00113183780126069,0.139234951849675,0
0.000804360212302828,0.192671500015137,0
5.50397173556398e-05,0.113182839183599,0
4.30963158518525e-05,0.358712889950142,0
4.06335461400485e-05,0.355240016740603,0
3.6518119504781e-05,0.344553485820087,0
3.76851097592407e-05,0.34339800762945,0
3.60953760727309e-05,0.313125634047068,0
3.71290264827939e-05,0.351432297821314,0
2.91223649431686e-05,0.332050523270244,0
2.8109768513743e-05,0.341080104712111,0
1.63348232507354e-05,0.283109150100224,0
2.21080990234963e-05,0.557819379844158,0
3.07859435079095e-05,0.687956402518215,0
3.00913478251121e-05,0.642362663723299,0
3.2174852120789e-05,0.61409302807754,0
2.45605332680161e-05,0.535149194836376,0
2.17302153516144e-05,0.483644245124732,0
2.67636346774091e-05,0.549628094661247,0
1.79603293063743e-05,0.495997447112208,0
1.45410090225451e-05,0.490614428895146,0
1.11839905634709e-05,0.442004993068992,0
1.30456105530322e-05,0.495629708119945,0
1.30042612296596e-05,0.506812992345995,0
1.2016869265455e-05,0.526753073384019,0
1.29477906502358e-05,0.608455195073111,0
5.18228041375647e-06,0.424089817602544,0
3.63233269408473e-06,0.462831579900973,0
4.43996525489335e-06,0.511734263255222,0
4.28352371741544e-06,0.488704796340076,0
3.96749122785451e-06,0.46327047279272,0
3.18382335732986e-06,0.422024303207807,0
3.78206389465605e-06,0.406595623335221,0
4.32582396408969e-06,0.471058823224313,0
4.47960010404302e-06,0.410325753289708,0
6.83488583522746e-06,0.475906834747191,0
6.70374736217985e-06,0.466249800717183,0
7.19708223738431e-06,0.469991749401538,0
1.933422966264e-05,0.651520571576171,0
2.8268968118449e-05,0.745874279367872,0
3.36956475103369e-05,0.82357105984744,0
7.50604485869519e-05,0.646310449723863,0
0.000111849616132091,0.524325704459917,0
0.000112229059772219,0.498893250892998,0
0.000109225324821145,0.442272413590956,0
0.00010374821803264,0.43034457334817,0
9.73626735285255e-05,0.401559725810702,0
9.2471878975414e-05,0.388441318589847,0
9.19536471222133e-05,0.405095659350834,0
9.29079973393762e-05,0.401930205811292,0
9.97229801957321e-05,0.419475051260456,0
8.24786288779945e-05,0.517848076965436,0
5.01665119188567e-05,0.535150935493908,0
4.83880080132426e-05,0.551515020742072,0
4.56125986750459e-05,0.570674640231962,0
3.16774885699896e-05,0.434243414028102,0
3.06483384853472e-05,0.445714289672836,0
2.89231340595025e-05,0.425298649000803,0
2.92102156527193e-05,0.428393620681897,0
2.83335116351919e-05,0.444032871816224,0
2.75744468085947e-05,0.350656980320689,0
5.07799523205384e-05,0.548543047844555,0
5.21514991712799e-05,0.441907489464326,0
5.67536968883436e-05,0.46628315275391,0
4.96525355871979e-05,0.471110754352256,0
4.52558350554364e-05,0.480364434111453,0
4.23758741313161e-05,0.441237929154964,0
4.24956074542492e-05,0.405294614377847,0
4.72107693705255e-05,0.378316045981785,0
5.50267876448995e-05,0.380915483901548,0
5.06413103121345e-05,0.393750791898619,0
2.2775604150013e-05,0.268122613345698,0
2.06121829928419e-05,0.308585884985695,0
2.08110309998536e-05,0.31192921332983,0
2.28956602074712e-05,0.373619331513656,0
2.0013119440123e-05,0.315634643531919,0
1.97829670312431e-05,0.335959747522719,0
1.92763487079291e-05,0.373016789826715,0
1.80153347896441e-05,0.439484467879231,0
1.94502311240926e-05,0.426684002526272,0
1.71667877923532e-05,0.428721515191899,0
2.02027457104375e-05,0.495149293349625,0
2.04675804758822e-05,0.403938820385818,0
2.28635351620124e-05,0.430522925504245,0
2.67715598853288e-05,0.454851717122592,0
2.75729349540527e-05,0.466709874498474,0
3.13510465790303e-05,0.374118736794584,0
3.24236092856184e-05,0.349310543414959,0
3.20899144926872e-05,0.36066535840972,0
2.95693209188415e-05,0.406647066923773,0
2.70321597977943e-05,0.400708744433726,0
3.37883350024038e-05,0.361363241068504,0
4.87409105081471e-05,0.414960364738196,0
4.74277620038435e-05,0.402467815283391,0
4.07256120505024e-05,0.351833171294004,0
3.78344086141384e-05,0.357914483474172,0
4.6097549568003e-05,0.48362414335905,0
4.9260484801441e-05,0.514430449086665,0
5.04034592024531e-05,0.524314768167652,0
5.30147911551311e-05,0.521615596419073,0
5.1029149962935e-05,0.506932905440318,0
4.15537117402974e-05,0.617120053171926,0
2.17392620831858e-05,0.539436369152823,0
1.98287633144849e-05,0.519640191230436,0
1.66006792464781e-05,0.497881673774515,0
1.56927778970142e-05,0.457072929840005,0
1.41449837738169e-05,0.482028430082017,0
1.39252498453012e-05,0.53337904229748,0
1.38639040262813e-05,0.510939575448366,0
1.57385231865069e-05,0.590385450937247,0
1.37553012326412e-05,0.611735075986942,0
2.07245327258485e-05,0.895675852945843,0
2.43956548909828e-05,0.933944549827601,0
2.44580942802704e-05,0.888035655627426,0
1.72632862624481e-05,0.621621204730294,0
2.37871303883649e-05,0.630716705673308,0
2.42283454166078e-05,0.491803886851012,0
2.1644281566553e-05,0.454419432081811,0
1.830588734609e-05,0.32620801123975,0
2.13518676535569e-05,0.295999639443101,0
2.22266850717813e-05,0.277229642917997,0
2.27327260306535e-05,0.275533729464071,0
2.33770276460051e-05,0.279407024189803,0
2.30744918973449e-05,0.291933344368116,0
2.1772665191247e-05,0.297070032088105,0
1.97022032669189e-05,0.306125106103907,0
2.44294525652955e-05,0.396561433927318,0
2.44493917988591e-05,0.40734230205087,0
2.93560125415438e-05,0.343928721338002,0
4.63810355089564e-05,0.339749057328233,0
4.68640279708843e-05,0.329581245062254,0
4.86536788389927e-05,0.327956486886465,0
5.02856497500018e-05,0.310399011525823,0
5.3213487197382e-05,0.317431386791014,0
5.34331816523311e-05,0.326291933667448,0
5.78735419817193e-05,0.347249767433403,0
5.38892373862979e-05,0.328835840272349,0
5.06642895185692e-05,0.308940402146118,0
4.48959011832446e-05,0.450662780146945,0
2.02123025489145e-05,0.455025002017124,0
2.16603285031531e-05,0.538526759070938,0
1.55515768833596e-05,0.453073355576499,0
1.39586400778643e-05,0.506497301656681,0
1.73868910443675e-05,0.36461520580367,0
3.16537468291204e-05,0.452048474456379,0
3.07873877660864e-05,0.36922678778049,0
3.15833639351527e-05,0.338146679873111,0
3.31710490621464e-05,0.337626766451441,0
3.38401837862471e-05,0.338718765700822,0
3.28956225053563e-05,0.346910725787203,0
3.16513059057406e-05,0.335579548226334,0
3.52853881428392e-05,0.3629533599557,0
2.93472639794024e-05,0.307533458297293,0
2.7370884336299e-05,0.388525840457118,0
1.50605257149263e-05,0.306867042454982,0
1.39974351395908e-05,0.377465856910642,0
1.31870053768163e-05,0.451585447745678,0
9.17450615115077e-06,0.402954075908905,0
1.03787194706655e-05,0.398705259577581,0
1.27085638952294e-05,0.416031547498786,0
1.20437341616897e-05,0.458856997716409,0
1.01971071814419e-05,0.482696091897319,0
8.9295111729881e-06,0.458771175216828,0
9.54279063094338e-06,0.459415375290028,0
9.45033320369812e-06,0.451958014754068,0
9.4413588120964e-06,0.443073077844976,0
1.06245560998103e-05,0.448511231670036,0
1.98282896316858e-05,0.553120630036321,0
4.81112322397814e-05,0.83378076172006,0
6.1018451517794e-05,1,0
8.1505393862798e-05,0.987058739597254,0
9.29643627124272e-05,0.667233491183992,0
8.55915854936906e-05,0.661759561152821,0
7.89590418384833e-05,0.693524381563518,0
6.98226918871723e-05,0.592444854086749,0
7.88703906456616e-05,0.611057504120069,0
7.8182045339542e-05,0.623815101957542,0
8.72058722468654e-05,0.705038018347082,0
7.82012645616978e-05,0.577680811114438,0
8.37275183124149e-05,0.542802883320476,0
6.63771186320977e-05,0.546289827298916,0
3.89193924492912e-05,0.513053037813109,0
3.86658467850635e-05,0.502687489730306,0
4.14786958693955e-05,0.49816492186175,0
3.96363914988114e-05,0.535149438469471,0
3.51830114996106e-05,0.531403209658972,0
3.5317952141135e-05,0.542838067632113,0
3.30434250918413e-05,0.538030443113124,0
3.22636422334589e-05,0.668796737332615,0
2.25602317964843e-05,0.652941418882816,0
1.96355249587054e-05,0.600406754226985,0
2.13643655268669e-05,0.637244377277095,0
2.11524931064381e-05,0.589088707286323,0
2.14894477721952e-05,0.58956543027143,0
2.67497880956714e-05,0.44873307898419,0
2.77366094720121e-05,0.364019062669098,0
2.66982439190072e-05,0.357702708906005,0
2.62046203615818e-05,0.349632368051556,0
2.6100888741591e-05,0.34326363472341,0
2.24031024363438e-05,0.322768568552806,0
2.23022276522048e-05,0.325005747697069,0
2.3693403538654e-05,0.331535862118807,0
2.27328168367981e-05,0.336480705929488,0
2.45475147841046e-05,0.338864973552805,0
2.05662847221019e-05,0.408128558985703,0
2.40948818996634e-05,0.511732001117436,0
2.71418617523789e-05,0.51781703800074,0
3.05255358808434e-05,0.55907431772417,0
2.72771549453714e-05,0.524519864895409,0
2.72372868125256e-05,0.522586103658592,0
2.23681800195048e-05,0.531420329895833,0
8.89751691548395e-06,0.369455475619938,0
1.21965609030714e-05,0.396197220355444,0
1.74500351977625e-05,0.380029156483236,0
1.74076675241375e-05,0.406863230163713,0
1.40303354255677e-05,0.376824121687682,0
1.67381746578919e-05,0.402896866958958,0
1.33783562862207e-05,0.365018310441472,0
1.44673853995844e-05,0.383518949186327,0
1.51508493671877e-05,0.340296182965812,0
3.2208819717794e-05,0.424646264515481,0
4.75679302670176e-05,0.42101583943921,0
4.79384110357258e-05,0.427152047002986,0
4.62664647525248e-05,0.480657353403615,0
4.7913409698429e-05,0.421502220901179,0
5.74390854040865e-05,0.463053021398597,0
5.72953860355539e-05,0.474853912444082,0
5.92770871559118e-05,0.473873413235245,0
5.42025145192619e-05,0.445436162085455,0
5.47258215211084e-05,0.501223137956105,0
4.4962359760918e-05,0.555559794327214,0
2.18620008184423e-05,0.433641345330574,0
2.13235578214875e-05,0.463757369139122,0
1.99223180391157e-05,0.464223664165801,0
1.82535138856985e-05,0.617613073468553,0
2.21162702211957e-05,0.610778902651465,0
2.50055714721274e-05,0.496154937388844,0
2.29133253908871e-05,0.501802039037908,0
2.08673511392468e-05,0.496938824872202,0
2.32460680746156e-05,0.462495909630216,0
3.11550211861518e-05,0.450006569849696,0
3.28560769376212e-05,0.39401901142661,0
3.5882374843829e-05,0.40583696666493,0
3.44204975642482e-05,0.4056080450769,0
3.92728917912992e-05,0.438198309729753,0
3.53210878331697e-05,0.465912531179375,0
3.4239432653109e-05,0.549456126111288,0
3.57384591330452e-05,0.537845449907754,0
3.86697677130689e-05,0.504033128750623,0
3.68332805264168e-05,0.499978160460909,0
1.5868710058595e-05,0.363185669646425,0
1.7355197836339e-05,0.49325734897323,0
2.60140426597222e-05,0.567222349072215,0
3.16037851528234e-05,0.594605806855403,0
3.01032386864517e-05,0.58412442759248,0
2.66668922505077e-05,0.499587741585227,0
2.23011977817699e-05,0.456787609108297,0
2.38547960439866e-05,0.472740900090462,0
2.4886936632481e-05,0.452164244503906,0
2.46062507735392e-05,0.536776913723342,0
2.53627432111442e-05,0.538404216991307,0
2.86161003572239e-05,0.543244356668484,0
2.6147154980514e-05,0.494153356716554,0
2.47504494064527e-05,0.464901078810266,0
2.27886228033389e-05,0.434318167423408,0
2.19557127596817e-05,0.458305454632367,0
2.10532272513204e-05,0.425308462427849,0
1.9184484231255e-05,0.410784441254184,0
1.97848089051316e-05,0.540171486983573,0
1.79146172221136e-05,0.515380307493707,0
2.12075799086433e-05,0.585975461432257,0
2.24544019785438e-05,0.490829326166652,0
1.97366892721375e-05,0.448801166162418,0
1.55239826579223e-05,0.412332427759142,0
1.56687068144563e-05,0.404478937056915,0
1.39407978563493e-05,0.378285270575452,0
1.24660357608572e-05,0.369655210502718,0
1.39651122180558e-05,0.396872570339,0
1.57956937864336e-05,0.421748355550809,0
1.67855781760105e-05,0.393128327376954,0
1.70493347879024e-05,0.412824860761115,0
1.3479889753737e-05,0.47331008568347,0
1.03391144384589e-05,0.488490456445295,0
2.6389985689092e-05,0.662215221762906,0
2.85693724639276e-05,0.526647971824887,0
2.77351804611356e-05,0.52680781066532,0
2.78023431252585e-05,0.534544688734471,0
2.70853464475406e-05,0.521941344164338,0
2.29416479290402e-05,0.481597185969,0
2.23171862703851e-05,0.536283693418978,0
2.24676908479157e-05,0.523951549310457,0
2.54767345701606e-05,0.509757922978843,0
2.63218483836445e-05,0.542492095748911,0
1.40298407353769e-05,0.487006295873337,0
1.38871232929901e-05,0.596373926410958,0
1.56967244066014e-05,0.535326808608695,0
1.55854457117409e-05,0.491533976499073,0
1.33967140359038e-05,0.436066979680162,0
1.28770114958721e-05,0.379765576772923,0
1.72775712887796e-05,0.425195083127026,0
1.78084174030167e-05,0.418549150748997,0
1.80694999772472e-05,0.410989751526014,0
1.67429467240886e-05,0.365025566834874,0
1.7505714272881e-05,0.377200616894325,0
1.89576003353378e-05,0.417644342914397,0
1.84064475275974e-05,0.388589605703124,0
2.1589724692744e-05,0.444159826690091,0
2.19637877299742e-05,0.428479768936653,0
2.24005951025e-05,0.437766665593936,0
2.01286199430502e-05,0.398760668352383,0
2.09111032677481e-05,0.395183971931787,0
1.89441481504371e-05,0.397817050038314,0
3.98071314463623e-05,0.572552546384248,0
4.06322123400923e-05,0.437311609514849,0
3.78250510070533e-05,0.428752850334077,0
3.99248875332622e-05,0.501457613081002,0
3.77074434966251e-05,0.472722113313272,0
4.01357827711497e-05,0.537487682532033,0
3.96330745333164e-05,0.556779059499437,0
3.90188920963484e-05,0.588543760614488,0
3.4095583691618e-05,0.542381625247698,0
3.61853486982541e-05,0.549574047147409,0
2.54056414908231e-05,0.483796606242857,0
2.35101555529262e-05,0.619570118574243,0
1.90238940727523e-05,0.535126132868292,0
1.43562422362829e-05,0.472394971745989,0
1.39573667588664e-05,0.485524876460996,0
1.21014990675032e-05,0.43199118706154,0
1.4351079839196e-05,0.433738567275418,0
1.388251521998e-05,0.336367854185105,0
1.44297037296161e-05,0.322971755397345,0
1.43644152975413e-05,0.31082852130582,0
1.32996463332605e-05,0.268728456184243,0
1.59552110432313e-05,0.247938904922322,0
1.83128218183125e-05,0.253063639144563,0
1.81667228635256e-05,0.250306438222231,0
1.84017039230281e-05,0.243448168717926,0
1.99795929983429e-05,0.249371040175484,0
1.71274755083142e-05,0.198723947962808,0
2.17091457848477e-05,0.25763253517514,0
2.75263918919201e-05,0.321893732374192,0
2.90866108707999e-05,0.370253285347709,0
2.99566841762117e-05,0.450318260975542,0
2.97569513175335e-05,0.505960834181945,0
2.7035295489829e-05,0.460923706839603,0
2.9088603184719e-05,0.485856842412123,0
2.91641086633782e-05,0.47588501950292,0
2.05980512865867e-05,0.423296317394691,0
2.34539621355408e-05,0.551569130937468,0
2.40161761820645e-05,0.481573881148779,0
2.32469774913773e-05,0.439683814103654,0
2.35556101272246e-05,0.410130300680648,0
2.14737776133295e-05,0.401584837182783,0
1.97112898108858e-05,0.435324265946789,0
1.77822908149503e-05,0.437531870995596,0
1.46890501445742e-05,0.388215141535652,0
1.08846276086098e-05,0.338866868573853,0
1.36751356707361e-05,0.374960017044776,0
1.10344247114017e-05,0.38673214181565,0
1.04492848239947e-05,0.410535885923249,0
1.36296024881334e-05,0.451908113826148,0
1.67734997728759e-05,0.555228675293798,0
2.14525247401291e-05,0.548853871148989,0
2.08411838917126e-05,0.576231776146927,0
2.11162031761676e-05,0.616653457403057,0
2.15228398683172e-05,0.68208954392119,0
2.1803577398666e-05,0.72907808965716,0
2.02993476927607e-05,0.779583508617223,0
1.85355408294178e-05,0.713870186062344,0
1.77842433164739e-05,0.663932109743522,0
1.50351475998952e-05,0.688645323210074,0
1.19154616728742e-05,0.487201006258144,0
1.72452207526894e-05,0.569032536933056,0
1.75566836263201e-05,0.498247774839064,0
1.70398294514178e-05,0.451189222199177,0
