Activity,Complexity,Tag
1.65410519345113e-06,0.209335456418919,0
9.56649090340861e-07,0.177800561205693,0
8.7039942815021e-07,0.163827058414487,0
7.31674818254399e-07,0.147368251923891,0
7.78274613408649e-07,0.150889010643354,0
1.02323094253406e-06,0.17966577668373,0
1.23005542057355e-06,0.201486242609647,0
1.17743297949892e-06,0.195102939115583,0
1.18735026133365e-06,0.194267653336571,0
1.53417052923683e-06,0.229625141089019,0
2.12686173721122e-06,0.275416981293706,0
2.13068820179156e-06,0.269352913506052,0
2.41041267153367e-06,0.287158426577565,0
2.56535699042155e-06,0.293466657395613,0
2.487785615077e-06,0.298165282794234,0
2.03380811972199e-06,0.263918816227557,0
1.18892833901706e-06,0.200982443190543,0
6.00197657465731e-07,0.140854352363716,0
5.13450521934379e-07,0.129699507652858,0
8.75987196713164e-07,0.166851869831446,0
1.00544988191079e-06,0.17974979582461,0
1.13001411463649e-06,0.196401264066853,0
1.12496588796979e-06,0.195950116946207,0
1.23038183201666e-06,0.197509269724984,0
1.27410550646607e-06,0.20127412918905,0
1.21946706925019e-06,0.199658463756937,0
1.03934674726241e-06,0.181893699167918,0
7.08882531019311e-07,0.149391015266729,0
3.8808090445231e-07,0.10734123747123,0
8.45595452999447e-07,0.162523408609123,0
8.88463817960902e-07,0.163508863262518,0
8.86086691146964e-07,0.165695522728173,0
8.55453686801385e-07,0.164556495025261,0
7.02536768181252e-07,0.152355999341682,0
7.95310604433525e-07,0.151061833377238,0
6.6838445039589e-07,0.130029966289308,0
7.67046617300812e-07,0.132738442862057,0
8.7509412689522e-07,0.14137424023228,0
8.13855488107676e-07,0.140419294774255,0
6.06609564237526e-07,0.121273604497065,0
6.43965174445933e-07,0.125674828128679,0
6.5764936597815e-07,0.124331533127814,0
7.83922950554603e-07,0.132880120813306,0
7.98153273033945e-07,0.131916955706028,0
8.39513252196194e-07,0.139366182508123,0
1.06436816109189e-06,0.154006030258025,0
1.63645287274486e-06,0.199230094638344,0
1.5155356796758e-06,0.186013794787521,0
1.63949371972145e-06,0.184490133922139,0
1.92812177116441e-06,0.188569585779915,0
2.04380827154267e-06,0.195366912036339,0
1.93358054638533e-06,0.1920398986384,0
1.79962184766894e-06,0.189007421327213,0
1.80351040138248e-06,0.190427014711179,0
1.4765657520042e-06,0.17454006704739,0
1.38389531316558e-06,0.174011882103407,0
1.1403112805964e-06,0.151267452339055,0
1.21726252488405e-06,0.160735203483197,0
1.12026155907351e-06,0.167304000749029,0
7.99506562712669e-07,0.148373134810908,0
6.90910894770869e-07,0.141107043389563,0
7.36172605748404e-07,0.147730866062189,0
7.81047843549899e-07,0.147351749649511,0
7.76506466950137e-07,0.15050580627847,0
7.70949362816235e-07,0.153889490557576,0
7.11482925287735e-07,0.153347529842591,0
4.02903481234869e-07,0.123336389504939,0
3.22060895558308e-07,0.118660095661699,0
3.1154654434472e-07,0.113663425281804,0
3.31846903225707e-07,0.116121172582249,0
3.27992815316714e-07,0.111325361600373,0
2.95270574995217e-07,0.105649574912975,0
2.52190346705781e-07,0.101278945210841,0
2.23097152863558e-07,0.0989472710802621,0
2.17481507546923e-07,0.0977364793027686,0
1.89858178898818e-07,0.0954958173896075,0
2.02225320532098e-07,0.0970896114237194,0
3.79732070149712e-07,0.133875194962322,0
5.18505844502016e-07,0.152419219865611,0
5.43683875002179e-07,0.156269893285416,0
6.5140370602831e-07,0.180320254962266,0
7.20009157113761e-07,0.192442670742404,0
7.25673713461856e-07,0.19056739384655,0
7.55947867960043e-07,0.184366532676444,0
8.56576613124685e-07,0.191678393405389,0
2.27211761706958e-06,0.171552136546876,0
3.62247587774606e-05,0.34217937511171,0
0.000125452068049583,0.467240647055621,0
0.00013525093146208,0.271692243364301,0
0.000130698963469895,0.265937945088105,0
0.000125026142678033,0.263087333690468,0
0.000119680691782755,0.236116424547867,0
0.000120994470724786,0.21725834253999,0
0.000114915133624412,0.203460866601368,0
0.000108106772531634,0.197403642437993,0
0.000122653691809388,0.126595159250256,0
0.000227052783114963,0.180102438500784,0
0.000232097411146187,0.160645156889124,0
0.000238009103785546,0.154658998107786,0
0.000278483712182367,0.14957699893701,0
0.000253249622797676,0.124357819611045,0
0.000244068319951963,0.117966023133909,0
0.000306766743699495,0.110466429365367,0
0.000299057004755901,0.0995205120979445,0
0.000300759094205464,0.0780514221494894,0
0.000423778052584091,0.0790478885571774,0
0.000472100353615451,0.0705858245732738,0
0.000824209356651694,0.0969870710120045,0
0.00132090850617519,0.124070956736825,0
0.00144358401281145,0.120877347586964,0
0.00119970535209974,0.0943518093507932,0
0.00103802052160329,0.0837258047360844,0
0.00120018727528039,0.0999859401224974,0
0.00135787684137075,0.108361032439638,0
0.00166137802789045,0.1568975175469,0
0.00193394573388596,0.20789517434216,0
0.00216395230741002,0.308248347565608,0
0.00197360355644101,0.457108320186641,0
0.00109558530203002,0.37641120513782,0
0.000472277864419869,0.279959298667149,0
0.000125528829225096,0.1716422154914,0
0.000377689095393105,0.209849813127032,0
0.00109921067891481,0.238066500130109,0
0.00138724389542744,0.130111884430538,0
0.00259941748446111,0.10415740412333,0
0.00267879901501141,0.0925363804498609,0
0.00245655920815938,0.0812596005777483,0
0.00219645875758264,0.072233575430835,0
0.00213499083781799,0.0701737164877321,1
0.00210281161765134,0.0698375672796231,1
0.00222315629822728,0.0773074481784898,1
0.00245403716378801,0.093193533070249,1
0.00240387809690867,0.100177981066147,1
0.00241720450424576,0.150340519010352,1
0.00112199258586052,0.280726257772432,1
0.000516911945240341,0.315242339506598,1
6.64038679908212e-05,0.191164859746263,1
3.56671405804182e-06,0.181721187579814,1
4.39843474388388e-06,0.184393322397621,1
1.03008692599201e-05,0.275260409243625,1
1.37569967429571e-05,0.318773513959876,1
1.41051520539366e-05,0.327533312981635,1
1.71293223962018e-05,0.306918392830539,1
5.67093110275744e-05,0.431113059176932,1
0.000100390684023825,0.437454077700717,1
0.000158674667716061,0.233299666964923,1
0.000383849711983913,0.2870460484493,1
0.000568901882034246,0.142991093849999,1
0.00211218591379704,0.155937115983406,1
0.00305776724487735,0.151741545755338,1
0.0031766553131213,0.142979836967778,1
0.00428417891905256,0.116755462086003,1
0.00524852087453801,0.118386728166063,1
0.00524931845760472,0.105150449332083,1
0.00504167315818323,0.057276150919383,1
0.00656195942620065,0.0491324296523087,1
0.0105877077416193,0.0275961971794624,1
0.0224484777478146,0.0359830032008388,1
0.0230904186160591,0.0297164634018472,1
0.022591983080316,0.0302600060241632,1
0.018844680102194,0.0260971859384683,1
0.016332532468752,0.0232714227327205,1
0.0152668985307139,0.01266942680876,1
0.0404464628780357,0.0184889762320198,1
0.0454381180003707,0.0121058362590105,1
0.0530038025663825,0.0127453001615322,1
0.053513366422113,0.00818534377513387,1
0.0595320263417926,0.00964872862699913,1
0.0602477556419891,0.00993746215563587,1
0.0589554573147204,0.00923718585740668,1
0.0570345028738594,0.00850034717685694,1
0.0526527648213738,0.005765240713846,1
0.0632765971395602,0.00863905589250741,1
0.0549931917160004,0.00967341047003883,1
0.0461005828717936,0.00933194676148464,1
0.0304464898487163,0.00675553547097038,1
0.0243136293911572,0.0112022957086281,1
0.0233629254911767,0.00991666587609741,1
0.0241686525112264,0.0103335148553462,1
0.0220169426471551,0.00913557251822877,1
0.0195505074928114,0.00873700378360576,1
0.0108776185748282,0.0109360733464109,1
0.00789879148431214,0.0108259421969631,1
0.00686569336916836,0.00777718966604764,1
0.0075262303808616,0.00919457668706303,1
0.00698906719887478,0.0108743366256029,1
0.00960211444677367,0.00862309423122129,1
0.022129587199425,0.0193869026980735,1
0.0226941318130778,0.0180456528844059,1
0.026203981851205,0.0231053665532313,1
0.0277347086989157,0.0294460098897441,1
0.0266420000358447,0.0236052336326139,1
0.0314935901042132,0.020466115366792,1
0.0331880985263663,0.0150514834664172,1
0.0286808399691611,0.012897447151755,1
0.0252736621266339,0.0115414162216137,1
0.0265175437507791,0.0174605739490445,1
0.0219579016849153,0.0156955879661546,1
0.0207628575396685,0.0138892817945851,1
0.0190752132055059,0.0125531013870451,1
0.0165778024590002,0.00997928967027101,1
0.0147811183236959,0.0101389273428137,1
0.0103858968924075,0.0105052114212707,1
0.00691020544002702,0.0160790924704915,1
0.00772206192034056,0.0219189749738048,1
0.00824393704863515,0.0148506245254669,1
0.00892283547137421,0.0165253506562832,1
0.0133017520831539,0.00711907843553856,1
0.0244932110633049,0.0119590330678641,1
0.0249581527385476,0.00958078235320199,1
0.0250964676483562,0.0100003951710445,1
0.0270712925449309,0.00887927519823917,1
0.0280475349223436,0.00860154234861139,1
0.0278206779252725,0.00811959582960776,1
0.0285092974986375,0.0084109214121639,1
0.0283758380515453,0.00960362614971306,1
0.0302361713997404,0.0105790274258895,1
0.0313615286061194,0.0258598311847587,1
0.0158191931659415,0.0153261030945848,1
0.01614301416146,0.0186422450398859,1
0.016387747740118,0.0167114793543711,1
0.0167199274086593,0.0208891939237795,1
0.00986915118005075,0.0129699436919452,1
0.00722462488049645,0.00826176180306663,1
0.0069307654480603,0.00680090346539496,1
0.00665231812695246,0.00759877547964574,1
0.012367960684741,0.0123802666022707,1
0.0118171980446422,0.00551329485878642,1
0.0149723017743621,0.00723698724955376,1
0.0153889479862845,0.00623477779224579,1
0.0151719459203803,0.00608359187997679,1
0.0176063302482958,0.0071010367071453,1
0.0207475065019992,0.00873016270386139,1
0.0206479273926382,0.00872184737815085,1
0.0240483459759331,0.00952743990974252,1
0.0239428400011226,0.00906529312688593,1
0.0318756479167171,0.0105056930046869,1
0.0396413025183881,0.0206392613851494,1
0.0326287638491337,0.0145819908698661,1
0.0298800068987429,0.0148563076770952,1
0.0279803409534068,0.0122671706181451,1
0.049631492647031,0.0217984234608501,1
0.0603109393473058,0.0260727257883669,1
0.0792937008116674,0.0299563161918852,1
0.0855357370954946,0.0265619275535752,1
0.0664362736546183,0.0194483088053364,1
0.200095932647311,0.0142834463037074,1
0.362873736219615,0.0115612471124463,1
0.342990695574944,0.00970526427509587,1
0.28975757355444,0.00796848933873686,1
0.260651653148756,0.00733443213954544,1
0.257101527421623,0.00738208702569175,1
0.287986624141058,0.00563854374846501,1
0.345516019051349,0.00564956228518881,1
0.33382437556871,0.00576970027967307,1
0.364726303492228,0.00630441285259363,1
0.395524089832659,0.0119817929233815,1
0.263110679983836,0.0102482518622475,1
0.3384226319608,0.0110535410734312,1
0.464371712539981,0.0146730408883892,1
0.508337434370403,0.0155174020645989,1
0.537702930831981,0.0157123575333745,1
0.408211796342839,0.0174698797191323,1
0.177222395684025,0.00937452387993289,1
0.128834491090033,0.00550104113241167,1
0.118725336581293,0.00611370676039368,1
0.143324714560259,0.00611995820925259,1
0.135705620459368,0.00442891683861847,1
0.122988461317805,0.00933301280165108,1
0.0861682682656367,0.00584199254853706,1
0.0757719173473106,0.00540809115536109,1
0.0663208866357254,0.00476350934316809,1
0.0612311787675469,0.00618656899293619,1
0.0579610860277644,0.00653343424198222,1
0.0601396042423228,0.00716939467935136,1
0.0645384783225775,0.00639313871554314,1
0.046062409441009,0.00826254685491831,1
0.0212102419022363,0.0066803721404341,1
0.0213591772487514,0.00668057703528133,1
0.0207697213461038,0.00631526318590702,1
0.0306436990515334,0.00999334660212112,1
0.0336212711888865,0.0104951466265127,1
0.0349891012809604,0.00956640123645723,1
0.0366826125931959,0.0107514300335433,1
0.0344670271007335,0.00984382598546171,1
0.0277243218106103,0.00954224620844493,1
0.025210234871497,0.0107516751304671,1
0.0307392959846242,0.0152470619152297,1
0.0308700875597383,0.0117293264162306,1
0.0666609643420649,0.0132571626448687,1
0.127338443082799,0.0215966202904546,1
0.213704310110893,0.0344647681008777,1
0.244716157598783,0.0387523361402812,1
0.213628467563873,0.0301895551030675,1
0.17637521620571,0.0236340800311764,1
0.146570107443805,0.0184282230240029,1
0.105788251434605,0.0133734494158142,1
0.0927521759054368,0.0124420064864779,1
0.0500298186690099,0.00796361816818038,1
0.0434711157425783,0.00772474250873356,1
0.0642012567673036,0.0126060189203518,1
0.0700744312037911,0.0132347694449211,1
0.0718455672606558,0.0139146806727833,1
0.0759479092297837,0.0156783240380345,1
0.0781294996313789,0.0159028428609384,1
0.100625485034051,0.0128708724697625,1
0.182483293916013,0.011402166914422,1
0.211630960799124,0.00578941564241672,1
0.211145067489274,0.00581550127926872,1
0.238582316883311,0.00600733485060425,1
0.351379221264468,0.00969014845943799,1
0.396021551119704,0.01060640676057,1
0.407831756726206,0.00911751955028406,1
0.421087502826313,0.00965257705863666,1
0.422294845086296,0.00986933164019261,1
0.421211931170761,0.0110624673131233,1
0.268411358481191,0.0108404294795666,1
0.193835254180562,0.0187592682344838,1
0.194336766036451,0.0163012775884553,1
0.184058729780046,0.0252967889046396,1
0.108461892157163,0.0104797945385992,1
0.089950866318883,0.00790534730919054,1
0.0751725893991966,0.00999196095072226,1
0.0857488578376481,0.0103436252592036,1
0.0975244021728704,0.0115437383360143,1
0.0887358583969052,0.00929052473964936,1
0.0766489073468812,0.00717852425744966,1
0.0655657186944565,0.00270788728992377,1
0.125926501872989,0.00816581493016299,1
0.13094745389829,0.00709053510356844,1
0.152034011381209,0.0116700346462747,1
0.155392899717425,0.00702995681506745,1
0.166531724474771,0.0060444350808499,1
0.168400247716944,0.00684218450141171,1
0.134812330542035,0.0048374446325281,1
0.11159979298557,0.00352991157250762,1
0.108590732500678,0.00380246481849544,1
0.0942791209889416,0.00490973424777496,1
0.0764866706476414,0.00257103545359683,1
0.0835213988610724,0.00428671573771126,1
0.0741862600718893,0.00442148349556943,1
0.0632321916301268,0.00966768844545342,1
0.0414239490944031,0.0125820486695008,1
0.0464821010625723,0.0171940553871623,1
0.0909987068514576,0.024634263481336,1
0.091605878326152,0.0147516956920353,1
0.087730968511332,0.0131209567689713,1
0.0759690671039642,0.0113414018614087,1
0.0739919844452868,0.0166168391558762,1
0.0747142327456195,0.012004754122176,1
0.103442647401573,0.0128696992991557,1
0.10442707702011,0.0105335753940867,1
0.104344612749144,0.0110493099758992,1
0.100757099892064,0.0125247262314826,1
0.0665620656140419,0.00921499218507132,1
0.0693254325036738,0.0143645200884073,1
0.0709378328815059,0.0103330483068404,1
0.10527884197757,0.0175290602367407,1
0.111247190559939,0.0161824705235643,1
0.0955262328891937,0.0128292518525641,1
0.099048816765094,0.0143621881527254,1
0.10675310476937,0.0100585261255926,1
0.263324173546399,0.0191934959519657,1
0.424677073350972,0.0255700398270261,1
0.44757727340329,0.0192296523851161,1
0.458739137366724,0.0180241547488769,1
0.444922814681276,0.0158028034473696,1
0.364364747107294,0.0104425757127963,1
0.251945733516179,0.00526262711429721,1
0.239809644573927,0.00541880159708541,1
0.227442612232474,0.0053082006615576,1
0.207172220281097,0.00630607762843803,1
0.175300793317463,0.0066162699309084,1
0.11866491596937,0.00368723812498064,1
0.108572287414514,0.00340630413024033,1
0.108408665489987,0.00457389874847211,1
0.136809949946862,0.0105360419547905,1
0.159748220340969,0.0167968750511842,1
0.167654880248083,0.0250593727743125,1
0.156896964114988,0.0261564575110705,1
0.18882902210859,0.0288765346962628,1
0.182258049272614,0.0266175866393669,1
0.17272698827988,0.023982847382188,1
0.0747026963312459,0.00637885389702931,1
0.0581595778281074,0.00698584942400975,1
0.0542701834041294,0.0045936833352367,1
0.0591902388801497,0.00347439778190988,1
0.0805117784059455,0.00617275527125829,1
0.0884460494813612,0.00663638109045464,1
0.0880858955541101,0.00700096991601093,1
0.0865563741469001,0.0067999906617294,1
0.0855022069625226,0.00701853723227132,1
0.061301839578017,0.00545245626862556,1
0.0378110199872915,0.00443516921205055,1
0.0569633494307202,0.00911980576915074,1
0.0500079415411323,0.0105118490966856,1
0.0419407426392144,0.0109221860840685,1
0.0553678696060225,0.0109734252265997,1
0.0558931809152226,0.0079806720798244,1
0.113705778232497,0.0108181608988011,1
0.132086290972268,0.00902608179496576,1
0.117933777709438,0.00698341610300062,1
0.121698458489147,0.00658747845730641,1
0.119954763558468,0.00550345612119418,1
0.141958617266666,0.00553839997729932,1
0.144380165987651,0.00591962776634213,1
0.124513306701668,0.00460847602298642,1
0.19149361059235,0.00726634619709273,1
0.168726518680727,0.00292738740003108,1
0.166281740141283,0.00404869303306699,1
0.191305449586962,0.00568205465085374,1
0.202227079724797,0.00624551127457947,1
0.237052409335418,0.0079238265281318,1
0.281166202675622,0.0105700607854063,1
0.280994488498234,0.0103994436283771,1
0.204223691247368,0.00705236812884788,1
0.195108802927435,0.00341986194777328,1
0.378125425781467,0.0114188830442881,1
0.551361339132417,0.0219216922746882,1
0.715486439015212,0.0282622881251725,1
0.781302379229728,0.0341299278890427,1
0.733176962630922,0.0239203984886215,1
0.628240157197591,0.0192415928433867,1
0.444088599086801,0.0122115649697629,1
0.332230845143856,0.00969231704045545,1
0.225897085829111,0.00589163458842528,1
0.13706883145572,0.00621879326255961,1
0.136498364877097,0.00690341081136752,1
0.126584622231419,0.00539578295941242,1
0.106203698033789,0.00327118377590762,1
0.0984300421299545,0.00300362750239804,1
0.0797639272691195,0.00453843273513745,1
0.0482762755594209,0.00211178667989902,1
0.0769495679786187,0.00523331310627505,1
0.0666297565900174,0.00379862787911386,1
0.0700247138509163,0.00271587396943682,1
0.100372668835218,0.00427455221789948,1
0.101983934995881,0.00258336353390946,1
0.106229398728078,0.00226804059479712,1
0.114572797550284,0.00353616364623726,1
0.156765887427841,0.00581026531232634,1
0.158863526449477,0.00397733062761423,1
0.151628745786312,0.00465119460017672,1
0.135173237256691,0.00473678184532113,1
0.132651001302071,0.00488843537034088,1
0.132920133959718,0.00662830354572459,1
0.117989718962429,0.00538475937949638,1
0.107193939227886,0.00610821967661953,1
0.107672738568911,0.00799491089022014,1
0.112672086007726,0.0082680358215298,1
0.0624938816558927,0.0031037546928723,1
0.0661697240610227,0.00991431019388002,1
0.0840031849945284,0.0120963085045118,1
0.115522903100836,0.0143500600115661,1
0.122636606126782,0.0185843985245498,1
0.126337932446428,0.0197836189609504,1
0.145130823557352,0.0309086391749432,1
0.165681795802159,0.0484254174258132,1
0.194628900400883,0.0527904866677935,1
0.207022931440873,0.0567092890906857,1
0.209216783225019,0.018709909283317,1
0.239627249642647,0.0136502607593304,1
0.241341779856857,0.00873370753260602,1
0.236470053802858,0.00713238675814582,1
0.219447863305797,0.00600725918814535,1
0.213995336689627,0.00536462951688726,1
0.242919521965989,0.00619521607667923,1
0.298707306145515,0.00832477908869992,1
0.3002791574716,0.00837202478770711,1
0.225519056041014,0.00577090365923622,1
0.173317483777884,0.00620554314354448,1
0.172006234769854,0.00859672036592642,1
0.163107029207402,0.0175656102530979,1
0.275276586722162,0.0345613373582262,1
0.299589018740859,0.0458743531626063,1
0.275296102493105,0.0346403053933701,1
0.250275768815859,0.028224331297225,1
0.265672199344531,0.0230363622993848,1
0.291662196146745,0.0306818126525646,1
0.275333011836275,0.0269624092943454,1
0.274440683229533,0.0281284087908112,1
0.27901442909923,0.0297611172886487,1
0.335012227903809,0.0330079206303171,1
0.279885258998436,0.0191334627612543,1
0.245674191497021,0.00831363635305995,1
0.19307229370335,0.00244902310362049,1
0.163008737581348,0.00098905464547139,1
0.171274228415902,0.00121373475001834,1
0.186447779692383,0.00183825036666562,1
0.216628738687754,0.00291750119001165,1
0.233179329095511,0.0032648106855847,1
0.238830975930587,0.00322872543733133,1
0.21911372596942,0.00292388973211943,1
0.200870082813916,0.00311649037125686,1
0.143285303399076,0.00659196482343829,1
0.0849882639995085,0.00710390606459601,1
0.0767119842368408,0.0107986591577254,1
0.0324660867582613,0.00615077874950181,1
0.0510726162803708,0.00977828460847978,1
0.0609491561078203,0.0115679334970705,1
0.0630903364242993,0.0123224634461264,1
0.0674441321488691,0.015467841327288,1
0.0576792304544568,0.0137540593273606,1
0.0563788309644105,0.0133346474205972,1
0.0586004443912669,0.0143495617944452,1
0.0684552611722456,0.0110496829268748,1
0.0872227373207907,0.0187925421048208,1
0.114801261861418,0.021668373054264,1
0.105914177425714,0.0195385647545334,1
0.0986815870781138,0.0159201169673217,1
0.134252695356186,0.0170253151411395,1
0.167467884418519,0.0212439707744914,1
0.21909908331326,0.0192290350314821,1
0.383981926343932,0.0333109402893147,1
0.40415914965656,0.0326364027480425,1
0.39304739128707,0.0319224771036692,1
0.393116937411332,0.0273621215749202,1
0.38193240600417,0.0270688276520084,1
0.286104632753968,0.0239685004560458,1
0.204902600754411,0.0155883544501927,1
0.195701139717459,0.0131591295860143,1
0.263733796577191,0.00919527428123301,1
0.33761922835869,0.0109498518164308,1
0.272689215059707,0.00835987332265508,1
0.217344453182354,0.00620135847963702,1
0.200369354129066,0.00634229240862594,1
0.196926245237998,0.00665042519066556,1
0.197018433273162,0.00781693974515133,1
0.21160254466067,0.00783474485272702,1
0.168620917054185,0.00745090939257961,1
0.0993003887787935,0.00386562227972406,1
0.0710732117905825,0.00722536298243488,1
0.0939778374772458,0.00999807888749137,1
0.260049154441911,0.0256390235219128,1
0.403414215123568,0.0346600156846646,1
0.440254290559443,0.0349438950646812,1
0.389548411005451,0.0310036137461159,1
0.372788420734636,0.0192736855877545,1
0.385155854678486,0.0213672978435019,1
0.404173862883482,0.0178507293186866,1
0.47406949252555,0.0221499239839898,1
0.713489046156906,0.023317036090381,1
0.751872949549173,0.0193848091162181,1
0.680906262180945,0.015938830340001,1
0.565440010948552,0.0112200659173982,1
0.404034344678163,0.00766133993882724,1
0.278492468939741,0.00382671152236225,1
0.295933939842036,0.00463923739152614,1
0.288011896810602,0.0037362292217887,1
0.302578859928391,0.00369930509559692,1
0.435693931583303,0.00608554427295219,1
0.366120828367683,0.00571226317325071,1
0.419985355107623,0.0103123239794818,1
0.394671047819572,0.0131163231451184,1
0.266109470469932,0.0108466275034615,1
0.26978203554705,0.0100803575951117,1
0.250424595287432,0.0104798481463241,1
0.266805339965072,0.0124794383470852,1
0.214530470935337,0.0121640359842144,1
0.213603538014337,0.0214817559791518,1
0.180549540427063,0.0197618995703111,1
0.153985011648976,0.0157573772319495,1
0.0943002034597978,0.0103445447782256,1
0.0756212193412423,0.00961539759404829,1
0.0937939982886113,0.0116277728931547,1
0.0806812528250519,0.0111482711825021,1
0.0710398371744166,0.0100017066430696,1
0.058636866270371,0.00904078188856889,1
0.0581099539259671,0.0118338713381212,1
0.042798199680556,0.0100202351984242,1
0.0593087262981144,0.0144501541874139,1
0.0629973166362644,0.0110259430744724,1
0.0737572762760555,0.0123858138965877,1
0.0727186405776013,0.009650420007922,1
0.0872814605093262,0.0109159226214092,1
0.105138332951328,0.0130809634694119,1
0.0999671908757188,0.0128389765895852,1
0.0955422389223619,0.0119319387918838,1
0.101467978367983,0.00984388205340007,1
0.147224692755409,0.0156638822294331,1
0.167694861780317,0.0166614501416997,1
0.256864851234678,0.0311463276396348,1
0.242466858608933,0.0167974633354338,1
0.211839037683152,0.0149479055964407,1
0.222872145682964,0.0104669265399034,1
0.304456844506551,0.0151230061071355,1
0.25325460267181,0.00685969667980082,1
0.259718539252266,0.00658229880695186,1
0.286942579916245,0.00534840614688968,1
0.32212587775317,0.00538792157934053,1
0.330755424788106,0.00492129387857949,1
0.311595162250593,0.00424579154803086,1
0.317813431820076,0.00470875376966228,1
0.336466315841674,0.00425580162997559,1
0.447302310437159,0.00928044065745827,1
0.585370453229238,0.0123649606065031,1
0.702282808929079,0.0154257829545393,1
0.700007940505676,0.0156391056797245,1
0.723226648407466,0.0215125531777817,1
0.58476789741737,0.0174671818900203,1
0.487216940601108,0.0155785171546666,1
0.409528946138124,0.0104059207269873,1
0.320441841725182,0.0115109260679993,1
0.345886327303567,0.0150864345273478,1
0.384555298786488,0.019720716779137,1
0.413045540595927,0.0211756695791176,1
0.290006105635521,0.0128308480779496,1
0.273646135781136,0.0128669646486106,1
0.197613015556983,0.00644384335192834,1
0.249666328415182,0.00982326363569356,1
0.297422910999813,0.0108828811758009,1
0.28432116196321,0.0148551634369065,1
0.271267602766681,0.0135560396297158,1
0.272375659071779,0.0134100802920284,1
0.298448672244319,0.011897688951886,1
0.221573346288929,0.0107351453243094,1
0.184698183196182,0.00972110476248616,1
0.14324671471921,0.00655530739200065,1
0.134740772087172,0.00953132989622295,1
0.144768390843858,0.00549540329416458,1
0.165875601856503,0.00635710715114252,1
0.165168868279802,0.00677989314123906,1
0.157276819560553,0.00696815123941405,1
0.127449896729255,0.00531204377129525,1
0.125294731357832,0.00621623729352272,1
0.147467406962305,0.00649181818271765,1
0.186103857432237,0.00665034252413839,1
0.190444892776563,0.00762918580636541,1
0.183021986538351,0.00726207551037645,1
0.194189608714902,0.0142971420113574,1
0.162283892775554,0.0149589283709383,1
0.172074201363546,0.0149425679188798,1
0.178768015865041,0.0151428124782948,1
0.191348485696741,0.00879657007665176,1
0.338885258425779,0.0130437299387786,1
0.584832879685218,0.0247047496643322,1
0.70708172366961,0.0274002353081124,1
0.69218001660512,0.0216990753363615,1
0.655366930253343,0.0160814130453769,1
0.634047833655664,0.0165086179069345,1
0.55602683419027,0.012558559063911,1
0.46395496780046,0.0104872567673984,1
0.370515636650023,0.00769664779477188,1
0.338109260195384,0.00868144776317506,1
0.317770522191437,0.0103644812722569,1
0.205498064582279,0.0055559037654965,1
0.156149150600629,0.00445780986112023,1
0.13627060003122,0.00551363617441121,1
0.12431641948752,0.00849611567759773,1
0.122292150476634,0.00805986419932042,1
0.167617736095723,0.0141723059534478,1
0.180950622584397,0.00832820511493727,1
0.191149837182665,0.00986124604376021,1
0.184729463081357,0.0125936357251479,1
0.237806508667205,0.0132186118403161,1
0.288861668767962,0.0150216575318188,1
0.287814893858256,0.0118195503784767,1
0.321148370521785,0.00847314410400612,1
0.423229059900666,0.0094250566977714,1
0.362511616081064,0.00673680854166718,1
0.296969518681867,0.00476394120912686,1
0.321861496345811,0.00750441452586434,1
0.327269631323767,0.00653084761197077,1
0.327911032375402,0.00604160195715677,1
0.292581913210602,0.00608232635237841,1
0.279207171471181,0.00584734747008672,1
0.287655783431516,0.00610408855656814,1
0.242389307017213,0.0078145184132034,1
0.174038070420451,0.00763560670297839,1
0.203535099014256,0.00961139766877184,1
0.180964294435904,0.00714076311291026,1
0.240315951340169,0.00950296500423329,1
0.275791729823012,0.0113419802266593,1
0.274365819406698,0.0108250287375635,1
0.255092798689241,0.00965668728984363,1
0.200120721638706,0.00750281107882713,1
0.218653624633501,0.0107044253291809,1
0.229009049299473,0.0103583341268699,1
0.214687317170833,0.0121832282132493,1
0.209199137125391,0.0137076362267946,1
0.15939662445292,0.0140458149266188,1
0.160871045325934,0.0139968200627911,1
0.157473560876135,0.0183742771614126,1
0.0788911086519354,0.0135001505467077,1
0.0580835092568757,0.0115255609185076,1
0.065554722292336,0.0135134597384963,1
0.162139525490788,0.0227356119791984,1
0.154964766287263,0.00926961271255892,1
0.143444312554131,0.00844487935431026,1
0.157032716676975,0.00872340383502757,1
0.198337355497788,0.0114709662383375,1
0.176409842681987,0.0113518556851439,1
0.166929877572432,0.0111452341794702,1
0.134570695474433,0.00933668265800209,1
0.109215541883797,0.00418876265933012,1
0.148860015307902,0.00815621254136383,1
0.13463051924734,0.00943500855332504,1
0.154782409238971,0.0178258283128046,1
0.177686788632995,0.0203637284355204,1
0.172754892940726,0.0235900145686045,1
0.130386438386873,0.0201937327107141,1
0.118084072603457,0.0156203665031984,1
0.152588373390195,0.00987423843693478,1
0.202443942286049,0.0100942917587033,1
0.184439994986751,0.0112362660642384,1
0.214407760117723,0.00456614499698277,1
0.520475995468027,0.0119597671554946,1
0.718016666036158,0.0156207591061471,1
0.728673370418279,0.0166457527803964,1
0.689198566726939,0.0138015736328195,1
0.614667846921716,0.0111371625873225,1
0.632561703593225,0.0110994284739694,1
0.633147509467068,0.0102458855438441,1
0.658351547846113,0.00985907302222339,1
0.5466486086765,0.00734238359775944,1
0.488799743799748,0.0100020834815795,1
0.415897166036586,0.010173494255652,1
0.347843542309375,0.00878439856755247,1
0.313291117199776,0.00688204598809453,1
0.29677465423335,0.007149567779047,1
0.359996444892596,0.00809160051004252,1
0.295079954636728,0.00717147379158374,1
0.30479413700791,0.0120346555096879,1
0.32078858447062,0.0171048702429621,1
0.377025741623493,0.0285162111429186,1
0.42910452451916,0.0339592777250049,1
0.363531939784327,0.0220719566013162,1
0.385932520967426,0.00412081856507382,1
0.749881717923787,0.0089076727573055,1
0.747830153620404,0.00944690687891575,1
0.749261022083859,0.0109035054602989,1
0.745538363033856,0.0107873639004144,1
0.733201743106729,0.0103840407775713,1
0.711014047152831,0.0100540917551816,1
0.641388997054036,0.00912230334307014,1
0.495493528180917,0.00628578708106529,1
0.476606904393285,0.0041915742345541,1
0.528525034322068,0.0136063608357812,1
0.250544517110093,0.00999888583742938,1
0.270462259957228,0.00890735182298778,1
0.283762795636461,0.00752742159617673,1
0.272432263175178,0.00576852956944252,1
0.337043681459654,0.00523206541810312,1
0.380226022334065,0.00551242171209983,1
0.337221402438323,0.00481676548072691,1
0.219524284218414,0.00178584398412538,1
0.207865765617029,0.00364079666276327,1
0.206877770497073,0.00473486677431494,1
0.182517306717235,0.00366485815994284,1
0.18206771170808,0.00335683966290889,1
0.183810389532592,0.00413843018609078,1
0.102439140984291,0.000129394923326468,1
0.130746188325983,0.0054479182839663,1
0.122961359086779,0.00476785686931784,1
0.124643226492893,0.00518658091910811,1
0.0905774321739295,0.00332245311681518,1
0.0819337847125564,0.00477120401630871,1
0.0759581827154551,0.00407732124199063,1
0.0952510960676611,0.00664212035685039,1
0.117333725473339,0.0106936964214919,1
0.122741233272235,0.00805480175870755,1
0.133485028586794,0.0130896103736348,1
0.118239262987915,0.0101740543208085,1
0.107623969866779,0.0120864545312015,1
0.0978450736687238,0.0112785632569987,1
0.0998542735344621,0.0100377200826718,1
0.100389506273811,0.00940998346433713,1
0.100814770019503,0.0091513278825388,1
0.0821184804309205,0.00891059010705628,1
0.0667598145171459,0.00334859641199546,1
0.151740141131579,0.0197798647102814,1
0.133612003470157,0.00895383884898478,1
0.173229806511658,0.00481513892940706,1
0.313996673779642,0.0114941787513711,1
0.441261572341694,0.0135274338000476,1
0.732779451022727,0.0204831858284044,1
0.733899480182175,0.011129710399666,1
0.639029575070471,0.00952779182479383,1
0.633395355447768,0.00902996714746456,1
0.667391977580737,0.00964612358338578,1
0.709163069439576,0.00974569249519019,1
0.823450248769464,0.0122109467375264,1
0.966543731463142,0.0230665774854202,1
0.955639887891335,0.0175720763537384,1
0.810885805660299,0.0214845144226624,1
0.383916078676479,0.0104645245649286,1
0.214699770403738,0.0061450662132009,1
0.234885602155219,0.00550980917994495,1
0.252515716983817,0.00538317104568371,1
0.371533698553361,0.00807940514621745,1
0.368398343228375,0.00832075859366632,1
0.351064015977552,0.00772983182597296,1
0.27533282284405,0.0045642361172595,1
0.368671778636849,0.00618425490367329,1
0.408311621507634,0.00321959631293073,1
0.506435019047036,0.00502867617550347,1
0.51118101940212,0.0071329789652922,1
0.440636279798427,0.00554710552614023,1
0.447221635468067,0.00588450325050918,1
0.414680934003018,0.00595431964007464,1
0.419015750868496,0.00624285982025012,1
0.433370820218157,0.00666624641958993,1
0.432483098192502,0.00631742866421422,1
0.219930117242351,0.00198289722871579,1
0.19617718939155,0.00630299435939433,1
0.205575259594333,0.00675616252565335,1
0.20891053720286,0.00539066773804527,1
0.193062225981066,0.00508399161032637,1
0.177523302986005,0.00537294962604613,1
0.183050376915644,0.0043965689091605,1
0.178750875543999,0.0040279761265243,1
0.180157087661255,0.00425652059546264,1
0.171771023655075,0.0059645518784685,1
0.0995518791637829,0.00186766148952479,1
0.111427526689561,0.00385081739521084,1
0.0904659027576974,0.00241364919957752,1
0.0831570326116344,0.00435888413200715,1
0.0876032646133529,0.0110935168781316,1
0.057951059522021,0.00922041507163531,1
0.0558608524495058,0.0161676465284786,1
0.107213497663694,0.0256527223784444,1
0.0859902850039698,0.0114607640308175,1
0.0835731044101225,0.00880258546789019,1
0.0799400253567023,0.00583327316501216,1
0.0832253998634623,0.00511883078696016,1
0.0703480571138906,0.00371803324439097,1
0.0649537113087871,0.00281072511987372,1
0.0960621968314837,0.00479173634654203,1
0.0971331656160999,0.00361803601871457,1
0.150717595825404,0.00564864325067092,1
0.166297386659616,0.00826179859704138,1
0.239668145921663,0.0133569199219963,1
0.25369489569281,0.0141174335414312,1
0.241981353366809,0.0158215151014646,1
0.208888977842604,0.0161113424761597,1
0.189347566899451,0.0104375318251094,1
0.18588647457672,0.00938447758128018,1
0.199206248732519,0.0109794186532125,1
0.162760306009143,0.00948221888836175,1
0.157083789179415,0.0130484142105386,1
0.153927556661904,0.012311657606873,1
0.122530768134767,0.0119930250807147,1
0.107405226372764,0.0119407151546266,1
0.118878698404032,0.00840075745663589,1
0.118411993829243,0.00644135781977928,1
0.0846830280687099,0.00575674621506238,1
0.065510199875147,0.00504070985350526,1
0.0670548224979365,0.00433928452491826,1
0.0769258334933489,0.00381757504729248,1
0.0806802248132461,0.00245614687737501,1
0.106919584803178,0.00371984032221092,1
0.117571447132061,0.00276523154297466,1
0.119816300327351,0.00227810388866262,1
0.106509052718545,0.00272995366834498,1
0.122587266711729,0.00453801821337697,1
0.136703959948484,0.00521616604930142,1
0.138772349453073,0.00528284894841707,1
0.120022573376593,0.00506581391060791,1
0.110032823654028,0.0062820718647185,1
0.105973486976674,0.00939993994565787,1
0.0418348562673464,0.00198442862394264,1
0.0603676954910261,0.00960347821529078,1
0.0625120388965809,0.0132753702085005,1
0.0417024999082124,0.00918127342279049,1
0.0594850906104688,0.0174924163525901,1
0.072668837479887,0.0312018304769146,1
0.066539243408461,0.0275606704021185,1
0.0559964844156427,0.0232227401318413,1
0.0493290021152366,0.0218210670104222,1
0.0328390903691902,0.0159811833947587,1
0.0254497710608081,0.0214788847156781,1
0.0261853197837954,0.0232661902491327,1
0.0136798411468595,0.0274914017250496,1
0.00109560415077031,0.0203489681981555,1
0.000894710067884219,0.0275271168929165,1
0.00126175193422279,0.0348116581004656,1
0.00159270761484562,0.0397420935407429,1
0.0017695023242563,0.0523158071316101,1
0.00147287632574357,0.0494869694663901,1
0.00149282954884249,0.0506517243166508,1
0.00159935744616214,0.0545169151736308,1
0.00160787325993846,0.0531893485815579,1
0.00159825326594199,0.0746519250905915,1
0.00031444899717766,0.0653847631488275,1
5.16208972327677e-05,0.331282274855521,1
4.71642598819972e-05,0.260791247823561,1
5.86406125226337e-05,0.266990017472778,1
5.51924164828691e-05,0.276306796534222,1
0.000117419463332524,0.130728532818325,1
0.000587431302473128,0.169595122148825,1
0.000628779005726755,0.0901983466657005,0
0.000614638872148324,0.092929405085989,0
0.000611537569362872,0.0960049897976183,0
0.000593044975129304,0.100876983073256,0
0.000581831931098441,0.101780573562963,0
0.000572654899731667,0.10406684613465,0
0.000585025238575169,0.104040945893929,0
0.000608383626650019,0.105849339601594,0
0.000593063913328629,0.150567765076628,0
0.000135267656500589,0.111399078251787,0
2.01162526900739e-05,0.199330646416171,0
2.3330047299932e-05,0.240842572585846,0
2.74539963763657e-05,0.274257179149415,0
3.17663515062564e-05,0.304309098062475,0
3.25702980755554e-05,0.30117642187054,0
2.22347724354584e-05,0.281839956719122,0
1.65028519120914e-05,0.305661683929263,0
1.64742351573121e-05,0.307545268314109,0
1.67046106771369e-05,0.31126715893781,0
1.44108989663904e-05,0.316808545347172,0
1.24662229651897e-05,0.340577879967976,0
1.2818268603858e-05,0.34663133679733,0
1.13174330966736e-05,0.321381936286993,0
1.03766484134279e-05,0.30740644244977,0
1.04533629587343e-05,0.415073961233005,0
4.39285939314756e-06,0.303734557806101,0
3.6954298996658e-06,0.303704023749037,0
3.09936788532126e-06,0.285571755893571,0
2.78343810159766e-06,0.276453491377119,0
1.20616757691878e-06,0.192626156901228,0
8.19465051223507e-07,0.183028482426414,0
8.66531148439339e-07,0.205423414840026,0
2.80930012626315e-07,0.124075865155913,0
3.55881733399893e-07,0.140320570845324,0
3.39704346388409e-07,0.134029302946095,0
3.48208023386456e-07,0.13567382762788,0
2.88892627177906e-07,0.120289713276951,0
2.70320627025176e-07,0.113103758879494,0
2.75400278396025e-07,0.112602293548127,0
3.07306490109753e-07,0.111563635771874,0
4.03783372951073e-07,0.127855959531263,0
3.69819349965579e-07,0.120942895051983,0
3.40268723937944e-07,0.118818427327128,0
2.3241432421904e-07,0.102309087049651,0
3.39278592332181e-07,0.117191561530316,0
3.49585895293426e-07,0.113625381650765,0
3.74621247499746e-07,0.113915993377162,0
4.28205436576398e-07,0.120651475502045,0
4.55090538102007e-07,0.127091508430901,0
4.11963933031447e-07,0.126188205127371,0
3.40226401957355e-07,0.11609024806108,0
3.14072938503371e-07,0.120119511002275,0
3.12241942636559e-07,0.119773308866089,0
3.16183208757067e-07,0.120569037938214,0
2.02701506169986e-07,0.106334575499326,0
1.96627414967804e-07,0.115037959616791,0
1.84485314764246e-07,0.126839098283659,0
2.1411703680259e-07,0.1282482738995,0
3.88642494326477e-07,0.161221901757571,0
4.08892421625804e-07,0.156524380080318,0
4.15917363553561e-07,0.155274812689367,0
4.59358215665622e-07,0.151228955517714,0
4.5898314661609e-07,0.144150591989065,0
5.39702314301349e-07,0.153829345136699,0
5.82429774944196e-07,0.15570372557069,0
5.26760404692163e-07,0.149835751889122,0
2.97488804313169e-07,0.111238572166237,0
2.50131775158914e-07,0.108930011510224,0
2.03417431889536e-07,0.099988617523386,0
2.75262415177818e-07,0.114742429486505,0
4.47045053564472e-07,0.131496099689311,0
4.65771136137551e-07,0.134323384384124,0
4.96236626536008e-07,0.131477696266571,0
6.01718207666543e-07,0.143533054199133,0
6.37640952735718e-07,0.14508755141257,0
7.17107947330609e-07,0.148286919128462,0
6.77796402713889e-07,0.145348830918809,0
6.49964251838207e-07,0.140982173389572,0
6.49838806446641e-07,0.138488180373822,0
5.88900983173823e-07,0.138039061603435,0
4.09629381623132e-07,0.125896548145819,0
4.42979102327497e-07,0.129458904186548,0
5.00847188169906e-07,0.142517950273667,0
3.90899244249517e-07,0.125792081668586,0
4.33257464618599e-07,0.132466127575471,0
3.72411381207898e-07,0.124241316709046,0
3.68680964715237e-07,0.128380553817325,0
3.54401731204435e-07,0.123461153267186,0
3.60970508071946e-07,0.12700991199315,0
3.58883552921331e-07,0.125034459001529,0
3.66018734738645e-07,0.127997789217649,0
3.23919007903703e-07,0.12279530053731,0
4.94931234188611e-07,0.152058179404699,0
5.731480830934e-07,0.156248913382583,0
5.53427814114022e-07,0.152017275576944,0
7.15168738974506e-07,0.165070560450898,0
9.60928172030982e-07,0.173636296910501,0
1.01708715944768e-06,0.172931314300394,0
1.05077114777119e-06,0.177458714796219,0
1.12515646359496e-06,0.180675867336144,0
1.11099710012499e-06,0.176764968441755,0
1.12823405720141e-06,0.18024809624735,0
1.18894050341867e-06,0.16326248281534,0
3.3285701739536e-05,0.201863329810039,0
0.000260527545758242,0.307051136410833,0
0.00111606734765312,0.239193366120575,0
0.0024343038484879,0.270154174900937,0
0.00266977982891988,0.178046486292909,0
0.00288469400402825,0.171608437924067,0
0.00307080393012713,0.121752150234018,0
0.00472014782473445,0.123032607808188,0
0.00471144343029482,0.0828506362622822,0
0.00362388480537033,0.0559184479303539,0
0.0026639133878545,0.0353624047102066,0
0.00451535784919927,0.0299897223462068,0
0.00591691007411903,0.0264497828397325,0
0.00587783281689095,0.025826751999646,0
0.00526609422775043,0.0247599964820018,0
0.0052957009623339,0.0224784391785484,0
0.00532697430179375,0.0150812149856771,0
0.00645803841995359,0.0188117329190777,0
0.00819464866730083,0.0242003997643573,0
0.00988764097520483,0.0296889570161393,0
0.0116077763794281,0.0384629146166377,0
0.0106859520988359,0.0597623185375466,0
0.00883714494159517,0.06621923926615,0
0.00861497542192274,0.067183641230564,0
0.0078349246657355,0.0672593620459143,0
0.00433788389050016,0.0708957172814077,0
0.000410105900008089,0.144743062928275,0
0.000108152256496366,0.128861310025456,0
5.19184182220601e-05,0.187418776648892,0
5.36554542234636e-05,0.221821662604107,0
6.30431081492539e-05,0.268988866746757,0
7.26603390525885e-05,0.313446620349862,0
9.30265195106694e-05,0.389066518031094,0
7.90878720119474e-05,0.40818519964015,0
6.27814632748245e-05,0.368255728795812,0
5.63063675051842e-05,0.362415545880153,0
2.51713258874774e-05,0.317697591113185,0
6.65478045399552e-06,0.245366233342147,0
6.48506272278158e-06,0.246388647705387,0
4.35385854762188e-06,0.208980719632574,0
4.86385209867471e-06,0.217825845517603,0
6.13161057517755e-06,0.232658131297239,0
7.00640135230771e-06,0.247065009924299,0
6.65953344049824e-06,0.251189431587216,0
6.48512962699041e-06,0.251638970298129,0
6.50861705909231e-06,0.248998216359615,0
6.53908559059116e-06,0.245387538036635,0
6.36705383539661e-06,0.243081440837874,0
7.40454221688859e-06,0.274902395401194,0
7.2131538576377e-06,0.269727099290179,0
6.25516845709536e-06,0.274811894073101,0
4.81531892394012e-06,0.260585921182198,0
4.66674925834411e-06,0.291544734717425,0
4.68056979254433e-06,0.278192410722664,0
5.53995435503985e-06,0.263505625225707,0
5.26960458413583e-06,0.235669010369254,0
5.25944756221943e-06,0.233785993262262,0
4.86006973005018e-06,0.228219338771069,0
4.7827994236454e-06,0.226386324409768,0
5.25190563322341e-06,0.239258970696246,0
5.05059467021205e-06,0.237908003335121,0
4.99410521655172e-06,0.243398903876339,0
5.71659565816818e-06,0.261457417057249,0
5.68022004256418e-06,0.271771917223366,0
3.32137429684076e-06,0.235220187183345,0
2.86121931286991e-06,0.259063110644587,0
3.98773413464427e-06,0.30496701662327,0
4.12066063319935e-06,0.285492412968581,0
5.24248810555466e-06,0.290013959855213,0
5.64300736407466e-06,0.246975105634859,0
7.61999607074273e-06,0.289764396650107,0
7.92869943963697e-06,0.293419769705423,0
7.56939849568551e-06,0.284079611767634,0
8.25791756499051e-06,0.304728800118589,0
8.62844929272516e-06,0.318817977998844,0
8.04549087316115e-06,0.300288567263846,0
6.34127341359189e-06,0.270634016558673,0
6.5324884301199e-06,0.223644271686553,0
1.4277962584259e-05,0.295910558056869,0
1.42816521993213e-05,0.307904920492425,0
1.27423944159626e-05,0.28984325773458,0
2.84584513115951e-05,0.166297394554428,0
0.000167818636999543,0.23933427413154,0
0.000175480950996075,0.142866205297201,0
0.000172484256742513,0.1416224347443,0
0.000170965726085792,0.119428958649754,0
0.00028669856573827,0.126663715250476,0
0.000345533708330295,0.10560409347652,0
0.000350168115232443,0.103499303415132,0
0.000349424633088454,0.103561902419505,0
0.000353083481337964,0.104804712928467,0
0.000363592757715257,0.123703581604998,0
0.000297948703084432,0.135385351850051,0
0.000291694034381502,0.173922677886898,0
0.000276707029101603,0.166449487052151,0
0.000273815723168759,0.188271385823014,0
0.000159268662288982,0.245073948768244,0
3.64007160864236e-05,0.246924817043674,0
3.70699457093061e-05,0.329943380284905,0
3.89133300054546e-05,0.336465289117667,0
3.993282318217e-05,0.338467024582262,0
4.26021024294911e-05,0.349363318836169,0
4.44577365314824e-05,0.345080575450114,0
4.24156021322858e-05,0.492283000454812,0
1.19179267545784e-05,0.34013901560634,0
8.54167301331498e-07,0.171540033282513,0
5.6206453925464e-07,0.162964445714091,0
5.48807115478785e-07,0.167816083066769,0
5.17992658809242e-07,0.170634539201328,0
3.07366044992617e-07,0.13662956801639,0
7.83349449703862e-08,0.0769018938352222,0
8.60144837595928e-08,0.082238379405904,0
1.0840129094113e-07,0.0870035606747381,0
8.7901233133768e-08,0.0828614544389722,0
8.85081860889261e-08,0.0814563389906597,0
7.15185718451749e-08,0.0720944369771229,0
9.69604178051787e-08,0.0799993389758345,0
9.61000398165522e-08,0.0796764522736095,0
9.83897349939431e-08,0.0819503210520449,0
9.76885079263348e-08,0.0817033334738442,0
1.01214156991953e-07,0.0793341576696765,0
8.70180468921292e-08,0.0794292790097377,0
7.4929926220699e-08,0.0785161520411059,0
8.77722397917321e-08,0.0845495152283815,0
8.39951930929127e-08,0.0821722966510714,0
7.01908780948315e-08,0.0828831872428863,0
1.03762345703482e-07,0.0907004023788142,0
1.17276995888309e-07,0.0883733139728257,0
2.24578422184184e-07,0.110019670918043,0
3.61446947134868e-07,0.132332603107979,0
3.53692141110722e-07,0.128262753239368,0
4.35820098557036e-07,0.143282095155804,0
4.2508095933876e-07,0.132811732433046,0
4.64507812345709e-07,0.132696463914361,0
4.98873514009251e-07,0.131832480006856,0
5.2822722878588e-07,0.1303750685294,0
5.37861181433198e-07,0.133584184944192,0
5.38615374332801e-07,0.139079997342289,0
4.77268523055965e-07,0.135989750165395,0
2.98338285025357e-07,0.108623479125751,0
2.89139716585539e-07,0.109555573663074,0
3.28589124420466e-07,0.114645099143527,0
3.17179929413699e-07,0.120860182025284,0
3.01594289855365e-07,0.121178193039882,0
2.76144080869257e-07,0.123166650774884,0
3.40943848227105e-07,0.138531721867731,0
3.69887267874548e-07,0.134037268770094,0
4.6255137108733e-07,0.151788699479605,0
4.45306557834876e-07,0.153328946556774,0
4.31163160142013e-07,0.15315730259973,0
6.23772267779135e-07,0.175112765043383,0
9.6971391109128e-07,0.207472984405306,0
8.87788440246707e-07,0.187607677222519,0
8.52564387994806e-07,0.186762846931447,0
8.95468485885981e-07,0.192572184433254,0
5.86729637487062e-07,0.160724530020698,0
4.70277793507727e-07,0.154174907105051,0
4.9485520667857e-07,0.161631684392671,0
5.00507598625058e-07,0.164993486687686,0
4.63596749350389e-07,0.15887376966322,0
4.17940709020777e-07,0.161854034400165,0
1.25284466670824e-07,0.0968143831835256,0
1.35472153016271e-07,0.101752538893979,0
1.39587775559805e-07,0.0990923644132777,0
2.09094152639237e-07,0.10842223386681,0
1.80816987404784e-07,0.103856594781255,0
1.64338278028506e-07,0.101010544246596,0
1.8835764927565e-07,0.102453601483611,0
2.02863698191406e-07,0.0998587698515628,0
1.88686088119025e-07,0.0909638316710757,0
1.78707224001156e-07,0.087856233127703,0
1.88413656208046e-07,0.0890700844228773,0
2.15377066068997e-07,0.0948666219995543,0
2.60060967970223e-07,0.103988181663427,0
3.21626778475976e-07,0.109274905192607,0
5.13551891947767e-07,0.128473276552039,0
5.36902474531585e-07,0.128980848385125,0
5.10535880624453e-07,0.126893216979452,0
5.33964771543615e-07,0.126934576223327,0
6.23599938756377e-07,0.143443205152075,0
5.98904176094905e-07,0.143120879085308,0
6.21643750923031e-07,0.137853850968628,0
9.21865237372096e-07,0.158534218597926,0
7.15917863373441e-07,0.140876264161919,0
6.15062556228878e-07,0.139897347732849,0
5.91323726493785e-07,0.142883868360093,0
5.28624345813326e-07,0.136327651034611,0
4.93856458621669e-07,0.12845238004835,0
4.70486869160339e-07,0.133557871460501,0
4.94716076335197e-07,0.137143504147371,0
6.56889851152844e-07,0.160075991353781,0
7.51436902364299e-07,0.183195913918444,0
2.79122331862582e-07,0.1270031964235,0
2.25698560832116e-07,0.119277434483495,0
2.80913793424173e-07,0.129133539699376,0
3.20416420516129e-07,0.146421192248667,0
3.20967873388957e-07,0.141359888628934,0
3.10163857362114e-07,0.144123141473518,0
3.26788539557669e-07,0.150688312631865,0
3.30569641057023e-07,0.154590128611535,0
2.55320652719188e-07,0.133760834916879,0
2.45621569838269e-07,0.115868864876061,0
4.23755292988685e-07,0.143429111751429,0
3.79773885280235e-07,0.134676115441827,0
4.05804437592987e-07,0.146502790737761,0
4.31815983028229e-07,0.151103553014353,0
4.4628148393863e-07,0.151294465809449,0
4.69831005173723e-07,0.148781605017133,0
4.89710425074118e-07,0.146173008239038,0
5.56989702959427e-07,0.145646864215616,0
6.03365723809124e-07,0.14996086786764,0
5.47592702718402e-07,0.154651073845514,0
3.98091446699362e-07,0.132499076897321,0
5.21179732030145e-07,0.142187809341274,0
4.47382615709052e-07,0.126102203082983,0
3.76455031041926e-07,0.111890010570398,0
3.26113668693542e-07,0.106245314427515,0
3.40159244323486e-07,0.107395844146175,0
3.29114221089813e-07,0.105629908530499,0
3.99734401191341e-07,0.126178661411479,0
4.01629260166588e-07,0.134068093770191,0
4.55950409240567e-07,0.146845845863976,0
4.48979953695006e-07,0.149543790313415,0
2.65550154195158e-07,0.125665041488841,0
2.7245421238195e-07,0.137993766485863,0
2.70700511150346e-07,0.134154187362645,0
4.15568397282474e-07,0.163383375565439,0
3.51486329619409e-07,0.156141165775288,0
3.78197328147025e-07,0.161845541279186,0
4.22850819044235e-07,0.161890831335631,0
4.06840439129807e-07,0.151129822266972,0
4.34109226156088e-07,0.153677409134561,0
4.61843048118785e-07,0.149607251027691,0
5.50003281636757e-07,0.163260410575396,0
5.45498651666849e-07,0.16485232012122,0
5.71824444143591e-07,0.179167362781282,0
4.69512703331684e-07,0.160039914423757,0
8.28130413392909e-07,0.195809110813993,0
7.68104159965478e-07,0.177350781679141,0
7.9234477126684e-07,0.172538214413645,0
7.58034823110661e-07,0.158316370333538,0
6.64593972170297e-07,0.141440095250914,0
5.69821119254021e-07,0.132971197797951,0
5.85904485578088e-07,0.130786413557807,0
7.79115731094734e-07,0.142946934517109,0
7.85112781086739e-07,0.13775950236972,0
9.16415332027348e-07,0.150755405949995,0
7.18571476898893e-07,0.139877156464123,0
7.80954583137582e-07,0.147188306475862,0
6.24173946457184e-07,0.127540121887422,0
7.25607822953155e-07,0.140013082254741,0
6.99718681809078e-07,0.142605714627337,0
5.97498427434253e-07,0.137588413125233,0
5.16364656394238e-07,0.131360995666403,0
5.04293768625083e-07,0.135223534514798,0
4.41875182881707e-07,0.135372825126393,0
4.27692250883625e-07,0.144093288655271,0
3.97451548489853e-07,0.135931066358896,0
3.1810923901143e-07,0.129282133357809,0
2.74988462716639e-07,0.135966840648833,0
2.09923105923714e-07,0.126893392411192,0
1.98981480103697e-07,0.121240950060172,0
1.84172334847912e-07,0.114673119677899,0
1.79274896076127e-07,0.110059341858221,0
1.7379508657743e-07,0.116254143223257,0
1.5695245885309e-07,0.108912617508433,0
1.17226564306648e-07,0.0926490500792446,0
1.20912377993419e-07,0.094954295640068,0
1.69425785575393e-07,0.112626668884812,0
1.62597501473609e-07,0.104687310624899,0
2.25939568038945e-07,0.121527755005559,0
2.79902880965666e-07,0.132332370119102,0
2.79081783857228e-07,0.125580882950267,0
2.76488738914774e-07,0.131475159714892,0
2.77080739792956e-07,0.131611204830497,0
2.39721835059114e-07,0.122756044411902,0
1.92288778394819e-07,0.11059112320587,0
2.14440407145296e-07,0.112478891004268,0
2.07065738671353e-07,0.110628263965919,0
1.94329610189342e-07,0.113291974782702,0
1.91386585275669e-07,0.114689546697137,0
1.49348440723858e-07,0.098423500114751,0
1.48833481055849e-07,0.0974350871659865,0
2.33862648285315e-07,0.115340552136034,0
2.56354626855741e-07,0.110215234804402,0
2.46573687689011e-07,0.103906729153167,0
2.32807639870984e-07,0.103050784728006,0
2.08085521006031e-07,0.0996777152021081,0
3.35365709815423e-07,0.120411249618382,0
4.10098724785116e-07,0.125900252045771,0
4.1202044681391e-07,0.126196920394002,0
5.13075452884845e-07,0.141369402887802,0
6.88446589745417e-07,0.165727337248959,0
5.77150171221939e-07,0.149662226508568,0
5.70407291356434e-07,0.159808861600873,0
5.59340726994917e-07,0.160300344267581,0
6.93595933000472e-07,0.161789464504033,0
7.32097531210224e-07,0.160338511315776,0
5.81839801466281e-07,0.14412201560877,0
5.32818276692202e-07,0.147272166893289,0
5.88116632695238e-07,0.153692160745251,0
5.45622323083182e-07,0.151160396758028,0
3.34409537164145e-07,0.114333426886333,0
3.52841900123434e-07,0.122451494343836,0
5.86417671270862e-07,0.140617404816347,0
5.88621455361907e-07,0.131603291909563,0
5.38549737249133e-07,0.132918204493766,0
4.70398677248693e-07,0.132032627504307,0
5.54466856751244e-07,0.142193691145531,0
7.86903228948196e-07,0.166537258978393,0
8.70699483389838e-07,0.1770994162164,0
8.54430863366304e-07,0.173431300796983,0
8.41999605199557e-07,0.173827802553938,0
8.36456692867526e-07,0.178820026800411,0
4.61479129770723e-07,0.146432416780735,0
3.16181434781831e-07,0.135653692400019,0
2.57422306521745e-07,0.115292573782777,0
6.85855318778198e-07,0.167477854630852,0
7.43518637193565e-07,0.169556372947487,0
6.37546425198234e-07,0.161308208467198,0
5.28123577947191e-07,0.141613318224129,0
5.15036962643895e-07,0.136959298042235,0
1.09026693238724e-06,0.197789506710248,0
1.68207520754502e-06,0.235837450860114,0
1.56523536983944e-06,0.219860684452864,0
1.36403819466813e-06,0.198049839253349,0
1.21226194212364e-06,0.186254439325868,0
1.46848250713668e-06,0.216965435995295,0
1.50530415079957e-06,0.231823916085541,0
1.57256518208246e-06,0.227547857795885,0
1.74856810755147e-06,0.2421153007387,0
1.98156074769689e-06,0.271146115600468,0
1.5366031561331e-06,0.231759515569482,0
6.96245745150421e-07,0.156424363496476,0
5.62994862552505e-07,0.14464201522354,0
4.05419231542114e-07,0.131463250705331,0
3.90487428570129e-07,0.134737594086833,0
3.81954100843167e-07,0.135060309817483,0
3.87336848554044e-07,0.1390213260795,0
3.50320574465453e-07,0.140501521690118,0
3.71085208007756e-07,0.149240501277742,0
3.85698709137703e-07,0.14357848869324,0
8.26816658019405e-07,0.219805647766463,0
1.00917903127828e-06,0.229856540826063,0
1.00246149391612e-06,0.234559135879524,0
9.30917326142569e-07,0.219194571625786,0
8.24003640147901e-07,0.203466932734288,0
7.8000170501174e-07,0.190893346019786,0
6.32531904060986e-07,0.160422174098781,0
5.99858321345915e-07,0.149309676179044,0
6.29246501927096e-07,0.148298305388312,0
8.41257830126594e-07,0.181830356891579,0
6.43225173348204e-07,0.162522828458976,0
4.62168192436725e-07,0.14668666718492,0
5.69832523380527e-07,0.166639769923168,0
6.12205949251618e-07,0.161588239009676,0
6.14136034306516e-07,0.159885840601272,0
4.46232066057103e-07,0.143680428896943,0
2.1106250487419e-07,0.10720544458574,0
2.21699513803977e-07,0.110682991526941,0
2.36225836722412e-07,0.110299970108168,0
5.64884399602048e-07,0.168726060122687,0
6.23548493474583e-07,0.174006734072303,0
6.31400614711581e-07,0.167300189180206,0
6.37360157798635e-07,0.155655584932414,0
6.26091613685443e-07,0.147918043446498,0
6.58536100170258e-07,0.151736947754636,0
6.80026543008415e-07,0.148777549771978,0
8.48033148396384e-07,0.16282121563284,0
8.70699483389836e-07,0.159612564398708,0
8.33314222452513e-07,0.156785196425597,0
7.87856107074039e-07,0.151843455689192,0
7.87170592358505e-07,0.15417726802536,0
7.82282530312959e-07,0.156460319723948,0
5.31708021620576e-07,0.141313054586674,0
5.08127329106366e-07,0.147048065605286,0
5.36050966419131e-07,0.145780573680197,0
5.6737430055588e-07,0.15802007029477,0
3.04219773202102e-07,0.116308852104433,0
2.80452306438227e-07,0.122938406450675,0
3.25069557555651e-07,0.147717288000095,0
4.48199658016956e-07,0.183235000656393,0
5.40065218949277e-07,0.210029876362755,0
6.02105694542717e-07,0.187354104579712,0
8.42129612241725e-07,0.191135799071187,0
7.26577933981273e-07,0.185757461583895,0
5.77953275153003e-07,0.174685616757515,0
5.8397440052319e-07,0.173062957070353,0
6.01652570582875e-07,0.178296333913088,0
6.49972614864312e-07,0.171286591822324,0
9.75056110796804e-07,0.187675113208284,0
8.4171196778657e-07,0.161371813620451,0
8.14065324035387e-07,0.150673696481661,0
7.58334878350286e-07,0.149941685517328,0
9.38209884905669e-07,0.175508135579993,0
1.11328730215245e-06,0.195325058227362,0
1.25789365365004e-06,0.185503925436465,0
1.29783242522459e-06,0.180817416270799,0
1.08267457180955e-06,0.161643281074234,0
1.01419684694096e-06,0.157856470328991,0
9.5573878762064e-07,0.156489631501463,0
9.06239810083507e-07,0.158357923686099,0
9.72803669099333e-07,0.166470442321936,0
1.38490825302435e-06,0.199607660468748,0
1.34763323197659e-06,0.190820815466215,0
1.41633371744959e-06,0.191950520797386,0
1.36762466574178e-06,0.206980382755529,0
1.26709678374046e-06,0.206253209680905,0
1.5832374170919e-06,0.229085765317188,0
1.62013812936523e-06,0.243768168748669,0
1.70558291364959e-06,0.266333079167999,0
1.59924703673123e-06,0.257709770713468,0
1.35284694519014e-06,0.239636015187522,0
3.26299936093142e-07,0.122934141715554,0
2.19709367016147e-07,0.103142292039633,0
6.38948625908418e-07,0.177251871644234,0
8.30850931127195e-07,0.204322564775079,0
9.6299485317892e-07,0.230608348085123,0
7.33298765868867e-07,0.200519257632604,0
8.49371232573098e-07,0.20279776079458,0
7.88203806219958e-07,0.169808900543465,0
8.76201847716512e-07,0.167396051128243,0
8.20369271742925e-07,0.155633352366949,0
7.16087911570896e-07,0.144353935975449,0
6.33028617126585e-07,0.134854218822848,0
6.36174128642e-07,0.126748754726099,0
1.15116927615537e-06,0.157652331654915,0
1.4889209826609e-06,0.167842292670153,0
2.23487148647563e-06,0.206644935704237,0
2.34045747871996e-06,0.217215753315211,0
2.16065115034865e-06,0.215380992282828,0
2.07518203726108e-06,0.221829380555756,0
2.06484254932059e-06,0.221351418164654,0
2.09980886831345e-06,0.221662662946643,0
2.08588189559917e-06,0.220264693477656,0
2.19519805091113e-06,0.230629256906435,0
1.41369201490071e-06,0.190229148510737,0
1.24993281307368e-06,0.19462802397258,0
8.24253010380835e-07,0.156059954282402,0
5.33177886814694e-07,0.121387508922364,0
6.26478847136583e-07,0.1336381909333,0
6.63993861691044e-07,0.140011994277063,0
5.76426389326353e-07,0.13173380009086,0
6.44186161075118e-07,0.140337138071471,0
6.25441071624527e-07,0.140848930603076,0
9.53015989061051e-07,0.173233920625162,0
9.95514353473643e-07,0.180558990156095,0
1.21249306575416e-06,0.19010779034238,0
1.40423140497629e-06,0.196162819192206,0
1.39513344627476e-06,0.196244806612057,0
1.38408715591592e-06,0.193233515438264,0
1.31156780861357e-06,0.185101073788633,0
1.45973655580663e-06,0.194143885092255,0
1.22948648137342e-06,0.172766822278543,0
1.136438946085e-06,0.165119719815938,0
9.37943535195492e-07,0.159709003367225,0
1.01790014695505e-06,0.166782356888043,0
7.43011787126627e-07,0.14460012098879,0
4.60804005481563e-07,0.116347664461743,0
6.27206683832705e-07,0.137176598736292,0
6.01167008218749e-07,0.135445721342187,0
4.95783756001199e-07,0.125158371799014,0
5.45508535243154e-07,0.130420585643269,0
7.49522022811408e-07,0.154464114850294,0
7.2180847485139e-07,0.146183709188186,0
7.58523426575188e-07,0.151263277949044,0
7.11608624104335e-07,0.153267021928405,0
6.68274970781432e-07,0.159626400761169,0
7.18917402069578e-07,0.173212028752887,0
5.93912716635703e-07,0.158240981876526,0
6.10722145680658e-07,0.157587899323617,0
6.0153979644298e-07,0.153064224430102,0
5.32185727808664e-07,0.158949087858505,0
2.37509941366998e-07,0.112600157158317,0
2.43328580135443e-07,0.110651399690464,0
3.90821949614309e-07,0.146079078537032,0
4.99563590375387e-07,0.164918507034771,0
6.03884738277668e-07,0.165024954986588,0
6.48536962049711e-07,0.152940498402853,0
7.03043871673223e-07,0.150926516950415,0
7.58004412106643e-07,0.153241093963637,0
7.76909919603418e-07,0.149859397075658,0
9.93997097798264e-07,0.164076411145126,0
9.8648355240598e-07,0.160278277910101,0
9.56214466408461e-07,0.16082104875798,0
8.23857667328623e-07,0.145457503003979,0
7.95061487625624e-07,0.142802026749563,0
7.65599053509638e-07,0.147111903222846,0
7.06141739282345e-07,0.151358948982596,0
6.52333522476108e-07,0.151152375086256,0
5.82786343966285e-07,0.152096121718939,0
6.49003264111294e-07,0.173539297842978,0
2.99379355062847e-07,0.128113095396502,0
2.18444522674104e-07,0.109904172050242,0
1.75870130751472e-07,0.103347294123543,0
2.59302720270084e-07,0.121688910276787,0
2.80600560082806e-07,0.118506482878169,0
2.8261579594895e-07,0.122497137597185,0
2.99548389560171e-07,0.122358951901858,0
3.2325478089098e-07,0.131784278522803,0
3.15988831756395e-07,0.131347625649906,0
2.81091190947602e-07,0.12404838289154,0
3.29979667579109e-07,0.123406199251273,0
3.54005627877123e-07,0.125810821534162,0
3.54584197228533e-07,0.121234083377808,0
4.02783611194038e-07,0.134595502970864,0
5.16814739253678e-07,0.158435439976213,0
6.61207453448053e-07,0.171118927131001,0
6.95789580090177e-07,0.169339431926868,0
6.19370781797849e-07,0.160637424162827,0
6.42361500834143e-07,0.16453502500561,0
6.21633360496658e-07,0.159911324571947,0
4.66942720067278e-07,0.15490036533879,0
3.86171093400088e-07,0.142801870155123,0
3.68502300066642e-07,0.14872778308712,0
3.79024507456267e-07,0.145957874251152,0
3.189911581279e-07,0.128987192848241,0
2.43898279610681e-07,0.115809205580637,0
1.77115714790972e-07,0.108408985078322,0
1.98977425303161e-07,0.116650892144713,0
2.00432084995272e-07,0.105769392894994,0
8.09328049884754e-07,0.183306986881343,0
8.84343887191798e-07,0.180472932942236,0
1.02268886638747e-06,0.186415491359035,0
1.05721828062264e-06,0.179624487900849,0
1.09265318250238e-06,0.17503089295678,0
9.86218723246005e-07,0.173207581904045,0
8.01492147849895e-07,0.148530587123642,0
7.3865414367613e-07,0.137463235140134,0
7.6720500794673e-07,0.139144397957453,0
8.88023618677765e-07,0.158984305856359,0
6.3253063693582e-07,0.143053315886545,0
5.8054226529492e-07,0.142556298881178,0
4.45862065508239e-07,0.131296471807266,0
4.64773655205818e-07,0.137237709168844,0
4.26905619579735e-07,0.134673314643859,0
4.25385069378923e-07,0.132808043235133,0
3.65522021673048e-07,0.135729852869222,0
2.14738181559622e-07,0.107215698790961,0
4.53296288865048e-07,0.143397245671349,0
1.19075629378347e-06,0.232016862493681,0
1.72001318848034e-06,0.285555756043558,0
1.93740396986528e-06,0.281007295556224,0
2.07315463699333e-06,0.276069140332234,0
2.11358505313281e-06,0.275895968298568,0
2.0758916273548e-06,0.268135456340996,0
2.1889252744827e-06,0.278204688476474,0
2.34816742851319e-06,0.285627811176432,0
2.30005645988436e-06,0.280005851516486,0
2.48714368946723e-06,0.315340976136171,0
1.89054061267622e-06,0.273411436439352,0
9.46757404434504e-07,0.188270523396205,0
3.04120177163948e-07,0.111898611709235,0
3.06542920483911e-07,0.12375335205788,0
2.01050442076937e-07,0.107753610456333,0
5.06081682236206e-07,0.150994349259905,0
9.91032024906679e-07,0.190993916001803,0
9.75688406255308e-07,0.193536787160492,0
9.80943681174352e-07,0.201821028520865,0
1.16920376181212e-06,0.215920295500849,0
1.19848955867978e-06,0.208344784235482,0
1.17879133767831e-06,0.210901792673724,0
9.9941709898906e-07,0.192397187556584,0
8.24687887738268e-07,0.167076528613323,0
7.42057135025551e-07,0.155120526137782,0
6.47695590938594e-07,0.159388550393362,0
4.85793741181857e-07,0.147496585553272,0
5.35480253243759e-07,0.150932961515961,0
5.74678770295551e-07,0.153685505939008,0
3.92608089250197e-07,0.136832738789472,0
2.9043522535663e-07,0.119626628616118,0
3.44955313081884e-07,0.131157339751296,0
3.6596424835645e-07,0.129136842877203,0
2.18494954255764e-07,0.0993792414734411,0
3.65825371438109e-07,0.126217142864701,0
4.33795992814721e-07,0.144189833773801,0
4.34928042439226e-07,0.14315725185953,0
4.47602588638103e-07,0.143354356601092,0
4.58076898696404e-07,0.14899478749629,0
5.13391727326614e-07,0.155695119104341,0
5.1352148094375e-07,0.151585293494668,0
3.11388407123835e-07,0.118133956913346,0
3.57878976088661e-07,0.130130015617133,0
3.99647476404861e-07,0.141202200934933,0
7.32384154923078e-07,0.178650559630979,0
7.6300195376665e-07,0.16366223246163,0
7.81732344565299e-07,0.169264821997016,0
7.97141600300337e-07,0.169134133719214,0
7.55470161771955e-07,0.159581962981432,0
6.27837205315975e-07,0.143941264968846,0
5.73825234782828e-07,0.140028628225205,0
5.69018522173025e-07,0.140875192066519,0
5.52113805315485e-07,0.141645152790098,0
5.51540051039713e-07,0.147901403210827,0
2.69226844580725e-07,0.112084659438632,0
1.23671416332795e-07,0.0858708271327906,0
1.27312627213675e-07,0.0871717737723348,0
1.22745147835466e-07,0.093604694229524,0
1.45222681178985e-07,0.0971827155755379,0
1.50298531174332e-07,0.102507789421785,0
1.65180662839757e-07,0.109033623248745,0
1.62698871486996e-07,0.11048915118378,0
1.79364101687907e-07,0.115616163822317,0
2.10436038191455e-07,0.117472176661128,0
2.02008388703448e-07,0.122098830191366,0
1.98979199278396e-07,0.118838659729137,0
1.60588601233301e-07,0.112174841718176,0
1.08806517569646e-07,0.0906347374248287,0
9.31205216980586e-08,0.0973600855261675,0
7.89837130560663e-08,0.087659092928569,0
1.12786304295241e-07,0.108131028405903,0
1.32493902022945e-07,0.102920856459767,0
1.24721863096523e-07,0.100225597017689,0
9.82397073741295e-08,0.0946767195686423,0
1.07367316804577e-07,0.100601288627858,0
1.18868505098493e-07,0.107711224622057,0
9.58374914818784e-08,0.0937111780878073,0
9.3618501888825e-08,0.0928113418734196,0
8.01362901082828e-08,0.0871678468718171,0
7.06265157273644e-08,0.0829846554573283,0
4.46129428918547e-08,0.0722585907358995,0
1.8133321419796e-08,0.0657902202686296,0
0,0.0485318252448682,0
1.60704416473597e-08,0.0602429888764925,0
3.20514242579049e-08,0.0653167761826846,0
4.63293906435393e-08,0.0714261132556648,0
2.0110112708363e-07,0.125943161065132,0
2.16467553988013e-07,0.126368667500387,0
2.16345909971948e-07,0.119054082805195,0
2.10665387846744e-07,0.113560457586305,0
2.07135430555557e-07,0.105438551390829,0
1.81648221514562e-07,0.0976463228247725,0
1.5612325214358e-07,0.0938883921274222,0
1.75507986378645e-07,0.0975269916854306,0
1.91662311712083e-07,0.0993401845850504,0
2.41892420470775e-07,0.108816122920756,0
1.82099318074137e-07,0.096283109753848,0
1.66430555104825e-07,0.0937329858092753,0
1.53966858533794e-07,0.0903718200885591,0
1.57704624352426e-07,0.0927908069415573,0
1.70348506122253e-07,0.0947082499285288,0
1.95534646223487e-07,0.0981256571959809,0
2.06747436829316e-07,0.097993535307491,0
2.31681165597215e-07,0.106475080750736,0
1.91773058451709e-07,0.095263345679717,0
5.06734505122422e-07,0.149012473984022,0
5.13145144769049e-07,0.13863942051993,0
5.64298480924668e-07,0.14332502861337,0
5.66771148976223e-07,0.141994417692817,0
5.77805274933457e-07,0.144963160414305,0
5.7162550549232e-07,0.150610274626086,0
7.23012750610434e-07,0.15819792968927,0
8.73698008385839e-07,0.165755500749509,0
7.26640529964539e-07,0.146742992542363,0
7.0051950491484e-07,0.147961246152593,0
5.41267213883019e-07,0.140222552889079,0
5.69427803602077e-07,0.150371304825165,0
6.64685205182345e-07,0.16257209938167,0
9.36804136245017e-07,0.198304072497731,0
9.83483000009706e-07,0.196417527681206,0
1.00315765248306e-06,0.196237976624212,0
7.3094064593244e-07,0.19264550039587,0
3.36164505520917e-07,0.14459368419318,0
2.3798638042992e-07,0.125744490659618,0
2.62580773078004e-07,0.132979995823021,0
3.04322917190724e-07,0.130071890622705,0
5.83770900221313e-07,0.173272790120968,0
5.51910305013611e-07,0.166161798697297,0
3.30078249917129e-07,0.128343194059132,0
3.32182691395054e-07,0.134610947214963,0
3.98015165764288e-07,0.144959295776267,0
3.815174495105e-07,0.135933509034679,0
3.79360295625614e-07,0.137496845508615,0
4.20046924473935e-07,0.12971719512164,0
7.08402290580888e-07,0.157559329131874,0
7.54436187635402e-07,0.158319303155055,0
5.65817003725213e-07,0.138305657693171,0
5.70857374215875e-07,0.144801481139959,0
5.91475021238765e-07,0.145116245857738,0
5.68663727126169e-07,0.138033195422517,0
4.67579323751351e-07,0.124265004698757,0
4.72218015563965e-07,0.128077819522895,0
4.74686628814985e-07,0.126486556051274,0
4.40574352184912e-07,0.1290574449622,0
2.10535380804575e-07,0.095863458367096,0
1.88673163442318e-07,0.100881311205376,0
2.72930904869905e-07,0.126681952045915,0
3.06642516522064e-07,0.120346445345908,0
3.05429877736916e-07,0.121768688782395,0
2.94177045975798e-07,0.121278203607142,0
3.09298410872817e-07,0.122524999597385,0
4.17887743188781e-07,0.134972439289564,0
4.16749611363473e-07,0.129902581824306,0
3.47901885946026e-07,0.124805812138805,0
3.39538859841554e-07,0.12489680594119,0
3.47289864490198e-07,0.123308739698368,0
3.9552551823549e-07,0.130027060311717,0
3.64518458540511e-07,0.131180210831174,0
3.61521960944775e-07,0.138212330728122,0
3.41809548141435e-07,0.134568254832655,0
2.91390130882741e-07,0.127245015620106,0
2.71105991203895e-07,0.132913050577644,0
3.23134404000082e-07,0.133194372873293,0
5.07020621985207e-07,0.157127281615462,0
4.64343846349054e-07,0.146905716472894,0
4.71569500903319e-07,0.155521438742364,0
1.47593928532146e-06,0.188728550163275,0
1.78198042423911e-05,0.392437029429339,0
0.000150940696017341,0.257958686586868,0
0.000386716089003064,0.275080341418621,0
0.000409904181537624,0.251709726727867,0
0.000392378550286408,0.257259912259248,0
0.000373479821149002,0.254522852269051,0
0.000380298416304907,0.243171571981743,0
0.000330801089071591,0.209313505923962,0
0.000246119164822984,0.173201354618196,0
0.000183984327178607,0.144929841359734,0
0.000189246877170086,0.149904836419535,0
0.000178502599759257,0.234402437238383,0
9.65791826711556e-05,0.232020171585525,0
9.52089581179955e-05,0.227237251733306,0
0.000103096949134231,0.206877738679381,0
0.000105465990422476,0.203332297735685,0
7.82498975565544e-05,0.171259272544043,0
6.75082811085766e-05,0.132597619082487,0
7.16112861265443e-05,0.116071659280406,0
7.65965843163329e-05,0.114749750148551,0
5.14895057296403e-05,0.0887524432389668,0
8.12172350542389e-05,0.110677502834317,0
9.54482164386683e-05,0.115470942540954,0
0.000100232253843602,0.128160961816543,0
0.000120899372220702,0.15061011696568,0
0.000160556726699717,0.177468976270583,0
0.00015949921419263,0.209692478961363,0
0.000134570239931784,0.242825181175561,0
0.000123979723091512,0.296743710525578,0
0.000116605928427084,0.242875311590568,0
0.000103149077396491,0.191940897461881,0
0.000104486524969522,0.218980287828154,0
0.000113307940192331,0.242015759237304,0
0.00011506534675135,0.230036685307716,0
0.00010717277887901,0.214436973367428,0
8.48366668411679e-05,0.187642600352767,0
6.6601063838139e-05,0.163559009182639,0
6.42643735225416e-05,0.159097496665708,0
7.57213505522442e-05,0.191301898003452,0
5.91273662378423e-05,0.228200845516999,0
6.02045754453802e-05,0.344694818471564,0
5.73858889627274e-05,0.295023077418495,0
7.00619577392056e-05,0.221728197689887,0
7.74845235444745e-05,0.177744291659219,0
7.99065433359661e-05,0.199108758958723,0
7.4264956419204e-05,0.197933665118827,0
7.53207413278373e-05,0.194896731176496,0
7.52059993425587e-05,0.196158185797742,0
7.65424494346585e-05,0.206985742813208,0
7.29678001319687e-05,0.196605782944139,0
6.84560096377394e-05,0.189818705789047,0
6.56472064779668e-05,0.210401890709949,0
3.03994336429329e-05,0.21700316660986,0
1.84197728036265e-05,0.367094410110842,0
1.94366785107502e-05,0.381894522329796,0
1.97230282711423e-05,0.390742129428242,0
1.85346858508027e-05,0.373641638047424,0
1.98886060510095e-05,0.422150605463315,0
1.43199234341756e-05,0.353295304452177,0
9.84074950202886e-06,0.310920598398711,0
1.18108039929312e-05,0.344506539123318,0
1.07558482910073e-05,0.340168895638182,0
1.04043933860921e-05,0.360631012278733,0
1.10368426735921e-05,0.361780645586768,0
1.246542999826e-05,0.391671925705553,0
1.62091158256738e-05,0.441480002462017,0
2.16879939873726e-05,0.531456981926483,0
2.46276736906044e-05,0.582905804746671,0
2.55174996681202e-05,0.567281776947639,0
2.61295218842226e-05,0.581927946023393,0
3.01981302826726e-05,0.641153558755633,0
3.51030846272505e-05,0.685576330410245,0
3.09714646284788e-05,0.630632391862613,0
3.17070054456188e-05,0.656012360611797,0
6.77835412429291e-05,0.170887376237066,0
0.000672945256839543,0.204352721525287,0
0.00109745631801784,0.168084472232985,0
0.00124125344283556,0.174450211007645,1
0.00131852307715715,0.172839043382153,1
0.00133729182940997,0.149125387250853,1
0.00174161054627161,0.151072770230816,1
0.00180511378304864,0.131571668278119,1
0.00142752201300539,0.10445571181485,1
0.00142198112807362,0.0469926306437074,1
0.0060335651142902,0.0606186343835162,1
0.0150744260427383,0.0982799775423014,1
0.0379204501390122,0.048311176258035,1
0.0870267131017519,0.0637392942753024,1
0.103280517169231,0.0649857233335456,1
0.116547547308871,0.0656238470017138,1
0.13140319290569,0.0515869377047503,1
0.111619654467033,0.030093617630722,1
0.0829920778062529,0.0235657315077387,1
0.0540876061872642,0.015993145258618,1
0.0450060744416624,0.0121233827059972,1
0.0461885153991176,0.012468216714571,1
0.0537042493051141,0.0226226914481017,1
0.05151932124565,0.0227230841928099,1
0.0486831143107399,0.019706755102513,1
0.0495897693851107,0.013901962141819,1
0.0418501222264305,0.0106730771653232,1
0.0419761728253611,0.0149931791991757,1
0.0503817651647639,0.0170549863399081,1
0.0523423536427201,0.0194912738552209,1
0.0495212955356177,0.021282406894219,1
0.0517939823422714,0.0171952624765357,1
0.0448677849970149,0.0120180509366261,1
0.0274152773252854,0.006278916518325,1
0.0188265363214162,0.00154758944068814,1
0.0194617381930269,0.0026192179583792,1
0.0192326987307388,0.00268637081534414,1
0.0328459859204054,0.00609158772523605,1
0.0589351857005739,0.0117275869943929,1
0.063997407445431,0.0119272270441618,1
0.0767606644315469,0.0141164608526454,1
0.0843223431686233,0.0195229695658228,1
0.0745041531434019,0.015655696236741,1
0.0688248139393499,0.0153915060479963,1
0.0470480461460423,0.0134295161917729,1
0.0397339083135692,0.0141021405448558,1
0.0129891096225259,0.00472669839200878,1
0.0109983237342676,0.00715036936197921,1
0.00976271697751393,0.00799102971911971,1
0.00742495661019217,0.00728565417017316,1
0.00730783065461011,0.0076058309433102,1
0.00474104161989301,0.00488996075698681,1
0.00377983253128093,0.0108588538291868,1
0.00297647782727768,0.0138892880621081,1
0.0035630551378196,0.0143899772657955,1
0.00397608672010604,0.0123333980732979,1
0.0045479086158075,0.0167795467350749,1
0.0161132456355201,0.0133547058647126,1
0.0581485850182868,0.0385989387823596,1
0.0898397442337209,0.050601133886117,1
0.112796587522824,0.0433432850643212,1
0.110612934241456,0.0394464185705158,1
0.131900132534283,0.0447226172399179,1
0.122130080217072,0.0307542939224322,1
0.0874959308548379,0.0231618316782088,1
0.0654087528489328,0.0169900874618086,1
0.0397520713941838,0.00988075565555048,1
0.0283820966473225,0.0100176994923245,1
0.0478499372051689,0.0114799869707599,1
0.0558787274520013,0.00675411323232142,1
0.0626660331594841,0.00851966024120284,1
0.0617909506718938,0.00746440861037696,1
0.0647846124508816,0.00810557846321281,1
0.0680102703700914,0.0099114567762769,1
0.059469922514249,0.0069566876529344,1
0.0837532790623826,0.0114948984339827,1
0.0951725429680862,0.0117368942264882,1
0.145865936313508,0.0150333208980957,1
0.149084209425975,0.0172008244079375,1
0.14747640386524,0.0291730510226966,1
0.0970403008144524,0.0209349712414541,1
0.0613449152791216,0.0144870032137221,1
0.101839860242926,0.0135835560587585,1
0.222639773108745,0.0254679299235234,1
0.346207453061005,0.0443269739889107,1
0.436271021366634,0.0395860620646991,1
0.419917931650914,0.0341431644797074,1
0.333376480296459,0.0274548261238034,1
0.301946539081766,0.0249044906688057,1
0.224827611860144,0.0191029920539358,1
0.155318209933978,0.0111748956987779,1
0.103740329446275,0.00743423001978793,1
0.0940480867888178,0.0104875802249763,1
0.0857166868634252,0.00901215621062804,1
0.0668303503006291,0.00640888954575539,1
0.0494774717542253,0.0058908883543799,1
0.041168674534629,0.00943133107967689,1
0.0447927130749739,0.0124248553076624,1
0.0553331993736333,0.0141722102715542,1
0.0541412966103409,0.0133428629977118,1
0.0482238676261644,0.0130805365085192,1
0.0301622820364537,0.0101440404281413,1
0.049062244563086,0.0113124133801644,1
0.107899546123519,0.0168252700712796,1
0.109162143122776,0.0154041030345983,1
0.117265372784327,0.0154231245500505,1
0.129748768723108,0.0168003072800367,1
0.12425535018734,0.0155781144925401,1
0.0822381085136937,0.00826957517897888,1
0.0744753922465458,0.00501625345742148,1
0.0830056948976788,0.00319273249102403,1
0.0985336229665668,0.00355663972160164,1
0.094444438408039,0.00450688541183313,1
0.0818886495924516,0.00371981805058748,1
0.0803474728848765,0.00417493754281804,1
0.0793045119780816,0.0046620964999177,1
0.0743623963029807,0.0043841829530245,1
0.059664659941831,0.00340066968642945,1
0.0669296454725826,0.00493151132789433,1
0.101474723802626,0.00851851703876309,1
0.192308816208659,0.0364498184495968,1
0.173040382505342,0.0223550352011898,1
0.175240262583746,0.022902547253352,1
0.16938711878461,0.0261556608711478,1
0.148642004342494,0.0241609319196828,1
0.130998009684573,0.0213209014430639,1
0.0993202736455581,0.0159282170002122,1
0.11633076784442,0.0119614482075632,1
0.151336847688012,0.0160954268888798,1
0.148302954159104,0.0207492103258367,1
0.0754807747946924,0.0106726125162422,1
0.0805480137639715,0.0152190026493562,1
0.0752839593563429,0.0135235011594006,1
0.0646580072292379,0.0112612323956024,1
0.0983010675657001,0.00871674165677899,1
0.174113982476382,0.0158725119535445,1
0.20029739047393,0.0155429238535208,1
0.180058213580084,0.0209708108989841,1
0.155854068300159,0.0191268459474965,1
0.178526413288555,0.0180614219746145,1
0.216086912447645,0.0219008493126621,1
0.228344415513216,0.0252120763941227,1
0.2490546897343,0.0287327339605487,1
0.294708073435643,0.0314713006434617,1
0.257198293482955,0.041712387532201,1
0.153792641384296,0.0278813490440575,1
0.094243164913412,0.0253667033934797,1
0.075009134637876,0.015539719959821,1
0.0714612209004831,0.0137663004746321,1
0.0705480372282634,0.015150837173805,1
0.073364721446357,0.0138761568389335,1
0.069920924550166,0.0114562709906799,1
0.0683525143107882,0.0103817729520157,1
0.057558872624923,0.00686469493958864,1
0.0615660808425993,0.0124640188023096,1
0.0551422055857553,0.0114608098917408,1
0.0378939223708386,0.0059644066191773,1
0.0335720366018306,0.00739098651409729,1
0.0314558570812806,0.00488951676513794,1
0.0483405306879982,0.0102633705155622,1
0.0462932242272594,0.0102459564431603,1
0.0459878896669858,0.0128298296423414,1
0.0427888365449954,0.0134834355096923,1
0.0390354701871871,0.0153867170457544,1
0.0340426438770257,0.0104368934248409,1
0.0391936197460694,0.0101977759736735,1
0.0494680896743831,0.00831951967387995,1
0.0585902165076563,0.0104118221679292,1
0.0653740129092005,0.0140952997456645,1
0.080764348095714,0.0176239135911043,1
0.0860102614990895,0.0146557423370322,1
0.0908896603099703,0.0129326467762393,1
0.0876197195704679,0.0125110024037471,1
0.0930531252283285,0.0112117984013766,1
0.100188226431394,0.0126438691225092,1
0.0717071851901723,0.00909936318104223,1
0.107345197701409,0.0130725340720811,1
0.13160946698992,0.00887230107070949,1
0.134382117653543,0.0102827199934452,1
0.128683628759118,0.00970589421779673,1
0.129043437537186,0.0111556056444961,1
0.107690576696544,0.0100459032680848,1
0.106435237036306,0.00456069733427096,1
0.217204545391798,0.0106929523162238,1
0.308990453384482,0.0159983543532741,1
0.398933436108766,0.0208017590144077,1
0.444314768014632,0.0237275077786273,1
0.431456420430026,0.0295936478694084,1
0.396843329273201,0.0238085601780399,1
0.370489303950193,0.0141603460810634,1
0.370189938563918,0.0139398583808703,1
0.326478847056678,0.011558718470634,1
0.310293111616372,0.017100780914292,1
0.280788601364633,0.0145355694632352,1
0.267278427966475,0.013160403013761,1
0.211122110445356,0.00964722843122073,1
0.182844939857299,0.00685698184205296,1
0.200840383441332,0.00846961114687754,1
0.180484137137365,0.00879306124661461,1
0.187625216043448,0.0127514770760422,1
0.161358196183512,0.00972449732258963,1
0.187689282183095,0.00749972975194967,1
0.240168600228298,0.00758559577339102,1
0.238587300142189,0.00929186316367414,1
0.229399414321471,0.00913417677556056,1
0.263870715774984,0.0106512950935332,1
0.254672794621981,0.0116802085722443,1
0.252958602805459,0.0111801650729936,1
0.239952947865348,0.0109194490204401,1
0.246812297959552,0.0134010819312305,1
0.230367197328438,0.0140848753586849,1
0.190747865056675,0.0240382925144586,1
0.0713580849294691,0.020391598988223,1
0.0660504965357752,0.017697936642053,1
0.0820866772676541,0.0183985345858525,1
0.0811332896148157,0.0182350229147622,1
0.0827111343588053,0.00964370687749902,1
0.253423118155425,0.0121922379800791,1
0.418333430759243,0.0193981607795625,1
0.448623362414341,0.0115165640596564,1
0.45887176339569,0.0122005410986261,1
0.451886795727882,0.0129948316544689,1
0.434316616572775,0.0123549637940276,1
0.411742835280453,0.011920774511834,1
0.380305855785566,0.0110312918860372,1
0.399131154411051,0.0116021836100626,1
0.393898880044188,0.0135277539466838,1
0.272285572858692,0.0149234485902914,1
0.0988873437824667,0.00371693358058114,1
0.0493812310865768,0.00406370528749649,1
0.0552218972256766,0.0047242555810845,1
0.054616074090003,0.00469889301452702,1
0.0619391421018945,0.00607975139441326,1
0.0718163880239462,0.00766437390489816,1
0.0783658283100073,0.00598502869909837,1
0.079155243268928,0.00408608268041618,1
0.0846137204774665,0.00502974890571402,1
0.0692179423203308,0.00563803320769301,1
0.0614134858414361,0.00627624544342449,1
0.0777211160973574,0.00655216304334838,1
0.0947784759980966,0.00507079158601346,1
0.0927797416495816,0.00539487308127088,1
0.0917046370936112,0.0050796907658633,1
0.10710384190946,0.00276179049185612,1
0.311701958860305,0.0126256771314631,1
0.662215570555708,0.0257817018371251,1
0.790099239272091,0.0199601129516139,1
0.76331813857021,0.0181112609292916,1
0.71933296481244,0.01438475416052,1
0.779169540061677,0.0176095890442322,1
0.823792173083666,0.0211501776253391,1
0.781977358178618,0.0197873316822303,1
0.804782424901437,0.0216142874322052,1
0.798591080876821,0.0235472614188292,1
0.735307912211492,0.0285817031625181,1
0.382788194041713,0.0180082332403695,1
0.167738253916028,0.00800139920078716,1
0.0979654973520197,0.00117969102968328,1
0.149419850193185,0.00364152121394362,1
0.150857737567053,0.00269181340458525,1
0.161632525329326,0.00262514854572582,1
0.162202759008316,0.002524672016298,1
0.170032143062818,0.00176081679098523,1
0.257064713015779,0.00499672156716823,1
0.262680253414451,0.00451298009383093,1
0.339002464266,0.00288737896075329,1
0.494114872391038,0.00485060426142989,1
0.47999023481345,0.00546697634631487,1
0.371715792159996,0.00354663075349118,1
0.374934629684732,0.00382798921796095,1
0.316815003946445,0.00269002962004753,1
0.282738690349939,0.00198354892559407,1
0.269235105462348,0.00262367934323962,1
0.259512278332453,0.00239579550005139,1
0.221706068178447,0.00201382909455432,1
0.18235351584108,0.00643721613709003,1
0.113969222290603,0.00466879260732371,1
0.112771286057353,0.00430307858170148,1
0.183670020975792,0.00910588380331774,1
0.170718618208543,0.00508437059267799,1
0.175917165142175,0.00578017171361319,1
0.17096580011834,0.00583513594075577,1
0.168747658878765,0.00451135075268354,1
0.223918500366068,0.00701372687902497,1
0.224505102350324,0.00883014399614721,1
0.192191364591772,0.00824936026034999,1
0.190160793063509,0.00915142786735054,1
0.199782525370206,0.00994338815360127,1
0.192283556918689,0.0112940763843939,1
0.184198801410138,0.0124388771454975,1
0.256365050903759,0.0119337552975116,1
0.234822999495723,0.00613667029633138,1
0.234213121154034,0.00558691976291514,1
0.266781341981631,0.00703254036304533,1
0.251671486819665,0.0063499631637262,1
0.2283036723199,0.00474414198330582,1
0.255348562894564,0.00596792649854885,1
0.224103095142453,0.0053472210509246,1
0.205250739540051,0.00499869543088488,1
0.196817108297014,0.00731575761161162,1
0.149627814901409,0.00403213075050536,1
0.212270345199515,0.0144286069560679,1
0.22249634779824,0.0212078837033131,1
0.223147773398924,0.0220134245495761,1
0.226445602222487,0.0216368433895471,1
0.221648019614447,0.0195736188550846,1
0.190733420312542,0.0146535440220388,1
0.156303969058508,0.0117248781704818,1
0.145583168979526,0.0100014103041922,1
0.099208286084256,0.00517945368303865,1
0.125533055261125,0.0131733365410498,1
0.104005909073042,0.00731365695476007,1
0.11156942702912,0.00474265480849959,1
0.122616378195002,0.00156818991212298,1
0.241586471284597,0.00594207465068601,1
0.246560059344247,0.00502340135404749,1
0.259671787670722,0.00245776005344737,1
0.548725503221008,0.00871535928742478,1
0.740335953793234,0.0131924135677143,1
0.783373957475834,0.00600294332693984,1
0.896121676401954,0.00717061713741107,1
0.997972492617344,0.00721401352996064,1
0.981949599416135,0.007937994251955,1
0.980128291874057,0.00978058629983415,1
0.973227484291862,0.0100566576541693,1
0.976326722514799,0.0106973524025634,1
0.951993654188888,0.0152772068761565,1
0.649160513586313,0.0120526965659379,1
0.318549431960966,0.00163574638934212,1
0.265106396573155,0.010165806727193,1
0.220835700326803,0.00507003076588078,1
0.271438942069143,0.0115305480821102,1
0.299804342139362,0.00843548057442041,1
0.305517088034066,0.00944865294258054,1
0.302014901082628,0.00946806504354378,1
0.314854493357405,0.0102291244886172,1
0.318404016959837,0.0100854992235936,1
0.325715700914458,0.0100918281702696,1
0.263089006269843,0.0134171577746867,1
0.11562932042856,0.00776868655550793,1
0.109666990624339,0.0172312296998886,1
0.0736389012095178,0.0116983567935463,1
0.0604510848502888,0.0261532795444279,1
0.041542767634222,0.0127944832234757,1
0.0568228589268076,0.00892995546744742,1
0.0978577257698277,0.00682197028621206,1
0.116169893625064,0.00452789406054114,1
0.121643983062262,0.00497316069251606,1
0.115083411513442,0.00415979763920881,1
0.125162607888194,0.00447102386947538,1
0.140565641673983,0.0040801506008417,1
0.148580329099004,0.00276814759328955,1
0.171183098135266,0.0036909898773723,1
0.174773218163199,0.00445920283292384,1
0.154297477190547,0.00427333052520007,1
0.117737984478448,0.00385023718785477,1
0.109159818290724,0.00593923280954472,1
0.10973324921871,0.00630802120607696,1
0.109964523575293,0.00629196211820673,1
0.110339031420919,0.0067172312086769,1
0.0888835115336347,0.00665401980634908,1
0.106665761188646,0.0173795151774528,1
0.104498853448632,0.0190289026385188,1
0.128206679951762,0.0227083183453007,1
0.13725349614751,0.0167369878250166,1
0.133739743528087,0.0195795804025957,1
0.146383240160035,0.0105207360785438,1
0.186454310517584,0.0130449808753794,1
0.174612383355745,0.0135753644731335,1
0.115681241143066,0.00884340071599184,1
0.206719386631542,0.00959969680144316,1
0.519390277667806,0.0186096664900035,1
0.547886579796316,0.0146483612467139,1
0.576785064150307,0.0149722193191204,1
0.572323784857801,0.0139528096733723,1
0.451938889562097,0.0119299834137651,1
0.354586888271161,0.012024487642687,1
0.340124970008156,0.0123148879807204,1
0.322040357994863,0.00565214847841682,1
0.648050912026128,0.0125216377442288,1
0.71189952847645,0.0145382514787786,1
0.471251575296086,0.0103063980716418,1
0.415700000367121,0.010515553966315,1
0.336098609853748,0.00832195403368675,1
0.327383414774726,0.00913068258017906,1
0.312951282484201,0.00886163222556931,1
0.27999252443711,0.00653158474420055,1
0.212454946324197,0.00318780958612613,1
0.178508931437999,0.00757501002166659,1
0.0656151389987262,0.00262282840636055,1
0.0445005020801338,0.00639019075678045,1
0.0465830462836516,0.00587795349175695,1
0.0468856368177246,0.00487370481159783,1
0.0843113369599677,0.00705524912330627,1
0.13405889003576,0.00999328706139196,1
0.134686041091785,0.0108440386059577,1
0.166811716533979,0.017792173159619,1
0.251595128444743,0.0277595030884605,1
0.273246057752072,0.0288067577083606,1
0.245859916891433,0.0124063735159035,1
0.328278998696729,0.0110093663933905,1
0.323613375762377,0.00572029422999236,1
0.288622147791249,0.00295891970853256,1
0.403097846023747,0.00659230979997554,1
0.420253542875101,0.00395159695644965,1
0.439170428592008,0.00432657265275858,1
0.431701921914919,0.00380041995698927,1
0.372290391503084,0.00283576126073955,1
0.314852231116269,0.00191979491092523,1
0.293016838995278,0.00256364365968378,1
0.217130596350211,0.00107839442397973,1
0.198645609773955,0.0038039954154512,1
0.203963080246465,0.00663259919410622,1
0.110426117963529,0.00260304306935802,1
0.0803252443221146,0.00732843792437411,1
0.119786349909901,0.0104885383452412,1
0.132843798485549,0.0146354230129765,1
0.195308735963547,0.0170421969270932,1
0.319715166916187,0.0224001839531522,1
0.329502158421128,0.0242566040522181,1
0.290828116692199,0.0181165934743447,1
0.333376163928757,0.017886962587459,1
0.291066022482454,0.00893018200013479,1
0.263397536661199,0.00647362582493058,1
0.280393903889126,0.00615743806275594,1
0.314504935569736,0.00722696072369503,1
0.328682036640218,0.00755878163262393,1
0.304204350348593,0.0079463954486277,1
0.235348442020549,0.0041199768255717,1
0.237594618596041,0.0037207120142316,1
0.236936853570679,0.00429529774624026,1
0.228972942818974,0.00448630833759246,1
0.21075015179682,0.00784379081242056,1
0.136284604532988,0.00504795786416101,1
0.132212137300485,0.00669950139881904,1
0.195059376668438,0.00621345386783416,1
0.278848748977464,0.00829704982731974,1
0.274298427205913,0.00672708104386053,1
0.289711694035806,0.00965120875574886,1
0.273303414622855,0.0063640988740844,1
0.286338726732425,0.00757430514276171,1
0.247964894202886,0.00525077881204928,1
0.283398373315974,0.00392986377356794,1
0.404470655571804,0.00401976462691071,1
0.462316750059563,0.00412916340359172,1
0.471482215732249,0.00382146329474455,1
0.45358159151603,0.00384029396129604,1
0.448550362617525,0.00374506446710121,1
0.384632332410892,0.00234989393957404,1
0.373045122211156,0.00249862747769158,1
0.438396379824814,0.00310767150705408,1
0.477469103729127,0.00351831337614819,1
0.419556980059754,0.00521593838376747,1
0.240612448576463,0.00322457217943497,1
0.241363821256869,0.00480750286394524,1
0.210795007614915,0.00697073172786075,1
0.163312124422239,0.00454833777729214,1
0.131351247408243,0.00441831210654232,1
0.146593322244551,0.00533359544773949,1
0.166826563971757,0.00835200484173458,1
0.156691736833016,0.00807389014731449,1
0.151329112132153,0.00759131855658034,1
0.200376129088486,0.00883601462057647,1
0.21184852302736,0.00716891492069519,1
0.193033702792077,0.0047086330543281,1
0.232971771299699,0.00762135557423858,1
0.25988453559272,0.00680538721913037,1
0.261652269537367,0.00719456033794584,1
0.249226008789622,0.00637700147340925,1
0.196590916605279,0.00453988348751942,1
0.189300387639088,0.00511004574566399,1
0.198468530682376,0.00600198793912713,1
0.173116062924457,0.00561833610080788,1
0.144748488791074,0.00650697508555084,1
0.257650253660304,0.00826721013783203,1
0.455574070466992,0.016996592384997,1
0.490356038293858,0.0171299553861363,1
0.486129452666816,0.0155705490829084,1
0.496884757430058,0.0160331595278863,1
0.526172864040082,0.0149550650998207,1
0.50560234878773,0.0161021582099448,1
0.436811905602579,0.0145718133908206,1
0.381406311332595,0.0129563088591507,1
0.340299354961773,0.0109333627317622,1
0.313379434986624,0.0243210211170182,1
0.209088445343518,0.0081406473204353,1
0.211027877617618,0.00728101060272385,1
0.206698072483321,0.00377882656256994,1
0.216544374349422,0.00635558061291628,1
0.182322700210546,0.00288885967931336,1
0.246301203966045,0.00483658951895978,1
0.261997730507137,0.00458205689769,1
0.261085887485783,0.00499120145643023,1
0.28119064996999,0.00543696851096249,1
0.266386802892968,0.00546928251667572,1
0.256320754051576,0.00865541108348051,1
0.229616519056952,0.00521520897578677,1
0.235282087565625,0.00956450547468648,1
0.165806205419511,0.00564228743417462,1
0.119067657759351,0.00624741286351101,1
0.161727163214152,0.00876547132326082,1
0.183929601834091,0.00806947201329887,1
0.236421987075905,0.00796664472363741,1
0.241435220440181,0.00631019673960392,1
0.213411402558341,0.00528202390207257,1
0.163996922184161,0.0031592578675582,1
0.154388057264908,0.0047982662005663,1
0.148992079988761,0.00491837713823187,1
0.161583708085657,0.00567454273847847,1
0.164162049637121,0.00542717708306255,1
0.14277073137228,0.00610239903427745,1
0.128404268512848,0.00595063721053786,1
0.0720811189424398,0.00474203945593776,1
0.0422798571634196,0.00445646043888515,1
0.0635767032649067,0.00671901140541607,1
0.0739388573308129,0.00314820068792794,1
0.105152859516774,0.0056662975177767,1
0.152330638138983,0.00720686009191987,1
0.157487178969097,0.00621140168920133,1
0.177001147249294,0.00736442040723125,1
0.190981512975142,0.00639774821263586,1
0.199914492859523,0.00554116066196083,1
0.222504154733793,0.00662524892609165,1
0.30012075581918,0.00222378554996049,1
0.413277245522655,0.00396014794489188,1
0.38219024449111,0.00372274980490104,1
0.397748362942317,0.00417995957261676,1
0.406528903721972,0.00446673043547501,1
0.415029889498219,0.00538461351065172,1
0.409447182909986,0.0053648331804842,1
0.419255967906207,0.00676804911405447,1
0.413409321148435,0.00810981836785321,1
0.437666892404441,0.00783893223667581,1
0.381996551227378,0.012897122456899,1
0.189745895493187,0.004947592714971,1
0.220675297242071,0.00728329327975808,1
0.24280192000318,0.00834188148136705,1
0.218211337696523,0.00751710218504795,1
0.197196602456811,0.00664467636367794,1
0.163917567446719,0.0050525384313762,1
0.14078892923217,0.00258109122486205,1
0.129305799636138,0.00108493946859674,1
0.123296872043635,0.00214264566235963,1
0.127482834513396,0.00598863992022293,1
0.117621418025531,0.00816076385985402,1
0.0971949224662521,0.00583435082673379,1
0.106672410656297,0.00633732874503504,1
0.121404837701236,0.00494565733476403,1
0.128723634202511,0.00484537429840864,1
0.144025544028065,0.00315225005320214,1
0.262641210244918,0.0100785413781786,1
0.277501370693099,0.00430949356016986,1
0.29188794281069,0.00552149682268931,1
0.279358403501322,0.00540300216289774,1
0.280570314202432,0.0050146960492204,1
0.296193522708475,0.00553804526500316,1
0.324170273845345,0.0072157315668153,1
0.317579833793395,0.0101993903780618,1
0.296079698154256,0.00499153094540462,1
0.384446198481387,0.00998388489012952,1
0.369264829621953,0.00614954927395149,1
0.365358575140184,0.00943529456635472,1
0.348512659705516,0.00742175029515028,1
0.336313369151441,0.00606419300085945,1
0.333540460712238,0.00628391714065113,1
0.321598258977615,0.00636748143525733,1
0.368014154071045,0.00214001207065905,1
0.71894528351669,0.00698802765999169,1
0.788887084745435,0.0109270707650961,1
0.708839614897163,0.00945048626549588,1
0.524121699900148,0.00792833716614846,1
0.519365565832168,0.00910305657378657,1
0.40198743849973,0.0076375449009022,1
0.381475238876761,0.00825805857835737,1
0.391691446081208,0.00796912034631342,1
0.542663166745688,0.0109268300606206,1
0.667018289697635,0.0344411792914782,1
0.408941025953419,0.0325629216120576,1
0.361441821197949,0.0278497078013681,1
0.270101611000668,0.0163006512543619,1
0.247699499168379,0.0127776180965689,1
0.225154730921699,0.0104035796135369,1
0.241246871766206,0.0115221146891675,1
0.190386030554999,0.00595427918779406,1
0.169828541502437,0.00609853824336883,1
0.162593201642744,0.00647601556493169,1
0.151291941197835,0.0053225903134136,1
0.166440112271715,0.00640389470568403,1
0.162768372882753,0.00614148279278113,1
0.143449929061093,0.00956316859923293,1
0.138894776586704,0.0136413282482028,1
0.135384367843693,0.00964360155029478,1
0.11559610948974,0.00606009640830206,1
0.169934056649206,0.00754290802603971,1
0.193087974377296,0.00406733684217841,1
0.186183782497649,0.00283051046301361,1
0.181868503044345,0.00281789547753867,1
0.189829515905121,0.00207422560734204,1
0.258725236749909,0.00357713690238761,1
0.302051452031608,0.00226328115939171,1
0.424062714624993,0.00446423956731559,1
0.430478120436225,0.00465711226452853,1
0.398422158635535,0.00445747820000302,1
0.335889796273792,0.00373428440389705,1
0.314499638587392,0.00524235315920245,1
0.321472711453732,0.00639364760256063,1
0.338298817899625,0.00651746453662993,1
0.413611742802408,0.00983542364138879,1
0.393340777963216,0.00655064883636966,1
0.364264549811153,0.0136379254940021,1
0.275767807068791,0.00941840309815354,1
0.271555629014765,0.014537901449192,1
0.30572744395472,0.0158744494440656,1
0.345433095121352,0.0176250283737724,1
0.371532783694819,0.0189818457876254,1
0.357232533524348,0.0186529912677186,1
0.320822679966459,0.0176025486864221,1
0.188883289237584,0.0139708051462989,1
0.0578647988102455,0.00827421489277283,1
0.0536259882332875,0.0215532880120346,1
0.0520438924648001,0.00861988010813639,1
0.0734979821719831,0.0126987318100898,1
0.0828036326814982,0.0116646078169003,1
0.0749374606848072,0.0109630612107308,1
0.0707276829259649,0.0117966615709341,1
0.0829959228063402,0.0067544827841505,1
0.154195864472005,0.0144567206113035,1
0.245635557143628,0.0192265934507419,1
0.343088702180705,0.0218920057896293,1
0.366114935177605,0.0213995490583373,1
0.361321670938217,0.0225571177168656,1
0.363615558803437,0.0167319795345804,1
0.297421764449208,0.0112882988912271,1
0.240610522672921,0.00749563159036551,1
0.216346256292462,0.00515743807054304,1
0.282034000131933,0.0092635687290461,1
0.292336938360162,0.00705977670743554,1
0.277371506769169,0.00672174575541726,1
0.254267751307196,0.00494641381618718,1
0.325138586593501,0.00648735794377571,1
0.32003383712038,0.0050171287882915,1
0.283809111421222,0.00609419076375341,1
0.287727739382277,0.00659074872375315,1
0.248518601301524,0.00574091420375398,1
0.234574712894041,0.00653494452316616,1
0.18681005299773,0.00347040514467581,1
0.202561757323811,0.00565786487447086,1
0.202170706750097,0.00577082405825447,1
0.200735864761794,0.00713094231428668,1
0.0959730870346393,0.00160303150483024,1
0.0899407108905033,0.00376402041774455,1
0.0909760822902864,0.00371181572496219,1
0.11599622067288,0.00602013526023616,1
0.130377864551688,0.00690869137550048,1
0.12896235805511,0.00686806194095901,1
0.152598647018798,0.00805230401819417,1
0.220097670684498,0.0119998251764625,1
0.235643020983169,0.007535767030097,1
0.225605977387249,0.00845176683752696,1
0.159016141360724,0.00623583833744539,1
0.188261219329152,0.00806081201173504,1
0.207970970216002,0.00426194006774845,1
0.225892302887516,0.00394181752138669,1
0.228483769502915,0.00443904103915918,1
0.230906276184718,0.00360622711147954,1
0.233029007468953,0.00458852130113897,1
0.141779491435448,0.00107168988270833,1
0.169900658504046,0.00361966559204023,1
0.224854890482849,0.00572084480918778,1
0.261157626283222,0.00369825454320473,1
0.29729439670509,0.00484678980191999,1
0.339470821310631,0.0092792013966517,1
0.336379317826257,0.0115839630125611,1
0.442301438046404,0.0122244555759778,1
0.497462599778286,0.00973903370949057,1
0.506352613162664,0.00935352617853335,1
0.597999454033409,0.0108592032858444,1
0.525715639070184,0.01079083303202,1
0.450885540611379,0.0085418134883332,1
0.540921531655709,0.0174231827609503,1
0.590706397888202,0.0179953092256649,1
0.552351059435432,0.017316859857782,1
0.54714452947741,0.0165648075998233,1
0.315781885938449,0.0136780918879436,1
0.0875107535127164,0.0090677191779334,1
0.0731503802703177,0.00712141827594882,1
0.0857357107346043,0.0117152971364272,1
0.0594302119438075,0.0110180234149619,1
0.0673949267442127,0.0207423365879022,1
0.0698135884195926,0.0120608094287891,1
0.0787854679804525,0.0133321875863988,1
0.0866847880275282,0.0149578849555765,1
0.117156543628806,0.0161996032486373,1
0.170856314723764,0.0233656847756905,1
0.214619973990305,0.0276874115745021,1
0.243559642242731,0.0617599685298757,1
0.224395077221248,0.059195100555917,1
0.186940260458553,0.0528849099498611,1
0.106651399788657,0.0365652250003218,1
0.0516126194953377,0.0528475867101911,1
0.0344386396304793,0.0412164821326526,1
0.00811239950502403,0.0153826282885133,1
0.00132844105008195,0.282060075790918,0
0.00120119701615496,0.31756896302004,0
0.00097098910733909,0.291599101016289,0
0.000451211331970821,0.22042391581575,0
0.00015050461843895,0.290018712321049,0
0.000139765006836412,0.537111824483346,0
0.000159388960111269,0.739331081862037,0
0.000160260507047971,0.749658313999216,0
0.000138490983693081,1,0
6.28810025457703e-05,0.738318303166794,0
1.88831992513544e-05,0.383976700689898,0
9.0772227810454e-05,0.16924523212253,0
0.000245253771046095,0.152667120385319,0
0.000252108958749433,0.128051945397906,0
0.000277114466863536,0.14076779157487,0
0.000296768809601283,0.143421090892891,0
0.00030129667763306,0.149535328724927,0
0.000307736383357051,0.156167005686597,0
0.000324702172353131,0.164606741463208,0
0.000325099879354055,0.152546048203439,0
0.000322908584048659,0.148816694041252,0
0.000252443743355646,0.225282893954936,0
4.61041667477949e-05,0.162766579340032,0
4.08864253433334e-05,0.283349503032372,0
4.18429902965632e-05,0.288136992399247,0
4.32348543064812e-05,0.295842415976417,0
4.81466774831662e-05,0.315990713275399,0
4.88224462321873e-05,0.324053803755041,0
4.96765392799842e-05,0.35085555241388,0
3.03981665177656e-05,0.479972068113849,0
5.92673569592053e-06,0.267558203785159,0
3.16881242669252e-06,0.239514123467842,0
2.76879140178833e-06,0.227583803236144,0
2.96638892778425e-06,0.237906256762185,0
2.35218193446836e-06,0.227094168220732,0
1.54226365768066e-06,0.201208677066578,0
1.44519908218673e-06,0.202223304391986,0
8.93720613430145e-07,0.171299235675953,0
5.63965227005656e-07,0.145137089794831,0
5.71232189840375e-07,0.147202778996632,0
5.45624097058416e-07,0.142523637904357,0
5.28605338935815e-07,0.140197064742938,0
4.29243212088453e-07,0.122078511741032,0
5.27558186697523e-07,0.132931633052529,0
5.60862037470831e-07,0.133302312081033,0
6.66899379699763e-07,0.140981462584219,0
6.27168163227618e-07,0.133659286651759,0
6.44118496591182e-07,0.136881902183717,0
5.78349631905348e-07,0.127705571636214,0
5.66067641083314e-07,0.126251680848408,0
7.69795011788782e-07,0.145652046639944,0
7.16015178586291e-07,0.143157234451732,0
7.03255735001202e-07,0.151700919042359,0
6.43760407018889e-07,0.153175323902781,0
6.24360213856783e-07,0.157573633995285,0
5.10832134488579e-07,0.145701160515715,0
6.1699061388351e-07,0.160323807870619,0
6.30024770204879e-07,0.163924866745086,0
7.16120349975182e-07,0.169881511160658,0
7.47646677563739e-07,0.168914151005792,0
4.30753625287927e-07,0.127642395443859,0
4.74634676683124e-07,0.131127532867694,0
4.70687581786847e-07,0.128120270453097,0
5.39517820876984e-07,0.138498170250837,0
5.10766243979877e-07,0.133964505615772,0
6.0110719991085e-07,0.146535993905537,0
4.84741267017861e-07,0.135735837281748,0
4.50723517925273e-07,0.123829348902791,0
4.75701089223961e-07,0.123552653757622,0
4.65781019713857e-07,0.124061137841318,0
4.83705518906075e-07,0.125990269092947,0
5.96937597835187e-07,0.139444662237829,0
5.76959595596772e-07,0.13832193414812,0
6.55819637236505e-07,0.141838876960013,0
8.4085640487358e-07,0.164132738050336,0
1.20103521314097e-06,0.186556000809962,0
1.2188629039704e-06,0.178832397945335,0
1.18294877535236e-06,0.178116597218483,0
1.42500110701926e-06,0.199387676576806,0
1.53185498470603e-06,0.205136023318374,0
1.53558945599922e-06,0.205826950657691,0
1.47964740041118e-06,0.195156166303651,0
1.20073997297698e-06,0.173009232487386,0
1.31397965465709e-06,0.186991068662638,0
1.58625646951562e-06,0.203711909653288,0
1.50383428560544e-06,0.207587723468734,0
1.57529203544259e-06,0.224301925769544,0
1.56779065445191e-06,0.234722814965325,0
1.31946250525619e-06,0.221318453261875,0
1.23133344301734e-06,0.213471946128981,0
1.0707423075337e-06,0.203600693309424,0
3.67635839877211e-07,0.11390282281808,0
3.61116480891225e-07,0.114263097268281,0
3.51534226950734e-07,0.116530018787032,0
3.77305525454248e-07,0.11638013366344,0
5.68466055600063e-07,0.143862934088732,0
4.95583803649792e-07,0.134032621088535,0
4.83926252110225e-07,0.129724073201844,0
5.09951989347342e-07,0.135992030758297,0
4.87885764833142e-07,0.137437335286271,0
4.51652320672935e-07,0.144003477975212,0
4.10834417657276e-07,0.152018346882527,0
2.58797644178381e-07,0.125186788173833,0
2.12037684402978e-07,0.110072290811698,0
2.83509879467028e-07,0.127364032439853,0
2.89642765276974e-07,0.124064476242448,0
2.98577518256952e-07,0.123995999974767,0
4.31194838271197e-07,0.151176485551201,0
3.7243342918581e-07,0.144993048949554,0
3.28917309838808e-07,0.129972362441778,0
3.78696322037925e-07,0.131803732192184,0
3.79008288254125e-07,0.135548610940353,0
3.7290175864766e-07,0.129110942568212,0
3.87495239199962e-07,0.124471192858619,0
3.74389870444189e-07,0.126202796706397,0
3.49841347727163e-07,0.126708724652882,0
4.4994094142192e-07,0.138387373772824,0
4.75924356678447e-07,0.14053180456434,0
4.67601625154297e-07,0.131029851514413,0
8.46260440287269e-07,0.17627475002916,0
9.92803972740693e-07,0.191296336439242,0
1.06450881198547e-06,0.195149424673586,0
9.80081782635524e-07,0.189846549806937,0
1.01669181639547e-06,0.195611315471498,0
1.03355446469745e-06,0.195149629051701,0
1.24893254446658e-06,0.205100656374297,0
9.6607852898617e-07,0.18160617138555,0
5.54757535264633e-07,0.134049905128789,0
4.00501011917584e-07,0.117822467582005,0
4.04792004584279e-07,0.117724570042679,0
6.98811673614294e-07,0.158433255617163,0
7.78554141220564e-07,0.168799055372584,0
7.93613923834452e-07,0.170404116388827,0
7.88871581183149e-07,0.171709523443646,0
8.01865442924198e-07,0.171365696296953,0
5.80508813190502e-07,0.153110066685649,0
5.26127855808625e-07,0.157491879497733,0
4.49636831381757e-07,0.154181865611465,0
2.89555587065462e-07,0.123099732796626,0
3.05228404835308e-07,0.130160676322257,0
2.76377485325081e-07,0.124010995229725,0
3.62313914174365e-07,0.129485052393689,0
4.54228892988213e-07,0.135735433008338,0
5.37375872494106e-07,0.145442812695353,0
5.44829609578492e-07,0.152293032312956,0
5.62346347891858e-07,0.154781389737681,0
5.47215606268601e-07,0.152659924236167,0
5.18179433058908e-07,0.148510034475309,0
5.06987930155891e-07,0.14688150096043,0
4.86232673339826e-07,0.151498035326576,0
4.3472530241245e-07,0.145079431764926,0
2.9335594886736e-07,0.136065188627962,0
1.14883903297263e-07,0.0999576317772588,0
7.52482280627356e-08,0.0871611801821212,0
1.07849838068301e-07,0.106108392199703,0
1.55929381992977e-07,0.118384751638553,0
1.62817727827693e-07,0.110525919027047,0
1.72464098301651e-07,0.105131424041927,0
2.42884579476806e-07,0.117455471643461,0
2.85155114784308e-07,0.116125892863523,0
3.04101170286438e-07,0.115169788922282,0
3.03436943273716e-07,0.108893348007043,0
2.8203494577224e-07,0.10275225559756,0
3.37825706615305e-07,0.112971231246071,0
3.4033562814678e-07,0.112109206769878,0
3.17598587568989e-07,0.109502811692053,0
3.00065376628447e-07,0.107688451379394,0
3.6268163389793e-07,0.122002431687717,0
2.57820437249325e-07,0.107671811283221,0
2.3471415639777e-07,0.108666242315733,0
1.94394486997911e-07,0.103987087431142,0
2.01220743699428e-07,0.105643245702109,0
2.05164797495303e-07,0.110146670961681,0
1.82800545141745e-07,0.104330560230683,0
1.80874514887382e-07,0.105626179664817,0
2.16994678057629e-07,0.106337238147634,0
2.51738236446073e-07,0.115805181624459,0
2.31014150909125e-07,0.109735645230322,0
2.47903662264656e-07,0.116898395589563,0
2.44933520872401e-07,0.117930968927703,0
2.45621569838269e-07,0.120016106501008,0
2.44851411161558e-07,0.121997190920076,0
2.62254361634896e-07,0.12386511260123,0
2.43886115209075e-07,0.123771809987197,0
2.11420594446482e-07,0.115835476062623,0
2.15295716633254e-07,0.123317142317553,0
2.25534087985395e-07,0.126210594418442,0
2.59721378425375e-07,0.125504895125182,0
2.79190503196585e-07,0.121771360070131,0
3.13797212066956e-07,0.117707711301738,0
3.115721402731e-07,0.115113387068518,0
3.03641964125793e-07,0.118185582326299,0
2.70607250738029e-07,0.110181138292246,0
6.74370349686425e-07,0.16243527952286,0
8.60741146699678e-07,0.165870907363497,0
8.94588594169777e-07,0.169193082023301,0
8.52464285106586e-07,0.164357753577756,0
7.79981431009063e-07,0.164678572896071,0
7.52080601949311e-07,0.171232510109091,0
6.81024023940149e-07,0.174816366812308,0
7.79578231780814e-07,0.187272911462225,0
8.13607891849975e-07,0.171252041479431,0
1.46954081007644e-06,0.220781352890843,0
1.3277667367529e-06,0.205770351994461,0
1.19059283463688e-06,0.219211989009514,0
1.05096704532206e-06,0.205411672145303,0
1.12383079724489e-06,0.207985893390165,0
1.13959358090162e-06,0.203294535989006,0
1.12814687898989e-06,0.192378734682306,0
1.17448311210934e-06,0.194594656529133,0
1.03854795155692e-06,0.175921769019264,0
1.1095758925373e-06,0.185642208390387,0
5.83242509026531e-07,0.143081532427618,0
4.80303287831755e-07,0.135775482681922,0
6.75318159311597e-07,0.154573383976522,0
6.85531188160391e-07,0.156497886465577,0
6.40451943206955e-07,0.154375711290611,0
5.79883360207902e-07,0.142194275949469,0
6.97993364181222e-07,0.154851220051207,0
6.62329619496253e-07,0.145683909180295,0
6.75481111608117e-07,0.15449002986199,0
4.72387556911356e-07,0.133830635589269,0
4.45024495772625e-07,0.128311706933039,0
4.65588670113454e-07,0.135747536173742,0
3.12300737244323e-07,0.115246621664651,0
3.60772076270741e-07,0.12228556428824,0
3.62991826138893e-07,0.122660748981698,0
3.59190704061896e-07,0.126724214727622,0
2.22902522437854e-07,0.103023525770723,0
2.66045600135591e-07,0.11396415235829,0
1.78044517538635e-07,0.096230621922437,0
1.81336762148429e-07,0.0975676361602209,0
2.27952016229721e-07,0.108059676394094,0
3.74085760404027e-07,0.136794518216372,0
4.28426169780549e-07,0.145040736740968,0
4.10104553560886e-07,0.138990569663189,0
4.47013375435289e-07,0.145144743389809,0
5.75793080167714e-07,0.151500317697497,0
9.21439229890834e-07,0.183039472313449,0
8.20468614356044e-07,0.171791512144368,0
6.55971692256587e-07,0.147094973985662,0
7.17063091099686e-07,0.151081887685264,0
7.31015659742346e-07,0.14982328376354,0
7.10250265924943e-07,0.147534985329121,0
7.29012588277806e-07,0.145063899266714,0
8.69317049832263e-07,0.165231300873602,0
8.44931225986724e-07,0.157417197226604,0
7.49610974998156e-07,0.155661762564402,0
5.20087216710861e-07,0.137405485672,0
5.43194511262551e-07,0.143650706137698,0
6.38894646376289e-07,0.15768672142584,0
4.69772210565957e-07,0.142012662774224,0
4.12365358284461e-07,0.137528735335288,0
3.6857452620118e-07,0.132047619739344,0
3.26159285199567e-07,0.124066102364318,0
3.33373789052357e-07,0.12231888485218,0
3.48437373041746e-07,0.140021808065482,0
2.28321763353552e-07,0.115951347415571,0
2.7912435926285e-07,0.127727953699147,0
2.81636308194593e-07,0.12613820371278,0
2.58395458650266e-07,0.129537424007379,0
3.20596098864858e-07,0.138901693488283,0
3.40088285314114e-07,0.134136382361455,0
3.64660376559253e-07,0.137788153148181,0
3.55421766964146e-07,0.142562232738111,0
5.57723875281387e-07,0.17195226416416,0
7.90341446377269e-07,0.191058110647688,0
1.22990843405414e-06,0.232775062350782,0
1.13046647832124e-06,0.208613711908618,0
1.09358984142608e-06,0.203053513280463,0
1.04386987725976e-06,0.185728551691473,0
8.70822394531068e-07,0.170233140513469,0
7.87231414366538e-07,0.163140308350938,0
1.47839776157114e-06,0.211763847216789,0
1.88953020706778e-06,0.222720128018183,0
1.8919367311856e-06,0.227194937597867,0
1.88909228860995e-06,0.22773371650248,0
1.94465395322275e-06,0.23214940611892,0
1.84795633717728e-06,0.229846121315029,0
1.65414802228178e-06,0.216862196580641,0
1.5676429076574e-06,0.212952238868152,0
1.586531942527e-06,0.196840695216732,0
1.63856238272345e-06,0.184577043637974,0
1.42427909909891e-06,0.172370300609895,0
1.17984685294271e-06,0.160280668420885,0
1.22779689667528e-06,0.164544364731951,0
1.23571693582125e-06,0.167262855303479,0
1.11801114477631e-06,0.163692726267702,0
1.22897278883057e-06,0.17578138967472,0
1.24721736384006e-06,0.172075595924123,0
1.23909838604282e-06,0.177096067715235,0
4.58371125160262e-07,0.119159965006736,0
4.11350644450453e-07,0.124073547383249,0
4.99640885010595e-07,0.130656818150311,0
5.23430399752383e-07,0.131306769672637,0
7.09924614756935e-07,0.14067715620456,0
8.3248704314327e-07,0.14628019609342,0
8.10362024021306e-07,0.146569653561941,0
7.11869145038743e-07,0.132936096659567,0
6.92500376580785e-07,0.135129087414532,0
7.3054327547996e-07,0.13422931326576,0
1.13152883606154e-06,0.161269861788644,0
1.10296656766443e-06,0.157036394124898,0
1.02873938906154e-06,0.159773960321009,0
9.76964908148889e-07,0.158664925016335,0
1.20399319013162e-06,0.188805416828534,0
1.20782573691277e-06,0.195646394958932,0
1.22316707473884e-06,0.194415732548255,0
1.19619656897695e-06,0.192942222786805,0
1.24156167736814e-06,0.195023965939554,0
1.2848162620806e-06,0.200884776494736,0
6.80873236045234e-07,0.147228611921396,0
5.75862772051917e-07,0.14025967742482,0
5.95954308705327e-07,0.139979824207852,0
6.64675068181007e-07,0.148022935024455,0
5.28739147353487e-07,0.131034595841035,0
5.30043526000751e-07,0.133124056301525,0
5.45423384431908e-07,0.131973109058412,0
7.83378593582711e-07,0.161109262499643,0
8.28290578014059e-07,0.161126359018347,0
8.65736660959416e-07,0.164082661993294,0
8.53147518996818e-07,0.170909045230975,0
8.9908105973808e-07,0.179797231412765,0
8.72559876560531e-07,0.177060272435532,0
8.29927703730267e-07,0.176222039665976,0
7.6615658858327e-07,0.169135510143658,0
7.79383347930076e-07,0.167112356781232,0
7.75967178478915e-07,0.168511967499284,0
4.65690040126842e-07,0.134604559565408,0
3.09671452522083e-07,0.113337108088311,0
2.87217741131711e-07,0.110553952344627,0
2.81558506709318e-07,0.106898822365625,0
2.68450096853142e-07,0.10435646426408,0
2.70016516985013e-07,0.110249196230701,0
2.20206080081746e-07,0.0997390216659628,0
7.53196685796707e-07,0.162949763044817,0
4.54578746246917e-06,0.382361323915557,0
2.22337202147195e-05,0.475622593239044,0
3.93835700386323e-05,0.3798479107451,0
3.81546694759363e-05,0.36068743233583,0
3.65815926287112e-05,0.353294586407337,0
3.41021865123659e-05,0.339454578894862,0
3.12635646028803e-05,0.323928300356686,0
2.64725136601452e-05,0.298819828425391,0
2.13288004956353e-05,0.264749579145214,0
1.77239044083509e-05,0.240592412193299,0
1.74280415790525e-05,0.239491309482801,0
1.23626671608885e-05,0.242653132932859,0
1.67609457949518e-05,0.327099140910951,0
2.10579841692447e-05,0.30181928905298,0
2.01712844429417e-05,0.301397483539686,0
2.41089722019766e-05,0.24548651737994,0
3.78608821976619e-05,0.266464880270804,0
3.56077805814037e-05,0.219321741461006,0
3.80838911586138e-05,0.226596786980555,0
4.00721603203717e-05,0.233448996004027,0
4.63508975590047e-05,0.246172131432673,0
4.47600632196845e-05,0.231979940278461,0
4.03951089638223e-05,0.244632515010144,0
3.79751109972477e-05,0.263219597417586,0
3.76864122402203e-05,0.263905827528212,0
3.54827913548969e-05,0.338288037061261,0
1.82763666730874e-05,0.284074221020563,0
1.68044233936937e-05,0.33196510524394,0
1.62400065632784e-05,0.315597760492822,0
1.84962780198552e-05,0.331870378842945,0
2.10854554428727e-05,0.380015329651768,0
2.06969297774866e-05,0.46803457300814,0
1.74038141458529e-05,0.430109389134044,0
1.24595578868095e-05,0.385901303797207,0
8.92384759393725e-06,0.332948144684046,0
6.53825638388165e-06,0.301713025297732,0
6.5347388444171e-06,0.298512103419001,0
6.39269335288272e-06,0.317276991517151,0
2.02362246077681e-06,0.187107120863935,0
1.86330249007899e-06,0.19077746757056,0
2.01155816205853e-06,0.188229703849862,0
2.75379750968314e-06,0.226254913383852,0
3.15358386300634e-06,0.241896406877745,0
3.14280113468231e-06,0.236862817176226,0
2.83967438364956e-06,0.225987544833924,0
3.01693505755968e-06,0.239626565271021,0
2.48112357779717e-06,0.230406754360653,0
2.45957712802662e-06,0.240575133660638,0
2.41187848192725e-06,0.248304207768948,0
1.31117170528626e-06,0.199286937922583,0
9.82647711099395e-07,0.196297494380669,0
9.1945845982924e-07,0.185957972963258,0
9.15362351013285e-07,0.187450219797895,0
4.57941062878465e-07,0.140200908434671,0
2.04126008283114e-07,0.108077024121794,0
1.29112198376337e-07,0.0891503797090346,0
1.07738077628542e-07,0.0808998964287508,0
5.73665070161676e-07,0.158608441721398,0
8.64574707180961e-07,0.176228395599621,0
8.41430159149353e-07,0.173796150868551,0
8.86977480139607e-07,0.173275264462858,0
9.3096192894846e-07,0.180431270816322,0
1.20267411283241e-06,0.208989507714989,0
1.32742005130711e-06,0.199457794326072,0
1.42010468194761e-06,0.1906910945874,0
1.61443631953722e-06,0.20474419608038,0
1.86722880412252e-06,0.22079546494756,0
1.40122983887988e-06,0.207136809862468,0
9.74300904197065e-07,0.176993968430588,0
8.16685738881456e-07,0.157259958347276,0
7.69263832918631e-07,0.153738410223011,0
7.7362375719443e-07,0.154185999296417,0
7.51321340549038e-07,0.149726326520343,0
7.47889712170834e-07,0.169060379725816,0
5.60156502177653e-07,0.162685191926714,0
6.21643750923031e-07,0.171911380587314,0
7.43755082749791e-07,0.17663444965597,0
7.21239789076286e-07,0.163995138328324,0
6.27182608454526e-07,0.156066008072328,0
6.67862141401911e-07,0.16484239980253,0
1.09662714045221e-06,0.196209306424773,0
1.18885940740796e-06,0.196275929927281,0
1.31872073018323e-06,0.206814618781293,0
1.42023671639004e-06,0.195922242859791,0
1.56934567045727e-06,0.207833485269892,0
1.74201960468664e-06,0.219666401169336,0
1.65582164120281e-06,0.214556031227662,0
1.7236247486323e-06,0.228882809373233,0
1.74566588406819e-06,0.234416260064943,0
1.7643248090074e-06,0.23670247179055,0
1.27492052137371e-06,0.220730308543659,0
1.09135159153049e-06,0.217886227571752,0
4.41069291275276e-07,0.141120728372632,0
1.48847672857723e-07,0.0933119605954,0
1.51237217498301e-07,0.0924809076280588,0
2.06086504342029e-07,0.107009267907036,0
2.6674327925273e-07,0.115615128185805,0
2.86184020420192e-07,0.114792844626556,0
2.70941771782208e-07,0.106102273758829,0
2.91918522077524e-07,0.110117587871209,0
2.87443035986465e-07,0.112014049481843,0
2.51010653174984e-07,0.101686064859316,0
2.55438241934718e-07,0.104452284280336,0
3.55182280307519e-07,0.114837682158093,0
6.20001303281119e-07,0.144267579014503,0
5.97801270349249e-07,0.144561202494747,0
5.49198657155494e-07,0.143554053626387,0
5.0824086352136e-07,0.14195148014688,0
7.03215947270948e-07,0.169397391536443,0
7.44464672843504e-07,0.176317839482088,0
7.57946884624045e-07,0.168466631631335,0
1.13690854267201e-06,0.194149551441294,0
1.20585713125278e-06,0.194735027864583,0
1.48888220863078e-06,0.225065701557399,0
1.34513572827175e-06,0.221016093898169,0
1.35789187733141e-06,0.214599976218454,0
1.47958657840315e-06,0.223356903202844,0
1.52978500903265e-06,0.232588709330298,0
1.24420135251675e-06,0.212659664980387,0
1.08417256718238e-06,0.195895764267608,0
1.11694371853534e-06,0.2149778531315,0
8.98383887471006e-07,0.212586489414595,0
7.63423906447376e-07,0.209433847766164,0
2.73863255568037e-07,0.13833655634403,0
2.55691666968187e-07,0.133978785912758,0
2.51576297849686e-07,0.129048256665467,0
2.86254726004529e-07,0.134155150417113,0
2.81607924590845e-07,0.126164480916967,0
2.85946561163831e-07,0.125087301169039,0
2.99432827744909e-07,0.122335791993175,0
2.65676613286859e-07,0.11215074705709,0
3.21170613415732e-07,0.118323899786607,0
3.21971436521494e-07,0.118469997044215,0
3.45126374979476e-07,0.118194508571791,0
4.05118416027387e-07,0.126557115344015,0
3.03159189437035e-07,0.110985420606479,0
3.36179457597891e-07,0.119538244243585,0
3.32911288366277e-07,0.118935440922756,0
3.45201642214415e-07,0.121123621058207,0
3.02473928146535e-07,0.117910737758468,0
3.25071584955918e-07,0.122180252764021,0
2.41147350872377e-07,0.100457521137307,0
2.53822657346354e-07,0.0980309003167948,0
3.22721574620561e-07,0.109227571311731,0
2.70846737394658e-07,0.10355470811188,0
2.54850549282104e-07,0.104271363124386,0
1.98865918288435e-07,0.0961896759184044,0
1.96914545530725e-07,0.0970870716949551,0
1.98575746625113e-07,0.0981820963305483,0
2.14559770336059e-07,0.105612838353645,0
1.91721106319848e-07,0.101671518548942,0
1.39994015888456e-07,0.0940018898899725,0
1.0362042768474e-07,0.0887689079957569,0
6.33524569917084e-08,0.0796554365794852,0
6.80935325178435e-08,0.0818388262016909,0
6.80557721878565e-08,0.0838053124431987,0
8.56508188365645e-08,0.0895142764204044,0
8.83541036685768e-08,0.0866349462069152,0
8.9495783444354e-08,0.0870900792581295,0
8.05701537655813e-08,0.0853947027026682,0
1.26916523886363e-07,0.100993224704385,0
1.25305500948602e-07,0.0963253247052616,0
1.3190392854503e-07,0.102683275199929,0
1.73896456590817e-07,0.109570399050805,0
2.4107816583824e-07,0.118944967401435,0
7.32548627769799e-07,0.180233505021094,0
9.07660257396099e-07,0.188490590286043,0
9.12836970554767e-07,0.189039301482686,0
