Activity,Complexity,Tag
0.037054523873227,0.00551918006423204,1
0.0361875269593044,0.00793974453492804,1
0.031119088922924,0.00665887318619321,1
0.0315209253894803,0.00702168284557327,1
0.0323944154672925,0.00726545270578036,1
0.0296250447211406,0.00649154707304189,1
0.02062092464077,0.00360443956715665,1
0.019188616845634,0.00444194898461201,1
0.0201741239430767,0.00372874360145883,1
0.0151861414003836,0.00228163995621264,1
0.0121310556636903,0.00559935007951304,1
0.0107619424985731,0.00841661565273021,1
0.0113666558836951,0.00879534198825728,1
0.0102248126053933,0.00919506989418054,1
0.00757604086815529,0.00659196681290301,1
0.00784978063117955,0.00629231666753246,1
0.00954868013615894,0.0083755763440117,1
0.00919531664907059,0.00408623680210893,1
0.016445989879536,0.0110392040081852,1
0.0214276402741895,0.0166833520034567,1
0.0234720071572924,0.0117477697582448,1
0.0272824837383444,0.0122253672778165,1
0.0284870356576568,0.0116520847858471,1
0.0280323856698353,0.011628321471721,1
0.0288532017119677,0.0127144762102618,1
0.0290535205174337,0.0137698150714482,1
0.0271344237480952,0.0130512928148202,1
0.0282015832442864,0.0140497613186979,1
0.0396545073929833,0.019077714686792,1
0.03922658651339,0.0130749017354219,1
0.0436430409051367,0.0182481258982915,1
0.0409959886635873,0.0170028644893705,1
0.0368856777696223,0.0164201437225936,1
0.0466726526533334,0.0180535260133559,1
0.0432351566318117,0.0128320731099136,1
0.0370022709147825,0.0102304765378987,1
0.0244435701869843,0.00660059342982219,1
0.0215063276451231,0.00642711422608182,1
0.0210106534641066,0.00643421611824372,1
0.019106097934221,0.00828644606069325,1
0.0208175819228083,0.00892254974733054,1
0.0244786447241508,0.0120010031745265,1
0.0432189342610097,0.0111396113452143,1
0.0847164861076785,0.0110812046042243,1
0.0775158604161976,0.00988937577778677,1
0.105483255641584,0.0124158123628728,1
0.112300521051937,0.00543319332195855,1
0.125017797947598,0.00424951078196853,1
0.127932036774703,0.00415299953279304,1
0.115734350765488,0.00342635084453344,1
0.107453560927622,0.00299407837383278,1
0.107877590093394,0.00253037671869425,1
0.125606635242641,0.00423145648895829,1
0.11430239730229,0.00407614042420763,1
0.111035866654332,0.00419052979670829,1
0.111634995725225,0.00466040265547035,1
0.104305566012218,0.00726984243342222,1
0.0836454232528674,0.00950172256080942,1
0.0751784006492468,0.0102031501625083,1
0.0957861032141426,0.0126787431478785,1
0.112504760576953,0.0114077731724323,1
0.175755227713293,0.018782246301561,1
0.159597359119791,0.012766586491189,1
0.182362725520912,0.0145030752890666,1
0.208845148751326,0.0147767077737061,1
0.174663521760146,0.0128116684709588,1
0.168739245388594,0.0114075893526611,1
0.192444930140003,0.0119695718910893,1
0.197035258219021,0.0119404789172153,1
0.208176437013833,0.0121992657712904,1
0.216552127374252,0.0121496749171207,1
0.165127251169959,0.00763588278362307,1
0.216175773295257,0.0119714301727349,1
0.21606531647776,0.0082557238159754,1
0.204504991164914,0.00670955879311926,1
0.259059288544044,0.00919941335862233,1
0.255911518238701,0.00891895783412618,1
0.24424911022362,0.00757765898827769,1
0.311623448724514,0.00962462767999777,1
0.290690900961265,0.00717289521753453,1
0.307146637490219,0.00586678151136774,1
0.382184781014833,0.00865555777461995,1
0.288964224657916,0.00699594582549306,1
0.172793741244783,0.00468920181955551,1
0.180744705412485,0.00614470089379032,1
0.195532565137781,0.00635568541468907,1
0.184865654951846,0.00781457703625661,1
0.122828407561824,0.00610108147110386,1
0.127155897093487,0.00663337075200338,1
0.0610668528735415,0.00526415434607965,1
0.0149830292908365,0.00944782755036952,1
0.0182152035547108,0.0156083456765751,1
0.0182920144671276,0.0265038529798834,1
0.0192317508992216,0.0272696855931531,1
0.0186378704983108,0.0276595031385132,1
0.0161570628022161,0.0324627142077581,1
0.0163304364109423,0.0421546789526208,1
0.0124822207622292,0.0388389975372885,1
0.0100163113285668,0.0333444493828416,1
0.00759199917659407,0.0270443341653209,1
0.00487561469151091,0.0189527207393784,1
0.00398625584658137,0.0550193147787883,1
0.00401180402945333,0.0454514728789875,1
0.00605460175557616,0.0497123349963266,1
0.00670375438597088,0.0316771989448002,1
0.0140988114885301,0.0383728024031372,1
0.0159362725350051,0.0362353342077174,1
0.0162712818485178,0.0367452383256536,1
0.0155671122731059,0.028584759063528,1
0.0150840693383749,0.0205884892370739,1
0.0140043757020054,0.0133878868476523,1
0.0124119136763196,0.010424664396146,1
0.0111107349422946,0.00885068289516431,1
0.0113981300368595,0.00788144775035194,1
0.0130065337701392,0.0101436106251077,1
0.00999740144376596,0.00809533569079001,1
0.0118300506174636,0.004940578921816,1
0.0196586384193082,0.00626115908211065,1
0.0182826468393497,0.0052697943100855,1
0.0202660198999429,0.00518449434864273,1
0.0208458512964222,0.0056599735453357,1
0.0220854787132957,0.00275297355369687,1
0.0498554688877074,0.00882312787203878,1
0.0496946797560534,0.00484584935710517,1
0.0526233323947871,0.0035612910304985,1
0.0623014994517546,0.00488593402459233,1
0.0596173770195842,0.00494934277986486,1
0.061351395808971,0.00548893126462831,1
0.05524143540136,0.00441949664104082,1
0.0670502974715044,0.00597280925027919,1
0.0491129666406132,0.0020135404360395,1
0.0651099780900728,0.00597224252711416,1
0.0581310322406428,0.00302379470776086,1
0.057734030374142,0.00380790163496612,1
0.0552134141341266,0.00416295890012052,1
0.0505747012023317,0.0037519960007615,1
0.0505262758808201,0.00402306880274463,1
0.0491294789828849,0.00416933657099855,1
0.0486264783014663,0.00470786661403367,1
0.034816053266362,0.00313108183024471,1
0.0320978027057942,0.00426127387827022,1
0.0228678976924137,0.00248497523405458,1
0.0183831376695513,0.00488704940199069,1
0.0141295244704441,0.00816117036279322,1
0.011900675299467,0.0169547538692369,1
0.010402280091278,0.0139100470173613,1
0.0231319907930679,0.020244575883406,1
0.0248015395110724,0.0100320213225709,1
0.0275611043840858,0.0107672280807773,1
0.0275631308113142,0.0106209300278111,1
0.0295729820412269,0.00869361549071884,1
0.0406969095432725,0.0122578368935983,1
0.0445467306164137,0.0103826322068697,1
0.0443278652793785,0.010106898005292,1
0.0438355675388306,0.00963359923026432,1
0.0437261982867871,0.00964249626578575,1
0.0364150200499017,0.00742235956071991,1
0.0353195476629109,0.0112178100562788,1
0.0300408590642374,0.00981921493368051,1
0.027002934377604,0.00855294229800379,1
0.0234946426741204,0.0119181877224981,1
0.0556946198108954,0.00446241264048402,1
0.196652173609471,0.0196879277151298,1
0.219667203325601,0.0108615009701913,1
0.219936537865259,0.0115450143969771,1
0.221338704589812,0.0131066927403537,1
0.269442644172617,0.0102397452307789,1
0.277702844504458,0.00921643996107459,1
0.246561144011267,0.00821550119518276,1
0.212482737746549,0.00695385940076567,1
0.175465456161305,0.0053697236752763,1
0.164699554923423,0.00910529501371328,1
0.150966828768261,0.00535816920137298,1
0.208541837273565,0.0112032788436576,1
0.17571832675289,0.00741885160535109,1
0.117415497122638,0.00397218287180645,1
0.11639054017148,0.00941871093601398,1
0.11452396326286,0.00906772667871008,1
0.116539323954209,0.00882470428391992,1
0.123555418905522,0.00899706081071856,1
0.127879428043668,0.00920686310402324,1
0.143243872860906,0.00904164678842438,1
0.121118484564383,0.0147129387188051,1
0.0597141541086159,0.00686559620505838,1
0.0585943071855661,0.00983628225730716,1
0.0635174371769688,0.0115564017600948,1
0.0710504415863737,0.00624377116911773,1
0.0839135128843229,0.0100476965652489,1
0.0938600974623078,0.00725471654753966,1
0.329523591972144,0.0195463067358646,1
0.446468925096728,0.0162879952394604,1
0.438198172055127,0.0163611349955353,1
0.498726933244069,0.0154473072195003,1
0.610368498455313,0.0213280558442857,1
0.636768006838112,0.0225164084770154,1
0.49951929673444,0.0143260821909877,1
0.343077281501023,0.011538261888345,1
0.305853203114604,0.0100904277576521,1
0.242678809948362,0.0103145754601667,1
0.250339381871364,0.0139470536945907,1
0.265472818001159,0.0198760294099725,1
0.242724548108806,0.0182460310357718,1
0.248712564355299,0.0252647049068585,1
0.200212111675244,0.0187175135844033,1
0.105311845031933,0.00662140532126847,1
0.104768569399466,0.007460832429684,1
0.100835633449784,0.00690549776258296,1
0.212800003573668,0.0100960606657414,1
0.364352734692438,0.0162600654848269,1
0.472616827734345,0.0198399020095198,1
0.571493657634921,0.0242689633261696,1
0.559564327510579,0.0249803654664181,1
0.53004516864115,0.0240313799363021,1
0.438075646401125,0.0229497799210603,1
0.288829697517747,0.0231458719051417,1
0.244905756522843,0.0233970364452229,1
0.0637023312808984,0.00505423526180941,1
0.0176101749780516,0.037517763728664,1
0.0173053934583183,0.0364234536991487,1
0.0122627090578152,0.0265103888250926,1
0.00852534443990042,0.0335738998872964,1
0.0090623542099426,0.0358301782172278,1
0.00955193938756456,0.0356589675425369,1
0.00826554159934052,0.0365036678574914,1
0.00366525661338436,0.0218120700228656,1
0.00204283809222215,0.0253394022210561,1
0.00169775004546196,0.026774675663672,1
0.000429380991558761,0.0172100945764686,1
0.000416743262641028,0.0261459726272556,1
0.00036420997951694,0.0253073354681762,1
0.000305469243137879,0.031966957343062,1
0.000271601423758696,0.039339797365495,1
0.000260176574524008,0.0417103522551345,1
0.00029648982047758,0.0347222724904504,1
0.000831066419958466,0.0507541510122759,1
0.00184662887456401,0.0767664014063754,1
0.00417652323321713,0.0581196715285724,1
0.00903346041471971,0.0891002723459545,1
0.0126828884115269,0.103691712145814,1
0.0131823881195132,0.0915689383981024,1
0.0134566054738127,0.0777085206392522,1
0.0123518053251572,0.0696943598451102,1
0.0126776558151716,0.0604778325057458,1
0.00893671151529262,0.0286074303425342,1
0.00595512646426898,0.0226074562832941,1
0.00391452115736298,0.0163736668827465,1
0.00266801412355158,0.0125970506475918,1
0.00270696332563208,0.012333256665078,1
0.002700741136283,0.0124121211026288,1
0.00220017981987915,0.011393405070873,1
0.0022985977377029,0.0104736008552492,1
0.00427648648430771,0.0164825519565875,1
0.00326266779656189,0.0134177500516709,1
0.00553520024318367,0.0141141141351904,1
0.0197201141341111,0.0275311104543409,1
0.0303367367530082,0.0160879301876774,1
0.0297535025049102,0.0147779139258461,1
0.0343966273206213,0.0159730108475128,1
0.0426920647757568,0.0195781124234651,1
0.0437683492611186,0.0177464383204224,1
0.0535713317974524,0.0184150407181392,1
0.0387727200821794,0.0106981564187071,1
0.0294264040587264,0.00308060936104529,1
0.0673063061789188,0.00768135490314571,1
0.0679944945543725,0.00627221016419871,1
0.0662904915557123,0.00701264782610512,1
0.0576813139776229,0.00528433632743219,1
0.0631150163912937,0.00233127268365665,1
0.137203192218503,0.00645193151275528,1
0.136716631923601,0.00470256622344279,1
0.199405690976603,0.00516341224746551,1
0.232572414259417,0.00458869960208708,1
0.230297040564516,0.00495681122279594,1
0.22505927939158,0.00499195074853494,1
0.232289345284394,0.00537282425303742,1
0.246379331090233,0.00555672647836533,1
0.224028161395823,0.00509937810631413,1
0.215683188430896,0.00600221869961616,1
0.180803841094293,0.00529100227283886,1
0.179178550707209,0.00477296693956245,1
0.153293154579958,0.00589318495162381,1
0.185995773189079,0.0118474743915349,1
0.190681410618047,0.00834943599121821,1
0.193627955259736,0.00824605516482916,1
0.190880249036271,0.00766401584237655,1
0.207766470942272,0.00905670114090113,1
0.213307454299039,0.00729449577261099,1
0.215456151696992,0.00854666701288198,1
0.202547431104316,0.00748899350671341,1
0.205207532321985,0.00888094211862321,1
0.182608060736648,0.0108042469429494,1
0.0720371967883718,0.00218697225523061,1
0.0774243145485895,0.00956172940209342,1
0.197845058679631,0.00805760385325409,1
0.425675099043958,0.0192357262106282,1
0.45011073023622,0.0200554987260247,1
0.520971743334407,0.0239559918446886,1
0.641461503341975,0.0273628640034789,1
0.638215805123802,0.0205380482648515,1
0.566395547539225,0.0145470430876301,1
0.485258081921251,0.0124026027650664,1
0.476149452682857,0.0136964116933001,1
0.467305595029127,0.00929194148227173,1
0.454970026632222,0.0158857502745616,1
0.437257223312083,0.0151672121257606,1
0.414089554368423,0.0141647134018643,1
0.339215045731969,0.0124484146274854,1
0.220709462931082,0.00806873105349292,1
0.145764581083351,0.00616007380188655,1
0.137358267607554,0.00925933796577792,1
0.123751177389302,0.00575189570961004,1
0.134800462124072,0.00573023240645882,1
0.136336381215888,0.00562267495041668,1
0.170701085180531,0.0100033164229184,1
0.150123665795067,0.00649791958902404,1
0.165213528792362,0.00796259530582114,1
0.16661479026011,0.00788752450742682,1
0.174468576135961,0.00581078331717228,1
0.191494398509138,0.00425893282014442,1
0.223831168787369,0.00552972800095271,1
0.257580500245544,0.00862089385008191,1
0.204286896096915,0.00395517772520834,1
0.244187209707889,0.00784726351522943,1
0.211812330513667,0.00598174144508186,1
0.20337456507835,0.00604982896777311,1
0.204044284750859,0.00568266752329057,1
0.221882878474679,0.00586015472718014,1
0.19236641847018,0.00562122064068506,1
0.167769171887018,0.00726039610554588,1
0.172072201264938,0.00649546483764284,1
0.140169348853376,0.00353489697354589,1
0.132459513206647,0.00735679323779834,1
0.0894237436546141,0.00417254203077273,1
0.0785619594107655,0.00389457448260981,1
0.0858881106216314,0.00454725533123274,1
0.0850175490745871,0.00534056257271941,1
0.090151673830265,0.00499438670937929,1
0.0881842729134793,0.00570142287969376,1
0.0742340076462718,0.00603743518271742,1
0.0660353169745488,0.00572406428015039,1
0.123917117494312,0.0099729306879911,1
0.182881698163137,0.0146504572490461,1
0.328435192588379,0.0212284353047807,1
0.479435535013526,0.0288039699310485,1
0.535742855992789,0.0323748615821182,1
0.626543930681104,0.0377402890195882,1
0.564272820649468,0.045698933186587,1
0.425877756333201,0.0389663999535553,1
0.331662061163888,0.0327626251713765,1
0.142292152672483,0.0183888147472828,1
0.077820189305592,0.0239499817784626,1
0.0211632596288921,0.00742549734961678,1
0.00571765268102485,0.0366952671820523,1
0.00370135829986995,0.0412205548201183,1
0.000284620295778196,0.0424826851582959,1
0.000195166032595855,0.0601713672471159,1
0.000420382077429639,0.071297724374468,1
0.00119273687494048,0.103357809295229,1
0.00197397645867659,0.0716795762692683,1
0.00202022112970681,0.0513288055378756,1
0.00204847880902038,0.043077478524513,1
0.00207380470989556,0.0421808429853388,1
0.00175578211082318,0.0338487680197844,1
0.00292173674914325,0.0252971324814617,1
0.00400921682578139,0.0257043576001981,1
0.0064333322788018,0.022826365994391,1
0.00638632400908948,0.0184807186060672,1
0.00996543655904834,0.0238221704003033,1
0.0169819066939339,0.0385143204212357,1
0.0172785462795461,0.0348277844859463,1
0.0146115684535701,0.0318377633313562,1
0.0149590825450914,0.0265768902153079,1
0.0151489101418684,0.0227751004409454,1
0.0127360470431284,0.0167803396440167,1
0.0110321084085678,0.0151723673845313,1
0.0111115761728017,0.0134938468495449,1
0.00820209311969772,0.00968139785891209,1
0.0081913105199464,0.00926839358954384,1
0.0133847390549052,0.00887903020386232,1
0.0179014656588795,0.0102794998688414,1
0.0171597536023195,0.00973450805754243,1
0.0170106684894437,0.0112020986597297,1
0.0156308101860107,0.0109175594046968,1
0.0142372145125325,0.012267929725987,1
0.0135832962125037,0.00817196065183426,1
0.0165745216440583,0.0106255760671933,1
0.0163973928638225,0.00929091572372668,1
0.0131779674080771,0.00752800129919378,1
0.0124800339482786,0.00918312780390598,1
0.0139266191701947,0.0112021082964539,1
0.0140655083854508,0.00919416009290578,1
0.025248165969004,0.00397203180202243,1
0.100463420721329,0.0138490964839478,1
0.0971167160009188,0.00826892397328107,1
0.0939981707083963,0.0081231037859641,1
0.103503921824595,0.00895689439154215,1
0.0979002679990777,0.00881609511432621,1
0.0868145279072066,0.00790370751166258,1
0.0700315000889756,0.00592560467720786,1
0.0739494718937699,0.00595017729964328,1
0.0616118229144025,0.00459306609349165,1
0.0578690068002734,0.0064397837526396,1
0.0338099664930492,0.00413375318337947,1
0.0346209067671123,0.00824157435524256,1
0.0412876420536319,0.00949140333841999,1
0.0421804344658583,0.00782764379215826,1
0.044732192785618,0.00746439993498688,1
0.0980847033248126,0.0101866360352989,1
0.203366663052944,0.0188697371815041,1
0.217232485977068,0.0182908012504053,1
0.252714439912995,0.0162185514082709,1
0.401649579043278,0.0241386933758069,1
0.526908393966542,0.0296460810352757,1
0.461417561969262,0.0142669393718927,1
0.32958307281488,0.011005002586665,1
0.283823029689906,0.00879211149998647,1
0.216247085792165,0.00531181448462588,1
0.28486103414119,0.00766082009775144,1
0.450119962067368,0.0122244041964283,1
0.539489370174717,0.0106413564866356,1
0.537596352384531,0.0118293962572814,1
0.482174946593978,0.0108918111315281,1
0.309207033473786,0.00654361578135669,1
0.267689331400556,0.00790172811414171,1
0.265051120664302,0.00759120853177205,1
0.238797570122958,0.00740305233294716,1
0.134962268361631,0.0038532742932962,1
0.132257287988887,0.00657469852304866,1
0.101774394017986,0.00496411838873016,1
0.108188450470714,0.00178041784766426,1
0.327622418414769,0.0104377199720703,1
0.409508075203111,0.0152438476834643,1
0.54764840391074,0.0182633311649112,1
0.518617823476937,0.0145533327800109,1
0.467831366094231,0.013691833380712,1
0.435224086500535,0.00921770219721581,1
0.514774144267011,0.0107766032683867,1
0.544336932565847,0.0113666461859047,1
0.516393687542171,0.00968755362696886,1
0.482841684087612,0.0146520644414148,1
0.377757999421571,0.0136664863251104,1
0.3489823854618,0.01345608453169,1
0.324474686173846,0.0118444857438143,1
0.333285946180886,0.00790283102167176,1
0.339120097647074,0.00792318784588431,1
0.335516200373617,0.010144123600009,1
0.295525929742219,0.00909999060505892,1
0.250017753668149,0.00638296765768181,1
0.20586611685675,0.00616965873459789,1
0.209366804788928,0.00574947241528452,1
0.217084325534158,0.00659682601861245,1
0.237835749644397,0.00799840328213705,1
0.171391333389569,0.00551386039357398,1
0.151368994874028,0.0106863507308271,1
0.123610036312646,0.00972710871147801,1
0.122704698658275,0.00778173558323575,1
0.192554612509567,0.0078158086466548,1
0.206605754851969,0.00746744729131039,1
0.231597000488256,0.00681891809686983,1
0.297303524881882,0.00958035280803335,1
0.353784768279328,0.0107230818858701,1
0.424804490934667,0.0127681221164952,1
0.530981705526785,0.0160348516205643,1
0.629954966231192,0.0207776409556083,1
0.549122542555861,0.0198622600230806,1
0.308011861980249,0.0141976110686469,1
0.311539622550062,0.0213267938180025,1
0.213609903480552,0.0262441503752635,1
0.115985349959175,0.0397368818369404,1
0.0685535952518332,0.0308403426932391,1
0.0172555720512597,0.0221909725031372,1
0.00637124066769113,0.0205251957528915,1
0.00303128706210918,0.00989029534847943,1
0.00288002161779423,0.00835206696498635,1
0.00329166552510445,0.0097544071828597,1
0.00308597016771814,0.0113399875339308,1
0.0027557622904543,0.00937552957573812,1
0.00270367204800625,0.0119460613749939,1
0.00223160726713046,0.0123668592880295,1
0.00216515007643011,0.0132712669481395,1
0.00183972813608884,0.0131506360724971,1
0.00180286688966125,0.0147808076448319,1
0.00173508212748268,0.0114851887735357,1
0.00453368805913265,0.0494657409034033,1
0.00918875745591343,0.0622086189653212,1
0.0106437454414094,0.0420158886717019,1
0.0099457679606872,0.0442403067864925,1
0.0130434922141747,0.0229172055379095,1
0.0196124005280456,0.0228507558259636,1
0.0171981132669563,0.0201862426415178,1
0.0132817737063468,0.0151123413020242,1
0.0107433569483616,0.0121680536869192,1
0.0088983355726051,0.0115579778474671,1
0.00970079441377101,0.00853964532954341,1
0.0116192185011645,0.00899030343621868,1
0.0116468983850216,0.00810243029609169,1
0.0160755159437382,0.0107342789818765,1
0.0161720742457135,0.014512873103542,1
0.0178621236858439,0.0168123639255212,1
0.022766047428392,0.021305557383524,1
0.0247883567675573,0.0164453145380158,1
0.0199035147143938,0.0124972338811669,1
0.0159862247842201,0.0102380450804753,1
0.0131437188033688,0.00966921466678142,1
0.0131844761184958,0.0108149217574316,1
0.0124726709831451,0.00447171170171137,1
0.0659702772355397,0.0145092148622089,1
0.0932633097057836,0.0101647676564322,1
0.0924057815648494,0.0110744911618923,1
0.100176626258185,0.0116097303152196,1
0.103164842850872,0.0122931936230459,1
0.0960357571182539,0.0113382102438127,1
0.114148422056047,0.00451794083124632,1
0.26631371784154,0.0108979551218257,1
0.267290924290085,0.00689665617525108,1
0.25869240381742,0.00626213210581452,1
0.254157842306577,0.00669881828935013,1
0.246902779049853,0.00682747327378812,1
0.242627944073658,0.0061404313557076,1
0.215534997663485,0.00501269096115152,1
0.21908702748035,0.00500993170839434,1
0.227267162185521,0.00511427970418885,1
0.218462664013054,0.00871639472396346,1
0.0757536207303024,0.0017314764025415,1
0.0665370010858773,0.0062040407677195,1
0.0699045716536845,0.0086332300031263,1
0.0513531415069655,0,1
0.170114502027872,0.00892494524821935,1
0.221938074253133,0.0103147691248219,1
0.227328584329799,0.010269298388238,1
0.202417475534249,0.0097437562605667,1
0.191010098700306,0.00884498015262732,1
0.207062893591351,0.00866568445256135,1
0.202241880013179,0.007822964423025,1
0.202405956915657,0.0077462760702457,1
0.18109839665031,0.00755978698663003,1
0.167412894148357,0.0132766988861542,1
0.126095167689836,0.0133139289411549,1
0.183308191207644,0.0200906411019225,1
0.233198127384117,0.0209567155529315,1
0.266517660649208,0.020604737636725,1
0.261191535916194,0.022135687341923,1
0.170690744464746,0.012884951381377,1
0.169409495844797,0.0129492256302912,1
0.162010483606556,0.00452975511862264,1
0.198203194173625,0.00533991590122751,1
0.186523255673723,0.00436373906752229,1
0.238261444575448,0.00575627400853442,1
0.239390687867669,0.00551082959076419,1
0.266285966979509,0.00580381039655774,1
0.322336288055407,0.00618661565739754,1
0.359064353337181,0.00546957895618691,1
0.398213560937874,0.00672013386537483,1
0.339403956169101,0.00557584564058976,1
0.314622303431021,0.00900777997442863,1
0.30563466870844,0.00871885094193758,1
0.330969133623509,0.0103969175191399,1
0.2815918912416,0.0095682086495508,1
0.273172807688719,0.00937374826461049,1
0.202436484894009,0.010877765263236,1
0.0366048774768816,0.000693996072654188,1
0.0284163014690201,0.00764600972799075,1
0.0326714115750011,0.00729268564185499,1
0.0724810587032224,0.0148191945575214,1
0.066652243279673,0.00388498239197034,1
0.0826626510278239,0.00884995261727178,1
0.11671272920415,0.00863251308885785,1
0.190216076678538,0.00858613426064653,1
0.204849184068967,0.0091911100380481,1
0.214520691591103,0.00681393410055199,1
0.307477062537785,0.00873768870713353,1
0.383982412232698,0.00677331051711874,1
0.377568387136517,0.0065919662039084,1
0.365462031583455,0.00592507605824921,1
0.308942979944046,0.00432565424240513,1
0.308524077910247,0.00427327335303817,1
0.334477437134943,0.00518363597435297,1
0.324187208585088,0.0051646761328023,1
0.327411238557609,0.00387602105381021,1
0.383847507298161,0.00600459336118562,1
0.360790732577149,0.00641429996709354,1
0.2979589220698,0.00723259182315179,1
0.375753845200038,0.00954425800496781,1
0.372648204869853,0.0123812838634263,1
0.395121440058724,0.0146542012289717,1
0.387905459434885,0.0147982500227819,1
0.412473845994335,0.0172776485578922,1
0.235192664448147,0.0131049763553,1
0.215843479495931,0.0273418497395087,1
0.210225077591163,0.0317711463061209,1
0.149329000739644,0.0280216242673595,1
0.0387080585083836,0.00721196204535578,1
0.00879876000897532,0.0533049095850656,1
0.00866489973186308,0.0670274765377254,1
0.00824856271123754,0.0696590660536258,1
0.00539115356455625,0.0571404409014218,1
0.00242635342906589,0.0364311706050258,1
0.00135530134555974,0.075214826443523,1
0.000999614777800014,0.100457030786396,1
0.000375582250574087,0.0916234482599042,1
0.000252530840334502,0.0464155134817993,1
0.000344148025491681,0.0587016277561766,1
0.000408358209291772,0.0690390944572292,1
0.000455242112218121,0.0838870633112398,1
0.000428497431680882,0.0748242897644263,1
0.000454916206987438,0.0412173418770082,1
0.00118134741724018,0.0451207659533661,1
0.00155138500922216,0.0343863946154582,1
0.00336947702560953,0.051218619476117,1
0.00487588106087836,0.0556243755236829,1
0.00552141746251732,0.0328186323767584,1
0.0104364569904063,0.033184655589658,1
0.00990561425983285,0.0271249021219724,1
0.00968192448755245,0.0254564668677299,1
0.00831074547098397,0.0192231140387875,1
0.00522980286538896,0.0130617790162016,1
0.00431271188170308,0.0119533495093847,1
0.00369575310713691,0.0108213562468955,1
0.00386442421210487,0.00860985264654727,1
0.0046821407765232,0.00985843962976644,1
0.00450160603267597,0.0122605227571699,1
0.00520211814421798,0.0168703183663544,1
0.00607627138705318,0.00804922797491069,1
0.0160331750991193,0.0130697166733092,1
0.0176025926077475,0.0100256002829193,1
0.0227523598757685,0.00625659298211395,1
0.036658495046441,0.00924713957637549,1
0.0412020627765844,0.00901258782122925,1
0.0671751143296751,0.0144918436310995,1
0.0650148357722675,0.0102357058721403,1
0.0633329497040537,0.00847897925281624,1
0.0527069699605962,0.00612056396469691,1
0.0375424264236567,0.00402294937543598,1
0.0410532314650407,0.00512328715604674,1
0.0356540257735937,0.00466690029189821,1
0.0325112689355107,0.00447972771977073,1
0.0668103058660985,0.0100196427133411,1
0.0754453047314129,0.00894666369751161,1
0.0737441802492998,0.00944933571834451,1
0.115241664138166,0.0108175435559558,1
0.125884645896776,0.00897618248950255,1
0.126282119880001,0.00885228309931498,1
0.125835283818974,0.00900456552783058,1
0.116562626874867,0.00833175040688703,1
0.114469469571124,0.00785286011772455,1
0.110584796112219,0.00832495019568584,1
0.100074624286938,0.00795080789824008,1
0.100046221942082,0.00869772270697746,1
0.10014785934505,0.00856638832935746,1
0.0493924024409721,0.0091290556129408,1
0.0171986797890641,0.00637548184987113,1
0.0302086048371913,0.00462201805503925,1
0.0971821184924742,0.0149039137952937,1
0.0982957348613632,0.0103850778038377,1
0.106405805586418,0.0100414378430162,1
0.151213711571739,0.0133507473549172,1
0.167182704465703,0.0122996052959956,1
0.144654094919594,0.0090999140293279,1
0.194229414001046,0.0111437547314269,1
0.168809195611529,0.00486963138600473,1
0.131635023400445,0.00247998251192434,1
0.134340089167204,0.00292997298240049,1
0.141858800432523,0.00316112243579715,1
0.120805833083226,0.00262761030798335,1
0.14284118373424,0.00259461535164047,1
0.275295381393804,0.00717122304229829,1
0.28252408213013,0.00619366314256936,1
0.262983307145226,0.00607956565045744,1
0.257384202041863,0.00608168617532511,1
0.252087514011611,0.00845961654576862,1
0.210651885678458,0.0071464442038566,1
0.214658161509766,0.00849683114617027,1
0.196121570165262,0.00678263263179036,1
0.250468481205411,0.00928476999432788,1
0.245970501234913,0.0152854888508085,1
0.125288579211069,0.00918633558098189,1
0.100054869861507,0.00752571972186204,1
0.120183646571404,0.0104847943796728,1
0.18322294208359,0.0143639760057733,1
0.227122305264388,0.0164743744212141,1
0.236913019478002,0.0205131633104932,1
0.249727206118405,0.0190406108149518,1
0.228771591065554,0.0219931427378384,1
0.170342038683463,0.0175152970707047,1
0.144855222940482,0.0153181681280021,1
0.102954226087327,0.00798686396650887,1
0.131994123199951,0.0176896379277757,1
0.148243868111554,0.00541760517049811,1
0.197239632095658,0.00916472304103415,1
0.199919364471433,0.00587584970708859,1
0.20623129964372,0.00726499683842842,1
0.202838224067583,0.00808150419570689,1
0.206492672354506,0.0098190631891464,1
0.201557814657742,0.00940168796124369,1
0.201089559766411,0.0085139775300465,1
0.22897358985268,0.0118941512560989,1
0.159111817681653,0.00544703303448843,1
0.149039191439494,0.00825213267581164,1
0.121756861919199,0.00616352295258321,1
0.111678947755307,0.00836248501991366,1
0.0966608263717532,0.00634919291559411,1
0.14576956680447,0.0099263677504114,1
0.1658816388561,0.00660076172833627,1
0.166486750710881,0.00657225555183103,1
0.169474208735488,0.00649852838963692,1
0.153367049542714,0.00633730194297472,1
0.156265791590648,0.00899874313588976,1
0.164097464268458,0.0094577713179143,1
0.142062974833838,0.0080186257505513,1
0.170583651531302,0.00947403061319973,1
0.196861501430939,0.0116366886190466,1
0.317556464237231,0.0167659195838968,1
0.346328197378785,0.0344447166445785,1
0.292596871842319,0.0307316464244036,1
0.27234273856367,0.0337966427138714,1
0.304629522851675,0.0373782048791102,1
0.301858361278124,0.0339729715107468,1
0.235937077859037,0.0416307760318941,1
0.130289692410977,0.0320155545267447,1
0.0843877304117126,0.024212191218279,1
0.0251379147968336,0.0143390911799144,1
0.020815617932597,0.0391815707824641,1
0.0178158161213824,0.0355466168774172,1
0.00738561040278812,0.0224430565396428,1
0.0012304727260366,0.055735003449156,1
0.00117663625758646,0.0667864416184965,1
0.00104691417085034,0.0745591112788303,1
0.000546879746091733,0.0465067392596536,1
0.00020030311720762,0.0269030983371268,1
0.000199359238021855,0.0330075750630875,1
0.000169418368956087,0.0281155846566471,1
0.000216792879256114,0.035670311279993,1
0.000192387632965336,0.0368953564207784,1
0.000191540483475102,0.0388874504580486,1
0.00028396651478347,0.0268530620760047,1
0.000488452692456324,0.0287162360531614,1
0.000394886601029873,0.0218894397533203,1
0.000567658535274455,0.0275731195207655,1
0.00105589863766937,0.0330235528311612,1
0.0035154136998979,0.0573144442439923,1
0.00496984401041315,0.0672613738973435,1
0.0080828945606489,0.0681838783803507,1
0.0124764547190977,0.0819453611960622,1
0.0163994996399389,0.0559992007935714,1
0.0254920086367374,0.0374467113014564,1
0.0246352122624015,0.0317520281200986,1
0.0223974999558913,0.0261432116890085,1
0.016745416109042,0.020041221333104,1
0.0118360889982059,0.014901116270876,1
0.0123855173706125,0.00530684538579638,1
0.0215252777348076,0.00771983435488245,1
0.0192226545183078,0.00692904149931428,1
0.0187070340340034,0.00691262538268499,1
0.0188301274398055,0.00726534597086362,1
0.0188349567698552,0.00637302043742644,1
0.0488653242920795,0.00983797448307132,1
0.0571572347087859,0.00590953736880805,1
0.0540658702108964,0.00517424544684602,1
0.0614966285929121,0.00402996249188944,1
0.104417329855045,0.00748563409117469,1
0.106970069243587,0.00660036883180287,1
0.102292556702133,0.00592137204235117,1
0.0982965265695263,0.00542789087829114,1
0.100507721176349,0.00599471795485554,1
0.0999516554861146,0.0038005093401617,1
0.111690373729541,0.00448857953840378,1
0.105554231463168,0.00609137710168243,1
0.116310414607118,0.00674755884257359,1
0.122714199086639,0.0081259171518638,1
0.0864912510299814,0.00590232834531765,1
0.093786825263013,0.00548584666290362,1
0.104059615630728,0.00614071464257332,1
0.103614024204249,0.00610150789564021,1
0.106381817005963,0.00538875078964969,1
0.0903081844917408,0.00777605175525276,1
0.0492574036102357,0.00412221672456871,1
0.061287386824603,0.00463691962255538,1
0.066703211188815,0.00533647657815185,1
0.0656726887426804,0.00695166021259627,1
0.060774908523674,0.00720449437687596,1
0.0698404610842733,0.0132039607371263,1
0.0922180906847736,0.0175468479074881,1
0.106895815194728,0.0192802720812283,1
0.128485389602576,0.022371497863176,1
0.143514458532147,0.0256028904647127,1
0.240835394026929,0.033665254311738,1
0.328251217422669,0.042760752296332,1
0.345224996292353,0.0348341682692362,1
0.275424911635605,0.027610815451743,1
0.215298113540654,0.0182576051372861,1
0.225736311670179,0.0195993514948798,1
0.270356738663254,0.022773476994234,1
0.275531113497156,0.0223875064628017,1
0.28353699223594,0.0257759743419394,1
0.284348171335597,0.0233273118305267,1
0.232718541588769,0.0210745038302069,1
0.152934290078426,0.0122483287378996,1
0.0810447439185495,0.00752264436996314,1
0.093582375359324,0.010078784864625,1
0.0786497891242959,0.00776815118887315,1
0.131629633855181,0.00711890231882036,1
0.337122862890075,0.0165027213367937,1
0.372975630304752,0.00627491575597697,1
0.42558253325462,0.00721151808383646,1
0.462574306352449,0.00771593620108893,1
0.486415429412552,0.0080614423839886,1
0.488781482221542,0.00671388558292037,1
0.48666117509386,0.00739729258003711,1
0.448625446325944,0.00596416491076601,1
0.489719804323741,0.0073892527774826,1
0.499205617187988,0.0111115255706461,1
0.222912669612203,0.00394590816327018,1
0.117400341428498,0.00712283107014863,1
0.125116478370216,0.0064122952820449,1
0.131378120038691,0.00687748935258783,1
0.126029186201816,0.00585475868050522,1
0.118236458095617,0.00749960519431416,1
0.100847144820212,0.00512762119986224,1
0.169726409342221,0.00471395139141957,1
0.239360218495891,0.00510201213676504,1
0.208622814902192,0.00501602646962965,1
0.213387581731782,0.00488661805759118,1
0.240582650084322,0.00675162960499607,1
0.244797264314398,0.00353660349596511,1
0.357110418586906,0.00681252837283808,1
0.362966390227704,0.00514202489807594,1
0.355007661665598,0.00495483009530694,1
0.36915678095868,0.00507788517387333,1
0.341496167472197,0.00650882148770574,1
0.280143718863205,0.00702401896529612,1
0.271680152208733,0.00657306050324309,1
0.276566675772925,0.00755576757678979,1
0.22030336100851,0.00499314123079473,1
0.205563954044895,0.0087279578095026,1
0.133623038589814,0.00590083344050939,1
0.131798906907317,0.00779130743594895,1
0.11968521532749,0.00552832481373479,1
0.171071999986526,0.00903775938449632,1
0.201186515180663,0.00371007631146101,1
0.265966108845012,0.00586942533658167,1
0.274787318005998,0.00589047378099656,1
0.313506872936908,0.00698368900871358,1
0.377820501429628,0.00874355765405049,1
0.397446067014439,0.00861103799164275,1
0.38332941533923,0.00743132196141577,1
0.450874360750903,0.00882072224089288,1
0.517013686495934,0.0130053419477508,1
0.263005637433687,0.00673879603425556,1
0.152865146770203,0.0127452773905942,1
0.194778117804669,0.0158590439377199,1
0.175811795559444,0.014853870740257,1
0.16529924803259,0.0139853711022289,1
0.174971169800876,0.0140975913572782,1
0.131170823173373,0.0240351786300928,1
0.0342387973886948,0.0171703609515532,1
0.0277265780718013,0.0288670996814308,1
0.0259351777265341,0.0273017053497728,1
0.0161366233723798,0.0217171892235144,1
0.00777666972562603,0.0341875633159035,1
0.00770781122537497,0.0427721733870718,1
0.00555587058779497,0.046630298385354,1
0.00125197900488522,0.0167750610516695,1
0.00186196307498953,0.0400246169541501,1
0.00190473736130227,0.0395121781103713,1
0.0018112375985782,0.0389604079329562,1
0.00158322989401355,0.0331258471506366,1
0.00153791729615558,0.030149251925188,1
0.0015681082975682,0.0322095016676201,1
0.00267644436857384,0.02636850318798,1
0.0053577709570341,0.0380738277449829,1
0.0059864123371525,0.0398543371987676,1
0.00590799736567748,0.0405333265164631,1
0.00754377725743074,0.0352170367016843,1
0.0122108348702316,0.0380560838557304,1
0.0117090350114607,0.0318726145601424,1
0.0117600738772324,0.0243989288878173,1
0.0159718089832977,0.0177419331332207,1
0.0127162617595635,0.0110118038548115,1
0.0142266239983301,0.00814467233955015,1
0.0194507353491343,0.00943288096592891,1
0.0180355162531319,0.00873690078955679,1
0.0142366457847248,0.00720563339608004,1
0.011865972724709,0.00602911306604466,1
0.0158080497870529,0.00810410183345616,1
0.0164933498601027,0.00714261979919031,1
0.0160656310231763,0.00836182978001216,1
0.0135670639962969,0.00878592837793535,1
0.0125876410064761,0.00968730436484315,1
0.0112720996138396,0.0144840319823568,1
0.00772156308049247,0.0112831690833041,1
0.0135518117128591,0.0189023295602027,1
0.023428642622953,0.0271537974727848,1
0.029229003632895,0.0277303207563565,1
0.0229169277325003,0.025444496020764,1
0.0230435685588799,0.0258343474359574,1
0.0227418627825907,0.0205719190774332,1
0.0201786683306862,0.019922908163898,1
0.0123545719719076,0.0144527258247621,1
0.00990459300044901,0.0129799545424646,1
0.00747359334589306,0.00955502126289885,1
0.0217697920507458,0.0153991947763113,1
0.023715927993873,0.012328448227023,1
0.0423731731478712,0.00831858805791399,1
0.0838797187491663,0.00818360878778869,1
0.0949096378584981,0.00744106070478526,1
0.109680625593707,0.0089542609937443,1
0.120655079288182,0.00980211940508498,1
0.122348587144106,0.00930359041281224,1
0.12318495296466,0.00897066298006345,1
0.138563422327436,0.0104440769016653,1
0.135256783628526,0.0106794652396564,1
0.133649862587556,0.0106362492481209,1
0.10256608363654,0.0138263232897934,1
0.0242290567823759,0.00535542454939794,1
0.0295226040696626,0.0107563238269778,1
0.0354458481568412,0.00844287115859631,1
0.0496060793256659,0.0119478932088366,1
0.0722475994051331,0.0105766339745243,1
0.22624717797412,0.0239053670468455,1
0.232534679910216,0.0125182796972532,1
0.200332906155959,0.0110305731960393,1
0.184941544551503,0.00987945638122853,1
0.167636183115895,0.00855053296097657,1
0.166965673118264,0.00774720855358703,1
0.207278844056884,0.00931755222743258,1
0.252498629453851,0.0110100610180129,1
0.273048310682692,0.0118451005258927,1
0.291034002384699,0.0147679746313987,1
0.277313749718415,0.0150725339749889,1
0.269933475619455,0.0324358176828833,1
0.253596866877373,0.0288399015723956,1
0.165251399348494,0.0102510809749883,1
0.159666312361654,0.0078310065750663,1
0.218015664154604,0.0118976699322601,1
0.223515774568745,0.00909679275924702,1
0.225713433326901,0.00944732031489012,1
0.229729288689914,0.00766370175169687,1
0.235906513656809,0.00742941751744755,1
0.22919500566553,0.00538732392824603,1
0.232945055435758,0.00517285178505112,1
0.209208041830334,0.00516720287551348,1
0.229802916511235,0.0086276985799851,1
0.19053181019926,0.00561307185633994,1
0.157433809075903,0.00442487777986677,1
0.16378366528803,0.00727983528072952,1
0.129782271567974,0.00532541647874649,1
0.106897841527067,0.00523042711643089,1
0.0969452290417836,0.00559414735291247,1
0.138478159848635,0.00660722371342437,1
0.197892372279862,0.0108759066876536,1
0.268670789950733,0.015707232605242,1
0.263709213882672,0.0126937881883838,1
0.244892734977453,0.0171062799854719,1
0.194463156498705,0.0150227045410876,1
0.183480884962875,0.0104475764990892,1
0.224700214473334,0.00965306998143373,1
0.248222124307753,0.00781858663389828,1
0.274283357647601,0.00849396260792218,1
0.274566682197328,0.00820171731223081,1
0.294025752107269,0.00790250148568734,1
0.248372203914963,0.00590342338304838,1
0.237671075121669,0.00748927993402223,1
0.236865639764265,0.00788635641177839,1
0.255088425389118,0.00788666838473069,1
0.249529478790155,0.007116297623307,1
0.228840933354197,0.00771725787520851,1
0.191557895572274,0.0100833199601992,1
0.125376939800036,0.00563136619111767,1
0.137289864970183,0.00993844530570703,1
0.154366125038872,0.0111194526996103,1
0.167109854367581,0.00915066175896946,1
0.176124757855354,0.00821121284306902,1
0.187858447721138,0.00607281795229918,1
0.219344216244106,0.0066352926005732,1
0.299049206196165,0.0119868281460987,1
0.349695259934716,0.0161400125425921,1
0.358516340223595,0.0164486430977629,1
0.388265602058654,0.0182265539742614,1
0.437973979135033,0.0194737985525006,1
0.465285565352089,0.0224262451649879,1
0.303436426512041,0.026569579963529,1
0.109432723599535,0.0127853949060645,1
0.0208026486344814,0.0122494507675052,1
0.0162648199700072,0.0417403283191908,1
0.0150313752279696,0.0803352597964699,1
0.0078787724983506,0.0639184929471973,1
0.00196843952693297,0.031743448249255,1
0.000408621487363078,0.0484992093999824,1
0.000556117285989085,0.102667821588969,1
0.000703916450289479,0.188520344827862,1
0.000753712543117179,0.191578719880418,1
0.000753431175982925,0.215964450957031,1
0.000762895554758156,0.172147138178401,1
0.000720815563804523,0.134743371339877,1
0.000618231602712916,0.0874290388076203,1
0.000704248603228046,0.0849804596726975,1
0.001424060505561,0.0888981854178555,1
0.0028153661827769,0.120760459475686,1
0.0028765118333025,0.091323864195923,1
0.00435513414828603,0.0405047595564529,1
0.00550257098335822,0.0297919547406145,1
0.00909328343831591,0.00726844688889121,1
0.044689873435317,0.022850791501056,1
0.0668827787934126,0.0301606742126932,1
0.0724291450116554,0.0295328483530457,1
0.0674517543482925,0.0253115778882087,1
0.168218252544821,0.0207245009413617,1
0.181330247256936,0.0106820909076062,1
0.156074961787938,0.00919577716730354,1
0.139629596024283,0.00804462921759189,1
0.129507635805815,0.0073888355251923,1
0.125988064689981,0.00800252189188011,1
0.14051087515558,0.00944308465232315,1
0.14200596348515,0.00862291676095333,1
0.142511281725486,0.00854808156469194,1
0.142083955745569,0.00849599466777062,1
0.0537909746636701,0.00459187659400224,1
0.0349140869173511,0.0157119495549941,1
0.0424611575010071,0.0205976015270539,1
0.0508929654373766,0.0254956148955252,1
0.0459078327790094,0.0217245279636645,1
0.0375977763879645,0.0183786523679901,1
0.0267934135389982,0.0135361958554329,1
0.0235173347751872,0.0197471124206582,1
0.0232650319471426,0.0192939842405339,1
0.0275051371717771,0.01968573108457,1
0.0291529059235654,0.0156012152690328,1
0.0263619592742631,0.0130862010161524,1
0.0620284871930412,0.0174760705512422,1
0.0764805605983823,0.00899429974722173,1
0.0822808874524127,0.00907435442777087,1
0.0858145386811075,0.00930023155894978,1
0.0843132378510985,0.00972721479622046,1
0.0851901843884533,0.00891482537548583,1
0.0862471010315424,0.00880983539678805,1
0.0804698169582346,0.00847642753871801,1
0.0775911127248384,0.00907242388585208,1
0.0784947976026745,0.00958229283180329,1
0.0510108924830568,0.0084019560377082,1
0.0271728266177743,0.00850895696342822,1
0.0263089969121899,0.00933000398427422,1
0.0271363372711813,0.00849987637982121,1
0.0309367970814336,0.00826165544407621,1
0.0366555692262002,0.00420681799313632,1
0.0518642009248705,0.00751124751601938,1
0.0549777534530178,0.00915318299219392,1
0.0546476155249075,0.00852973812671918,1
0.100959269379815,0.0102797799814217,1
0.204612910592892,0.0211801306326567,1
0.200518334298273,0.0124039549432768,1
0.185973878213599,0.0119152498903582,1
0.219571565525951,0.0114404488412048,1
0.228026530005065,0.0124580805960773,1
0.227320062659219,0.0143961418708981,1
0.221930291092851,0.00973297275022827,1
0.197702751206504,0.00673290170891524,1
0.165389896363706,0.00452702858765907,1
0.177312617000237,0.00447101067476524,1
0.18964521672939,0.00481581891251104,1
0.185387354142325,0.00578130403377773,1
0.166545985197853,0.00436805149717361,1
0.184591652836409,0.00717388449341723,1
0.156974516138342,0.00548197585441443,1
0.137094768789188,0.00307306943398582,1
0.161524936175847,0.00623590871394952,1
0.151849699947937,0.00486941342382353,1
0.148200131518222,0.00507612473815034,1
0.117548549791158,0.00460174594210114,1
0.113400288464443,0.00397360527968709,1
0.117376862392192,0.00414923490579846,1
0.130017297155657,0.00430262296061123,1
0.123670330757512,0.00333539829256501,1
0.128028660845484,0.00371647116346944,1
0.147470018202931,0.00420531663983209,1
0.275749780490283,0.00907432315145803,1
0.303843406005915,0.0122366173457887,1
0.253911784463422,0.0107620067278929,1
0.292512226847896,0.0102866156886802,1
0.344822991283165,0.0115989210181268,1
0.334910400816249,0.0106964329193914,1
0.28350861370221,0.00888175553866052,1
0.272902237287931,0.00768643943144331,1
0.259894539551779,0.00677020065444236,1
0.28097815804085,0.00920681981052194,1
0.218770898425618,0.00717177147080503,1
0.24963309049883,0.00583038266798515,1
0.340598988809207,0.00832041157256962,1
0.320914109187473,0.0110364747098124,1
0.180670200675376,0.00592913486365968,1
0.168273232431926,0.0041512601140303,1
0.319385674441216,0.0102541796351918,1
0.460204419382864,0.0116360436072388,1
0.452362854795942,0.0110195723125093,1
0.446245400525003,0.011336031508357,1
0.441554499121833,0.0113314899650078,1
0.456918223818964,0.0146862326732615,1
0.391303954984512,0.0125843199622681,1
0.459490193839608,0.0138376236192841,1
0.46085536793807,0.0114124942939138,1
0.462136042898493,0.0136171776761921,1
0.361419520774167,0.0128003456672669,1
0.189839917354346,0.00887722505415075,1
0.194852766509688,0.00987297140742308,1
0.183373352955722,0.00925299467760905,1
0.175792194586893,0.00995005537398599,1
0.1579447296549,0.00965022958996821,1
0.171463319170077,0.0112699828073754,1
0.110853635444414,0.00691071254100126,1
0.109298818389397,0.0112748271084461,1
0.10585637132807,0.0114510089996912,1
0.107106650168125,0.0124604705759009,1
0.12790380065325,0.0130152664762612,1
0.124568069428147,0.0154069624235983,1
0.117979841622872,0.0122932841820864,1
0.103914146578857,0.0101216093487748,1
0.0922798701789407,0.00714861108525153,1
0.132919116418672,0.00908228453110953,1
0.138156678302072,0.00745528603631558,1
0.135850385066981,0.00803452090289388,1
0.140368581556311,0.00848590379079282,1
0.149457345376964,0.00890007832885716,1
0.178471463248276,0.013521103317947,1
0.180672455304432,0.0131639456157686,1
0.207303375584819,0.0166566976987464,1
0.250615635237592,0.0194358916030971,1
0.284257138467501,0.0308240669475173,1
0.200176009763032,0.0380980949675049,1
0.087885686332462,0.0503856279575067,1
0.0720057253704253,0.065235607694077,1
0.0421030391480263,0.0455400375100896,1
0.0250348983936573,0.0326481422255054,1
0.0203223700766534,0.0399615827224609,1
0.00800783933983842,0.0299449443019025,1
0.00216784677947345,0.0228116900862069,1
0.00163348656902831,0.0266907505102347,1
0.001649806280983,0.022251785913981,1
0.00165533262914336,0.0193878071397315,1
0.00156033097844466,0.0181972576697666,1
0.00145973267859006,0.0192813141564459,1
0.000869647639790739,0.019424334029559,1
0.000566929327670447,0.022283595498684,1
0.000644320200818671,0.0143652804674015,1
0.00296242476578857,0.0283475286518659,1
0.00506331465799546,0.0275083217437708,1
0.00488763369994388,0.0240357936859817,1
0.00638063666420218,0.0309482776515573,1
0.00812763475711469,0.0437119076987256,1
0.00977953075526049,0.0484520928007262,1
0.0119692526846949,0.0509659446801151,1
0.0114778351555342,0.0396024899575785,1
0.0154115938903395,0.0393602173446361,1
0.0232827184156377,0.0395774116376154,1
0.0555228750220968,0.0604896950173418,1
0.077457272050545,0.0489156126880288,1
0.0864212299437326,0.0245366137871759,1
0.161676984586859,0.0361559925283444,1
0.192469966097367,0.0340713742230869,1
0.220716792704814,0.0339887299119168,1
0.223362712015313,0.0171788401353275,1
0.174558811132667,0.013573922162642,1
0.150657582782198,0.0118232071381675,1
0.126234415028864,0.00990090795312817,1
0.133197512693997,0.0100691694902258,1
0.131065181405036,0.00968398635284283,1
0.132147391848103,0.0113304020180207,1
0.119481181486773,0.0105622177600479,1
0.10509057080168,0.00886964555569179,1
0.0750251410042328,0.00657059934480014,1
0.0546475865642035,0.0035946254134808,1
0.147243165648357,0.0116872711613754,1
0.147212613782629,0.00634233956179544,1
0.17056571954459,0.0080255282508808,1
0.190421595114683,0.00404300192147845,1
0.24617210376982,0.00455801224012221,1
0.250976803690214,0.00465886782223541,1
0.261046914055085,0.00477324399092976,1
0.265492736268554,0.00475808208417466,1
0.296766026979585,0.00563506717893631,1
0.301977458174548,0.00428871092658435,1
0.260706816799746,0.00351773926209833,1
0.248816391919014,0.00499093144054596,1
0.23481997874775,0.00439290167350222,1
0.214953899657882,0.00847905453906547,1
0.135476677572719,0.00658402634145165,1
0.13651001230413,0.00718733869962065,1
0.13720509609964,0.00741668177191888,1
0.147571592183192,0.00854885120863832,1
0.141413466003486,0.0078263235450891,1
0.148807963094892,0.0342522157104346,1
0.0644990867738706,0.0369893939565488,1
0.0528819792572505,0.0208574094018762,1
0.0448446370607189,0.0175392593600393,1
0.0411319336426304,0.0138387101421657,1
0.0423119630412612,0.0130747534008635,1
0.0352637642726437,0.0105819367373242,1
0.0261753174614388,0.00868609848632789,1
0.032789222658164,0.00976627360163666,1
0.0309623217097691,0.0104640069239974,1
0.027136871963626,0.00905241689031234,1
0.0235883212245308,0.00718616295760932,1
0.0214444839836556,0.00610217965278173,1
0.023395235289903,0.00288160148456434,1
0.0324476685407085,0.00533179913226692,1
0.0325625758204466,0.00348290621286222,1
0.0426806612424378,0.00603041402293823,1
0.0520154762832159,0.00813534454208379,1
0.0478450270988351,0.00755928442840781,1
0.0486892117285212,0.0082394891561188,1
0.0497728193252487,0.00888051355020749,1
0.0436000124441061,0.00786177816121308,1
0.0437029487768905,0.00895806782694439,1
0.0367656588383574,0.0220523579522646,1
0.00484392858588536,0.0023579321762921,1
0.0167689850731265,0.021411974393935,1
0.025809831222135,0.0151790478096598,1
0.0234202479505301,0.0135740183828695,1
0.0221552679982049,0.0129831708353052,1
0.0223455827733782,0.0126057997885591,1
0.0247515920076705,0.0137055548868235,1
0.0255510692461985,0.00766076651879749,1
0.0313481456107434,0.0105235719280967,1
0.0381382702018693,0.0125947836917497,1
0.04064340615354,0.00897224388624778,1
0.0385657668430953,0.0115962880676016,1
0.0351288015828762,0.0125646664325234,1
0.0348074798091575,0.0127115381755178,1
0.0341498911270758,0.0124730907883953,1
0.0344340993210404,0.012301949370323,1
0.0319132917153786,0.0115283557890367,1
0.0305588535779275,0.0190585688766769,1
0.0265495964159419,0.0163455104345354,1
0.0154236462271835,0.0129610440838749,1
0.00496782972615334,0.0122648173630169,1
0.00553333404182499,0.0182929290037553,1
0.00513637532916964,0.0215757453865216,1
0.00513788264618699,0.0182550882895567,1
0.00532746340694264,0.0175661342474944,1
0.00654876581839451,0.0222086369256263,1
0.00967009768993723,0.0306132621051771,1
0.0103123688914134,0.0450530706074229,1
0.00868919964194418,0.0441943149373375,1
0.00702015300654459,0.0417534743631427,1
0.00677425903549026,0.0538219886961991,1
0.00567370872297615,0.0626947190452655,1
0.00227302053651533,0.0431583135954723,1
0.00160252563977069,0.0707766983654764,1
0.00108126059757426,0.0829848359970317,1
0.00047845223989019,0.156065281537575,1
0.000590036776768834,0.225489547570026,1
0.000664078038403716,0.244457933059954,1
0.000672522922572889,0.24867506074811,1
0.000645393955593677,0.255091853772121,1
0.000462957420843884,0.241225790730483,1
0.000260039329374805,0.217618024759283,1
6.55452625734892e-05,0.133205530047978,1
4.37463840300304e-06,0.275852522391533,1
3.2838301208156e-06,0.274089841199867,1
1.0369748745332e-06,0.170364611187985,1
6.31037014203837e-07,0.188524048290227,1
5.21129036422048e-07,0.168019600422024,1
5.1316569004131e-07,0.163771321577346,1
8.24699014004611e-07,0.209967715838493,1
4.23078329505143e-06,0.339446636316257,1
7.64285760536686e-06,0.39232221850917,1
8.56698110792976e-06,0.407694460069925,1
8.96946376309956e-05,0.0983550190529712,1
0.000284801011031299,0.118061382844044,1
0.000302447099750453,0.113714874191169,1
0.000348118414198429,0.114624476595172,1
0.000318334142563084,0.104856792214357,1
0.000290436010728997,0.0933811093869111,1
0.000251653963277057,0.0768447302756323,1
0.000249272231975607,0.0789661762555705,1
0.000221967256583894,0.0682853617606274,1
0.00017805194903242,0.0591517948030543,1
0.000174475737680778,0.103782501323895,1
0.000132278664415143,0.127496823601553,1
0.000159255984443356,0.172966703210133,1
0.000128781823160157,0.184288399545152,1
0.000132655185641263,0.218402275807407,1
9.24962380194402e-05,0.198853699366337,1
7.70130623187041e-05,0.259682099913209,1
7.89078356243932e-05,0.244144523148233,1
5.6302916225625e-05,0.307618913630846,1
2.57761755545578e-05,0.253171549597768,1
1.6929751853309e-05,0.193715646404957,1
2.61957072023901e-05,0.236004325617282,1
7.90465487791928e-05,0.32151863868604,1
0.000101417941759373,0.211666069519287,1
9.4975747764752e-05,0.201308305587804,1
8.47270145310174e-05,0.176309080117991,1
8.1975373051491e-05,0.168025047874651,1
8.81448220392158e-05,0.189801562907844,1
9.44632188277361e-05,0.137518315085181,1
0.000115355270409472,0.128897562277754,1
0.000106675349333637,0.117745836932812,1
0.000106134441254701,0.123490587586201,1
8.58504372523344e-05,0.124313024564699,1
7.36577996676485e-05,0.148301778883866,0
7.56161979262795e-05,0.156009955622003,0
7.5002836043196e-05,0.163754954189157,0
7.01197127687233e-05,0.159335702095892,0
5.95924532802281e-05,0.137621571676501,0
5.31796132248783e-05,0.238818516656248,0
2.5472743675284e-05,0.222423421422553,0
3.22246460628446e-05,0.302341271063689,0
3.48959690334916e-05,0.34798526711897,0
2.9487035177829e-05,0.344832005765526,0
2.856585531152e-05,0.341063548580048,0
2.82007601772773e-05,0.334571988395301,0
2.8333651054128e-05,0.335741077851531,0
2.96860342354914e-05,0.378203087595874,0
1.94071469153172e-05,0.461457690020654,0
7.43732241890139e-06,0.35985688983543,0
6.8597393748428e-06,0.401885940063978,0
6.63248595997234e-06,0.401557049724797,0
5.2244693726665e-06,0.360694909440424,0
5.23104871014286e-06,0.407821702547684,0
4.77547582439583e-06,0.405696080866792,0
4.16224284113589e-06,0.379093976772949,0
3.22025890639172e-06,0.330179463056341,0
3.25283522022126e-06,0.343625768040169,0
2.91816189674675e-06,0.325137995118099,0
2.9444434209735e-06,0.30979840815152,0
3.25145145338228e-06,0.322177902785875,0
2.29494855718988e-06,0.275086986600384,0
2.15109877467699e-06,0.257616065870242,0
2.09695927532891e-06,0.257481321945889,0
1.85807812810578e-06,0.24131768847257,0
1.67265893918598e-06,0.231506895395771,0
1.58402185295648e-06,0.23203588252949,0
1.29924341210275e-06,0.214442499464111,0
1.21449353304264e-06,0.207848269622482,0
1.0380133350841e-06,0.216458180582554,0
3.58548838692945e-07,0.149223993785811,0
8.75642523922955e-07,0.226710981459833,0
9.75120387901164e-07,0.182438111342662,0
2.06793369776765e-06,0.276720602628787,0
2.36187080392994e-06,0.282490023422419,0
2.37629402851388e-06,0.275476436489023,0
2.62322941767412e-06,0.287714097133793,0
2.75890937202307e-06,0.300411909684188,0
3.23425815343371e-06,0.321178326428523,0
3.17603513187969e-06,0.292653084378963,0
3.09299943892477e-06,0.288139796440307,0
1.96273558640519e-06,0.233534479312613,0
1.70677466790445e-06,0.258145738147458,0
1.5333012852683e-06,0.239086345029476,0
1.52420265217806e-06,0.251534984145232,0
1.55560034959214e-06,0.246566757072068,0
1.55468243760868e-06,0.244020038711259,0
1.40563599516414e-06,0.225749716074001,0
8.00215914641018e-07,0.171709650931783,0
7.50347659213842e-07,0.186293953630923,0
6.78979881467402e-07,0.171414028823756,0
6.84297695129998e-07,0.171069902998605,0
7.20362413388231e-07,0.188722254094901,0
5.64199248287145e-07,0.172604707295647,0
4.40356654924221e-07,0.154604973491945,0
3.86906799890711e-07,0.153264696614588,0
3.31019588380033e-07,0.143799521778084,0
3.15066631523037e-07,0.142489165604515,0
3.94693075433923e-07,0.152756849181436,0
9.62452621572513e-07,0.232779783960924,0
1.16154656887032e-06,0.274903399837054,0
1.11768468212603e-06,0.259677697413228,0
1.24335305374192e-06,0.269873383733522,0
2.81032406223567e-06,0.341538435923852,0
4.56949269591417e-06,0.418017944425017,0
6.15047808053719e-06,0.486502689484579,0
6.78378651538891e-06,0.497864655032939,0
6.85129310799608e-06,0.484637030494192,0
6.42391212658484e-06,0.482884780992602,0
5.83226847190624e-06,0.454902863932183,0
5.20909785689186e-06,0.424232472411556,0
4.99854392856113e-06,0.437614307650214,0
5.65403765700035e-06,0.470274018868346,0
5.16068526172642e-06,0.513821613259507,0
4.16954547001692e-06,0.454279621776688,0
3.34781381467508e-06,0.415710694139306,0
2.44486691919254e-06,0.330940378061559,0
2.18883628585761e-06,0.326287389028568,0
2.17299201636364e-06,0.329654777705105,0
1.92540861813701e-06,0.306575074810231,0
1.86212291984828e-06,0.298682987280838,0
1.71187680129878e-06,0.280222945010201,0
1.40720179518128e-06,0.247374920219832,0
1.38782675981423e-06,0.255451690337199,0
1.50366243502505e-06,0.276851819995492,0
5.90093104781431e-07,0.167564249262743,0
5.42728047619268e-07,0.170190140411084,0
9.16160398247554e-07,0.202860544613611,0
9.35167010081159e-07,0.203190812492574,0
1.15806131129179e-06,0.217238112428319,0
1.36747583780127e-06,0.23406542849409,0
1.38904967419726e-06,0.232704406349542,0
1.57240452941586e-06,0.24641464475155,0
1.66995652109967e-06,0.250585916945752,0
1.35129049816365e-06,0.224590407090688,0
1.39470916316698e-06,0.236723056455423,0
1.46548424379014e-06,0.251797293846326,0
1.34565908877991e-06,0.255464296317531,0
1.37981935753133e-06,0.246870834661952,0
2.99808160288547e-06,0.329344674944441,0
4.8724943039458e-06,0.421340005688378,0
6.64473059598794e-06,0.476884140881775,0
6.35034845259422e-06,0.434178034522218,0
6.15871592907755e-06,0.436901880408618,0
6.02950529348226e-06,0.43018951628643,0
5.69461810522994e-06,0.408683098702019,0
5.51695602297308e-06,0.403185890873291,0
4.7641965451814e-06,0.379531388011988,0
4.52872948831023e-06,0.391112870084478,0
3.63114651994832e-06,0.408783251384739,0
2.48767219048119e-06,0.330656964959476,0
6.43306219857183e-07,0.162757997008649,0
7.69400021407381e-07,0.184997710796625,0
8.04222217985478e-07,0.182092734957606,0
9.70527318035633e-07,0.20614687441705,0
9.89645643049714e-07,0.202344351822725,0
1.28768781523823e-06,0.222939587208893,0
1.35866465736935e-06,0.226517927866764,0
1.44240633405312e-06,0.223889135895322,0
1.59189079383259e-06,0.24104161466861,0
1.50404235666483e-06,0.241326865160154,0
1.57601130382343e-06,0.272403681982823,0
1.29981480747114e-06,0.262372607603781,0
1.34878512131007e-06,0.277398478629367,0
1.46162475310864e-06,0.286597194920529,0
1.47024712253131e-06,0.288523272174805,0
9.17802206799188e-07,0.224694230993675,0
5.43703087036294e-07,0.175919493824589,0
4.5323647054019e-07,0.176578084447901,0
5.17518025870041e-07,0.183708715212202,0
5.62873819208713e-07,0.187406234171174,0
5.28241522934155e-07,0.184978182789998,0
5.38426061393005e-07,0.181100630632609,0
5.26098154881013e-07,0.173158937419169,0
3.69814562245178e-07,0.142077734749032,0
4.16909232359472e-07,0.153988666047671,0
3.7862235376154e-07,0.151733071707406,0
3.78353661171446e-07,0.141299477569725,0
4.27386427882667e-07,0.140547102010755,0
5.20506444222299e-07,0.145854769466253,0
9.59494945525609e-07,0.187151882852524,0
8.67447157859689e-07,0.174081663181972,0
8.82539451199495e-07,0.171985768466836,0
1.11012945800376e-06,0.197656522008761,0
1.32260235976509e-06,0.219678605996899,0
1.33919582166117e-06,0.229336367630382,0
1.51640282097265e-06,0.251731051762819,0
1.52263975694568e-06,0.254459515322159,0
1.47415986760002e-06,0.250232496398059,0
1.46704314494348e-06,0.270535907124191,0
6.63360853824852e-07,0.194801636066149,0
5.15503073509732e-07,0.180162615614945,0
3.59307350612819e-07,0.162947662628195,0
6.51500617658861e-07,0.196644079621697,0
2.04450176738828e-06,0.340778716416296,0
2.8741868444296e-06,0.341154565833325,0
2.78947363827706e-06,0.316429940900673,0
2.80108006887484e-06,0.329071452854925,0
3.07834661531227e-06,0.357252956762203,0
2.91268189926851e-06,0.342382375757845,0
2.79496610212322e-06,0.329505967332298,0
2.91667597831044e-06,0.334137300540271,0
3.10795605460985e-06,0.337431006969257,0
2.99983718217345e-06,0.340938821226657,0
1.76463737511581e-06,0.269730347539647,0
5.78094891339447e-07,0.179094692054532,0
6.03768347290237e-07,0.189801841029619,0
1.54725102993671e-06,0.290044767274717,0
1.65672074831817e-06,0.296188260226509,0
1.64019942191024e-06,0.286034833862119,0
1.61867835577069e-06,0.283064265315166,0
1.35834428381711e-06,0.250626936400474,0
1.29839824077094e-06,0.245048120207373,0
1.77588857474425e-06,0.29590306577715,0
1.85943986699369e-06,0.28175972099716,0
2.88048054473811e-06,0.324969837212521,0
3.48768404206982e-06,0.361474178957458,0
3.28608241829716e-06,0.342145344100894,0
3.54078060265716e-06,0.346462531710195,0
3.64087173931735e-06,0.333219597048382,0
3.70918549898909e-06,0.324675706392367,0
3.82220111233091e-06,0.327535458519803,0
3.44243717815956e-06,0.310195517473268,0
2.76713281767233e-06,0.275382005598937,0
2.54775439531289e-06,0.274911475342023,0
2.04865754611506e-06,0.261250231025615,0
1.27045275900878e-06,0.202844520626349,0
9.93057433780417e-07,0.18675035686037,0
9.68783599952082e-07,0.190053570555543,0
7.78744713973139e-07,0.183751649760166,0
5.69274875520562e-07,0.165050077975355,0
7.22864522358959e-07,0.185655593851946,0
6.76808191762871e-07,0.178848171302976,0
7.1919372165402e-07,0.18777670928103,0
6.52134828997643e-07,0.184098887212323,0
6.26901932068448e-07,0.178321749692941,0
6.08209642152175e-07,0.178924063239304,0
5.91487764563258e-07,0.183159496414337,0
4.44655736365725e-07,0.163040398685749,0
5.14417168141118e-07,0.177394087323965,0
5.52011739705113e-07,0.17787438138596,0
3.8543746293407e-07,0.157097156592249,0
4.03858155475492e-07,0.170347919254792,0
4.05068482457899e-07,0.162038558675816,0
6.10449352233116e-07,0.187263292411273,0
6.15302158269072e-07,0.186945845221646,0
8.00773270216415e-07,0.187630427191283,0
1.34512642387496e-06,0.221768363404664,0
1.33749942736263e-06,0.217820894523034,0
1.33573731230895e-06,0.223054046526883,0
1.29083950670042e-06,0.230076055033079,0
1.18838532763977e-06,0.22101862603716,0
1.09586260766596e-06,0.202560708753318,0
1.32396034663934e-06,0.224575461733963,0
1.20619601538206e-06,0.217007221279375,0
1.3578706828689e-06,0.224872089921735,0
2.22208772007794e-06,0.291250461116403,0
1.86932194473963e-06,0.278312952032378,0
2.23532966552705e-06,0.310691253472476,0
2.33448836628e-06,0.292079973701184,0
2.33485727394423e-06,0.279944901487232,0
2.23633084800689e-06,0.271990515627291,0
2.41621363821107e-06,0.279822582010396,0
2.38136009416413e-06,0.282106161444961,0
2.21241962814249e-06,0.274224563920209,0
2.2983316631711e-06,0.295910341741532,0
1.67616247270195e-06,0.253713100617803,0
1.67249372955288e-06,0.25988127368275,0
1.33004768619736e-06,0.232102624232553,0
8.89290170976562e-07,0.201169951414511,0
9.02222393750868e-07,0.21390794554641,0
9.04131684565613e-07,0.214873030310698,0
8.35469350722947e-07,0.213961844907396,0
5.57564356802295e-07,0.172824672989888,0
5.81340383142768e-07,0.176308563928318,0
4.87969950150476e-07,0.170662314752528,0
5.45393671765318e-07,0.183132919842872,0
8.48388986096633e-07,0.225886290303164,0
6.93724689930559e-07,0.202340951690056,0
6.4371155836359e-07,0.187753098255632,0
8.48905553652725e-07,0.205480652838629,0
7.00116063626549e-07,0.186789166450446,0
6.53595088501915e-07,0.175060712587575,0
7.34703940900852e-07,0.1898835071274,0
7.9945970234241e-07,0.200229585265386,0
8.32812440931168e-07,0.201759635082683,0
9.88346357034101e-07,0.231544379369354,0
7.84636222625395e-07,0.202510568578091,0
8.7021457050496e-07,0.200641308848084,0
1.51534935236716e-06,0.273195425502216,0
1.06783191888423e-06,0.229867751957563,0
8.89509603258472e-07,0.212558058153257,0
7.86693173331995e-07,0.202770134080216,0
9.5234881192339e-07,0.21024182044568,0
9.62485058335641e-07,0.203593670664499,0
9.61895871160605e-07,0.200567442118077,0
1.12935610728277e-06,0.21118611788341,0
1.34163354123643e-06,0.236028935793744,0
1.47559967257829e-06,0.273059722359754,0
9.78894066399608e-07,0.219458608005664,0
8.88598469106117e-07,0.224839771089007,0
9.17114741073182e-07,0.225028471412345,0
9.45440265507818e-07,0.234809168389127,0
7.20815559810445e-07,0.229168391976486,0
5.54567950291954e-07,0.212390952509752,0
3.11771516313437e-07,0.163974281737935,0
3.88829646367659e-07,0.187742262449839,0
3.28321648503552e-07,0.164483818571945,0
3.73018902931097e-07,0.16704883413438,0
3.64830435731631e-07,0.16595173271025,0
4.07527745853448e-07,0.171575336977417,0
4.44436909247307e-07,0.174961327921175,0
4.65541138774119e-07,0.174232956137056,0
4.98144563928069e-07,0.167928730456684,0
8.29661354632474e-07,0.208091191001677,0
8.85126646157085e-07,0.221914701147388,0
8.84134783195004e-07,0.232420339479454,0
8.71164314088053e-07,0.227238880550373,0
9.82600692783225e-07,0.250593274760119,0
1.05344258345581e-06,0.273730524519087,0
1.0139094311641e-06,0.243151330105779,0
1.08545379561727e-06,0.235169967700022,0
1.07618499055331e-06,0.238349906561266,0
1.03477450007919e-06,0.249545648952295,0
7.70146187992034e-07,0.223957096565674,0
8.23975238469131e-07,0.215288740700882,0
9.67284246886277e-07,0.219239483530658,0
9.90631454376882e-07,0.225026838207582,0
9.6871969468741e-07,0.217358168535234,0
9.27856635107428e-07,0.204762041772408,0
9.55666076116768e-07,0.222366785365252,0
5.53911589969395e-07,0.184467101139503,0
5.28086116949614e-07,0.178346677296596,0
5.31750502921546e-07,0.178036812334988,0
6.5038711683505e-07,0.184296000407939,0
6.64741231748285e-07,0.191903237586695,0
9.01361125070189e-07,0.215863521939631,0
8.92945358463427e-07,0.212868848355423,0
8.73164742524574e-07,0.210490153165781,0
8.13481098368183e-07,0.210022087616814,0
6.36729787165582e-07,0.191187779524486,0
5.93017617869018e-07,0.181261047761624,0
6.0063263214422e-07,0.184517091148519,0
4.65161217134342e-07,0.168409648956094,0
5.06127759671319e-07,0.165852458508777,0
1.34623217860608e-06,0.255845012588073,0
1.16767990085366e-06,0.236649682865098,0
1.16818012899549e-06,0.241439240530499,0
1.22123602259623e-06,0.244997729810194,0
1.19972996451126e-06,0.241766506794033,0
1.16415639694248e-06,0.228345918868477,0
1.20927702374847e-06,0.233383991457136,0
1.19712292019116e-06,0.224694560490074,0
1.21638019074282e-06,0.218808452876645,0
1.13203431882944e-06,0.226740947920901,0
4.59692838795134e-07,0.156817944368116,0
4.49405059444686e-07,0.16717776409267,0
5.21964767203399e-07,0.180874096128966,0
7.6486190038685e-07,0.213428274218675,0
7.78200187863755e-07,0.219870642267826,0
7.94130390573481e-07,0.220115719812551,0
8.46033084625381e-07,0.219652664160196,0
7.46549047979561e-07,0.204374232196195,0
5.18642540669394e-07,0.172234126165499,0
5.08158809380494e-07,0.16899115183635,0
6.33150245115118e-07,0.195345698541382,0
6.58055385497477e-07,0.19425748483528,0
6.57275329757315e-07,0.194852802215787,0
6.19148093288364e-07,0.194893452659704,0
6.85474011924197e-07,0.206487377708929,0
6.7114676626997e-07,0.210027675949265,0
5.36407235986352e-07,0.189501041986547,0
7.08554463347881e-07,0.216607976914059,0
7.25308898732626e-07,0.215321838737898,0
6.52835003156964e-07,0.20695651226684,0
4.62151254961797e-07,0.170673270802742,0
4.38930405608154e-07,0.161476147404922,0
4.92305825532246e-07,0.162898197634118,0
4.95339994244439e-07,0.159897616770079,0
5.16519143011462e-07,0.161473208695418,0
5.95546838164151e-07,0.184475762825229,0
5.28368849332705e-07,0.18117508974303,0
5.6230436036349e-07,0.195507948300975,0
6.08982435930441e-07,0.204124345499287,0
6.99523608568661e-07,0.209874820596291,0
6.10145197062437e-07,0.195208569866862,0
5.11184021673017e-07,0.183299653148532,0
6.79868866635979e-07,0.224621688022524,0
8.52538471123113e-07,0.261227315595717,0
8.60575526417081e-07,0.255819849549929,0
8.26015244597976e-07,0.238738436982171,0
8.22933873133471e-07,0.218217034916234,0
6.65355472691858e-07,0.183400643731817,0
4.16203974826824e-07,0.153755611537313,0
4.90365550346751e-07,0.164773177490463,0
1.47330005131172e-06,0.265019326353122,0
1.57761861805606e-06,0.250296944393762,0
1.50670313950295e-06,0.233339972627621,0
1.35060690548399e-06,0.218493566958739,0
1.31076826666192e-06,0.214921154654656,0
1.171977045772e-06,0.201040386142513,0
1.19632591987324e-06,0.215054355775244,0
1.17549861316e-06,0.224762012115385,0
1.26401321429889e-06,0.225624913055676,0
1.45031896773329e-06,0.252482777266461,0
5.22898171372231e-07,0.165841073312327,0
3.9646051592633e-07,0.164734329986984,0
4.14497413781631e-07,0.168655826051044,0
4.02502105124405e-07,0.157438591334872,0
3.52634091762626e-07,0.148490059981159,0
4.71167343751832e-07,0.153219624212688,0
1.16357362450046e-06,0.21386356555558,0
1.23311175094759e-06,0.211440136296129,0
1.27231315261343e-06,0.222388389099699,0
1.14472822822091e-06,0.209211468309783,0
1.14479310174716e-06,0.205510190229413,0
1.17276726825881e-06,0.201922746851055,0
1.19713841237653e-06,0.210001337847686,0
1.15549529705639e-06,0.21101430159212,0
1.21523413212318e-06,0.220075096785274,0
1.07388742684261e-06,0.230105125069842,0
4.30836343913316e-07,0.165202371778679,0
4.00139909952844e-07,0.166549801454813,0
4.19701335675183e-07,0.168800130223969,0
4.47661220328436e-07,0.174716237168887,0
4.86025317787845e-07,0.17485229237165,0
5.56144401186537e-07,0.191134060274484,0
4.04303071674225e-07,0.163207115952032,0
4.11359156948952e-07,0.167298802931644,0
4.47690268176014e-07,0.165483253232866,0
4.13044537271952e-07,0.159596736765997,0
3.39707799590534e-07,0.14551320199805,0
3.59331557152467e-07,0.150560830311298,0
3.12814334041479e-07,0.14128107583511,0
3.63520861936668e-07,0.15290310016052,0
2.45455885456955e-07,0.136115887858941,0
2.01019456494119e-07,0.137089423825668,0
1.81634375413116e-07,0.137632210570957,0
1.61311532986145e-07,0.136614787608649,0
1.31425655005791e-07,0.139216329495146,0
1.57813082843502e-07,0.157363095130963,0
2.86088014648694e-07,0.204464866254187,0
2.911368936558e-07,0.192934820657399,0
3.06062646002827e-07,0.210568200570334,0
2.42229153721862e-07,0.180386799614565,0
2.43555672094579e-07,0.17605088999768,0
2.19256058301517e-07,0.160971330189698,0
2.07547476106423e-07,0.153068580158573,0
3.40555028478218e-07,0.171235128805269,0
3.74198366575451e-07,0.166012507968409,0
3.7454101014417e-07,0.163745291368791,0
4.92381470968646e-07,0.175202821199883,0
4.74693268316976e-07,0.168817511716143,0
3.68768234568887e-07,0.144394955842644,0
3.02500048530115e-07,0.135894493471631,0
3.95161229910718e-07,0.158776409315993,0
4.61062565841123e-07,0.163217988274132,0
5.39761415152693e-07,0.170625568994365,0
6.69640635373064e-07,0.192985460087552,0
6.74847341018675e-07,0.195108492286583,0
6.86103381955049e-07,0.199918233141056,0
5.74097423381958e-07,0.190817057196579,0
6.21366017483623e-07,0.207195594979723,0
6.89353836098998e-07,0.2124689615758,0
1.07740705770744e-06,0.250601332122918,0
9.22557823578456e-07,0.217962351250181,0
8.35465477676601e-07,0.213562237238515,0
9.15383973488341e-07,0.227108378445595,0
8.66792613027604e-07,0.220570506937958,0
1.00264455484075e-06,0.246131383630538,0
9.86312886670962e-07,0.238504750067021,0
9.65798328449977e-07,0.235141630218137,0
9.45658487462747e-07,0.23546194534077,0
9.01407964724408e-07,0.236813660053037,0
3.65625862624468e-07,0.159719205503989,0
3.12429934191867e-07,0.154507737167468,0
3.33460212740053e-07,0.153157043448357,0
4.52368545061106e-07,0.176876085600773,0
5.50809279848092e-07,0.19899259188234,0
5.32679428880543e-07,0.19489908148098,0
6.72478125950616e-07,0.208283865574666,0
7.02236556499724e-07,0.205250381984629,0
7.05153928658114e-07,0.200829737478985,0
6.82425924451707e-07,0.188945928258481,0
7.8028909120269e-07,0.189311523853255,0
1.02743205144042e-06,0.206751646589078,0
1.00442676132234e-06,0.208473047504538,0
8.6338917355308e-07,0.192761872984092,0
7.06909386913396e-07,0.175236843489569,0
5.27856154822957e-07,0.151394477990925,0
5.76571815864787e-07,0.163230450383522,0
5.93118317073954e-07,0.165971797728024,0
6.086619413455e-07,0.171966556495731,0
5.97949942387718e-07,0.180051798370747,0
5.40769859594432e-07,0.189089305119438,0
4.03898822462101e-07,0.172819401482813,0
4.18152117137703e-07,0.165948760354081,0
4.36183447488887e-07,0.165580044809086,0
4.70484114170263e-07,0.168983296074018,0
4.79941246112688e-07,0.165696934933878,0
3.53539537378165e-07,0.142165239658083,0
3.59777925743578e-07,0.143341398716163,0
3.79358232566843e-07,0.149508263804907,0
3.70425898403991e-07,0.142588238831921,0
6.38709882108798e-07,0.179940912400047,0
1.0391557627228e-06,0.228695838004015,0
1.05054542375802e-06,0.223252960550468,0
1.11013429931169e-06,0.238624506874663,0
1.09657173824495e-06,0.235597861657629,0
1.22795515283905e-06,0.253146242070576,0
1.23327090894578e-06,0.262474839207538,0
1.18301329132836e-06,0.258990232601765,0
1.15378934117469e-06,0.253948933116223,0
1.15741245499652e-06,0.251495698273818,0
8.69723177750103e-07,0.230739022608049,0
2.7973960756058e-07,0.132775321761694,0
2.39154923186552e-07,0.136009913894222,0
2.11509965614121e-07,0.127661582218858,0
3.17150209423249e-07,0.153282395451082,0
4.01610699301863e-07,0.176737889527559,0
4.83712503957165e-07,0.193534243457304,0
4.80281953158235e-07,0.198039298053737,0
5.19005638764116e-07,0.203563067869851,0
4.09989187837567e-07,0.188344498258025,0
4.26948168482337e-07,0.193584911284535,0
3.15024875242145e-07,0.170463020405358,0
5.15765472399518e-07,0.209483047222905,0
7.29619962411256e-07,0.255863794703284,0
7.93776975094618e-07,0.277006946210019,0
7.19205340793052e-07,0.236233968921541,0
7.87504576540998e-07,0.243191196425548,0
7.89602799397698e-07,0.237762257583147,0
7.37714750302285e-07,0.233373725242024,0
6.95159169470106e-07,0.230297923308117,0
6.39634208825263e-07,0.216222105056317,0
6.93624837954511e-07,0.210666799202055,0
6.38453292788529e-07,0.199755119381449,0
5.73881864146391e-07,0.180518568294484,0
8.01886286909434e-07,0.207644713657603,0
8.00853999026142e-07,0.207513863006882,0
6.83368042974812e-07,0.196322936548849,0
6.79706077656845e-07,0.1958826294038,0
6.85777682964085e-07,0.192352608992103,0
7.08670654738192e-07,0.191374291543968,0
7.25329595324028e-07,0.204099802049229,0
7.20508257789611e-07,0.224342932086493,0
6.64845319868773e-07,0.223054006507672,0
5.78846746460916e-07,0.214175861409138,0
4.96263110633919e-07,0.189361644613757,0
4.9443600102128e-07,0.187286468246025,0
5.02191897357234e-07,0.17322510020321,0
9.44856887902299e-07,0.224359722726253,0
9.50550266027536e-07,0.215114171530682,0
9.25547694323093e-07,0.214451023378687,0
9.06990597930754e-07,0.211605782065844,0
9.31991112079326e-07,0.211718067908857,0
8.84323957302355e-07,0.200373394437416,0
8.65464763295206e-07,0.199229640194545,0
7.26317222141667e-07,0.187960421608114,0
7.14659957810627e-07,0.190824565673209,0
6.91351480783457e-07,0.194600757788058,0
2.78347731530813e-07,0.135459331002645,0
2.52612669936619e-07,0.141926197824738,0
2.87946471730178e-07,0.140930804098008,0
3.13639292912686e-07,0.140458809230341,0
2.39710705336872e-07,0.12295599488942,0
2.79360896247785e-07,0.125348424876128,0
6.85261115407992e-07,0.179249508241331,0
6.91396868045298e-07,0.172938197962509,0
6.61872635767286e-07,0.171317415375428,0
7.14277857582282e-07,0.187287735799453,0
7.53442223242458e-07,0.193845620630454,0
7.45537819785761e-07,0.192319344357246,0
7.21141016736014e-07,0.196263815175692,0
6.51819175720631e-07,0.193317389893185,0
6.40974645958277e-07,0.194890064292326,0
5.54703506913984e-07,0.207327003951047,0
2.51940817428685e-07,0.155569308796803,0
3.37164176404309e-07,0.168513665812571,0
3.93131632593922e-07,0.178495661966993,0
3.45360147631067e-07,0.160023627477077,0
3.94006577969503e-07,0.162524955068433,0
4.33341599734197e-07,0.168354331811082,0
4.73582551245222e-07,0.174627675885969,0
6.30286006311254e-07,0.199903979638438,0
6.62885558418861e-07,0.196377283291971,0
9.35811267133893e-07,0.215435444895416,0
1.03963989351576e-06,0.234243490898642,0
1.07345945522163e-06,0.260466391920596,0
1.03060891770384e-06,0.255819311385639,0
1.09379101200287e-06,0.266792202278032,0
1.04998588959406e-06,0.262466941301955,0
1.17330550066789e-06,0.273942288752122,0
1.15176761098328e-06,0.27283129832091,0
9.66258857866782e-07,0.254608953803279,0
9.16755516024804e-07,0.245019501825406,0
8.11977388125242e-07,0.241163138783014,0
5.65245091832642e-07,0.206109599583691,0
4.09929034586541e-07,0.174801698900833,0
5.04266760903172e-07,0.192939750292951,0
7.78212170100881e-07,0.228625270072465,0
7.67437355172713e-07,0.226757898629824,0
5.5477382691166e-07,0.188441527483575,0
6.64430782877299e-07,0.210928860756089,0
7.48712265395216e-07,0.218008017374827,0
9.22154542627919e-07,0.259850735599922,0
8.43082912605767e-07,0.245441975276673,0
8.44394907054696e-07,0.235896477410299,0
8.94539117033858e-07,0.242745859374409,0
8.35049246227352e-07,0.23685801045479,0
5.39279099850205e-07,0.200765907686063,0
6.96224741345416e-07,0.231554429220856,0
7.99040081977609e-07,0.255997270353293,0
7.12534018466031e-07,0.234156346078374,0
6.51703589493812e-07,0.227198014907871,0
4.27265879315219e-07,0.181777366829171,0
4.33753110908215e-07,0.197472935433155,0
5.88360279640721e-07,0.235810899801372,0
7.23088674916099e-07,0.26699643302771,0
7.36126317170574e-07,0.256292167015516,0
6.77202153195644e-07,0.236740943056536,0
4.58371766893839e-07,0.191813481869004,0
3.19895231019345e-07,0.162608694199395,0
3.49041962311545e-07,0.173161074063881,0
4.39559896671703e-07,0.191026696629214,0
4.22768788379392e-07,0.180826557389083,0
4.62874183268388e-07,0.182631440670202,0
5.94844727481658e-07,0.207523233245249,0
5.80417629851382e-07,0.204761943425547,0
6.18026846371863e-07,0.216439037073715,0
6.80160192340644e-07,0.229740003875936,0
7.16405249319255e-07,0.2370140596965,0
7.12195126910958e-07,0.241562302350325,0
6.6551620411512e-07,0.222014551688611,0
5.79244096809242e-07,0.202100444831842,0
4.75325422099887e-07,0.185662972659634,0
5.14696874706752e-07,0.187447728643461,0
5.29993108143093e-07,0.184114636080717,0
5.50062629132647e-07,0.194019922674534,0
5.1483049480561e-07,0.19458104813768,0
4.26127687820964e-07,0.181667637329772,0
3.51373052079657e-07,0.16620572087503,0
3.282358363205e-07,0.164464370973487,0
3.31589531356048e-07,0.178486032299811,0
2.32381933393009e-07,0.158445743388992,0
2.28228091189392e-07,0.171487413098143,0
8.7829192968744e-08,0.125607164187725,0
7.6943875187082e-08,0.123965895475407,0
8.8240704142762e-08,0.124950694531641,0
8.99234217464007e-08,0.119798492487805,0
1.45297333583841e-07,0.138201893683003,0
1.54540963846568e-07,0.14155743327358,0
1.8524841178258e-07,0.144277556610444,0
1.77127117730638e-07,0.140736072755722,0
1.63983450832504e-07,0.13205724382133,0
1.66991839579972e-07,0.122907747615312,0
8.50769094107535e-08,0.0979932262684503,0
6.64159669633239e-08,0.0948952999919139,0
6.84367288931489e-08,0.0945948341756793,0
7.31666867403902e-08,0.0977368013634512,0
5.62976333904122e-08,0.090485754219065,0
8.05071988559825e-08,0.0961323704147339,0
8.52763712974539e-08,0.096875143449257,0
1.54675552207012e-07,0.122014313395338,0
3.27769255268782e-07,0.171024605770881,0
4.48252465059341e-07,0.195902239514544,0
4.6539311578417e-07,0.191055862074751,0
4.96761765350671e-07,0.19126270031593,0
4.98075333224675e-07,0.192886634939277,0
4.01577778407941e-07,0.176731182409647,0
4.3078793083402e-07,0.181073311935857,0
5.07555945510557e-07,0.207476076914987,0
4.9402255332409e-07,0.207113716942061,0
4.77936944629824e-07,0.202107387984625,0
4.56690259617183e-07,0.197436208892924,0
2.51704440569022e-07,0.1527113897623,0
2.70619430650058e-07,0.148693102201866,0
3.71513256164984e-07,0.163867694803718,0
3.41886388158864e-07,0.153939014404374,0
2.76656541638298e-07,0.138469364352404,0
2.65582654912776e-07,0.142221657368718,0
2.54863878123893e-07,0.141046692355443,0
2.75907107170791e-07,0.148934079584013,0
2.62409540663004e-07,0.142865195086755,0
2.41371273956733e-07,0.143422463138637,0
2.3498837254962e-07,0.144144306897858,0
3.5169003671635e-07,0.183409556891195,0
2.83837169559514e-07,0.171708559909235,0
3.2704160668696e-07,0.182669007982237,0
3.4053082193857e-07,0.165453677486699,0
4.99082325274037e-07,0.195638666715224,0
5.71782673028107e-07,0.208674330688989,0
5.63291987181134e-07,0.207060908313583,0
5.5776769173534e-07,0.212721787876787,0
5.64369783358967e-07,0.207842395292038,0
8.51136428346695e-07,0.237078429209646,0
7.91965357667353e-07,0.219822805792557,0
8.34643060492056e-07,0.220137432814613,0
8.81131719886259e-07,0.21625986016907,0
9.34944673014491e-07,0.237813477860147,0
8.51127108828931e-07,0.228977940508152,0
8.39548636784445e-07,0.228350167672215,0
8.35790450471376e-07,0.216779438975944,0
8.62290196653055e-07,0.210721223710857,0
9.42652035238451e-07,0.220946764241745,0
6.17257683574545e-07,0.179690556976896,0
6.28198434332003e-07,0.183215692961188,0
5.76150501042213e-07,0.180876451786823,0
4.98370047844892e-07,0.173064031722402,0
5.60108343086613e-07,0.181449045305463,0
5.10806399654507e-07,0.174793159400329,0
4.55775252418485e-07,0.165521939836932,0
4.29514061685037e-07,0.169175492280027,0
3.94945186544358e-07,0.164092567674556,0
4.42980280723982e-07,0.177904386441675,0
4.25305028571023e-07,0.181388462018363,0
3.95975416871782e-07,0.186957872747775,0
3.27670008456224e-07,0.182053802181888,0
3.8118618940837e-07,0.19776061057359,0
2.73700075918375e-07,0.167955724146175,0
2.29797522187478e-07,0.148424889548357,0
2.0977447775405e-07,0.146137045297105,0
1.80964338395657e-07,0.139189852439808,0
1.30685419023351e-07,0.125600970416357,0
1.03079312947056e-07,0.118425450557896,0
1.38682291461503e-07,0.132027951661483,0
1.57479032596358e-07,0.133237094971535,0
1.6606327671907e-07,0.135208028459512,0
7.85096752042202e-08,0.105436380655163,0
9.6789001554097e-08,0.117454126669009,0
9.10050909705768e-08,0.118449301815042,0
1.04063913947243e-07,0.114295607442758,0
2.94689566447255e-07,0.169795705338564,0
3.43353425494238e-07,0.17737752445699,0
3.30841065150128e-07,0.168478359699931,0
3.89043632178148e-07,0.181726945889077,0
4.36380972852415e-07,0.200005026800041,0
4.43356450350114e-07,0.203864098008668,0
4.8291078336402e-07,0.221954164774005,0
4.6656810121869e-07,0.219443329196251,0
4.66891863686485e-07,0.219514305175558,0
4.53912922290657e-07,0.229384266227566,0
1.94347529003608e-07,0.161531306513082,0
2.78181553636127e-08,0.0914825657005723,0
1.10091342319624e-08,0.0885392352820242,0
2.81667295345458e-08,0.102558572603722,0
2.77852344696916e-08,0.0981739988613912,0
1.38267754470028e-08,0.0888619611424277,0
2.10209590304236e-09,0.078139380003919,0
3.68415061155422e-08,0.105877009088732,0
9.24379970850468e-08,0.129523219786082,0
1.29582448044285e-07,0.138482876834822,0
1.3297487354327e-07,0.137717201897044,0
1.06211518144824e-07,0.124937047996957,0
1.21259392484376e-07,0.123776960874955,0
1.23059269739911e-07,0.122862558880972,0
1.93235117474078e-07,0.146681969277359,0
2.18664087374423e-07,0.146927483152526,0
2.46277334379914e-07,0.151945498511385,0
2.45982982857793e-07,0.144702302634509,0
2.15071231727151e-07,0.132342552986467,0
1.88758723129651e-07,0.12784923325155,0
2.47639315333215e-07,0.145952995529923,0
2.57623423643778e-07,0.151489376270843,0
2.4603684240851e-07,0.151173417570542,0
2.56531224574856e-07,0.150401493566979,0
2.29294026162797e-07,0.14331714930096,0
2.28756640982609e-07,0.148136739925915,0
2.33758801368194e-07,0.149516736295941,0
2.15642506062847e-07,0.15554860836764,0
2.06229187957186e-07,0.1571671484666,0
2.22754387411463e-07,0.155680677803375,0
3.0121952258273e-07,0.163348884645837,0
3.40867776970471e-07,0.163764932104188,0
3.49900689305562e-07,0.165728022567002,0
3.51826198501871e-07,0.171456610859701,0
3.06174964346794e-07,0.157616342446592,0
2.54940007691087e-07,0.145402869920175,0
2.47231677205542e-07,0.145021163115167,0
3.2124111462378e-07,0.159421093374356,0
3.17009448395196e-07,0.160100568674796,0
2.8009387026833e-07,0.15982613830258,0
1.52429548425761e-07,0.13929726927512,0
7.68960672712769e-08,0.115719591670668,0
7.08850993458571e-08,0.114332670741218,0
3.06373700037306e-08,0.0931155752677048,0
4.81701666708596e-08,0.104788270293791,0
5.65785502830286e-08,0.105750139497187,0
5.74746763808019e-08,0.104008540948835,0
3.53663595893862e-08,0.0935338933634546,0
3.41554274434891e-08,0.0967993276052625,0
4.40007112491703e-08,0.0991995349697051,0
6.20739189139435e-08,0.100704535596031,0
7.67841120254044e-08,0.104427608629298,0
4.31318175085013e-08,0.0901764795328114,0
4.47415523951008e-08,0.0950216203854384,0
4.49337523199068e-08,0.0916904355754776,0
4.94957167819907e-08,0.0946254328503334,0
4.53467158863035e-08,0.095289464959434,0
3.9394690884927e-08,0.0922105105106176,0
8.99960413653451e-08,0.110245920194068,0
1.52114863410336e-07,0.126694270141742,0
1.76381556309475e-07,0.137688652427151,0
2.06329766129424e-07,0.153745198292917,0
2.22185049598939e-07,0.157526164193399,0
2.55083673503898e-07,0.164937149327126,0
2.53166515563768e-07,0.166696131870685,0
2.79521748703747e-07,0.171879021334279,0
3.02480683298397e-07,0.165380702726712,0
3.15958279410976e-07,0.172565569699173,0
2.30844212961863e-07,0.150323522375814,0
1.09408717901547e-07,0.124556087141648,0
1.12696934247347e-07,0.131553523497311,0
1.35375678145571e-07,0.127611462277882,0
1.77766170377348e-07,0.138126912507821,0
2.04219076904807e-07,0.141184820924774,0
2.52980730371968e-07,0.156481392434551,0
2.41397901150346e-07,0.155386383158231,0
2.55785663153693e-07,0.16412954910913,0
2.04126971021446e-07,0.14623615337005,0
2.12139335644972e-07,0.154578842844702,0
1.8819676831172e-07,0.140559943076325,0
1.76308936690531e-07,0.134349477708807,0
2.1907499338495e-07,0.157393685961155,0
1.69944432253551e-07,0.14698967266083,0
1.52908837910794e-07,0.147513075420255,0
1.3274442728582e-07,0.139703618518725,0
1.30928936812211e-07,0.141305098088464,0
7.49329169058147e-08,0.120729077397303,0
6.77231201043221e-08,0.121330585637248,0
6.89456713892503e-08,0.119784923706713,0
2.0073805547071e-07,0.179610736465441,0
2.56366620105248e-07,0.181098676005728,0
2.06426592288017e-07,0.162095599628155,0
2.60850639509665e-07,0.171238963959964,0
2.36343938769914e-07,0.159995115433233,0
1.87096339019317e-07,0.144865910725221,0
1.61680924781176e-07,0.13645225641284,0
8.6634358171713e-08,0.113264693637508,0
8.49339697941314e-08,0.109354379006427,0
1.24576535645055e-07,0.12512731896202,0
1.32999080082918e-07,0.128566684406914,0
1.75943417941845e-07,0.136820129582413,0
2.99530874376878e-07,0.165574956841122,0
2.93568198498056e-07,0.161628967047039,0
3.60315310923766e-07,0.177115206140731,0
3.37797419481505e-07,0.175779999904288,0
3.34752841957263e-07,0.175061616573876,0
3.784944221995e-07,0.177286160253091,0
3.79780394618306e-07,0.175662602757067,0
3.54010959737811e-07,0.168323688103352,0
3.05163736152994e-07,0.162463422385068,0
2.45793203586952e-07,0.172168258076595,0
8.32559724657243e-08,0.123712067117739,0
7.25644280339448e-08,0.128813232355852,0
2.06530196277711e-08,0.0993208663086816,0
2.03993350922588e-08,0.0971416141553205,0
4.30616185435216e-08,0.109676698455612,0
2.07752626529936e-09,0.0788649580853302,0
0,0.0801410647943281,0
2.24443035617318e-09,0.081889300997059,0
2.77891075160358e-09,0.0792049404334258,0
1.51127478658089e-08,0.080894573416448,0
7.50402729091543e-08,0.108167531869415,0
6.84803006645152e-08,0.102198142310611,0
7.76206900356433e-08,0.106932025760118,0
1.42632798732075e-07,0.133753080020514,0
2.45834838835147e-07,0.162389413426291,0
2.56921433993983e-07,0.158425845503963,0
2.49030102068698e-07,0.155415755384717,0
2.47577709689811e-07,0.16074132972401,0
2.45039532975008e-07,0.160059899302055,0
2.20773324206661e-07,0.161549418924157,0
1.12368330471623e-07,0.12755770227113,0
1.18677886063603e-07,0.130010022800778,0
1.19362447004851e-07,0.128353027856579,0
9.2731380345582e-08,0.117449429228312,0
8.7354623758943e-08,0.115132673931231,0
7.09842251257161e-08,0.109415058985377,0
7.65789616018865e-08,0.108856587083813,0
9.08868420243957e-08,0.108882839950853,0
9.53834488294294e-08,0.109322310238148,0
1.16090812138711e-07,0.117289476762764,0
1.24241638169024e-07,0.123403448604873,0
1.28505741160737e-07,0.123291512158577,0
1.79712376165056e-07,0.130875205969549,0
2.00765166795116e-07,0.129166583643503,0
1.8853795948806e-07,0.123470137696195,0
2.06197719455644e-07,0.136945829509377,0
2.17622601006062e-07,0.146686100227491,0
2.11997001191841e-07,0.144150721498066,0
2.70159506396744e-07,0.158649430612259,0
2.73248866019334e-07,0.153071851406687,0
2.3978514044629e-07,0.141596495490819,0
1.06448863266074e-07,0.107111184695521,0
1.08088009098346e-07,0.115627243476326,0
9.51018057406235e-08,0.124499040353741,0
4.52866836679764e-08,0.108878741892318,0
4.8113523368083e-08,0.106569724454632,0
4.62596655291322e-08,0.104595742232044,0
7.32723482859542e-08,0.1180709585628,0
1.78362135383484e-07,0.16258995495526,0
1.82881012204994e-07,0.172406663367498,0
2.31856046319154e-07,0.193842964833741,0
2.37746102579032e-07,0.19763763037846,0
2.06301807576131e-07,0.177793267252675,0
1.89315594574256e-07,0.160774777057985,0
1.47150707291999e-07,0.145442693240751,0
1.54113960487175e-07,0.144030714380113,0
1.75618445147068e-07,0.138291395763808,0
2.20022921477569e-07,0.155191512091839,0
1.86957756579831e-07,0.137665350816507,0
2.22739863487674e-07,0.146597120132627,0
2.16498449304804e-07,0.14057674063605,0
2.10070765799342e-07,0.138024693692823,0
2.02819938913146e-07,0.139120767551181,0
1.69932934147218e-07,0.135630135360578,0
1.6733799309694e-07,0.133133489623499,0
1.58111428444665e-07,0.127187575001411,0
8.38514533410679e-08,0.108896809297699,0
8.30193535406639e-08,0.113232931955631,0
7.30544894291211e-08,0.110487915211477,0
7.93161160725969e-08,0.107813823569091,0
1.1337774317495e-07,0.120778227975322,0
1.14467037459115e-07,0.123740461817878,0
1.21666909579352e-07,0.124037523255827,0
1.4697726743542e-07,0.131432676517904,0
1.21963197624645e-07,0.122404776689298,0
1.13665195833271e-07,0.124540914574616,0
7.03041423943023e-08,0.105923100333262,0
7.75625943404879e-08,0.110851551736478,0
7.23397913460106e-08,0.111923638152569,0
6.17524560674166e-08,0.109269324805212,0
3.43216053381735e-08,0.0952734317569078,0
4.08733473593319e-08,0.09438689546154,0
3.17218229799659e-08,0.0971016958384517,0
2.94554857054113e-08,0.0884033174851183,0
7.61989189294111e-08,0.1055873127362,0
7.95475305916329e-08,0.108531849274405,0
1.16955469734941e-07,0.116721268391651,0
1.04955803900578e-07,0.106417981137503,0
1.93476093576276e-07,0.131990735003307,0
2.11566729949596e-07,0.132861998542877,0
2.21872301106685e-07,0.138271296083872,0
2.25937063244397e-07,0.140828358259014,0
2.40154048110527e-07,0.141600464477275,0
2.33975570930743e-07,0.143179676502716,0
1.77831528034398e-07,0.133232832064372,0
1.67674948128842e-07,0.133241148385283,0
1.46760982003664e-07,0.133049069316363,0
1.59943258332536e-07,0.142442729458233,0
9.34575765350252e-08,0.117925242674342,0
7.18964485723554e-08,0.113574102549345,0
9.23509745750119e-08,0.114034131035765,0
1.30842156367573e-07,0.127362162852949,0
1.32696498337317e-07,0.122344820349123,0
1.79001672160988e-07,0.140380723357352,0
2.07879105699602e-07,0.150535478288868,0
2.58351556356394e-07,0.163771948496506,0
2.61671846367227e-07,0.160639629376197,0
2.70235030800446e-07,0.161964618445909,0
2.59196848720906e-07,0.164104614835228,0
2.51986809854017e-07,0.166218075934457,0
1.67871505230784e-07,0.151408115597446,0
3.70080471083212e-08,0.100378701410358,0
2.5313262640826e-08,0.100447889396032,0
4.2154236404812e-08,0.103552266909145,0
1.81240171914947e-07,0.161151179647066,0
2.05688413861447e-07,0.174824422830167,0
2.05836557884094e-07,0.174589968034625,0
1.91658303481401e-07,0.16981226692495,0
1.80349371255896e-07,0.171339464123711,0
1.7131549065922e-07,0.16784805738631,0
1.67286554200188e-07,0.17619771158583,0
1.39205031685204e-07,0.154840078940104,0
1.07543967119754e-07,0.13604895217799,0
8.68735187834367e-08,0.136306442081337,0
5.08783943266907e-08,0.114822589200171,0
5.08783943266906e-08,0.11482258920017,0
9.45150392195533e-08,0.137395196469643,0
8.759971497288e-08,0.136850869860003,0
8.8741779513478e-08,0.132086089252928,0
8.18810410137112e-08,0.126275988082402,0
8.72245136083344e-08,0.124476153701251,0
8.45011568652229e-08,0.125403968508732,0
1.01673881255087e-07,0.135696004667059,0
6.6070297577149e-08,0.120670412756001,0
6.48547661887188e-08,0.122242878557996,0
6.40859664894948e-08,0.115218311490815,0
4.5402754025589e-08,0.111075915413448,0
4.7397009794499e-08,0.113310811839718,0
3.2785337299406e-08,0.112365626094152,0
3.3374040343648e-08,0.109090128687564,0
5.24813513821889e-08,0.122476462432578,0
5.44130332461083e-08,0.129330687277139,0
4.42971203271614e-08,0.122823043708545,0
4.66180433486224e-08,0.12190277529349,0
9.03563557080072e-08,0.147415158402391,0
4.11132220639751e-07,0.242173968800121,0
3.89092166290143e-07,0.210296013287655,0
3.40182368800335e-07,0.190179730273078,0
2.95953995045774e-07,0.165649540996107,0
3.80237293054164e-07,0.183635551636621,0
4.04652614106743e-07,0.18671337100274,0
4.23283903543104e-07,0.175980389587552,0
4.40608402936561e-07,0.172681234730648,0
4.30513912805203e-07,0.173882110607435,0
4.34411528786644e-07,0.175414260581522,0
2.51085358317521e-07,0.145233604470762,0
2.28393542887888e-07,0.146244969077921,0
2.23760411199238e-07,0.145782443760226,0
2.77855370514371e-07,0.165723786891766,0
1.55246826542707e-07,0.129443594585889,0
1.11128471510847e-07,0.116806209157133,0
9.18250875011566e-08,0.120818165335137,0
8.13781501525218e-08,0.119774602572291,0
8.61607572234977e-08,0.121941992102327,0
1.00901208509519e-07,0.122953830986369,0
8.30387187723824e-08,0.116768523842133,0
1.04653222154977e-07,0.130232317405624,0
1.34304296700745e-07,0.147673311602476,0
1.22194612143681e-07,0.145898651804372,0
8.75024046834945e-08,0.129053463303135,0
8.66890649513179e-08,0.128660218992016,0
9.71079227139608e-08,0.123127182483607,0
1.27384494244236e-07,0.137882241175279,0
4.59924253314172e-08,0.102922114715006,0
3.15343433303912e-08,0.100554511193203,0
2.17916952528184e-08,0.0960911576813781,0
2.48029887850438e-08,0.1001027637815,0
3.71411830763859e-08,0.10502104363976,0
3.02234381757477e-08,0.103715322517427,0
5.19768870959221e-08,0.115028498384266,0
1.06553435517354e-07,0.140463127549736,0
1.06529713108498e-07,0.159281370009003,0
1.0038451992073e-07,0.159666923187172,0
8.46048818876153e-08,0.140841339651528,0
8.33756738042842e-08,0.134424913017403,0
1.06700611278414e-07,0.140531014441386,0
1.09041746760482e-07,0.14711768370119,0
7.56793255558646e-08,0.128015281270029,0
5.96400723850241e-08,0.112888129015664,0
1.51853432782136e-07,0.147115722755573,0
1.4513369737582e-07,0.132503979179467,0
2.12795938032927e-07,0.138162530935372,0
2.58528869259316e-07,0.136892681591469,0
3.48626578091183e-07,0.160905212746818,0
4.48773873923361e-07,0.181518257208866,0
4.46241869876168e-07,0.176852252864157,0
4.44271457548812e-07,0.174880575869311,0
4.53237559834474e-07,0.175060318692384,0
4.73885738154315e-07,0.181891961558081,0
3.72241388877599e-07,0.171359273831144,0
4.79955770036476e-07,0.207291111783809,0
4.46491197234544e-07,0.204885548228978,0
3.99655779159882e-07,0.226594577859815,0
2.96275094794206e-07,0.192007860600396,0
1.27371059614732e-07,0.138121600211858,0
9.56963183543814e-08,0.128521183247943,0
1.22488116436914e-07,0.137787575275042,0
1.14826746638286e-07,0.139178270598799,0
1.13726317345883e-07,0.136349183714283,0
1.13654544955826e-07,0.141274238388762,0
9.07606049201309e-08,0.118371374394611,0
4.31748809425351e-07,0.221384364538359,0
1.55592859026977e-06,0.378911387720727,0
4.91047569601337e-06,0.395262549632112,0
2.11663634779442e-05,0.618045745905584,0
6.34807827858313e-05,0.698802824862002,0
8.86757349958655e-05,0.595610004901227,0
0.000133103677508999,0.573554852325937,0
0.000143277522123796,0.488380560808859,0
0.000137734165964552,0.349322612673866,1
0.00011175351438067,0.266408523791601,1
8.85722088301966e-05,0.211903814424538,1
6.09879941800974e-05,0.162884580850752,1
3.58401474120875e-05,0.128790506437453,1
3.08216627413278e-05,0.103052397110912,1
3.36043713779694e-05,0.105050910875015,1
4.09681062794386e-05,0.115799387233856,1
4.48716607302189e-05,0.131031613791094,1
4.43975330477008e-05,0.139836755982934,1
4.8754598834279e-05,0.17406901731478,1
5.54774441757768e-05,0.121495584814487,1
0.000115102411316962,0.130646873578609,1
0.000131076735165472,0.115419423981403,1
0.000135190070266674,0.106849296344657,1
0.000149669025566838,0.0971054125080118,1
0.00015199393588951,0.0836033912590436,1
0.000153306992884496,0.0725050812310709,1
0.000280772922769416,0.0766835398738473,1
0.000543129775478222,0.0828813288929719,1
0.000486719576837138,0.0620079763901669,1
0.000416066370936704,0.0604696843432784,1
0.000411545456287653,0.0653765429435762,1
0.000415542706386286,0.068569682856775,1
0.000335126095300531,0.0601340706063212,1
0.000364666042343049,0.0579884846893637,1
0.000372634324921353,0.0470751584807298,1
0.000311495098085183,0.0424859249891355,1
0.000570999436548636,0.0288487353085141,1
0.000833415775013136,0.0259301376947597,1
0.00118478771601262,0.0236719638775584,1
0.00169618985978859,0.0266614468236416,1
0.00160081042597686,0.0253413377784404,1
0.00151407112761447,0.0243105666900384,1
0.00182106233308928,0.0155420597404441,1
0.00489985734537966,0.0254815301574677,1
0.00491831391975893,0.0203683041532703,1
0.00417480939810678,0.0172687584182156,1
0.00381776427207743,0.0166385901448571,1
0.00362616840065069,0.0166755634651241,1
0.0032751620591287,0.0167331426003559,1
0.00588164906722698,0.0167552763646871,1
0.00601857216693756,0.00835167065713142,1
0.00531112814845889,0.00719270936872458,1
0.00497836022350858,0.00674456834047272,1
0.00803167792313931,0.0104481163021876,1
0.00998156645747994,0.0132560119507676,1
0.0118939680448315,0.013525856963209,1
0.0178578802393818,0.0182365433436259,1
0.0176569417823265,0.0147212789304658,1
0.0235102624711678,0.0143977603028124,1
0.0232238231764201,0.0131484794794073,1
0.0225374684043464,0.0157553964459195,1
0.0291649203892781,0.0168723867855087,1
0.023678064075174,0.00817503075945229,1
0.0222387260362127,0.00760731423718361,1
0.0259586075772086,0.00861233169423393,1
0.0254231644523549,0.00696497568146567,1
0.0265699234682492,0.00627659554660402,1
0.0290126124998948,0.00761798045095705,1
0.0276470150136827,0.0082849945495827,1
0.0279293688388084,0.00838095768088511,1
0.0306747295840172,0.0100818854323264,1
0.0218316879904718,0.00802809252262152,1
0.0192157431006336,0.0120420662962004,1
0.0201791581016029,0.0124970869463945,1
0.0161680462203886,0.0093048270778338,1
0.0151967004347074,0.0126473851420827,1
0.0157180278563093,0.0206077116578745,1
0.0110467545544432,0.0158275913324178,1
0.00829629440246471,0.0112660246497127,1
0.0101630448774201,0.0153425340556285,1
0.0114673282502356,0.014300200423229,1
0.0117374196161915,0.0140185999566263,1
0.0138962846617642,0.015408155675807,1
0.012955135978996,0.0159806965197978,1
0.0185351332770234,0.0271424169657954,1
0.0203947349266093,0.0255788535063551,1
0.0161718388080675,0.022391209441072,1
0.0105445946252105,0.0159474249690265,1
0.00783373241638464,0.00566400983567572,1
0.013766038112146,0.0102319372482402,1
0.0135799050684989,0.00929140490897571,1
0.0168224827133216,0.0111625620414191,1
0.016753339331994,0.0107192909387685,1
0.0167575290614819,0.0106121775131055,1
0.0297620077576475,0.0133662042123525,1
0.0308244109829988,0.00507202343202655,1
0.0320713404416237,0.00512786905149486,1
0.0295110214873477,0.00433869935178767,1
0.0308197531774633,0.00568631480080616,1
0.0291332675384757,0.00520617475099407,1
0.03241097029422,0.00490249184674018,1
0.0351514470742509,0.0055013894502004,1
0.0359994670789744,0.00566001480484192,1
0.0360007034037804,0.00555343789057693,1
0.0170392553292834,0.00195413434971124,1
0.00961713443234307,0.00599173814553122,1
0.00914992958294025,0.00590814581287817,1
0.010292268826007,0.00683978016286553,1
0.0105375419749648,0.00744798350152129,1
0.00747977514130529,0.00475136712173836,1
0.00707252489014492,0.0109855529855655,1
0.00660738104398653,0.00753476928413582,1
0.0113946073686791,0.0124694679314013,1
0.0214509563264112,0.0148473897565559,1
0.0355763598270115,0.0215852508220575,1
0.049270860206691,0.0253575072595417,1
0.0641676722709253,0.0345753016689006,1
0.0597643925782553,0.0254721628989777,1
0.0565877596087516,0.0232875680135778,1
0.0559764344852158,0.0255410082674962,1
0.0379998160068154,0.01649024506656,1
0.0255853267193357,0.00937156445223901,1
0.0256563772891401,0.00388348090289375,1
0.0485224937056927,0.00792101827050621,1
0.0558946913004454,0.0071561283888578,1
0.0592246121077146,0.00833628842888142,1
0.0598832146424632,0.00791807253339817,1
0.0573231457815615,0.0088684737244845,1
0.0513119559648385,0.00816682283734189,1
0.0573238619499498,0.00983786682098544,1
0.0575072026171104,0.00947458951388027,1
0.043987736992345,0.00872765309009524,1
0.0415437820884228,0.0122326235927622,1
0.0432708561527841,0.0156324957876577,1
0.0348385024039697,0.0126781124282082,1
0.0302034169158204,0.00818094074534932,1
0.0376543858024328,0.00983099134525308,1
0.0347923323975269,0.00587556433201236,1
0.0349153518013956,0.00664465414308712,1
0.0560048210556386,0.00707918142689397,1
0.0749313016238786,0.00698782425042082,1
0.071387139913611,0.00664808604634332,1
0.0714411026810132,0.00749736826238821,1
0.0745220106541909,0.00818910974871197,1
0.0775254723513817,0.00604170319146301,1
0.0758998965648384,0.00503473637396334,1
0.0770140551189434,0.00490705845947348,1
0.0728644670694309,0.0031800240438697,1
0.071606044312013,0.00174288807448374,1
0.0922294090381844,0.00433494411037427,1
0.0898172927415717,0.00424553698241645,1
0.0779212423485322,0.00322961792127505,1
0.0907985767076485,0.00500888802761272,1
0.104555863888229,0.00575514808065767,1
0.100688711918391,0.00591992683963211,1
0.0925292409460566,0.00596309872938382,1
0.0871900264302648,0.00612491663889584,1
0.090485222905212,0.00837683074212223,1
0.0850283800206077,0.0133277812425451,1
0.0463969711091138,0.00728765363531209,1
0.0379025519553096,0.0056353753035433,1
0.0392424191574512,0.00646293176626695,1
0.0519799857440781,0.00866174316310771,1
0.0539314909195521,0.00492731272895751,1
0.0516194742450811,0.00642778878804578,1
0.0430132579915692,0.00466020336348404,1
0.061063394729587,0.00732091541167797,1
0.0634842833909611,0.00726200724647594,1
0.0879003796089543,0.00973711504247061,1
0.078159490041234,0.00669769928305266,1
0.0741674476358737,0.00706526385021993,1
0.103711588247764,0.00589112189457401,1
0.197156072998373,0.00973935834782731,1
0.182314247204992,0.0101080534906604,1
0.196430947992728,0.00881409461053285,1
0.195147885001494,0.00768327882383708,1
0.196887662038659,0.00825642241999516,1
0.197418056698437,0.00830131156258088,1
0.191871941008197,0.00853462631588937,1
0.201149846126657,0.00902698111442889,1
0.214173021359776,0.00741338244778248,1
0.197052313540604,0.00925504000708731,1
0.100147356729054,0.00407204459879913,1
0.100371174211528,0.004473509953602,1
0.0984728538634883,0.00577873053102035,1
0.094526036815617,0.00794939234562272,1
0.0917512966013465,0.00653109519818903,1
0.0999398354285683,0.00630689821059552,1
0.0979185654919515,0.00553822111036631,1
0.0974652483968107,0.00662797049669248,1
0.102037484575753,0.0123961866964295,1
0.0593787067203988,0.00989932831726563,1
0.0645406366370067,0.0142860473675159,1
0.0649818393055293,0.0131671880229276,1
0.0650878809702584,0.0128615793509877,1
0.0641306197761319,0.0133813080782913,1
0.0557571028735837,0.0145415636549754,1
0.02208931448411,0.00385728746289082,1
0.0432110328974103,0.0103504860241105,1
0.0487752910739474,0.00887152941209994,1
0.0481538412828345,0.00935511265878694,1
0.0484275267376398,0.0100689313565475,1
0.0498430953541678,0.00994674189752134,1
0.0499816151056144,0.00943499855349789,1
0.0502372315176112,0.00912673127303991,1
0.0511427109166429,0.00852828165871074,1
0.0492233397241791,0.00752063409037372,1
0.046612024847622,0.00685033215251956,1
0.0456479621338744,0.00756940067673864,1
0.0374683169535606,0.00362512683724035,1
0.0438848957032705,0.00521967106364751,1
0.0443274014669498,0.00481425268135816,1
0.0486795349115806,0.0047161723857464,1
0.0576453305106725,0.0060135182180847,1
0.0572693847750622,0.00505026232271414,1
0.0527447224517518,0.00443566715098379,1
0.0545518770156438,0.00531007252470005,1
0.0554184554297223,0.0110056757256289,1
0.0269815184782283,0.0049961469954145,1
0.0198114790116007,0.00642341621521667,1
0.0216242179220379,0.00725107865635117,1
0.0193816761949455,0.00647720390038249,1
0.0317217773264322,0.00661481456145936,1
0.0556474949319878,0.00704540722378408,1
0.0552761685511562,0.00804168423023927,1
0.05533522113857,0.0089870800171032,1
0.0509052168341576,0.00754673353247524,1
0.0514975689435687,0.0073291423150135,1
0.0551827334611651,0.00782993555668118,1
0.0553500757111031,0.0080657121670842,1
0.0566223627503067,0.00825881325757883,1
0.0578524044342438,0.00840649550321739,1
0.0498696467561368,0.0157754225132846,1
0.0161787949993679,0.0114991888415746,1
0.0187975178928177,0.0126247046390952,1
0.01220722212165,0.0041411029181356,1
0.0144717501187026,0.00615013042447677,1
0.0155296442115749,0.00579701362480769,1
0.0152148192388996,0.00367144357440898,1
0.0166479872922142,0.0050213299370646,1
0.0192410221240923,0.00583057654485762,1
0.0214708816498913,0.00560320235918483,1
0.0214077593651104,0.00594299478231905,1
0.0245849035050802,0.00792288830017679,1
0.0159519263687469,0.00539117312685962,1
0.0147539827329699,0.00927638661671801,1
0.0178881488444188,0.0117861378215133,1
0.0120140708276708,0.0125987299840202,1
0.00686069956657357,0.0136054808855451,1
0.00655035615670192,0.0130126856462742,1
0.00600817243718254,0.013132354057649,1
0.00551757686552414,0.0197399236086934,1
0.00191558412109209,0.011497704175775,1
0.0017469154349626,0.0153777269724428,1
0.00139519738002384,0.0141427185412109,1
0.00135373840966037,0.0216465314987536,1
0.00132381116234066,0.0218398384461976,1
0.00133531407221924,0.0251683626204562,1
0.00133463190046345,0.027368588970204,1
0.00136926063063059,0.027655952189348,1
0.00111426135032239,0.0482653105119907,1
0.00035221242655039,0.0326559837581854,1
0.000318328122033575,0.0415351202672103,1
0.000206372969114159,0.0430173905111476,1
0.000189617150930838,0.0620589453207057,1
0.000239767460957993,0.0703686847041531,1
0.000267763757209217,0.0777524794616465,1
0.000262687810328444,0.0788217101536747,1
0.000257649315926848,0.0830845090210245,1
0.00028131890804901,0.123893173902754,1
0.000134911678479241,0.152100989723748,1
0.000101632491098106,0.248950703687463,1
4.6879660972341e-05,0.200543179362004,1
2.15218369968075e-05,0.325202444238454,0
2.1592471558468e-05,0.329520041891491,0
2.19114407683131e-05,0.344021421785461,0
2.24378298858007e-05,0.350956812654505,0
1.42720460294756e-05,0.323882646012633,0
7.75083390128473e-06,0.295989751373484,0
7.79832555864926e-06,0.343747327334595,0
6.57139289004494e-06,0.316754219338151,0
5.96732752851322e-06,0.25583120316839,0
6.82956447077905e-06,0.30090860530643,0
4.79212084622137e-06,0.288647174400469,0
4.21014177352999e-06,0.285427509066349,0
4.33736166330461e-06,0.302807865875191,0
3.93346199361363e-06,0.30049047729522,0
4.32918759899624e-06,0.332662962904454,0
4.53227138919155e-06,0.352621304710974,0
4.16005844299804e-06,0.340161741922038,0
2.3067864023067e-06,0.25681203523032,0
1.88436110472491e-06,0.317217323231062,0
1.81515642336142e-06,0.343383331671383,0
1.55846059431696e-06,0.320358933024511,0
7.89318130491435e-07,0.231628108837169,0
5.63997849877274e-07,0.211541698190446,0
3.32162137051423e-07,0.15645724448128,0
1.28635972344044e-06,0.274267753459807,0
1.9353289422156e-06,0.324051887090999,0
3.07321204515481e-06,0.36708712627735,0
4.22892217525058e-06,0.362187148898124,0
3.92098981612533e-06,0.33041260490508,0
3.9694891917354e-06,0.333724453392163,0
3.65658468833374e-06,0.313596762006115,0
3.71823584003273e-06,0.31006577772037,0
3.62284851815696e-06,0.299197469416797,0
3.64885372473362e-06,0.303505411098992,0
3.76287560392861e-06,0.329307423203341,0
3.53082009572275e-06,0.315748516933342,0
2.61592727292387e-06,0.297401246326967,0
7.81310607175839e-07,0.173648194271226,0
6.9544577489954e-07,0.173432456058175,0
6.95675737026197e-07,0.174524931763053,0
7.12810941279606e-07,0.178271498594897,0
8.267565698747e-07,0.212090246051169,0
6.11240300916118e-07,0.190590642598189,0
6.14945959038151e-07,0.19242179932594,0
6.24345358383514e-07,0.193808335362001,0
4.35205140189007e-07,0.174995189706995,0
5.75036637120303e-07,0.215274041197555,0
7.00823983878558e-07,0.230759142834982,0
1.4362369343257e-06,0.288369888964234,0
1.49817275493095e-06,0.264791105783059,0
1.50797156218051e-06,0.264448596317329,0
1.33067814552249e-06,0.239478261652926,0
1.11809522503847e-06,0.211085306029112,0
9.15424156344157e-07,0.181927975846345,0
8.81293903701902e-07,0.176960421679388,0
7.99970944459777e-07,0.16647038371292,0
9.5089871916577e-07,0.180719867415844,0
1.05478943532183e-06,0.187624637743486,0
6.56832955245247e-07,0.153443281178811,0
5.77149746998886e-07,0.150389091845867,0
6.90270416722773e-07,0.154165988439171,0
1.26666927686177e-06,0.20588224651159,0
1.23814186988647e-06,0.207100094966042,0
1.12147312661366e-06,0.204586177608954,0
1.21881960477586e-06,0.215369026680941,0
1.30287439304997e-06,0.221832117039229,0
1.29583960953013e-06,0.224680392444659,0
1.28601114926951e-06,0.233035789369496,0
1.06091744186645e-06,0.212838836471831,0
9.34634829306995e-07,0.210295935579725,0
6.88654872266658e-07,0.199502801431767,0
5.81748989532028e-07,0.184502627237502,0
6.97967128069287e-07,0.212382822252397,0
6.19746478948466e-07,0.209181416074692,0
7.00661315932123e-07,0.230048713695657,0
7.41100761068261e-07,0.22336758472915,0
8.96436546644176e-07,0.237874428255752,0
7.77676842476563e-07,0.216270459293584,0
5.94334453625876e-07,0.202558114962105,0
6.26918392515409e-07,0.202957848915646,0
8.34973600790949e-07,0.234869442343469,0
9.10912541484542e-07,0.252136730012679,0
8.11924254770714e-07,0.23871907758018,0
7.13599711374039e-07,0.218895139426104,0
4.46286288876423e-07,0.173202128980951,0
2.11793303160701e-07,0.126499722618647,0
1.9245082558948e-07,0.1226414191831,0
2.15797427916595e-07,0.128757834626112,0
2.2478592125143e-07,0.113667734954172,0
7.43972624932115e-07,0.200281491167922,0
1.07552173136695e-06,0.235716103521804,0
1.17719948566838e-06,0.230465080301632,0
1.56783009858586e-06,0.266327416230766,0
1.92484751054796e-06,0.290117708388973,0
2.20304600876185e-06,0.305221552810447,0
2.27488799262e-06,0.314821340295881,0
2.39127206698654e-06,0.295111562579377,0
2.92005230646057e-06,0.321412293527316,0
2.85509417834755e-06,0.332537030320533,0
2.25072018343532e-06,0.284361752436835,0
1.82671262538943e-06,0.247571315249016,0
1.81245073739225e-06,0.2544502054838,0
1.81309983575292e-06,0.256602970509577,0
1.56818060927996e-06,0.239539542622078,0
1.14282862002202e-06,0.202193319726944,0
1.1984407242096e-06,0.209117893889702,0
1.14416663650107e-06,0.23191773749511,0
7.72015901114454e-07,0.200956088129667,0
8.12559434371083e-07,0.204780621758369,0
1.14416179519314e-06,0.259790376223929,0
1.13452952893636e-06,0.268086301123361,0
1.07844588135644e-06,0.276653653481888,0
7.33544447651707e-07,0.22577679681744,0
3.68830808473878e-07,0.158458025567721,0
3.34395553432057e-07,0.152067639171908,0
4.81645386503913e-07,0.166683363838281,0
6.33505476084454e-07,0.182524688664943,0
6.12261816889269e-07,0.180851542461283,0
7.57130331623244e-07,0.205414660008361,0
5.36740439004608e-07,0.167470154049076,0
4.59624092222534e-07,0.157105584890689,0
5.20385411524058e-07,0.164841956445626,0
5.00514868290412e-07,0.162988232356009,0
4.89909378107083e-07,0.164213826958306,0
4.53989414955943e-07,0.160762890611363,0
3.87571874567543e-07,0.159135539332146,0
3.11300941182679e-07,0.148714268319682,0
3.54093261972616e-07,0.153973370268787,0
2.17055804880202e-07,0.125679811342675,0
1.80318507917845e-07,0.121098837509406,0
1.92625112674946e-07,0.122725116502807,0
4.66208876170312e-07,0.170748617406609,0
6.29192475882652e-07,0.184813185282646,0
8.14642044009707e-07,0.196818804954056,0
7.45530436791169e-07,0.186453938684851,0
7.13037514490712e-07,0.183230448436825,0
6.23905162460012e-07,0.170708945287072,0
6.6965128625051e-07,0.176934595105722,0
8.13737687688453e-07,0.193029219371353,0
8.12711330407374e-07,0.187202200204937,0
8.29651066853124e-07,0.194954419662756,0
7.31464137634347e-07,0.192438397709472,0
1.00767564204121e-06,0.208455418654398,0
1.05232412029137e-06,0.207968886572926,0
1.05280825108433e-06,0.211554779621533,0
1.37972979333464e-06,0.20871740517611,0
2.24804043477338e-05,0.260879883752075,0
6.81482014644668e-05,0.308767087353126,0
6.78524610921334e-05,0.233968258584546,0
6.74892322820976e-05,0.234206193673003,0
6.6682714315892e-05,0.238019422068647,0
6.70967429700332e-05,0.23559057881905,0
6.88263942702976e-05,0.233928902241929,0
7.042217408679e-05,0.231133130443272,0
7.25177297459175e-05,0.23554795498976,0
7.33271189708235e-05,0.247586934033471,0
5.93514384475676e-05,0.40801066250978,0
7.72809669859323e-06,0.232690677955424,0
1.15450343409431e-06,0.228784929215044,0
1.2182939597674e-06,0.246536996619929,0
1.20212399128246e-06,0.251787176853793,0
1.04281833320425e-06,0.234984523319365,0
9.98481635184769e-07,0.237266453617757,0
9.00512927920918e-07,0.24862562538496,0
5.30954591897916e-07,0.189385332294669,0
6.00859568453421e-07,0.231368758907722,0
5.82938619923035e-07,0.221543731963387,0
5.07507532431262e-07,0.195214345903652,0
5.35461365449602e-07,0.194528409399406,0
3.49595686905995e-07,0.160342858276585,0
3.42499297742754e-07,0.1657795367586,0
3.31994264698964e-07,0.161814629142113,0
5.6948886133105e-07,0.20501689272175,0
7.76021599295425e-07,0.226479552424656,0
7.28948957132211e-07,0.228482869846595,0
6.50871852791503e-07,0.210075762852271,0
7.56842636899525e-07,0.231949452331698,0
1.03739062185165e-06,0.283440510123987,0
7.22931332408388e-07,0.222640979311322,0
6.70263227572813e-07,0.2145855017222,0
6.83552617839628e-07,0.186412027359299,0
1.89045437488513e-06,0.279452013060163,0
2.16780854899609e-06,0.288699152595793,0
2.25766165074481e-06,0.289193012953163,0
2.93312383787055e-06,0.259534837111959,0
5.6120931702616e-06,0.316552919954431,0
5.55628063592573e-06,0.291908393409532,0
5.56990891774761e-06,0.292995426171022,0
5.0068496764452e-06,0.279086046323683,0
3.95117210318368e-06,0.238769438473633,0
3.56618488188706e-06,0.220979556053508,0
3.64559600862778e-06,0.227734922935497,0
5.51194139621956e-06,0.272076805087779,0
7.53765658921965e-06,0.32362791097605,0
9.01317734847868e-06,0.412292871283374,0
1.06783965287365e-05,0.506652902715589,0
1.29754227332244e-05,0.622422010214162,0
1.64735097777734e-05,0.682226157511587,0
2.0921274684661e-05,0.758772659053047,0
1.88824527397357e-05,0.744827674232583,0
2.5979054436395e-05,0.84336877408997,0
3.10565546508169e-05,0.926349992726145,0
3.92217899869536e-05,1,0
4.15647545151567e-05,0.979938891758665,0
4.6241115210571e-05,0.969859609972487,0
6.3165281041758e-05,0.93013822270899,1
7.67056108224889e-05,0.874301352506116,1
8.39863410153739e-05,0.80542206870842,1
9.34536725043109e-05,0.785110271523831,1
0.000103011836370558,0.336519730350614,1
0.000580699580847372,0.0929969174024005,1
0.00479424857309789,0.0210257682747977,1
0.121974629294677,0.00145049364447629,1
0.658815113046533,0.0194058365996859,1
0.990605446515454,0.0164086187686598,1
1,0.0156019381650492,1
0.954992396427208,0.0172552388740681,1
0.97099660690991,0.0206519535161192,1
0.978373116340651,0.0227485678174402,1
0.984348045393135,0.0222005954267179,1
0.726789032812941,0.0152198444150934,1
0.414223448748797,0.00894928002024825,1
0.369621482871732,0.010497226361396,1
0.395936994552754,0.00808796985603441,1
0.493196170087803,0.0111816743856985,1
0.457524299269763,0.00922775144969307,1
0.385518106318919,0.00776184038695898,1
0.378373310264541,0.0077790314603098,1
0.391021436321929,0.00709492433793017,1
0.46877500428695,0.00877137547142831,1
0.473097080379194,0.00766374431312414,1
0.478437656032583,0.00846617496449179,1
0.395542153789348,0.00734062891141633,1
0.378668827917465,0.0146774159704574,1
0.270679633828645,0.00924989985446358,1
0.302382905210976,0.00816770087333345,1
0.349388537888897,0.00917924493444916,1
0.39201499736611,0.0103254212546869,1
0.393815022155663,0.0127285097655232,1
0.272300242953088,0.00803817767904741,1
0.34031296017792,0.0143952654194228,1
0.367355967604667,0.0155369832277867,1
0.376146745970022,0.0146108993988869,1
0.368044251083378,0.015611053769712,1
0.290117976055339,0.0147686518113267,1
0.255659099063739,0.0231954958508772,1
0.230389373016852,0.0197049909519588,1
0.185685273803885,0.0173006102848,1
0.190354709093877,0.0129143659586072,1
0.259947873959048,0.0198742670989355,1
0.215122121329711,0.0178365937488769,1
0.205873905448375,0.016474322607648,1
0.198633008009098,0.0164678478137089,1
0.278302320506018,0.0201098252038103,1
0.296566562212306,0.019780419384314,1
0.277054795113856,0.018567504706386,1
0.26161710023263,0.0192958015335029,1
0.155617918005728,0.00834183867545013,1
0.135467731133769,0.00493570987738825,1
0.221061216645522,0.00833859019683263,1
0.288899632343871,0.010681264127489,1
0.370976879737145,0.0133198962501936,1
0.428006237376079,0.0151046467512396,1
0.485861261026054,0.0171996776884958,1
0.53076417110052,0.0203712239896672,1
0.458558944352966,0.0195249875391208,1
0.422118405868214,0.0175878061361914,1
0.239903041710069,0.0166912917199542,1
0.0166583268871151,0.00634815731148107,1
0.00281491719794298,0.18303253596993,1
0.00179597472962062,0.341575297631982,1
0.00114655554891457,0.322857217978231,1
0.000793872377908679,0.341060174535268,1
0.000582590111593889,0.314225623029326,1
0.000562518656017688,0.294201909873664,1
0.000636743242249614,0.352386549418259,1
0.000696387729786436,0.368519311262909,1
0.000718268157136152,0.345953747488998,1
0.000627385379389763,0.303320814030801,1
0.000547445750179617,0.284244734328748,1
0.000387151035161406,0.111314755711367,1
0.000355439251238596,0.0903273657491674,1
0.000277212895668118,0.0833964491576246,1
0.000147752063578646,0.0617184616359352,1
0.000138200272447059,0.0683195914967514,1
0.000153772499165853,0.0744701633711296,1
0.000175484361856075,0.0771183287267508,1
0.000245083071825481,0.0928454387550089,1
0.000357439930454867,0.111349919753611,1
0.000528863239462333,0.14299160349193,1
