Activity,Complexity,Tag
1.02464585466738e-06,0.220138704476898,0
2.14868343548022e-06,0.321920704259096,0
3.0146066174913e-06,0.372862617854505,0
3.06441242423317e-06,0.352944166312963,0
3.09337949026506e-06,0.363140633538099,0
2.64833436147891e-06,0.345967991332483,0
3.41098312796877e-06,0.373062710727017,0
3.20751161581009e-06,0.34055485055246,0
2.84112522149058e-06,0.320831525142137,0
3.14345905232768e-06,0.331706385131683,0
3.54205474706653e-06,0.346602438294325,0
3.39905975912784e-06,0.323143942349262,0
3.93569811974496e-06,0.354980085837416,0
4.01507744886233e-06,0.364170859368343,0
3.41665957700665e-06,0.304647412968493,0
3.67856394160779e-06,0.320825850411052,0
4.08379533285924e-06,0.355697350331106,0
4.55002625345554e-06,0.394266485532407,0
4.66604905687708e-06,0.402939261864445,0
4.50867507071627e-06,0.411107957423128,0
4.38850509495589e-06,0.420406658768044,0
4.81567929978751e-06,0.484481380089204,0
3.350845265573e-06,0.398612322090935,0
2.21120738457487e-06,0.305770076555498,0
4.01250304499524e-06,0.473124613021545,0
4.33428939907542e-06,0.418146160185381,0
4.40485557302818e-06,0.403897363955251,0
5.36602882810637e-06,0.427838325034644,0
6.53997664006973e-06,0.469726678040399,0
6.47709570520601e-06,0.441489435133639,0
5.54041913592605e-06,0.400867095435216,0
4.16992582141884e-06,0.34069234254827,0
3.48065319478694e-06,0.313214103721555,0
3.35914093487323e-06,0.318452629912645,0
2.85430278708728e-06,0.286761531658335,0
3.69575511343928e-06,0.345529505416031,0
4.65390403453449e-06,0.41403673399074,0
5.43349980077137e-06,0.478457173028256,0
4.08738660528065e-06,0.366406252359367,0
4.35388299461685e-06,0.401904475660657,0
4.06290758111603e-06,0.408380901616564,0
4.46025570221172e-06,0.424075847841313,0
4.9269199951424e-06,0.437980700654626,0
5.06916789597996e-06,0.436026628173771,0
5.00786966425691e-06,0.443838801136438,0
4.94265231603881e-06,0.455403703028821,0
4.62339621174174e-06,0.433361794037866,0
3.90144492677766e-06,0.400652359482843,0
4.90475928115772e-06,0.521203132389256,0
4.41278984115095e-06,0.458207555092815,0
4.02722401659784e-06,0.432528709197917,0
2.43689458255279e-06,0.362209431286588,0
8.47707193890162e-07,0.227367385256676,0
6.116974333864e-07,0.214743167890927,0
6.48896145296732e-07,0.227577087900069,0
8.7225046224699e-07,0.233397145064885,0
2.41761161099223e-06,0.358690558030441,0
2.7569675374037e-06,0.374205738698264,0
2.18164335532742e-06,0.322337604410477,0
2.22786230505628e-06,0.35067051465946,0
2.29427004737878e-06,0.36950105411239,0
2.45188953024656e-06,0.371041308067525,0
2.72537551107854e-06,0.381761519336583,0
2.88827935471837e-06,0.385806777308076,0
2.75716645155208e-06,0.378546548234076,0
3.03673311206088e-06,0.403108986811775,0
3.37698448329568e-06,0.444127601816705,0
5.5460432623744e-06,0.550995425818091,0
5.93694466643698e-06,0.601417490049165,0
5.67476676728552e-06,0.583435121909265,0
5.34462668128467e-06,0.548235351703248,0
4.73989676235206e-06,0.502543480209556,0
3.69595468989892e-06,0.423112329602974,0
2.60387230275205e-06,0.348266607761069,0
2.33675775623997e-06,0.308933983690102,0
2.57234275445574e-06,0.309346896342649,0
3.07674377681019e-06,0.350133411542612,0
2.38846307167514e-06,0.295555303011237,0
3.20566663741052e-06,0.335922634877132,0
4.87143067470919e-06,0.407818364147486,0
5.15745487000169e-06,0.414337561818779,0
5.07541658194637e-06,0.403910064744713,0
4.69807291014366e-06,0.382954301599494,0
4.85307427660118e-06,0.374453481334212,0
5.70305518504647e-06,0.405038588502241,0
7.50821653552025e-06,0.513706375219255,0
9.03714949500537e-06,0.562988316407372,0
9.99451975882941e-06,0.618234291373519,0
9.4984519367466e-06,0.628669520829741,0
7.20628627301085e-06,0.550949924694399,0
6.12583782468435e-06,0.484024291579733,0
6.13659375954456e-06,0.493429195989062,0
4.83135399960433e-06,0.463750995707139,0
3.32072003791803e-06,0.40303755767715,0
3.70208570523149e-06,0.452428691455568,0
3.47092340083868e-06,0.43055825609128,0
2.36511969055077e-06,0.334887952500595,0
1.6487300540062e-06,0.291718931168612,0
1.56303580779643e-06,0.266569817661975,0
1.40403871750812e-06,0.246415881436735,0
1.52145347842746e-06,0.261484729957798,0
1.7091083353893e-06,0.262897828416864,0
2.1000830352313e-06,0.296617673082218,0
2.17789025818818e-06,0.302468254515367,0
2.90032723807616e-06,0.366414917256069,0
2.90976186197294e-06,0.349258668242679,0
3.30978903211479e-06,0.349006891260544,0
3.88775561534751e-06,0.367513762184669,0
3.88229088514236e-06,0.372575698869149,0
3.6613052140278e-06,0.369761524047647,0
2.86454807996614e-06,0.325598755344322,0
2.99349235529721e-06,0.338717823030374,0
4.28624004179471e-06,0.409470130329408,0
4.66622743937639e-06,0.402906233717741,0
3.58289727475823e-06,0.359105297747687,0
2.6729723403459e-06,0.318323007319823,0
2.86316716098932e-06,0.36548829047441,0
2.67276040074275e-06,0.342542381973401,0
4.26542470274924e-06,0.399712231494911,0
8.73947612773353e-06,0.519864755265853,0
8.13472656023354e-06,0.450841894379795,0
8.75415736066055e-06,0.484119077366027,0
8.89842442775902e-06,0.465891984352775,0
8.6662651241497e-06,0.471552499979268,0
9.38265895533225e-06,0.469698123115559,0
1.07729182870789e-05,0.383083792823546,0
1.58422952526465e-05,0.452309047026908,0
1.61738308284719e-05,0.453096849116423,0
1.71109968457729e-05,0.478951507980984,0
1.58915659118904e-05,0.480388068282233,0
2.05336666766924e-05,0.567664254969127,0
1.89982578584788e-05,0.518748193421533,0
1.51191239903418e-05,0.456147572952085,0
1.31720604655081e-05,0.428556046797226,0
6.51868002150875e-06,0.285119214788916,0
8.01179827884624e-06,0.339145470133814,0
8.10671631320174e-06,0.298081703080039,0
8.0478754770232e-06,0.291537717074031,0
9.18824300425929e-06,0.309518028231229,0
9.97215637759922e-06,0.315188952896499,0
1.53327131900766e-05,0.403609044016518,0
1.77096544743047e-05,0.444997906303717,0
2.69743895721292e-05,0.449726993792373,0
2.76524664892243e-05,0.33518141860344,0
2.78277281778916e-05,0.326045423190817,0
3.08971531945098e-05,0.322116689234915,0
3.21998576269473e-05,0.335694234284596,0
3.76653505938969e-05,0.365984373424469,0
3.90926878761341e-05,0.317319903082718,0
4.1443004468486e-05,0.249861232769428,0
6.32691364663089e-05,0.292794279389372,0
7.03456761842825e-05,0.299168738168495,0
7.2193199846019e-05,0.286870066539889,0
0.000179680466906029,0.25409537178018,0
0.000335258066015921,0.192418482568206,0
0.000310112336597766,0.125472830064886,0
0.000631222361158723,0.163099953242639,0
0.00115870486027293,0.190788204962225,1
0.00110851610339445,0.127093624488309,1
0.000959299253978443,0.118680192405104,1
0.000871254898038203,0.10828473619213,1
0.000747792287769649,0.0960079936488278,1
0.000520276993043865,0.0777962106994783,1
0.000665289532970162,0.0774988077981928,1
0.00104916623354707,0.114998519509969,1
0.00152849166767424,0.14901165653122,1
0.00181277662366366,0.151021747012511,1
0.00186650895087815,0.165359829686937,1
0.00169706180314648,0.221408288699591,1
0.00151372815184555,0.189141865740606,1
0.00116518774833165,0.169244051101215,1
0.00107650466625628,0.0914854116426241,1
0.00358472159853961,0.076821619774014,1
0.00438859795276069,0.0429500551857105,1
0.00473200262764238,0.0389750244311597,1
0.0051112445557078,0.0411084385357922,1
0.00528738009785131,0.0429901734956589,1
0.00541348545389893,0.0323231883634465,1
0.00602557385845285,0.0288614698212844,1
0.00612049828543662,0.0251306873697209,1
0.00613651475442131,0.0216316708154458,1
0.00618500251230347,0.0209779789780943,1
0.00438213107386898,0.0182491291875107,1
0.0035748941004343,0.0193671472103477,1
0.00316195566680712,0.0187657220404173,1
0.00281951851829087,0.0170141390580507,1
0.00245421635421698,0.014052020507822,1
0.00221808433966469,0.0193792560234999,1
0.00131438056225126,0.0154800686771436,1
0.00113604525746175,0.0181809133176397,1
0.000997335141450555,0.0225348424981726,1
0.00110055583403547,0.032260456912194,1
0.00100588605491336,0.0400224498142356,1
0.00133776108027183,0.058585592638178,1
0.0012145488528012,0.0583562799389906,1
0.000879628225541359,0.0416869627100533,1
0.00130850886716552,0.0492201931299671,1
0.00131829413453875,0.0345667259211203,1
0.00205802675658709,0.0362966262700357,1
0.00218968515277401,0.0349722339746859,1
0.00214835628087261,0.0366513177171621,1
0.00197254221512152,0.0344148650565559,1
0.00196454167613409,0.0357031077636126,1
0.00141912453320289,0.0305335407681952,1
0.00152495557372852,0.0312910816765343,1
0.00166620672504092,0.0354826492832461,1
0.00137539795457233,0.0362126051032182,1
0.0014176148814488,0.0500156490727057,1
0.00081215721048844,0.0526591048027521,1
0.000585334372119514,0.040214397321291,1
0.000928430335554483,0.036652601388702,1
0.000977825562520909,0.0323000032716534,1
0.000906734776013838,0.0317895014523931,1
0.00112560397520104,0.0313536967981804,1
0.00124769903966096,0.0227774690663821,1
0.00206712708991398,0.0303803014930713,1
0.0028467692250037,0.033709829817915,1
0.00274014243361559,0.0340021268173507,1
0.00271137849933018,0.0306068526586139,1
0.00880353611793287,0.0237367735174434,1
0.0314777778542611,0.0613337394687865,1
0.0541475294942325,0.0587074238154714,1
0.0541429182216284,0.0482775893638572,1
0.0893632147200756,0.0246267916029692,1
0.143440585698897,0.0356479442826155,1
0.15597264660783,0.0354825411294543,1
0.149635930159576,0.0330760254990088,1
0.164798836095121,0.0324567474345782,1
0.128850864015099,0.0246896467233252,1
0.0964419435878197,0.019329672267279,1
0.0911751933180584,0.019554135355697,1
0.118432273255212,0.0193054822866421,1
0.0936286942975205,0.0137220530088993,1
0.279656099197953,0.026210685722091,1
0.358894625382279,0.0231626148680264,1
0.439759883502496,0.0250465448772908,1
0.413561054295913,0.0143390915193006,1
0.411152452815207,0.0149892938318823,1
0.402983770409517,0.0146155325861676,1
0.352705929247284,0.0110636053155547,1
0.315853183553613,0.00841550745880204,1
0.3180399589028,0.00872569925399153,1
0.31877212313888,0.00850872772993061,1
0.241512535973607,0.00846069526138308,1
0.215760272920332,0.00772357456335227,1
0.151966743484163,0.00582763159709905,1
0.116564141451884,0.0115189948305321,1
0.104209810525936,0.00991950003753978,1
0.0815469056533489,0.00770324493121911,1
0.102709599635821,0.0171104513899537,1
0.0930506373997582,0.0180449969616693,1
0.0913532503664599,0.0235797388079894,1
0.0994293591911666,0.0298331671502077,1
0.152681285830179,0.030681157420158,1
0.192576373631638,0.0400522051733153,1
0.148640327982471,0.0285256929512692,1
0.169146475052534,0.0298287457078923,1
0.163624864108134,0.0261823967861716,1
0.140256711076506,0.0193803856593627,1
0.140245944362751,0.0180143383900433,1
0.124027057428273,0.017792152320799,1
0.078403046865268,0.0105559644448061,1
0.0487487655733554,0.0037766900302159,1
0.055345638532224,0.00956239597518599,1
0.0780890436674774,0.0222793151764299,1
0.0726281349124185,0.0298317980270453,1
0.0845043534891275,0.0388117659664742,1
0.0945079249137693,0.0435466996189142,1
0.0759984522826878,0.0485658814720203,1
0.0623843927755483,0.0512089475998606,1
0.0458325117436987,0.0624606665091526,1
0.0186925711077965,0.0358875215885388,1
0.00990603143401618,0.0263688207436752,1
0.0120899458104996,0.0229039543802958,1
0.0110625704333696,0.0234175725252875,1
0.0101674042699881,0.0225975640290584,1
0.00938354449617378,0.0187093051811231,1
0.00877005605304159,0.0171594296035538,1
0.0148828230643412,0.0248685396420237,1
0.0165275288950423,0.0108378898928089,1
0.0204246641383881,0.0136088121858233,1
0.0200157933767884,0.0129806389887675,1
0.021446540094553,0.015916094720677,1
0.0204772882120029,0.0159834070910694,1
0.0198979197430058,0.0132410359969052,1
0.0202446269506375,0.0128391428961254,1
0.0200395662457917,0.013251532905908,1
0.0188552197982312,0.0133634552997251,1
0.00984917485963285,0.00605904235826257,1
0.00691463534352979,0.0129443457258118,1
0.00613013746107523,0.0114849865152638,1
0.00659363277013993,0.0103513531229144,1
0.0062592981097418,0.0120087467974839,1
0.00485162033736643,0.0138983095483655,1
0.00425969532709396,0.0183060669610444,1
0.00534944790876587,0.0167170725368752,1
0.020198387928462,0.0389687972276851,1
0.0265927157675928,0.0231547544458359,1
0.027412932248182,0.0216164816206478,1
0.0273756268562516,0.0192628090655187,1
0.0233961198738706,0.0191157847487686,1
0.0238200365018744,0.0167623834608383,1
0.0240148096292413,0.0121666819483813,1
0.0236722251632731,0.0104550343491493,1
0.0213922722913342,0.00971307635216183,1
0.0213984317324037,0.0106178344525096,1
0.0172429194332852,0.00796218182575792,1
0.0143883554869335,0.00990578331718829,1
0.010068961549336,0.00516776931206561,1
0.0173000573345316,0.0106141525126044,1
0.0244751111334425,0.0149848243701821,1
0.0210996421286946,0.0149771185338003,1
0.0208041223468447,0.0205117754853437,1
0.0202798222292701,0.0237887677783485,1
0.0361651727915276,0.0185627318176712,1
0.0816313527288215,0.0368394368139324,1
0.102720219994462,0.040940034509039,1
0.103655749787029,0.0377055802321537,1
0.102940474069495,0.0424069646993166,1
0.0829878957086287,0.044187060515885,1
0.0619515806929204,0.0286257960632543,1
0.0598453434797864,0.0290411051842639,1
0.0775166807256266,0.029011327846031,1
0.10699227980206,0.0383035725569896,1
0.109881535652604,0.0290006190055415,1
0.110138569487274,0.0268355445027544,1
0.114096124898554,0.0275106981698108,1
0.101981605701976,0.0246831574891967,1
0.153478073723742,0.0182037399964052,1
0.196893515742743,0.0239790602998237,1
0.263976450776854,0.0325761101724377,1
0.303694084323895,0.0344570480618949,1
0.325841849313872,0.0320011920979393,1
0.351996435404169,0.0267409083422788,1
0.346790118783025,0.0294013886795627,1
0.321895992558054,0.0288005042105415,1
0.332935139906217,0.0300043934493096,1
0.283024482816271,0.0180420271525351,1
0.307594823064603,0.0225023905466943,1
0.307983031075724,0.0134823869653355,1
0.532524177173791,0.018247520502252,1
0.560343423855504,0.0135658037964108,1
0.554575017256311,0.0137788228869042,1
0.510873622189039,0.0128847128683643,1
0.460147948661975,0.0102355219396325,1
0.403537937367475,0.00845395613532514,1
0.318819603041823,0.00445554166059002,1
0.449186666118993,0.0108574473044034,1
0.521026554929299,0.010897651241405,1
0.512516788840825,0.014482593474676,1
0.314579159346383,0.00951760628280433,1
0.319330686230876,0.0139690729266327,1
0.353985788323107,0.0168945788118066,1
0.36335132993334,0.0193559385491444,1
0.424477607414826,0.0290020450376155,1
0.263701013256819,0.0180778458919746,1
0.221772049293381,0.0198724807614286,1
0.255172403724419,0.0234520655801552,1
0.243860658219253,0.0502018262803142,1
0.0859757663182658,0.0218942702998317,1
0.0355167238893499,0.019901550998437,1
0.0234018387393085,0.0133853901751193,1
0.0165192506701376,0.00687844279646438,1
0.0228920410791903,0.0110850943025939,1
0.0232104449849401,0.00907132869737622,1
0.0189131360617995,0.00716521271699889,1
0.0189846276605363,0.0106563162681978,1
0.0188404781545695,0.0090720183763029,1
0.0192736996806675,0.0103949056072405,1
0.0166747104663722,0.00901614977152418,1
0.0175457511694166,0.0103275781106447,1
0.0128480245038988,0.00618361384007671,1
0.012665042273407,0.00887180066717683,1
0.0109827191182883,0.00764872479032657,1
0.00875099492926064,0.00565104604844685,1
0.0144768243813005,0.0209046218100853,1
0.0140079052680096,0.0153493038191226,1
0.0168894337723643,0.00994501954549096,1
0.0404580561068964,0.0270109353749612,1
0.0493285237334931,0.0199298152417703,1
0.0473384952575113,0.0172314998257411,1
0.0478673408285216,0.017613377018853,1
0.0464112102883887,0.0141050313939926,1
0.0432984641088745,0.0108163041142745,1
0.0394342685667793,0.0101732909584448,1
0.0436099082993271,0.00772164528462849,1
0.0799742328617226,0.0162729713515221,1
0.0952993548929207,0.0162042361262512,1
0.0965506577403475,0.0135446701555698,1
0.106883148649311,0.0172176864923838,1
0.0942109304950162,0.015715110573176,1
0.0878235501175412,0.0138871889810199,1
0.103887070643218,0.019037598149627,1
0.109998512514512,0.0208266760845489,1
0.112095369106843,0.0220178738101796,1
0.116134698779548,0.0307493017005917,1
0.0679342170199114,0.0220386119869926,1
0.0166635054844778,0.00587703040839444,1
0.021201604656617,0.0165535065720809,1
0.0438015577976823,0.0285728085991018,1
0.054448546747424,0.0358060112008127,1
0.0685065255045435,0.0518462733821665,1
0.0882744189234052,0.0510702006936601,1
0.124679185247404,0.064874024088619,1
0.165205212082095,0.0772192122072542,1
0.155268158950342,0.0600486223302863,1
0.111887451625478,0.0324300650664229,1
0.112477075629335,0.0204847314770897,1
0.0890120126297845,0.0122142255834452,1
0.105373815791913,0.0140112786922569,1
0.0784093107528233,0.0104091615335995,1
0.0573233341380529,0.0059627081037908,1
0.0485203523271789,0.0051010433873285,1
0.0527665842419803,0.00264808688178287,1
0.115174198944897,0.00913512853581451,1
0.185520982360171,0.0156876775685806,1
0.216437620682182,0.00946762653631923,1
0.227570909412908,0.00906282010474031,1
0.234299779461799,0.0104095698678071,1
0.244718348271146,0.0113016094380306,1
0.236047927324872,0.0105096571554923,1
0.207973723570441,0.00921764659197989,1
0.173082481568245,0.00504731557123685,1
0.176024129057138,0.00582998595666123,1
0.209216568446986,0.00164802676577819,1
0.314204439811841,0.00634520127955655,1
0.303995155377292,0.0114981024867888,1
0.319989444171625,0.0126402697348512,1
0.331202094794137,0.0102106252142234,1
0.401457895445322,0.0107926122910304,1
0.494472759317499,0.0141037280918122,1
0.551991775945771,0.0164430983518396,1
0.665653630947279,0.0207800063661046,1
0.719044137805183,0.0229529292295663,1
0.784013198165543,0.0551998689489131,1
0.723297206134119,0.0494750311996427,1
0.673822168096631,0.0404290755850881,1
0.326674639707499,0.0314529281986017,1
0.0963242338776193,0.0150055776703528,1
0.0752991020444925,0.0213372648068595,1
0.0702578993665472,0.012598794189897,1
0.0575940248662243,0.00865350828721035,1
0.0629828246310024,0.00916173928641292,1
0.0688739287155363,0.00613319091861716,1
0.0796951866383372,0.00899883521856063,1
0.0917959427632045,0.00997050153283213,1
0.119109955146028,0.0159152054100072,1
0.109403949281826,0.0143106710515626,1
0.106012602817292,0.0141929859133991,1
0.0712245241117869,0.00983202239534322,1
0.0630624565771143,0.0119422833618046,1
0.0775233280304686,0.016364983592864,1
0.0525855085466419,0.0150760497420061,1
0.0410508603307302,0.0261930577423594,1
0.0437781091265085,0.0260499269220875,1
0.0493548358619202,0.0354724397254545,1
0.0507730298383099,0.0690054425877876,1
0.0363880176032434,0.0770914048575303,1
0.0195629781502831,0.0505463564376266,1
0.0075545976543688,0.025224749786925,1
0.00500535090336646,0.0129681153772742,1
0.0103640260339204,0.0327319104961623,1
0.0101173734505019,0.0216993946262847,1
0.0107661367761193,0.024895487450699,1
0.0108136515676321,0.0183365005471527,1
0.0279529738351584,0.020304166871676,1
0.0306536716364213,0.015022114175995,1
0.0457313509047007,0.0182663281962352,1
0.0476253786912783,0.0113178394877956,1
0.0443338094233417,0.0053059099598968,1
0.0900061803007503,0.0116588678276943,1
0.102484230555434,0.00930334188634941,1
0.102073994529468,0.00860564889843101,1
0.0930758247834769,0.00747499635323342,1
0.092444734555843,0.00780225963220266,1
0.0903458380600645,0.00709831656994038,1
0.0942707541039654,0.00831337234550394,1
0.0914972245815963,0.00802867137204225,1
0.0912765750334461,0.00897311441600714,1
0.0935455518895709,0.0110971450816618,1
0.0676883471755883,0.00784304077904856,1
0.066759287761566,0.00825066462734861,1
0.0607660921160847,0.00813029104324738,1
0.0522773060728701,0.00672508588822545,1
0.0382822939740022,0.00285542301917596,1
0.0423948046080726,0.00529204261053563,1
0.0437294697858898,0.00552460773171616,1
0.0576036378255964,0.00885218690600711,1
0.0548442647666322,0.010184850126882,1
0.0408918672037125,0.0092627073874333,1
0.0374015474023415,0.013970169726927,1
0.0265512466216989,0.022641837641236,1
0.0307215954533717,0.0134572269903589,1
0.0818552063593606,0.0271664408469615,1
0.108536768741847,0.0380875466053946,1
0.217142201737037,0.0379255814570965,1
0.275069355369706,0.0236606189176259,1
0.239676537377538,0.0217431908605591,1
0.263159581965086,0.0235766060703008,1
0.342095161727022,0.0256555248854712,1
0.292814041122233,0.0195292275870041,1
0.211757399720996,0.0149133479719597,1
0.155500271884878,0.00842831116077277,1
0.178216677363826,0.00902476530434596,1
0.158994901664851,0.00735050246000536,1
0.179938552870263,0.0110526548851016,1
0.226169891994893,0.0191351728700569,1
0.176006093615066,0.0127765227553794,1
0.170526013900735,0.012172718158581,1
0.214398502261675,0.0142247656198239,1
0.210880024303051,0.0143365676222143,1
0.210312941742144,0.0142930615178277,1
0.212161709994695,0.013938156418191,1
0.2230007912354,0.016333037818765,1
0.335452750597792,0.0215093950372015,1
0.376903109144218,0.0178108257328308,1
0.350082106615783,0.0149675946094827,1
0.401341838228207,0.0151253217384507,1
0.456711125662208,0.0139200604159568,1
0.401181975029069,0.00745489901845991,1
0.426673365838222,0.00733827500602505,1
0.354977281435277,0.00491556400053335,1
0.337888933915452,0.00535410263879691,1
0.357877194333195,0.00433909925574536,1
0.423046461973762,0.00741096663916897,1
0.590584300289069,0.0123040172857411,1
0.66184175329981,0.014043609102501,1
0.586476750307831,0.0139553221712024,1
0.633488136177915,0.017289635043518,1
0.665781650980493,0.03398837735623,1
0.430883430683845,0.0293009960510225,1
0.424728236186322,0.0279041719641472,1
0.289201331574915,0.0245713485933982,1
0.0670097139720068,0.0152826877466759,1
0.113361094938791,0.0108403727243193,1
0.208030785310529,0.0234640175603079,1
0.221918280167233,0.0203542213551098,1
0.216595801209801,0.0205307868049567,1
0.216172120535041,0.0207930983859491,1
0.209673350186967,0.0192657868838328,1
0.193401559010834,0.0155630095110925,1
0.177106073432804,0.0153060402394648,1
0.197832884458274,0.015597240734524,1
0.245340499165152,0.0173334343411325,1
0.207019896323702,0.0234053861987705,1
0.105332102220049,0.0106614851284794,1
0.0707047428611495,0.0084743488186869,1
0.0740344700785365,0.00839846721997867,1
0.0679200154524473,0.0068635667237221,1
0.0755955659166032,0.00979872130637988,1
0.0682592285384101,0.0119172131947521,1
0.0730021304029923,0.0122946240892679,1
0.0746796281496795,0.014820991869272,1
0.0784191046635792,0.0180093960556238,1
0.0586288504891099,0.0201234103252571,1
0.0491697232293291,0.0221223412986293,1
0.0338593689962435,0.020018222137283,1
0.0307792148003737,0.0184432041791626,1
0.0149859120450728,0.0122199699801243,1
0.0153119292710773,0.011453139349202,1
0.0175807607483351,0.0119565078374437,1
0.0167444025640913,0.0124396134231762,1
0.0138959721317518,0.00934433740304321,1
0.0235790314183101,0.0107759114773712,1
0.0311742593828175,0.0143465814610331,1
0.0458505411470368,0.0177859712973315,1
0.0671959330068168,0.0219475531632765,1
0.0586578940942595,0.0152905263667416,1
0.0631932405330172,0.0173844510666129,1
0.0626143067821709,0.0167428350666795,1
0.0636434544485982,0.0157315083398325,1
0.0554888417594329,0.00984834411565735,1
0.0463760259372296,0.00588729890160265,1
0.0767872851645391,0.00594684904424937,1
0.146403024320904,0.00999015124361833,1
0.150879438996095,0.00908946786976998,1
0.145254636852713,0.00905215487594239,1
0.14827024941835,0.0101689355303498,1
0.138289146082816,0.0089860868142313,1
0.132017851229639,0.0088640665045483,1
0.140946792160884,0.00964053935433732,1
0.142241450204954,0.0102221332643855,1
0.139568894872556,0.011631361609698,1
0.1109426788724,0.0169341046512829,1
0.0167720391070725,0.00171491447489289,1
0.014154297348643,0.00946892173224578,1
0.0184682761737457,0.0112337035548559,1
0.0239912604106082,0.0105966817431146,1
0.030323968981619,0.0100196344222235,1
0.0531492242573111,0.0160235843422503,1
0.0519459684556987,0.016089959903184,1
0.102821723079051,0.00904227389680357,1
0.198305616639443,0.0142127863151139,1
0.219601002316833,0.0122373603537156,1
0.355994594893425,0.0184434483677796,1
0.375847468344994,0.0210584114663046,1
0.312727082008837,0.0174774341227978,1
0.230528671765733,0.0123896718477872,1
0.1930375424916,0.00994576938599695,1
0.178994401141948,0.00984261972900714,1
0.107470403464679,0.0041708119250237,1
0.0905389645774358,0.0037453544809671,1
0.258784694497626,0.0172632577561515,1
0.261309164047298,0.0177830898461276,1
0.486407748069656,0.0215180649219071,1
0.663012054749184,0.0187495326047515,1
0.609855787516986,0.0189261373335153,1
0.631400683202937,0.0164839826654113,1
0.657869067055539,0.0161415934845677,1
0.613492719289198,0.0146177200985654,1
0.522078734830085,0.0123433763181584,1
0.494640474476249,0.0116122395187922,1
0.504992862566573,0.0132859907087714,1
0.509292078225548,0.0129450278260533,1
0.608572653948905,0.0185320643564338,1
0.622138327038187,0.023689223618925,1
0.635047799030729,0.0188147329840668,1
0.616023320378092,0.0226625175426653,1
0.515680003235039,0.0208423058683339,1
0.612952091328922,0.0225402914043075,1
0.681045545874888,0.020562005989185,1
0.679120627523788,0.0240293242486682,1
0.696407709425042,0.0236201061253298,1
0.760841225789497,0.0283839343116469,1
0.45155921547486,0.0274319489224381,1
0.170995511040879,0.0115693591162484,1
0.0899759928370308,0.00837525035521644,1
0.0968189840709685,0.00899410557366738,1
0.0874317615861808,0.00787144823720825,1
0.108464234355226,0.0133732254011364,1
0.139768507217985,0.0351245694508266,1
0.0929638266652121,0.0289639372291232,1
0.0887026024457804,0.0223622708695738,1
0.0945229505165397,0.0241154170680895,1
0.0915031078218711,0.0216175452795717,1
0.0837221850257996,0.0204329475096412,1
0.0936785382781172,0.0203671277723797,1
0.114195312945442,0.0228973633126091,1
0.100436293426282,0.0160907345973143,1
0.109738732346375,0.012094714170732,1
0.112422898792802,0.0110497610633874,1
0.107068075666964,0.0102683118982986,1
0.100800906192773,0.00942330694874591,1
0.108058839156076,0.00656977497078322,1
0.113150466900908,0.00336668185303096,1
0.119713564899693,0.00295578928153444,1
0.120390206423814,0.00366383640729627,1
0.113648682452919,0.00369768770188424,1
0.092803977698039,0.00256831636675246,1
0.0938123276435626,0.00498871419603793,1
0.0980234214259338,0.00615501453966997,1
0.118989491888907,0.00817828575063965,1
0.130267876804173,0.0123213985695457,1
0.0535287294172337,0.0046716480721531,1
0.0468004700277131,0.0127775407862469,1
0.0439205461180938,0.0173003249987755,1
0.0434458414989306,0.0176732992271904,1
0.031068423588884,0.0174469589461514,1
0.0173017092008502,0.0154995135660552,1
0.0173944003449528,0.0153868256015089,1
0.0601179248354986,0.0229872412186487,1
0.072673915043186,0.0116972623721253,1
0.0791191316392774,0.00778052830362829,1
0.103075356201936,0.00694540391734311,1
0.115568742957789,0.00750062822491444,1
0.115755388221686,0.00646944499630506,1
0.10388165895112,0.00538473921042945,1
0.0988376308628328,0.00383136308773479,1
0.103587935113455,0.00226649885549725,1
0.126972367089786,0.0040113413222226,1
0.107829815340824,0.00349865186707603,1
0.0978473400378912,0.00475954936160119,1
0.0855744476005454,0.00629410125169659,1
0.0532291582597455,0.00528419351732173,1
0.0474692844847495,0.00496339784990038,1
0.0544348225021657,0.00752905501445666,1
0.0545391582624292,0.00694561836889251,1
0.0482862134032517,0.00930958232256498,1
0.0368052755099252,0.0197606383280192,1
0.0274802106240442,0.0130834613270311,1
0.0283913665230994,0.0145026609080863,1
0.0290870576858619,0.0155715384955808,1
0.0394529314571498,0.0253009053585819,1
0.0551767366810273,0.032069541353565,1
0.0567481818778504,0.0358772502865449,1
0.0362018959730049,0.0277580732677726,1
0.0363875809635068,0.0300738078504692,1
0.029531244164306,0.0256956383387244,1
0.0244953054452966,0.0151813013008737,1
0.0442393692545079,0.0238814299562219,1
0.0443390159175035,0.0224666920278135,1
0.0725699979543753,0.0162579264936749,1
0.129344594747166,0.0353565678076691,1
0.164847345334848,0.0379450222399942,1
0.143494395054677,0.0190096635853678,1
0.132808768444102,0.0149690672782986,1
0.12781875992367,0.0156653178251788,1
0.115075414042678,0.0152073624335551,1
0.104139159284725,0.0146525854988541,1
0.113689063393816,0.017330802278347,1
0.172457438659007,0.0176717525543035,1
0.367889995834407,0.0351185526000065,1
0.406764272381478,0.0309378766046461,1
0.447745650873588,0.032827911084537,1
0.650468311482062,0.045472891301039,1
0.651805486958419,0.0320876834355213,1
0.571952753528524,0.0308589103638275,1
0.459067903223869,0.0210448628835819,1
0.335621283067181,0.0133696253382197,1
0.258102985385,0.00992468844780027,1
0.225972850147461,0.00997782001387996,1
0.223878291950493,0.00898168049757631,1
0.221370369783589,0.00952098660153937,1
0.199638116309574,0.00397682092692478,1
0.246341734782347,0.0101354590339782,1
0.26432047389768,0.00867382246925375,1
0.417705256696852,0.00786944360243411,1
0.484425768650273,0.00927595984638984,1
0.453267130892298,0.0100814121756064,1
0.51909622128953,0.0110099381024553,1
0.54468456990623,0.0107665300388037,1
0.56168799224972,0.0114604147035926,1
0.564631348568777,0.0129355761948324,1
0.550906497215507,0.0160188310074552,1
0.509352746517357,0.0153265516332323,1
0.570300982423799,0.0178524046871252,1
0.483832286108441,0.0164754577115064,1
0.344519956900829,0.011831516562283,1
0.45659218612941,0.0150501457173723,1
0.523936737192019,0.015680227748455,1
0.521237916703633,0.0142326420050816,1
0.524909206792622,0.0146697405958856,1
0.506376245596711,0.0136115042849488,1
0.497274429334604,0.0133555541905793,1
0.576928460702755,0.0157828846978149,1
0.513755161096317,0.0171401393730906,1
0.482913034209931,0.0223098770478544,1
0.640240955131298,0.0337854346385911,1
0.643159657288355,0.0461250115676398,1
0.458740451531684,0.045619469296001,1
0.514872794710081,0.0692946416800504,1
0.493399462986553,0.0724333998785859,1
0.487636571615929,0.0941069906007875,1
0.377368205564481,0.0776452660010146,1
0.302066797939211,0.0640362460142174,1
0.150058292168645,0.0349665594474993,1
0.049943326233735,0.0176836427579276,1
0.026879858550086,0.0132749503616313,1
0.0411313118693646,0.0223770583291559,1
0.0405155719353109,0.0117350678470917,1
0.0383671963032486,0.0119746888286475,1
0.0400288333071069,0.0125178776533917,1
0.0377101019596752,0.0117301204480491,1
0.0351882389041751,0.011006385275751,1
0.0351720292721114,0.011818759754971,1
0.0283263107858934,0.0109589515619329,1
0.0286480016276253,0.0140289255483965,1
0.0287062385931233,0.0135188212563124,1
0.0176617482115794,0.0083960764919473,1
0.016570102927787,0.0163870882237746,1
0.0153941338760869,0.0175687608253497,1
0.015426060236253,0.020556805073866,1
0.0125914477622412,0.0177062847771301,1
0.0124908330492127,0.0178837669406678,1
0.0165869703530438,0.020284793787094,1
0.0415331035658534,0.032547586406352,1
0.0469223708435659,0.0301078765529282,1
0.0659150828254639,0.0398667802194688,1
0.0809592149625516,0.0323660617312168,1
0.078991702179079,0.0342328676498504,1
0.0736081800267836,0.0271337326280872,1
0.0622782426016667,0.0228468050764697,1
0.0616835209990988,0.0228068141513781,1
0.0533748403053981,0.0132838444218038,1
0.0538804584306624,0.0144731215327062,1
0.0493640646836315,0.014166547891086,1
0.0520817224239958,0.0152007178335512,1
0.0431534024757884,0.012287228602928,1
0.0344025230425729,0.0100477949210393,1
0.0392154226213405,0.00928359075027041,1
0.0390606240775508,0.0103985873609994,1
0.0357324616062801,0.00923610287745982,1
0.0412708270315561,0.00954941226051567,1
0.0545940154078687,0.0208962767331666,1
0.0487541824124956,0.0185955211754453,1
0.0444028242049186,0.0151856539903814,1
0.0475183059577712,0.0176140939506872,1
0.0455691286338776,0.0166391315160268,1
0.0500226377273878,0.0188848836049037,1
0.040004641235698,0.0136782765057973,1
0.0990254913310137,0.0193790744009085,1
0.207386884285625,0.0432230660735657,1
0.318918467855206,0.0685084572165725,1
0.370249678889113,0.0610995039075322,1
0.374769323358492,0.0644127351206782,1
0.362567442595898,0.0548116546469884,1
0.317669965808622,0.0457995635550086,1
0.269121571186715,0.0382995999959784,1
0.24369920678822,0.0332011769241675,1
0.145013940259605,0.0261852030400908,1
0.169952225225278,0.0356948251124046,1
0.221578577812294,0.0133206713795982,1
0.24813284426448,0.0100501357064517,1
0.238202441886224,0.00687600049860224,1
0.395024668738848,0.0116280442204052,1
0.621683039795616,0.0185565306983177,1
0.632686735591973,0.0162306805258637,1
0.554301684892836,0.0146491339413947,1
0.502190176149168,0.0125830725881846,1
0.512776551036485,0.00613199858215408,1
0.5082342433037,0.00598609041373407,1
0.471903830668461,0.00607014210913605,1
0.473641145744283,0.0075482351657182,1
0.420222903700084,0.00778235358549422,1
0.409723020978026,0.00662962012442687,1
0.429220638654407,0.00754941564671762,1
0.434123202502668,0.00925261850165927,1
0.442090717864075,0.00896418930974525,1
0.34361912746156,0.00278295673259324,1
0.434061078990714,0.0124218211293305,1
0.3895642069207,0.00997490030966097,1
0.413623514472381,0.0126581241420641,1
0.378541915788838,0.0113206317400046,1
0.397702102519109,0.0122446080359374,1
0.390182409182309,0.0155048007062886,1
0.27471990317928,0.0100554560358705,1
0.24940536710812,0.00930595812856236,1
0.199830380360145,0.00637304921709676,1
0.153661725906358,0.0106704136282447,1
0.136160971627685,0.0122239709635407,1
0.146543388415344,0.0150010750610757,1
0.180334059681501,0.0223476830270547,1
0.154881368734586,0.0214260243446598,1
0.164557639726792,0.0233510017808397,1
0.178111814402917,0.0259009234489605,1
0.152948692890654,0.0246110263789884,1
0.0990175197008089,0.0192083004132952,1
0.0407906435001167,0.0215325200982121,1
0.0741038215217576,0.0319871647142018,1
0.0979908479249681,0.0455381316318448,1
0.106237481840331,0.0360734685826696,1
0.102252776788167,0.0368686700356393,1
0.0787471758304973,0.0339536779358915,1
0.0661772868190168,0.0270171440575385,1
0.0524486299151007,0.0225684267935187,1
0.0620541196091383,0.0199902435307147,1
0.0809645096207184,0.0262946336410132,1
0.082509588322853,0.024586554580212,1
0.0866433932037477,0.0269258278006471,1
0.0887907650465784,0.0287359739703263,1
0.0866192239873757,0.0441331273032705,1
0.0562452847312336,0.0308873247872884,1
0.0455168716495901,0.024844320116941,1
0.0432533003296016,0.0213992165020766,1
0.0468872338803358,0.0206422516781603,1
0.0481583951542014,0.0195097623686296,1
0.0487380253293112,0.0195867124051315,1
0.0465468203256313,0.0200428313506569,1
0.0477724291534581,0.0204728904381757,1
0.0467436844062935,0.0184386666647476,1
0.0464418429138037,0.0185010685157022,1
0.0457605675013567,0.02015701267781,1
0.0420729594255194,0.0147104352618731,1
0.0453255252392174,0.0145239248352515,1
0.0278912048703436,0.00701999622758103,1
0.030212523577113,0.0129457438478327,1
0.0235765624987705,0.00781745538649824,1
0.0262066744000228,0.00516998701771465,1
0.035959554097393,0.00531447368272171,1
0.0407019064579976,0.00578128582196599,1
0.0498417833753686,0.00245555182582711,1
0.0680810914404206,0.00363542955711782,1
0.0632009590768695,0.00290633377104879,1
0.0653553801986867,0.00315558781567678,1
0.0651996299531345,0.00288524346419593,1
0.0712867953917852,0.00193372225102775,1
0.0865281157927936,0.00420621562786511,1
0.136883004509617,0.00925003461376128,1
0.171373217593242,0.00901921952539109,1
0.151401882361142,0.00715827884331767,1
0.146279277343322,0.0105595550241087,1
0.141783924573523,0.0112196550067267,1
0.13097379877021,0.0102654710756157,1
0.144032983039535,0.00943416079329201,1
0.150311990393636,0.0105248644718473,1
0.158527347423177,0.0160951443595629,1
0.15499619888498,0.0122920516935494,1
0.109552968857197,0.00787583891165171,1
0.0698692923312164,0.00712653710825197,1
0.0757983840984427,0.00912018562073894,1
0.099676755475068,0.0132693303740132,1
0.100127549080566,0.0125366506998952,1
0.0715135836369747,0.00830727580013184,1
0.078590769922628,0.0134015001464699,1
0.0835611873150695,0.0130412055545697,1
0.0843788210923692,0.0130536349848231,1
0.0584196484329789,0.0125019175944185,1
0.0486188634478056,0.0205281314695555,1
0.112491923022249,0.0356888110015851,1
0.194692767796809,0.0649190841489532,1
0.287453808988864,0.098809016360085,1
0.375059089744865,0.0837297727318076,1
0.367466153959709,0.0754506067228551,1
0.289311270271641,0.05081968800572,1
0.2448564026617,0.0448746588124715,1
0.242106854033898,0.046219966530104,1
0.195849423678866,0.0331869535347855,1
0.134259399568126,0.0254566104837302,1
0.112244585133007,0.0193021263323327,1
0.15061546253155,0.0242400879643002,1
0.174555065005159,0.028248097722923,1
0.198815645322339,0.031063727325514,1
0.197126209521162,0.0282239019618011,1
0.227074042922923,0.0266675133873118,1
0.299399084444095,0.021433718462148,1
0.290417927180787,0.0178813435617585,1
0.323785731555353,0.0188619794452087,1
0.347116466303434,0.0100537415367203,1
0.565115371753931,0.0199212394317133,1
0.666156678044698,0.0211656384905806,1
0.646933200240887,0.0206728118628321,1
0.532812864272526,0.016950718131858,1
0.505153292292634,0.016637607654809,1
0.504336043243997,0.0185891205497047,1
0.499527762773418,0.0207712569393589,1
0.46327710096872,0.0194286233689538,1
0.220437670258533,0.00770180527960459,1
0.174876210877097,0.0127283503962478,1
0.188831231407194,0.0151633159801383,1
0.178059519719652,0.012103107590374,1
0.166595183363194,0.0115485596014963,1
0.238430344799057,0.00315678504155133,1
0.602860545455293,0.0093344589887961,1
0.671753121415642,0.00573904427276273,1
0.775697775687858,0.00788301025270994,1
0.789482940697932,0.00798361723216868,1
0.772025979727736,0.00823158190421757,1
0.800436695178,0.0084986496769923,1
0.796699135667746,0.00734717730987819,1
0.9018661152915,0.00920181458273119,1
1,0.00985240837897283,1
0.928650707470363,0.017654209553127,1
0.319446195390942,0.00533630202271701,1
0.315917808221562,0.0226415455579719,1
0.289378668079885,0.0200048095702056,1
0.290965510508066,0.0222203182248866,1
0.276618088768954,0.0210495278018703,1
0.174958523278121,0.0124711526849213,1
0.201803101031944,0.0239180128596156,1
0.206472568214535,0.0241881066363848,1
0.207586307479595,0.0245615532624423,1
0.219923353596588,0.0256181966171968,1
0.20538424645898,0.0383875765781951,1
0.117125693281945,0.0256573020277,1
0.0677326453078629,0.0146383023653548,1
0.0726879514489873,0.0196541757293447,1
0.101410446464257,0.0300983641338117,1
0.118963444472824,0.0459500351717841,1
0.136797598881876,0.0534766287981187,1
0.135606504420189,0.07934093953661,1
0.120821986560151,0.0711513506810952,1
0.098117892705956,0.0402515486007245,1
0.0717018866822919,0.0327870776031568,1
0.0562547179580951,0.0269820195674314,1
0.040753523469901,0.020905743661554,1
0.0395975829694422,0.0314898381906759,1
0.0326114363417395,0.0265388708440719,1
0.025187242191375,0.0208691774684002,1
0.0221187135026618,0.0203254932796989,1
0.0211166094081916,0.0171491233345203,1
0.0190897236315986,0.010522227200048,1
0.0181031439530011,0.0177453593497101,1
0.0126082198959201,0.0100170274453699,1
0.0108398170581386,0.00806003536552571,1
0.0113253435474556,0.00991018823883108,1
0.0124521483227748,0.0098823363331052,1
0.0145771727178181,0.0118291808676334,1
0.0153309355384866,0.013041122714335,1
0.0167436375433675,0.0136525096067843,1
0.017385176104007,0.0139693451981495,1
0.0210546926892409,0.0254731532361794,1
0.0185473004015903,0.026119402319085,1
0.0175573975126646,0.0325745691530309,1
0.0179536617940575,0.0271543376407299,1
0.0194347886113066,0.0305785979180226,1
0.0181584909983787,0.0365618730791374,1
0.0158185369476472,0.0384433957372057,1
0.0129659853943199,0.02913372636724,1
0.0266979308292843,0.0277001671810292,1
0.0353809053733013,0.0174094626358881,1
0.0349696943330988,0.0172157148917026,1
0.0354502623143682,0.0138765128805587,1
0.0382839673614629,0.0145023233859189,1
0.0378706191585085,0.0132225027932526,1
0.0379962102952109,0.0130808650113775,1
0.0379257510845266,0.0131189808892543,1
0.0401468925840864,0.0140916271487176,1
0.0441396802053578,0.0158662021816974,1
0.0308829347306024,0.0192275761610987,1
0.0188850377311232,0.0309750923985413,1
0.0190429353370337,0.0278560478960372,1
0.0170991368521718,0.0398084269450423,1
0.00648490614496639,0.0163157598036504,1
0.00660581023866958,0.0235089728779033,1
0.0115822722015781,0.0280162803786758,1
0.0279090545096011,0.0063923357233138,1
0.139593704638185,0.0304676615958265,1
0.222309586092248,0.0440732168573328,1
0.366559925424839,0.0575241125801363,1
0.401417234961386,0.056474513922365,1
0.412021695373868,0.0568751354640726,1
0.421502816108742,0.0416995405788509,1
0.497832788718422,0.039193510929328,1
0.395072335715801,0.024041270817005,1
0.275981867486177,0.0183318089190086,1
0.155445805766461,0.0130581999788973,1
0.145019588151768,0.0131348137025954,1
0.135060464994545,0.0115215892999125,1
0.137088105084718,0.0123801661524783,1
0.138613581204409,0.0139582766845757,1
0.139548032742323,0.0152495300681235,1
0.162475661383794,0.0156612739489204,1
0.313421630846942,0.0329903609641831,1
0.467633755769516,0.0587899337599234,1
0.513914795636466,0.0468806507382134,1
0.668028752666432,0.0284959363072067,1
0.589955496100278,0.0221424251419712,1
0.618442428300344,0.022733548176076,1
0.588532065360115,0.0193695265906851,1
0.54972133843855,0.0171090316809881,1
0.513662181559594,0.012264306373097,1
0.651913382536838,0.0172435852596913,1
0.624849452195734,0.0153244884007151,1
0.583697272341306,0.0124924926328401,1
0.610682790066119,0.0103055150878566,1
0.626942523044721,0.0150528070137035,1
0.673029024637006,0.0102634090775177,1
0.61330594251457,0.00985969238657711,1
0.737651570987034,0.0110497131726162,1
0.88802007609846,0.0132571729227199,1
0.877672206472167,0.0142157749980082,1
0.810614899627448,0.0136431061943774,1
0.822705305491933,0.0140926063838966,1
0.80664375408011,0.0153802528830008,1
0.654651025591661,0.018618398232235,1
0.297203417734031,0.00627697050851651,1
0.266022559754508,0.0153034484075087,1
0.320568066027957,0.0171053865810091,1
0.296192012554392,0.027532090645493,1
0.167848223940075,0.0168970234862553,1
0.160042755077161,0.0185764066920215,1
0.163377654660694,0.0209677022908291,1
0.156213191398977,0.0235778202415882,1
0.178640974919489,0.0271198392133503,1
0.218513193224413,0.0145033302459583,1
0.288394850410117,0.0147547180399689,1
0.294744668354649,0.0120889595312834,1
0.392869809362138,0.016907528946936,1
0.359783876888872,0.013362384055085,1
0.359515647701872,0.0136610491892858,1
0.366014714036627,0.0123268313647444,1
0.413042066387312,0.0137118797048058,1
0.429285783188346,0.0139496805747975,1
0.454627726114488,0.0147842686664676,1
0.327284074177629,0.0239466358399188,1
0.113633898933524,0.0112506792576837,1
0.0927299463307816,0.00862294088217706,1
0.113634059104892,0.0119952196905548,1
0.114944826348588,0.0111090627789283,1
0.107213653901949,0.00839221961592863,1
0.102083489570943,0.00662014720314186,1
0.130264617314369,0.00993204662661083,1
0.154222483169327,0.0117223676030034,1
0.207027423901141,0.0142374402259163,1
0.332447562774958,0.0211668411938395,1
0.427412130231193,0.0258083136358759,1
0.479463608938283,0.0416337219166718,1
0.364777754946282,0.0353263156368922,1
0.325015954784101,0.0378880415723283,1
0.204680906016877,0.0311730783758795,1
0.109101389954316,0.0417111955524523,1
0.0749661332220231,0.0278705148386595,1
0.0350618068759032,0.0113459417666607,1
0.0237795105198886,0.0119256431233162,1
0.0222910822998595,0.0140528327486448,1
0.0213910036749584,0.0135630827878117,1
0.0199060110731662,0.0130079180423238,1
0.0192284456634724,0.0116982543903865,1
0.0169858534606239,0.0104090550414901,1
0.0164790940196235,0.010854027740091,1
0.0189284829705275,0.0119406457344418,1
0.019484836209124,0.0109946761128117,1
0.0161384969484035,0.00835979759192117,1
0.0109644092570394,0.00783900359884266,1
0.0098105084268943,0.00985058587514288,1
0.0190187882950635,0.0150751576322936,1
0.0401894618119837,0.0300131840161179,1
0.116985216974315,0.0120324865655791,1
0.344278115271782,0.0250545250535171,1
0.33787021290771,0.017174790161794,1
0.329017580946486,0.0165955046763054,1
0.29326176309766,0.0147798120416839,1
0.265119432613315,0.0134996524372242,1
0.243581409153993,0.0120690149683757,1
0.21311045295827,0.00816305075513313,1
0.221805142964559,0.00718544765277947,1
0.253105274277339,0.00855880134709487,1
0.258158228866091,0.0167771002090565,1
0.127665586736528,0.0081581993055475,1
0.167065790040056,0.0135638904160429,1
0.206731451265292,0.0127380901661862,1
0.201095992430198,0.0124225420138344,1
0.200182141800333,0.0121982288998085,1
0.194562572593669,0.0126377613533774,1
0.176458756468918,0.0133516935057467,1
0.172383678635816,0.0173958295865563,1
0.17223387907524,0.0161215630072386,1
0.214544035982279,0.020198226343509,1
0.250204554532638,0.0247386513735985,1
0.178102739727528,0.0329927901217946,1
0.0737782348775494,0.0278136986106317,1
0.0624190269288484,0.0294400258123234,1
0.0454794972591765,0.0141274444437877,1
0.0568429487869057,0.0272519528751014,1
0.137174022643077,0.0398005937342285,1
0.245299557433168,0.0572449243598461,1
0.300592760012681,0.0855550179858128,1
0.292016954413037,0.0760475596397353,1
0.251825248071244,0.0716445066797928,1
0.216807379917787,0.0608802754602003,1
0.158484114817257,0.0487746038521879,1
0.0787915222331204,0.0297788712055614,1
0.0411162013545376,0.0213157462008554,1
0.0508874539283199,0.0187387035379442,1
0.137083442572403,0.0527940760638031,1
0.20830893466468,0.0519785052993095,1
0.20918162457111,0.0322607759847824,1
0.245388561055128,0.0286394502626335,1
0.292786923126801,0.0292371554697777,1
0.259876067717861,0.0278582816078819,1
0.292097645690685,0.0279443935612602,1
0.256332111368535,0.00639610979961072,1
0.391056127889714,0.0107086102921928,1
0.435564089166966,0.0105693445693524,1
0.422654025033496,0.00901830428647556,1
0.424104077373867,0.00862244574303522,1
0.408376785607964,0.00864827997561833,1
0.417663823733022,0.00623152068000307,1
0.519613537337297,0.00774960623401578,1
0.521560115951383,0.00733083300015939,1
0.496096904152574,0.007186579291817,1
0.554052548017192,0.0175708017390822,1
0.422226989189902,0.0136106018080569,1
0.365175216653538,0.0122661526612281,1
0.355460759666973,0.0113667695977588,1
0.27232879253159,0.00813065879159542,1
0.292972703767412,0.00565773567829834,1
0.29546139857372,0.00919675275637274,1
0.257970029283948,0.0107001127963013,1
0.2671821331393,0.0141039837375479,1
0.280242075191612,0.0110355001978487,1
0.245892901187234,0.00914822912267677,1
0.210197331986049,0.00761269329071143,1
0.168928671718143,0.00584125250749813,1
0.167010951525432,0.00707500195613195,1
0.148779648149852,0.00402162431488437,1
0.261491905305331,0.0151388942292107,1
0.237181181143262,0.0119816272618209,1
0.238021564750036,0.0122168375454168,1
0.217801074944672,0.00799344304071095,1
0.209321380194677,0.00874116498814841,1
0.254712749476922,0.00951732845100524,1
0.288214296691114,0.00875581235448964,1
0.362546780025567,0.0107454268829558,1
0.390790776124138,0.00652923804423972,1
0.399563025712555,0.00893825686934053,1
0.337877005086296,0.00845038612160846,1
0.337859157078311,0.00924648968065623,1
0.347365995444181,0.00774275655461579,1
0.37759622458136,0.00931681334096443,1
0.409231528041829,0.00636697175866583,1
0.529571674500046,0.0106480114914462,1
0.556877437987536,0.0119135637139387,1
0.388984258957167,0.00783012567232736,1
0.31767316625735,0.010016889761439,1
0.363962259942255,0.00960586608242058,1
0.426947060081505,0.0120049784880867,1
0.466156750331777,0.0134552194686929,1
0.479324528093102,0.0160739689616332,1
0.356971439535881,0.0141185441847827,1
0.228797560312882,0.018182440605604,1
0.217849274317882,0.0191180509753046,1
0.207911964313343,0.0235598388679608,1
0.170746190148895,0.0231528388751617,1
0.0454638210130837,0.00208672300320772,1
0.071955165726734,0.0132670948537866,1
0.0781296780340517,0.0119405297083918,1
0.0802335043995388,0.0120135079577623,1
0.0796810337586984,0.0120145458412436,1
0.0805043703035193,0.0136150305870712,1
0.0825385380462645,0.0158734048749591,1
0.10011644823056,0.0168840616784809,1
0.111737121186,0.0186090546090879,1
0.0830647416726716,0.0146449568341064,1
0.0653726097922982,0.0338266332902253,1
0.0652562436661474,0.0254461918080381,1
0.0572889852890158,0.0363819294705255,1
0.0450137707802244,0.0352910828522722,1
0.037395453360535,0.0229057644213176,1
0.0412031970670992,0.0191011320348852,1
0.0435227207090118,0.0130503935204498,1
0.0554523733101515,0.0186197886999049,1
0.074440757680735,0.0230035691556738,1
0.101792762624173,0.0293266407057439,1
0.129827705593923,0.0346198867608621,1
0.142845335235489,0.0495896639583101,1
0.13192347975595,0.0432305788594678,1
0.124838694487977,0.039790677818209,1
0.0944296326899908,0.0346001169548695,1
0.0239617367437128,0.013863583479547,1
0.0158120744179327,0.0324137386928525,1
0.0252894793014034,0.0445977734086051,1
0.0323173143483757,0.0663786384123154,1
0.0331497924832164,0.0673496411545947,1
0.0282192824802256,0.0608761668175522,1
0.0215845758750434,0.0364528801706817,1
0.0205710977580798,0.032559114931871,1
0.013736364701989,0.0211146817331641,1
0.0116286838527549,0.0273625144407954,1
0.0113705487015337,0.0268174013625333,1
0.0112264877245053,0.0327003794301505,1
0.00952772480049722,0.0222747293083557,1
0.00816339936998272,0.014792248646202,1
0.0075085765986082,0.0135276540939411,1
0.00840655552660151,0.0128017989158683,1
0.00794149892868534,0.0138134235023079,1
0.00579929185639407,0.0112237249361463,1
0.00572431371629459,0.0111776208426321,1
0.023572419211991,0.0109374068588179,1
0.0865183073116314,0.0298867241484078,1
0.0963678129374552,0.0245799040574043,1
0.132359442453241,0.0278730111847741,1
0.137838044258852,0.0211064002122638,1
0.159057069654097,0.0175736620426352,1
0.147169254114301,0.00876318193883537,1
0.157703953258822,0.00936484478937851,1
0.153870614779117,0.00894452422456587,1
0.137727014549372,0.00619666572187649,1
0.138895921590918,0.00695352326543418,1
0.126898184470286,0.00573025335321076,1
0.126655808323157,0.00597847611661768,1
0.113608371433325,0.00511881905633964,1
0.108856621067351,0.00498224424954486,1
0.0783922027617668,0.0040113139987049,1
0.0596344565543667,0.00643840053377296,1
0.0541968636432961,0.00625739587737158,1
0.0395099385925441,0.00262261485900116,1
0.0350876368845626,0.0044646857097738,1
0.0296558213305073,0.00551207552967229,1
0.0313393381177701,0.00697058691050125,1
0.0332564274060207,0.00768032676564791,1
0.0311605487811711,0.00841619696934931,1
0.0311164495056446,0.010846242412416,1
0.0405729491572118,0.0149966146684099,1
0.0420410077688163,0.018886451396533,1
0.0372694607859395,0.0163941494616879,1
0.038479628542701,0.010305790168124,1
0.03984772332259,0.00431791411866329,1
0.0436443909116163,0.00542238855059888,1
0.0476233424568147,0.0067627436837721,1
0.0458692288597295,0.0064274374410224,1
0.0452157226147819,0.00578239280081687,1
0.0443934963100529,0.00558213696737296,1
0.0445027567082078,0.00581573881954133,1
0.0442547036175154,0.00587194159196174,1
0.044152456604609,0.00624586472361049,1
0.0254493239529564,0.00489699099534987,1
0.0154107994056909,0.0158659757452778,1
0.0124535378749789,0.0101475614991851,1
0.0162062496265528,0.0156856076044363,1
0.0140576834248018,0.0173874818100383,1
0.0136162146893938,0.0200283671618356,1
0.0136770487857491,0.0193760760836963,1
0.0109712749389293,0.0233472370182985,1
0.00760943856214391,0.0203483211179028,1
0.00673658711976358,0.015395245393607,1
0.00615589844166822,0.0166834216317274,1
0.00595269996578103,0.023832074697769,1
0.00472831703657831,0.0318680461536632,1
0.00446039982180418,0.0312994332227117,1
0.00467993815847263,0.0362954821722934,1
0.00288434592236545,0.0311049705570151,1
0.00199037098495129,0.0260841613529913,1
0.00213367600167381,0.0305962124005883,1
0.00281173814481245,0.0243508231749936,1
0.00469971337565699,0.0222796945790449,1
0.00468584087334776,0.0103795952179864,1
0.00686899480700272,0.0164473879236185,1
0.00911367760240765,0.0236698238608644,1
0.0106283747509496,0.0274352807980687,1
0.0116033054982076,0.0307629897395261,1
0.0118683883157387,0.0327006988734485,1
0.0123701405021413,0.0335160503796496,1
0.0123997748235866,0.0341461836984649,1
0.0123330793008401,0.0441586437510358,1
0.00375359583047372,0.0395766032750545,1
0.000134181460775934,0.200723682975739,0
3.20916094746349e-05,0.277009001198794,0
2.68346787649578e-05,0.301704377292048,0
2.81389391873151e-05,0.306718194048553,0
2.34226118749974e-05,0.283525974710961,0
2.24306992089559e-05,0.286331210664152,0
2.13368347629792e-05,0.302141069031278,0
2.16178545343921e-05,0.387103958120405,0
8.60102547811919e-06,0.351265087204367,0
6.65634715690268e-06,0.389561615491435,0
6.18672078724747e-06,0.448643716713238,0
5.84263352996594e-06,0.441421197668733,0
6.52318373807584e-06,0.426226444121486,0
7.3902694971184e-06,0.477733123213941,0
6.5752054175228e-06,0.451051715803506,0
5.67770742927933e-06,0.437660742152365,0
2.88147852193165e-06,0.314019215925304,0
2.59012713640565e-06,0.305060051057457,0
2.74797357126514e-06,0.295094915255942,0
2.82509044511882e-06,0.286313913647137,0
3.51634735628528e-06,0.30163350902766,0
3.36794172689432e-06,0.298797700635519,0
3.27504153417722e-06,0.306379731406879,0
3.16444438459651e-06,0.298017835125727,0
3.37112965175848e-06,0.305494458754829,0
3.62044237545747e-06,0.292174154594529,0
4.43589655638514e-06,0.319566283757021,0
3.2664793949801e-06,0.284081132563433,0
3.48608944560791e-06,0.3042498405903,0
3.44098604881109e-06,0.312866114182619,0
4.34113328209402e-06,0.365558354445231,0
4.79437495426185e-06,0.385010161125447,0
4.77749021177326e-06,0.396078101954595,0
5.67221797278714e-06,0.443218497675807,0
6.6267032087632e-06,0.489766945254004,0
6.597641873762e-06,0.518623949490379,0
3.40485454111081e-06,0.37992020584451,0
3.82827388263984e-06,0.373924492673782,0
4.45019188261807e-06,0.411979755732969,0
4.67934804620474e-06,0.427313357436452,0
4.88924000371655e-06,0.445750524555465,0
5.10966955414326e-06,0.443529883668207,0
5.09517001527186e-06,0.42804459518604,0
4.31663460936202e-06,0.39359464988662,0
3.07112406577022e-06,0.327573760576442,0
2.38353525513132e-06,0.290426606037578,0
2.44210233598911e-06,0.288199061173198,0
2.24845841907473e-06,0.298259969326509,0
2.85838262444805e-06,0.337308349317742,0
3.06585714586136e-06,0.347943093445904,0
2.78992061336787e-06,0.337580444380208,0
1.72397037929026e-06,0.273639719380789,0
1.11149693787772e-06,0.23009321991325,0
1.47019588540397e-06,0.256579641361032,0
1.54138441117059e-06,0.255957602776372,0
1.3165959695723e-06,0.257408753614824,0
8.45929329698265e-07,0.216926230469799,0
1.78318652518271e-06,0.300724054693043,0
1.81429197350229e-06,0.298278982896123,0
1.64486326010068e-06,0.279512876502676,0
1.59222276116659e-06,0.267899013000041,0
1.68875131573566e-06,0.280467637724489,0
1.47579020784563e-06,0.259068687736626,0
1.45521153469035e-06,0.25723797236474,0
1.69746026726205e-06,0.278674032686648,0
1.22034889728868e-06,0.232078858250488,0
8.5966654830955e-07,0.195705772782993,0
2.16438087465029e-06,0.307890838374661,0
3.07978334395213e-06,0.358166771437673,0
3.0110619276285e-06,0.334655134975573,0
4.48173666407335e-06,0.408085243332279,0
6.94128759020361e-06,0.507545839836502,0
7.86889976758106e-06,0.535727517091734,0
7.86931746521561e-06,0.544151564419054,0
7.46008924628131e-06,0.545918623463337,0
7.47746321602051e-06,0.552697320774446,0
7.7983989416726e-06,0.566142265266947,0
5.61775832559262e-06,0.480640827083565,0
3.29943931482729e-06,0.387194757914001,0
3.26270311694677e-06,0.417646445043258,0
2.9964206541475e-06,0.41838759878081,0
1.93723129341059e-06,0.32292103028683,0
2.9178155668929e-06,0.380794238570763,0
3.19284429141953e-06,0.383319707735812,0
4.37744471768656e-06,0.421109312083866,0
5.86776934612993e-06,0.482527583350782,0
5.97416655924141e-06,0.482872945642802,0
5.63844186469737e-06,0.483348258083444,0
4.65441887115383e-06,0.433467048820827,0
3.37288190658166e-06,0.360971369269393,0
2.71188820458264e-06,0.317970080923383,0
2.53193381986884e-06,0.308715146605614,0
2.40678701653141e-06,0.307288720520265,0
2.95544014494333e-06,0.343083343736779,0
3.54728678524905e-06,0.418753902258501,0
3.69419625350397e-06,0.425998238987507,0
4.96024396541209e-06,0.496740756757985,0
4.92586029712661e-06,0.486611440724463,0
4.91835410284814e-06,0.484915454321305,0
6.27955850193573e-06,0.515801936042041,0
7.14696614425058e-06,0.530247140012723,0
6.07713918159856e-06,0.496496245855398,0
5.55603290310696e-06,0.452629868366889,0
6.83017935710071e-06,0.511764536941668,0
7.512831520379e-06,0.47917250742271,0
7.32078333206005e-06,0.438843041006006,0
7.14812298125114e-06,0.432610418018731,0
7.05435670617656e-06,0.429113486250255,0
7.28227015306931e-06,0.435251162340701,0
7.25517014247898e-06,0.465590538326136,0
7.12676057310503e-06,0.47154059051911,0
6.82060564783936e-06,0.451879175294466,0
6.72933937700033e-06,0.456844248590709,0
4.85858029087487e-06,0.405774031066157,0
1.64733677188586e-06,0.256919771923067,0
1.53047062546011e-06,0.267772025080895,0
1.57251414423636e-06,0.27907417282078,0
1.48000515670341e-06,0.279260644016502,0
1.84741305575605e-06,0.322671543831747,0
3.23563666346027e-06,0.424178975560706,0
4.21603394439689e-06,0.477516850281339,0
4.28709839718749e-06,0.451789937563567,0
4.39309182120087e-06,0.48491263832633,0
4.06302083634146e-06,0.466152103550026,0
3.8327252766174e-06,0.45280729896732,0
4.7552930706693e-06,0.36212639092739,0
8.82842806226017e-06,0.420134164349894,0
8.80089688703966e-06,0.399128804555882,0
8.88514045081991e-06,0.398940542648484,0
8.47852637442828e-06,0.394505792509653,0
7.7752710324781e-06,0.376620906206547,0
7.72658144097952e-06,0.384898086578644,0
8.80582624897641e-06,0.409108755265937,0
9.87264565619739e-06,0.435817733071773,0
1.02618813474414e-05,0.445247619201868,0
9.50958406440241e-06,0.616626833223583,0
3.27158338631904e-06,0.445445722188199,0
3.2111947287262e-06,0.451854237666601,0
3.00520378453499e-06,0.412117775242141,0
3.16265172878647e-06,0.38946437908433,0
3.12300489368925e-06,0.349495272410954,0
2.98156280488452e-06,0.345523369635338,0
2.76658959538702e-06,0.328977569736926,0
2.34667476350436e-06,0.301705476917845,0
2.11669380162873e-06,0.286241595058519,0
2.08685513397886e-06,0.281921808726504,0
1.96387740001749e-06,0.278754438346701,0
1.56149571334682e-06,0.262324553225966,0
1.50067434573087e-06,0.272320425595711,0
6.29963977933484e-07,0.194969383865648,0
4.7209612834325e-07,0.188053463826507,0
4.38415393074899e-07,0.187420243672949,0
4.87966209981722e-07,0.19638288044804,0
3.19581078355247e-06,0.347226496154475,0
1.25824303602187e-05,0.665090601312976,0
1.81506584005535e-05,0.806773355967321,0
2.13019541404784e-05,0.85348154314484,0
2.11611494158761e-05,0.728286913901397,0
2.01548034420892e-05,0.707637830723247,0
1.81413860429154e-05,0.655486641985364,0
1.84426769542887e-05,0.668642709571752,0
1.84215684321255e-05,0.672082078381236,0
1.96341431198459e-05,0.70255990593771,0
2.20938035481044e-05,0.915835954757294,0
1.71881004734014e-05,0.828445341274886,0
1.14849053199087e-05,0.661537922379859,0
5.3452675778138e-06,0.420241585100614,0
4.09797122229498e-06,0.417301545074117,0
4.03933106642818e-06,0.404343073642687,0
4.01038916822416e-06,0.419957129359904,0
3.80444568967325e-06,0.421736206954088,0
3.73904024505736e-06,0.415675461156432,0
3.36792516911283e-06,0.391476193695289,0
2.52295111302171e-06,0.359167406774436,0
2.47003420952183e-06,0.377945949192786,0
2.31317837153667e-06,0.366694024440431,0
2.16523856773182e-06,0.384917985378778,0
9.94341140660981e-07,0.272928758548634,0
8.43108766812916e-07,0.256920410879414,0
9.7177398833317e-07,0.259918999555323,0
8.89970379234267e-07,0.239413106443854,0
7.9746426171678e-07,0.229391869449533,0
8.44815101388749e-07,0.23363756302258,0
8.0980422434017e-07,0.221974322902268,0
8.5307103201339e-07,0.226319536459671,0
9.18437621035378e-07,0.213386562173643,0
3.47347109148496e-06,0.399812082921775,0
5.21331861706713e-06,0.472681744725317,0
5.39717511895364e-06,0.441548553549794,0
5.87536208241303e-06,0.477639186591798,0
5.76580895614829e-06,0.461938599008049,0
6.15266496303561e-06,0.467572919792273,0
6.58326684940746e-06,0.482333793275787,0
6.63925533176018e-06,0.480421345963466,0
6.30603417377842e-06,0.451985361061847,0
6.64508256699488e-06,0.503610159008719,0
4.44682734141795e-06,0.40216974105987,0
2.40974335322503e-06,0.300719022705145,0
3.34150932605394e-06,0.3853038432588,0
3.22187935474077e-06,0.36182526540044,0
3.26163458811418e-06,0.359860643876408,0
3.52440967125162e-06,0.380120419723017,0
3.61708048350239e-06,0.397962709843655,0
3.97962171941754e-06,0.445689883998148,0
4.07210222756632e-06,0.455402185930373,0
3.89195025332665e-06,0.439283813673605,0
3.87693234550921e-06,0.445947969527076,0
3.39931254125868e-06,0.412007948514128,0
2.38843746230642e-06,0.363145647938675,0
2.22697922337646e-06,0.370165824595303,0
2.90069371697329e-06,0.430759001208817,0
2.83069801378568e-06,0.378473813437075,0
3.11994170411238e-06,0.370157626476787,0
2.89234395892016e-06,0.346285998331859,0
3.04284955654574e-06,0.350251451762107,0
3.09515602983444e-06,0.344430865377619,0
3.07719591463025e-06,0.365466112956414,0
3.05788115212922e-06,0.348036700529283,0
2.98218339053501e-06,0.335171982282635,0
2.85830756250527e-06,0.329540680968586,0
2.41151680200853e-06,0.303923300894439,0
2.0286247280115e-06,0.293241732112079,0
1.97926046210954e-06,0.289780586009594,0
2.23533118913378e-06,0.30251481263911,0
2.21120892996781e-06,0.302699022116743,0
2.13354366239096e-06,0.29735018775751,0
2.06133959269254e-06,0.281124387827579,0
2.8017698033477e-06,0.333599810642138,0
2.87239183221672e-06,0.32722498037016,0
2.85281479445678e-06,0.320089440972059,0
3.09477475931918e-06,0.3394018623949,0
2.98287947966913e-06,0.341932548931008,0
2.84529093854471e-06,0.34095102759922,0
2.65251310398782e-06,0.343434100554504,0
3.17929274073143e-06,0.360745235693973,0
5.57204118702831e-06,0.492115018988903,0
8.2537511790552e-06,0.622312623410382,0
9.63155000752913e-06,0.710110050882988,0
9.31842447702379e-06,0.646070351855236,0
9.09099032271277e-06,0.643897647276701,0
8.26844035971732e-06,0.622948163087298,0
7.59409159270396e-06,0.575783708434949,0
7.46628516811735e-06,0.558288930491829,0
8.83418310556755e-06,0.521443752689485,0
1.45333032786487e-05,0.60252874788046,0
1.44102935329765e-05,0.54326860718369,0
1.3926861064339e-05,0.516116745665766,0
1.46739993842044e-05,0.528380157298923,0
1.45710320603374e-05,0.544250786615241,0
1.39208466157881e-05,0.523651941034825,0
1.25829167174539e-05,0.494311335940815,0
1.20896961714772e-05,0.484620785920369,0
1.29899096358861e-05,0.505676101947991,0
1.26396017304816e-05,0.557287343925349,0
3.81596460710483e-06,0.330441160616783,0
2.91002678647689e-06,0.317713200173536,0
2.88276274346453e-06,0.322033571380436,0
2.35176308014348e-06,0.291187550103595,0
2.73712999054821e-06,0.310661383355727,0
2.93679851145274e-06,0.311256771162607,0
3.13357184906999e-06,0.319247565124446,0
3.13635024480512e-06,0.318148892845386,0
3.42131341745931e-06,0.338401533104382,0
2.88343896326086e-06,0.319407884616199,0
2.74279164796796e-06,0.31620903423494,0
2.07392174046662e-06,0.272806554099167,0
1.85591161307222e-06,0.262605173318703,0
1.76507363684792e-06,0.263057170351598,0
1.60094650431112e-06,0.254379357646826,0
1.32245080110951e-06,0.244912132881663,0
8.01847658404988e-07,0.188317284161897,0
1.43093760624587e-06,0.235071144736053,0
1.3664706566852e-06,0.221200023340626,0
1.63529838165613e-06,0.243479274154118,0
1.65165482052976e-06,0.248454940950301,0
1.6752666584848e-06,0.246265095768825,0
1.78776353752922e-06,0.246329086407643,0
1.89598961279961e-06,0.250228664911429,0
1.77428837340642e-06,0.246753430516225,0
1.73358537262014e-06,0.258453896701475,0
1.75832225663527e-06,0.260106540231286,0
1.03367779331816e-06,0.218283016430533,0
9.12001500982426e-07,0.220189256128921,0
8.23984749954728e-07,0.210048630812594,0
8.32419946160371e-07,0.209692226824634,0
9.58174309693516e-07,0.225489733483135,0
1.05747684458932e-06,0.25229309679168,0
1.04749824237777e-06,0.255317876398381,0
9.18242459984137e-07,0.236305926602537,0
7.86234774305763e-07,0.193032157909135,0
3.42416245972883e-06,0.394334105133296,0
6.00414188378124e-06,0.517800963680998,0
6.54261705429239e-06,0.459113392897806,0
6.53790139812214e-06,0.457083111175907,0
6.50459310255226e-06,0.466201833072268,0
5.9281273166344e-06,0.460094979652211,0
4.96154231625185e-06,0.427204068592539,0
4.78599804144707e-06,0.427536770606414,0
4.86606153809589e-06,0.429513985801377,0
4.62296880020871e-06,0.450540955827761,0
3.62750945737065e-06,0.422188043408326,0
1.24064917894439e-06,0.245566168199802,0
2.66924683950915e-07,0.154810423619738,0
2.58300287495369e-07,0.161558352096388,0
1.98624497588566e-07,0.143616497870265,0
2.12378494751769e-07,0.145393583147719,0
2.20745693668067e-07,0.149008127848639,0
2.63113082650391e-07,0.152419541094078,0
3.08362187924388e-07,0.15454968736084,0
1.81233749297442e-07,0.135560139546192,0
2.00220005413581e-07,0.150723711248844,0
2.69596668343632e-07,0.172193222514617,0
3.03957376505444e-07,0.171395587391379,0
1.25275026797339e-06,0.297448572406681,0
1.47226053037139e-06,0.293615729277892,0
1.44396990490624e-06,0.296788390503066,0
1.4661946423127e-06,0.277616544430719,0
3.03199096344024e-06,0.372704599676241,0
3.78646415973833e-06,0.404335635317629,0
3.54550406410791e-06,0.376570588006195,0
3.45143820357344e-06,0.359759668507899,0
4.55764526141861e-06,0.394966298917794,0
4.7052093139687e-06,0.39378163620141,0
5.00686184728982e-06,0.391428013772866,0
5.58166964735382e-06,0.429368236913703,0
5.61134560720418e-06,0.428609286795159,0
5.73676351661732e-06,0.453088870597501,0
5.98900785072289e-06,0.495183416489721,0
5.71998562701198e-06,0.490808325269067,0
5.65980029897593e-06,0.49658619373526,0
5.38668410859737e-06,0.533975782780741,0
2.88589746265748e-06,0.411252885034148,0
9.82685345569031e-07,0.247262054690017,0
6.83760210016044e-07,0.231475709465136,0
7.70600917016643e-07,0.241257345284313,0
1.08759191680498e-06,0.251528681415272,0
2.06780816599723e-06,0.326121124192219,0
1.67873010483306e-06,0.288837503728027,0
1.62649957656882e-06,0.297958242340637,0
2.06972445324244e-06,0.333007310913623,0
2.62994153625161e-06,0.361882820896749,0
2.45561238183826e-06,0.33022004705305,0
2.0871255777433e-06,0.296540315822292,0
2.45418178951695e-06,0.322861272367809,0
2.7022626142726e-06,0.33634473515221,0
2.73635398252207e-06,0.371339112053255,0
2.27420643161326e-06,0.35736661643642,0
2.63584935268961e-06,0.354557964128154,0
3.00783978334925e-06,0.324026743809698,0
2.80367571438318e-06,0.311415935531357,0
1.84228500044133e-06,0.252159573883846,0
2.01627924612761e-06,0.272284719448184,0
2.65833283302826e-06,0.319916543482053,0
2.50388869111068e-06,0.313537936684444,0
2.7422776944303e-06,0.330551316320635,0
2.96883119553612e-06,0.34603016010128,0
3.19549464031109e-06,0.353149823151464,0
2.00034867339407e-06,0.293209675245582,0
1.03480283937825e-06,0.244587982488689,0
2.0848498762544e-06,0.344668833659106,0
2.42137905820876e-06,0.352294793720445,0
2.42849846271148e-06,0.363168809816734,0
2.22156041341866e-06,0.358048266342015,0
2.26038951488037e-06,0.364010953127627,0
2.19608726005299e-06,0.367714899765494,0
2.07373960487016e-06,0.363513656819795,0
1.81410674711995e-06,0.339082491086821,0
1.86262656616558e-06,0.34811828627076,0
2.13059416958036e-06,0.35080281202959,0
1.81624468786679e-06,0.334858735261956,0
1.75556637948297e-06,0.347936820165891,0
2.08002714643049e-06,0.376282057736922,0
1.88676229232717e-06,0.340582376204168,0
1.79337552160448e-06,0.329952360263533,0
1.87693778786875e-06,0.334708776677889,0
2.19157979038876e-06,0.355913960771363,0
2.6762150162742e-06,0.406558372018068,0
2.84643011391168e-06,0.428805839319648,0
2.67200823592196e-06,0.483802457412339,0
2.30405613778413e-06,0.447101129130618,0
1.86410771491306e-06,0.384787415609025,0
9.80836172531488e-07,0.281582684531037,0
3.34723942230387e-07,0.173164955008304,0
3.47523328097704e-07,0.179500794375477,0
4.39540439134991e-07,0.176786782265577,0
7.83656175800688e-07,0.216740422764969,0
6.82901192311998e-07,0.196967379646358,0
6.43428324305706e-07,0.194501382129234,0
6.61054634634921e-07,0.195414900851716,0
6.74618769236963e-07,0.182804741783333,0
1.75263521061723e-06,0.288106399349951,0
2.66581937873935e-06,0.359112510809221,0
2.84128770851967e-06,0.363747051854263,0
3.75179194451396e-06,0.402187750217571,0
4.34437949034904e-06,0.439315814949391,0
4.46231836024536e-06,0.435432579238351,0
4.56125552009614e-06,0.448095165197293,0
4.55397716089106e-06,0.442502380794684,0
4.19416884200453e-06,0.410523720410141,0
3.50885617439536e-06,0.39385288985906,0
3.33239592311819e-06,0.405316041037385,0
3.15354715666753e-06,0.384133437602381,0
3.17180751964285e-06,0.405973450684851,0
3.10994764797143e-06,0.407749287135399,0
2.85578790970232e-06,0.389332547469309,0
2.78789835632109e-06,0.39182550255943,0
2.37658010382106e-06,0.348326911644211,0
2.48625641998013e-06,0.342052618936454,0
2.89557957019503e-06,0.383605198917306,0
3.28302282639943e-06,0.416922374560299,0
3.70035839746576e-06,0.432255405996961,0
4.17461917977667e-06,0.473933111012763,0
4.12978335672882e-06,0.477166577696343,0
2.53929143565468e-06,0.393995883203804,0
8.72956927590848e-07,0.233540343602199,0
2.81465286120419e-07,0.151082249075941,0
2.06645528486375e-07,0.139538248041683,0
3.63061371024565e-07,0.167544732136684,0
1.70743842793276e-06,0.320176704621171,0
2.00569992760336e-06,0.335324384908899,0
1.87956937127461e-06,0.327579739723834,0
1.67407118666074e-06,0.307756506731173,0
1.73317915504742e-06,0.289879666921599,0
2.66296349258681e-06,0.350276700435084,0
2.37544446078081e-06,0.314576472588917,0
2.6245723996383e-06,0.324260945547387,0
3.04622094162887e-06,0.347786409183414,0
3.81493118076902e-06,0.421202099812639,0
3.35304767128247e-06,0.394090253085317,0
4.44464789583215e-06,0.409784114469981,0
8.54998975936775e-06,0.567746383019024,0
1.15176767018172e-05,0.631364195259819,0
1.18317762714154e-05,0.630012644269983,0
1.20684512131945e-05,0.624096640627842,0
1.2356203378564e-05,0.659900455086603,0
1.17329764307659e-05,0.613778180203851,0
1.08738339914333e-05,0.594014031709882,0
8.62441058485293e-06,0.499795050960451,0
8.03751869508227e-06,0.495644009386359,0
8.83368239825511e-06,0.584449691440171,0
6.94670021858966e-06,0.552955851620524,0
3.98164750879105e-06,0.436544994081406,0
2.78826593907031e-06,0.381902040194494,0
2.67441352964736e-06,0.399669503585619,0
3.94526189433742e-06,0.430908224992896,0
6.1845715872092e-06,0.585139494019497,0
8.04273770781001e-06,0.675072685924235,0
9.16974420923041e-06,0.706985698703502,0
8.69020811773467e-06,0.639274309253908,0
8.09139374220475e-06,0.561651192815008,0
7.83536363693778e-06,0.527859680177021,0
7.34626023852286e-06,0.506360780504204,0
5.83497632872022e-06,0.441078225848575,0
4.80863584030927e-06,0.372853305855178,0
7.32772788639016e-06,0.494070792042745,0
9.21459703160059e-06,0.563331592665766,0
1.02589883718583e-05,0.60251261585647,0
9.94448876625919e-06,0.565401587865431,0
9.74870690859796e-06,0.580047006673439,0
9.53166463872464e-06,0.612834581661943,0
8.96467608539463e-06,0.601446692282444,0
6.81641100986021e-06,0.523584888082249,0
4.09281049295811e-06,0.384741146006702,0
3.65831245021489e-06,0.391205596999342,0
4.4729330020368e-06,0.439210238358263,0
4.21332398749194e-06,0.379502986299822,0
3.89006928934864e-06,0.355975577667989,0
3.6306198918174e-06,0.365852635159866,0
3.56405474018548e-06,0.373256017374141,0
3.5157821840102e-06,0.334457522174165,0
4.85475102794075e-06,0.401880698048266,0
5.35804400355744e-06,0.423330120410671,0
5.35256536481583e-06,0.419244094350369,0
6.58348165902608e-06,0.450546799067976,0
6.81025703440396e-06,0.457828077523262,0
6.32382473730008e-06,0.454809080747857,0
6.57934795368284e-06,0.466455887070345,0
7.50988555989511e-06,0.505009556107163,0
7.01968427018177e-06,0.479772186053445,0
7.20256077217409e-06,0.532634922946935,0
6.50392725896568e-06,0.484062451863466,0
6.21222241999732e-06,0.474009170995509,0
6.32466521028885e-06,0.46533745156073,0
5.37193487838101e-06,0.448443028490302,0
4.38759574159609e-06,0.396073554283163,0
4.97235918374797e-06,0.423578122523772,0
5.19873805545162e-06,0.438348354790556,0
4.57175359510584e-06,0.382484013096481,0
4.98800628726229e-06,0.40741168062332,0
5.44241892573755e-06,0.441838097811386,0
5.42545073203024e-06,0.463702491247845,0
4.43089323635769e-06,0.40871021188193,0
3.86953035486896e-06,0.421296098332135,0
3.60274254857841e-06,0.40518847422557,0
3.98639937131016e-06,0.460682399464111,0
3.44073525361402e-06,0.47783904958306,0
1.73563964137782e-06,0.322243302285035,0
1.30664363904073e-06,0.329139374715198,0
1.338455994245e-06,0.336818203378859,0
1.29582058997285e-06,0.314013309058682,0
2.81333221255201e-06,0.421807308298487,0
5.41562291601551e-06,0.590337732630756,0
7.54544615528939e-06,0.677752161771823,0
7.26051300741231e-06,0.617175334561589,0
6.26904872609376e-06,0.564663313633713,0
5.66489016100799e-06,0.532235543326027,0
6.14811620930286e-06,0.583876379847675,0
6.76119191242105e-06,0.602710805362298,0
7.02472997812984e-06,0.614154732653711,0
7.34372557333135e-06,0.640500016177148,0
6.56929760108481e-06,0.645120671674378,0
4.62694178468622e-06,0.523712898628702,0
2.11435429748846e-06,0.349654469526153,0
1.78666586700121e-06,0.329072228383127,0
2.16471225105064e-06,0.314056876353597,0
4.57252695388695e-06,0.448108458424337,0
8.15617308190966e-06,0.583781597839044,0
8.68603732296088e-06,0.540367471403296,0
8.29225596876999e-06,0.493441549423988,0
8.80943827381729e-06,0.510231605546905,0
9.82663268527034e-06,0.562291467469111,0
1.03929783551375e-05,0.59215800803058,0
1.04971230476542e-05,0.576744093121576,0
9.69828625623652e-06,0.552911566361362,0
9.26270113994546e-06,0.589411587915195,0
8.50476538038078e-06,0.574886950552805,0
5.63356747459518e-06,0.481035958947962,0
4.00672261308955e-06,0.433185594113296,0
3.95509390499012e-06,0.477126314367957,0
3.79612529408598e-06,0.425182386100438,0
4.69230638677443e-06,0.449261548412499,0
5.0177767368524e-06,0.461557750822295,0
5.26791955733042e-06,0.509791710661289,0
4.73586880603996e-06,0.510686911927243,0
4.73236849103158e-06,0.520062814116962,0
4.70191718546634e-06,0.534528753764997,0
4.18662025980543e-06,0.476832331692612,0
3.69586549864925e-06,0.447600725986544,0
3.42396442866213e-06,0.399152115706363,0
3.04737424630272e-06,0.406579638342143,0
2.7077798878377e-06,0.399992216900889,0
2.5188421339655e-06,0.359583562833936,0
2.90883308081619e-06,0.393205694329498,0
3.30587455179856e-06,0.418278796249372,0
3.13207612947479e-06,0.404228125386596,0
2.5183873469004e-06,0.374040915251889,0
2.56973854658195e-06,0.397386921035669,0
2.57581569393206e-06,0.395062213475377,0
2.50740865468645e-06,0.417860004901693,0
2.0128804855124e-06,0.398320374458057,0
5.42951290775741e-07,0.222536913010703,0
3.4016306306682e-07,0.204344763855042,0
4.95395355383631e-07,0.24536985191459,0
6.74131308149702e-07,0.225667657603749,0
2.14356663945692e-06,0.363523399948473,0
2.44920672810327e-06,0.379336119288389,0
2.4520060970283e-06,0.386155206859469,0
2.74451255339151e-06,0.407899331762592,0
2.90478304746211e-06,0.38318761575515,0
3.42041267414589e-06,0.40794949804708,0
3.72932458041597e-06,0.425583682086418,0
3.60497851139172e-06,0.429999012234073,0
3.09357707979092e-06,0.373063071193268,0
3.7147543950102e-06,0.43210318661651,0
3.30625670539551e-06,0.40657963098647,0
3.22433432181067e-06,0.400142775795186,0
3.50335457553008e-06,0.414936776526316,0
3.38800909575698e-06,0.420052733111716,0
3.13886172910253e-06,0.432615350342876,0
2.82388327246251e-06,0.405122874691502,0
2.6286857941029e-06,0.392481938726675,0
2.49724902073054e-06,0.382844112855722,0
2.40939210748687e-06,0.402035330195074,0
1.29921625980218e-06,0.315396390470596,0
4.50782289689524e-07,0.197811132038783,0
4.77634154327823e-07,0.200919196406839,0
6.53207570828037e-07,0.223942668042396,0
5.20498939066306e-07,0.197963673605337,0
5.83482752945717e-07,0.212622247368233,0
6.08531585564243e-07,0.227894119674183,0
6.07887598249234e-07,0.222971058961412,0
5.71804218500511e-07,0.217039765548469,0
5.38397900864167e-07,0.21584467934034,0
4.22618165675012e-07,0.199594420007479,0
3.61338257896815e-07,0.188679006535911,0
1.49505021928251e-06,0.329826229208977,0
1.76865254612581e-06,0.338922711915307,0
2.0325632723035e-06,0.340473820964488,0
2.16950274839325e-06,0.348429207728894,0
2.34974082309669e-06,0.353308448016592,0
2.41595870285803e-06,0.347256125971625,0
2.41077324723412e-06,0.338818906351938,0
2.49902489798865e-06,0.346036709344567,0
2.58243880653071e-06,0.350056407613845,0
2.91163576129753e-06,0.373897285189964,0
1.40381794708816e-06,0.269228469296645,0
2.12350236138014e-06,0.333081920552324,0
2.95181973082649e-06,0.407024325524251,0
2.85841618155188e-06,0.374989207493805,0
2.6689518902281e-06,0.362708540265294,0
2.85325456913334e-06,0.363829277299332,0
3.51734148548634e-06,0.406124006701289,0
3.48043220359657e-06,0.368730632490389,0
3.73121614137415e-06,0.386959678011024,0
3.22087153777368e-06,0.359337657524707,0
3.15471988913833e-06,0.369046181445855,0
2.5225051567734e-06,0.348276602114675,0
1.9826055755127e-06,0.31740406322413,0
1.95237945577581e-06,0.320653333728573,0
3.54961635472041e-06,0.404550781946441,0
4.57022762996311e-06,0.471407851451298,0
4.17779761151276e-06,0.427360976204695,0
4.23706740461727e-06,0.462970806161672,0
4.08814451013235e-06,0.456254581875476,0
3.8997902524801e-06,0.444368209451386,0
3.89764944171779e-06,0.444245699447394,0
3.9647000675032e-06,0.457226640863824,0
4.03593120196087e-06,0.466405343784106,0
4.16947191743541e-06,0.503790304516864,0
2.39699275762053e-06,0.435563560801626,0
6.99652147926092e-07,0.23285597734932,0
6.6507095634587e-06,0.450130066189464,0
1.30801040663363e-05,0.413982088900472,0
1.24365971477611e-05,0.400609246060209,0
1.24350572740819e-05,0.402375840558091,0
1.26022484792772e-05,0.403657754586519,0
1.25646934439091e-05,0.404006402818072,0
1.22075098645454e-05,0.398215552815982,0
1.18563612653816e-05,0.395801198184847,0
1.16378497683635e-05,0.390238206587809,0
1.17861688557499e-05,0.390468348352711,0
7.39494011612297e-06,0.454266936914895,0
9.21112475443553e-07,0.274099678798642,0
9.91935626165151e-07,0.279508720957772,0
1.08686690674585e-06,0.297875180779143,0
9.47626119798481e-07,0.270864600939302,0
9.43343835962614e-07,0.262291222013154,0
1.17186351842856e-06,0.293665028790525,0
1.41948381608818e-06,0.270561944157674,0
3.68654346766665e-06,0.412493934310116,0
6.59623159231933e-06,0.55231873375546,0
7.70997862231722e-06,0.586363688234588,0
7.83218277672707e-06,0.562805472096171,0
8.07824752600768e-06,0.582059075933051,0
8.13214023476377e-06,0.558432357567469,0
7.85403198364918e-06,0.518330454142224,0
7.13728580287639e-06,0.502293514203736,0
5.83258737200588e-06,0.430082126260996,0
5.24820807038473e-06,0.432958971929964,0
4.59479297536194e-06,0.419114298934518,0
3.21591590415694e-06,0.340918769730257,0
2.3949446704346e-06,0.296112119463737,0
2.40899449996054e-06,0.305906857610916,0
3.21886341003376e-06,0.357397949815269,0
3.79229801808564e-06,0.412942639384496,0
3.35306731984985e-06,0.415037221847554,0
2.98396368320153e-06,0.373297795454397,0
3.3460271719279e-06,0.415027164002624,0
3.25470526694305e-06,0.403949590609352,0
2.63041663419535e-06,0.36383335756998,0
2.52574496268624e-06,0.384619067103744,0
2.49636483519862e-06,0.396738493798023,0
2.45930829943873e-06,0.417972276575209,0
2.06432242183656e-06,0.3872918723993,0
1.57699379682767e-06,0.334432329515463,0
1.63117085788465e-06,0.332838408525228,0
2.15939080084804e-06,0.397274742400834,0
2.0007628387019e-06,0.341781608136802,0
2.05779114973261e-06,0.341805147943976,0
2.04170140152628e-06,0.32910134435428,0
1.90039177497352e-06,0.306106497355528,0
1.91044897145457e-06,0.29708558107171,0
1.81545344668167e-06,0.281723366220794,0
1.90560195688446e-06,0.270978446407952,0
2.13005129511769e-06,0.281115430089361,0
2.46270352772722e-06,0.304000158250164,0
2.18877622682575e-06,0.276120260924809,0
2.68518646382991e-06,0.316610703584841,0
3.00081928399468e-06,0.341077040564353,0
3.14775877702672e-06,0.336671879407379,0
3.52956333593505e-06,0.374071140569519,0
4.12221534673276e-06,0.407461604250544,0
4.92229617946685e-06,0.455088414350304,0
5.21562699257818e-06,0.50913678558461,0
4.84218830796363e-06,0.51630711756734,0
4.31777378472899e-06,0.491246421583886,0
4.221719445022e-06,0.51686414070858,0
2.49564357823662e-06,0.442706687966767,0
6.09993085744347e-07,0.237389000897816,0
3.94162403935739e-07,0.209192449995974,0
1.18428384148481e-06,0.305133729624054,0
1.44436133086082e-06,0.325337760616583,0
3.3549586600376e-06,0.474992312913089,0
4.73209804726713e-06,0.552435513120614,0
4.578813833136e-06,0.47220266329271,0
4.03302056474418e-06,0.439879702565771,0
4.52668110616781e-06,0.460980831494562,0
5.00613794108278e-06,0.47824713199322,0
5.05744476590993e-06,0.486726454358841,0
5.38732368050399e-06,0.523903094310347,0
5.58098349288859e-06,0.5609711378632,0
5.70623096753753e-06,0.605473049899549,0
3.76050685684169e-06,0.529770364843321,0
1.20473071469938e-06,0.300507335128461,0
2.79676383407522e-07,0.188254630156777,0
1.99769633756873e-07,0.1626214294183,0
4.90136824750721e-07,0.236249712010671,0
2.6192785457382e-06,0.437156023525044,0
6.29366021251036e-06,0.648580611050046,0
7.32291509123514e-06,0.61693217239304,0
7.17801529611307e-06,0.577120384486063,0
7.06174545059161e-06,0.518430987417354,0
6.81329748462758e-06,0.489743495690832,0
5.82275867290949e-06,0.452720410016126,0
4.52588257955883e-06,0.3674259298632,0
6.09808411288053e-06,0.421135541577798,0
9.76656988481737e-06,0.531232504648668,0
1.175854341156e-05,0.604252152144408,0
1.27540915041069e-05,0.614365274982748,0
1.2613664959234e-05,0.615966151161385,0
1.36547659371527e-05,0.63004964547716,0
1.43410257098635e-05,0.675342191658111,0
1.46137893298813e-05,0.696531887438666,0
1.70503121350469e-05,0.764220537536763,0
1.88831022412668e-05,0.907590687323185,0
1.86375094991441e-05,1,0
1.38514547196991e-05,0.860735583534985,0
8.36326809897107e-06,0.683932163362231,0
2.89063541664014e-06,0.42258741942916,0
4.01917627247922e-07,0.180892885863481,0
2.76008945191228e-07,0.180632849968213,0
1.73914989105511e-07,0.160199658782217,0
1.21957995391597e-07,0.148789098438747,0
9.67336502892069e-08,0.138787825259578,0
9.43579398000705e-08,0.140078459702135,0
8.54522818295019e-08,0.141392056289207,0
6.95224376383472e-07,0.251787110114967,0
2.19465114847117e-06,0.442209917743039,0
2.69646959845298e-06,0.426850237558795,0
2.90692716978072e-06,0.419559647040619,0
3.03752457401642e-06,0.431871533220635,0
2.94686299335765e-06,0.418672047468643,0
2.91453050304397e-06,0.413442991581064,0
3.43096837023521e-06,0.421063667838089,0
4.26092738852433e-06,0.451166124498964,0
4.38881969280432e-06,0.450577054321107,0
5.0757786454351e-06,0.514052231420473,0
4.81600515692737e-06,0.47134367055534,0
5.0880877001997e-06,0.496327850919372,0
4.71291066929842e-06,0.492471531187803,0
4.23381037861167e-06,0.469292609058817,0
3.94885427061092e-06,0.466301989102605,0
4.20380856162145e-06,0.500694352055968,0
4.12949723826456e-06,0.486331616318099,0
4.45049742887928e-06,0.488655156569891,0
5.23511550139971e-06,0.513275359714355,0
4.39243679536488e-06,0.454162971294574,0
4.27702839602208e-06,0.462472174551905,0
4.23994956244978e-06,0.479670053884301,0
4.42123673818885e-06,0.489920522300815,0
4.42955426376067e-06,0.493937698427511,0
4.41720524955006e-06,0.493245650222452,0
4.51157334478945e-06,0.487886952868252,0
4.68257129433608e-06,0.472582331527554,0
4.10595957917063e-06,0.465475083999203,0
2.95939281854221e-06,0.386284746496019,0
2.85827996620277e-06,0.405617544364157,0
2.77135315873839e-06,0.402534426401096,0
2.66960007218108e-06,0.397609522798694,0
2.33751897264798e-06,0.382297352847497,0
2.2859706249814e-06,0.371710808124489,0
2.28504625923305e-06,0.368666641167046,0
2.16488356889652e-06,0.369392768567613,0
1.93768166506729e-06,0.390381991321613,0
1.66389808570921e-06,0.351139028131243,0
1.35099752026181e-06,0.32883451475473,0
1.28125504074589e-06,0.332726784565255,0
1.51706986096883e-06,0.356457189731785,0
1.55680235498899e-06,0.336526191682239,0
1.76925480783144e-06,0.326170904430236,0
1.80246750980949e-06,0.282115547222174,0
1.79440872716987e-06,0.272730914443078,0
1.51934379629437e-06,0.246083171419691,0
1.56535058564965e-06,0.259504631378147,0
1.45917767528485e-06,0.255151161414203,0
1.63471223619115e-06,0.278833778840637,0
1.72070297707492e-06,0.276627956308108,0
1.45604715072988e-06,0.250617207879868,0
1.40098435874804e-06,0.253313805000121,0
1.03748586229197e-06,0.218343162604707,0
6.40372861693528e-07,0.19570713456632,0
5.88604626688676e-07,0.191561925996938,0
8.45287550087453e-07,0.224374512675605,0
9.14300383365419e-07,0.232818745231031,0
8.98216595960429e-07,0.236424314292818,0
8.3645386327379e-07,0.228740104527737,0
1.61151986203403e-06,0.293405052946486,0
2.96384730330564e-06,0.413006984610021,0
3.30514049015221e-06,0.407542506585931,0
3.22704538256771e-06,0.431575201104309,0
3.34319005126106e-06,0.43575978778188,0
3.4540918640213e-06,0.449600667703956,0
3.05017361522774e-06,0.436662591750141,0
2.8001213106219e-06,0.418226600031434,0
2.664089642499e-06,0.407998042941078,0
2.5493658522285e-06,0.399066584054619,0
2.16044586268501e-06,0.437234825608713,0
9.04044935047245e-07,0.291759200008661,0
2.10562878818058e-07,0.182067759926171,0
2.91037891529672e-07,0.204496772884748,0
2.89852795915352e-07,0.203814496771433,0
3.11025783041147e-07,0.197233674459758,0
3.64685137463333e-07,0.201347869220075,0
3.26182776223164e-07,0.200733657546994,0
2.90529457252515e-07,0.187964543226151,0
7.98466559423376e-07,0.244372667671626,0
2.12762282049819e-06,0.380109119960646,0
2.41702171243011e-06,0.376514637266113,0
2.26482810417356e-06,0.361843897128475,0
2.35441475365756e-06,0.335088816908679,0
3.8012312723587e-06,0.427004976413153,0
3.76649790372801e-06,0.404015913017427,0
3.37578702453785e-06,0.382792039454496,0
3.31589752886453e-06,0.377167939491613,0
3.18588671163465e-06,0.367493873437156,0
3.36764854377662e-06,0.424786942209172,0
3.15708831420361e-06,0.354115174882994,0
5.44997391027884e-06,0.468738522910678,0
8.49136461588951e-06,0.582862004089644,0
9.07068010638815e-06,0.580014477664245,0
8.59141225095266e-06,0.564076002319342,0
8.52712942392224e-06,0.591923228725635,0
8.01863333104805e-06,0.572719302451866,0
7.41838240239549e-06,0.534767536959954,0
6.43288687015084e-06,0.493899915251726,0
5.12336681330852e-06,0.43473950036915,0
4.07375182414422e-06,0.392407340293262,0
5.57510194813058e-06,0.47527000915089,0
5.34036581217953e-06,0.476980646398889,0
5.69542182700609e-06,0.540671959495381,0
5.7204371025208e-06,0.522081100788984,0
5.6328431268473e-06,0.527120677495923,0
6.0721480039442e-06,0.511662604094749,0
6.38758323458311e-06,0.540528506644504,0
5.97928423834638e-06,0.527606729906264,0
3.5703345547811e-06,0.392585767166104,0
1.90652212799483e-06,0.319133441785719,0
2.01255727761759e-06,0.343827902914099,0
2.09252032372532e-06,0.324274702868589,0
2.1569718193566e-06,0.3259330725951,0
1.91529377832049e-06,0.317660920678459,0
1.04846941145515e-06,0.233451850788927,0
1.95950967802909e-06,0.29396584119931,0
4.01872369311831e-06,0.416625423217917,0
3.95461814473511e-06,0.397136914305652,0
4.45767710370664e-06,0.386953470176992,0
5.3427960529624e-06,0.395056961992295,0
4.59299612491392e-06,0.348894442119588,0
5.63236560042895e-06,0.399884642280111,0
6.03200487694293e-06,0.387693692788429,0
5.76278086906818e-06,0.383015161719729,0
4.70696399726651e-06,0.344441508362603,0
4.64162743302163e-06,0.371257913045911,0
4.12346601116182e-06,0.351148137845815,0
4.5187651619899e-06,0.368208372899211,0
4.29061306227318e-06,0.405557393515863,0
3.26024130599384e-06,0.359544400531818,0
3.22472354006105e-06,0.377348443048076,0
2.20867448554672e-06,0.313752959331488,0
1.98812483601158e-06,0.332675305869553,0
2.03452393440312e-06,0.349175255801493,0
2.12334340667778e-06,0.368584173380815,0
1.65358369168891e-06,0.333624192530115,0
1.37350727228043e-06,0.314878436768374,0
1.49563018317573e-06,0.313619354989117,0
1.89234778395203e-06,0.318581724343366,0
1.85945210829705e-06,0.316863268077633,0
1.79081546781468e-06,0.314653221164993,0
1.53990436627521e-06,0.279332831986013,0
1.95689553548641e-06,0.315206209631311,0
1.98940530444731e-06,0.303955227857455,0
2.01973761475621e-06,0.311462687391973,0
2.20502581281613e-06,0.312611442835975,0
2.77631055851848e-06,0.340239490605812,0
2.89245346104846e-06,0.358555991016553,0
2.88818994269829e-06,0.372352237885719,0
3.09459262372272e-06,0.400713740775891,0
2.96738139618828e-06,0.399036843893608,0
3.01273095200336e-06,0.427101717272605,0
2.41526261372391e-06,0.379427019865502,0
2.52648851746065e-06,0.394364695603013,0
2.60230924817877e-06,0.390518574643885,0
2.36516715619106e-06,0.408387662816431,0
1.08801491292961e-06,0.291227456249635,0
3.56126530592935e-07,0.171020344742909,0
1.14105522709424e-06,0.307883276281431,0
1.37438483469975e-06,0.318649417449051,0
1.35850371454028e-06,0.305084566105438,0
1.19476425486092e-06,0.296165012054389,0
1.44714127198889e-06,0.298394776861368,0
1.76107217298623e-06,0.336180382702256,0
1.735763272813e-06,0.3099561948344,0
1.64186519779769e-06,0.27952434222746,0
1.54010857891367e-06,0.254365025130602,0
1.76010100390885e-06,0.274408950516418,0
1.56669286980298e-06,0.256519364899999,0
1.89611832195445e-06,0.286058646950341,0
2.02493697891657e-06,0.295270227204707,0
1.90860443459585e-06,0.273473393386417,0
2.17110819088717e-06,0.31120471292072,0
2.19338127701559e-06,0.315908717681036,0
2.30656585591817e-06,0.307767855271627,0
3.45856180271413e-06,0.384205143993793,0
3.64411669144136e-06,0.387808811963954,0
3.71372825409824e-06,0.392940028477776,0
4.3475232611292e-06,0.445037350258646,0
4.29863034007385e-06,0.429199652722672,0
4.4753614766563e-06,0.41425100786579,0
4.99281201776388e-06,0.449426006778445,0
4.7503754095648e-06,0.4146762128014,0
4.51337637680921e-06,0.406007011389277,0
4.57489361278887e-06,0.432657897132096,0
6.12550225364601e-06,0.392855681009,0
7.39547239360548e-06,0.393987754376444,0
6.89376366652239e-06,0.382077455938974,0
6.17754556859414e-06,0.358538802168235,0
5.72127956244335e-06,0.343915838891595,0
5.54526791665952e-06,0.345855398462607,0
5.28216808023432e-06,0.336977461035654,0
5.25831052480188e-06,0.345742437811418,0
4.69162288155425e-06,0.32482317607617,0
4.01865304658394e-06,0.306592638018959,0
2.53985329637347e-06,0.287516588052411,0
3.28002586794854e-06,0.394198394399034,0
3.85291605614481e-06,0.401580716503794,0
3.23758054700797e-06,0.362710948853724,0
3.17893575496236e-06,0.365678913081982,0
4.4498371045532e-06,0.444271310281534,0
6.34785162364464e-06,0.543388036285901,0
7.74222324600375e-06,0.620091994234829,0
8.2556487008147e-06,0.58930577247985,0
8.70769821271477e-06,0.586906433338156,0
8.47644495090895e-06,0.620399774656682,0
6.17173489114092e-06,0.522244949336544,0
4.05494858670623e-06,0.429631296579234,0
4.17749625988952e-06,0.416979957683491,0
5.02998026335626e-06,0.461226667549919,0
5.12085996518993e-06,0.426563686381261,0
5.41936696156752e-06,0.432682847911143,0
5.331960640751e-06,0.427139918767717,0
5.60824753590096e-06,0.460387454186856,0
4.75467954967224e-06,0.420521120992632,0
4.47099728699463e-06,0.420297275726032,0
4.64473654284586e-06,0.456397143351124,0
4.60753694785384e-06,0.448844512014647,0
4.08283718923663e-06,0.436584971871603,0
3.13098441974811e-06,0.372337057277017,0
2.86956685392297e-06,0.401625798332088,0
2.16681928393869e-06,0.345705080661625,0
2.15092204753857e-06,0.338062189967185,0
1.86340721037054e-06,0.314905636545973,0
1.86023694713998e-06,0.328323600621513,0
1.78166585853006e-06,0.309205982700424,0
1.87828713667551e-06,0.309556311574267,0
1.80779072617545e-06,0.293361368355365,0
2.01204950565169e-06,0.325252231140393,0
2.15266348461117e-06,0.354365495151594,0
2.30067923344049e-06,0.367350890412869,0
2.30539246113611e-06,0.36352944721842,0
2.34364468949047e-06,0.358496103932233,0
2.91158652949387e-06,0.394253668485713,0
2.95349206675765e-06,0.380354503817857,0
2.73439795660127e-06,0.385225514145634,0
2.19139257707264e-06,0.347323517741398,0
2.23597054026997e-06,0.387251353876516,0
2.309860854436e-06,0.386595289889391,0
2.16815869807656e-06,0.381847710705127,0
2.14388808118838e-06,0.379459970940198,0
2.22078263922916e-06,0.379203534009226,0
1.84513735426716e-06,0.370382456528678,0
1.54308699264928e-06,0.310538401051137,0
2.24198189803493e-06,0.406993834157417,0
2.64813677195305e-06,0.441235384766853,0
2.97593315917566e-06,0.457648713959878,0
2.71175375539689e-06,0.442715860243997,0
2.59319319599799e-06,0.421559378997639,0
2.36681851893232e-06,0.385968934848564,0
1.8070930916484e-06,0.326272273937378,0
1.3471152724269e-06,0.291788906713743,0
1.42868486488065e-06,0.298989625938232,0
1.76454621631464e-06,0.378671410329165,0
1.96803583164776e-06,0.422586743552673,0
2.20604466830422e-06,0.450132008881143,0
1.91708820029388e-06,0.431580015204915,0
2.10616393567855e-06,0.360258448643487,0
3.37121795992646e-06,0.437933414140454,0
3.90905002620428e-06,0.459717006699986,0
3.90943328365332e-06,0.447091547621811,0
3.84347944531425e-06,0.446291713944985,0
3.74957894182433e-06,0.431833132648709,0
3.73391837131439e-06,0.433821803444141,0
3.5854802886717e-06,0.422530552473886,0
3.39831797051679e-06,0.408303203799298,0
3.32362537664463e-06,0.393656650411362,0
3.11178445786546e-06,0.431079614274537,0
2.14942080868287e-06,0.329820794171702,0
2.19716793125866e-06,0.345725594817782,0
2.32319428394919e-06,0.343109289567528,0
2.64836372394476e-06,0.373901420826896,0
2.94404154739063e-06,0.393999918736245,0
3.10582895501675e-06,0.403233259031066,0
3.36980326307538e-06,0.411354729244882,0
3.83992062614458e-06,0.398597799667144,0
5.18748229636063e-06,0.469892993930429,0
5.48551331171279e-06,0.4686786912082,0
5.175115399746e-06,0.477698929980265,0
4.85088136401978e-06,0.465048957905123,0
4.7310942041676e-06,0.486551309898786,0
4.21765175003432e-06,0.438700057672843,0
3.76146168890799e-06,0.39759479870599,0
2.99036602538023e-06,0.330422272106319,0
2.1286319620878e-06,0.279009669323562,0
2.67448241001839e-06,0.348107451944539,0
2.03713432384867e-06,0.2911413361472,0
1.77799555029831e-06,0.286826334544547,0
1.69180677834784e-06,0.277339889133739,0
1.86821117470877e-06,0.295435719708977,0
2.2607162551019e-06,0.333917164516212,0
2.24921522007433e-06,0.318019782056841,0
3.74211336930313e-06,0.384391514308698,0
6.42731992324126e-06,0.536355783052425,0
7.69653811915035e-06,0.546026163025496,0
6.96650950683137e-06,0.513748692572964,0
6.88063422887724e-06,0.512949924236218,0
7.06747488453029e-06,0.52218436447871,0
7.07601053127701e-06,0.51436201477158,0
6.22618570751865e-06,0.481034612555898,0
5.46376654226553e-06,0.451240330864497,0
6.11000681941021e-06,0.51794271026811,0
6.26022431163774e-06,0.595986185523409,0
4.38303352086772e-06,0.500016468370673,0
2.82989352637536e-06,0.435730415061563,0
2.74499317059575e-06,0.414096985961707,0
2.21740463103342e-06,0.383832940164029,0
1.0348851867449e-06,0.259360394410532,0
7.20741242292303e-07,0.231351255980046,0
7.04845772055536e-07,0.226939071677425,0
7.32004728347992e-07,0.230767216422584,0
7.31775127111239e-07,0.224404493064461,0
8.62388426817177e-07,0.242254647851598,0
8.60549629989369e-07,0.244142484985565,0
8.40765068034675e-07,0.246087709363038,0
8.00176867866767e-07,0.258065963803758,0
3.82498881879092e-07,0.196411549814152,0
1.48509612258757e-07,0.146579302618408,0
2.01859225781749e-07,0.164289431001763,0
2.15885874413595e-07,0.158076234445795,0
1.42947500221367e-06,0.33107695393169,0
2.24768903416119e-06,0.418838502072092,0
2.04060483485036e-06,0.366857376326377,0
2.07842987244211e-06,0.355231739672063,0
2.59623806163e-06,0.372345922066049,0
2.99745474279457e-06,0.398284045140759,0
2.59960878440188e-06,0.339991285115954,0
2.19381332472744e-06,0.305355328027158,0
2.11962121739733e-06,0.301488426908495,0
2.09818176037465e-06,0.307539439895841,0
2.07560577723004e-06,0.327043618208262,0
1.78082141167373e-06,0.307337808932134,0
1.92572915453093e-06,0.333636565630363,0
2.01892341344741e-06,0.359236936766966,0
2.10114339555835e-06,0.330885857807645,0
3.16941083596382e-06,0.397928359792325,0
3.72098387395006e-06,0.42242518676317,0
3.79238279392691e-06,0.406397513552248,0
4.30857383978862e-06,0.432505491375641,0
4.50827393086322e-06,0.426292567159202,0
4.03083405450495e-06,0.378143667785904,0
4.05969492996484e-06,0.366557631263464,0
3.01540492332986e-06,0.306822796134606,0
2.49153614457336e-06,0.27219744564203,0
2.43221424964974e-06,0.28776725822055,0
2.11357718561022e-06,0.271343490535657,0
2.45839784222684e-06,0.309792804884007,0
2.87086939940071e-06,0.361351566100367,0
3.09167955803141e-06,0.382684373669885,0
2.78907395880735e-06,0.356524571281735,0
2.74723950961879e-06,0.375271289617232,0
1.45882002720452e-06,0.294513528499582,0
6.13961434043039e-07,0.211212217574817,0
5.96287437303115e-07,0.217777444554164,0
3.47367905722056e-07,0.181812495049579,0
2.13215656184238e-07,0.155937778341407,0
2.1758315740221e-07,0.159037761615355,0
3.4670669831429e-07,0.174167947301655,0
1.06414411127197e-06,0.288088334299551,0
1.73294602148395e-06,0.365672635222999,0
1.78832937211557e-06,0.35665466912345,0
1.82885399040252e-06,0.357204012451284,0
1.83975673759201e-06,0.341428139126411,0
2.01684441840269e-06,0.36155395844402,0
2.01362492336849e-06,0.371066716920736,0
2.20881423322255e-06,0.389058352631201,0
2.32240502969785e-06,0.384329057274864,0
2.2627131235504e-06,0.410087401382517,0
1.41907759851547e-06,0.350480560764116,0
1.13512202205795e-07,0.139363458784607,0
0,0.111770209198001,0
6.97811143394077e-09,0.115568566593491,0
1.81393807851909e-08,0.119516261728969,0
6.68203180833067e-07,0.282239589077752,0
1.34106726677223e-06,0.368162059463622,0
1.30104158963437e-06,0.336120616120934,0
1.25149894123308e-06,0.333335349204597,0
1.23624260136209e-06,0.320298450570675,0
1.16917541779518e-06,0.30541874580961,0
1.65634420502003e-06,0.317147124513953,0
2.3823689250027e-06,0.360691397337692,0
2.03253148136302e-06,0.318541871784931,0
2.38154765904046e-06,0.319312194206946,0
3.58741512063219e-06,0.380471961167109,0
3.83014601580107e-06,0.363939195379049,0
4.87429362551517e-06,0.417460651538726,0
5.98587644308625e-06,0.473186945596209,0
6.50373651332283e-06,0.493666885235281,0
6.75832741622212e-06,0.496960247260598,0
6.45151106277825e-06,0.515277448999118,0
5.81556508954567e-06,0.480701229889842,0
5.8069305376508e-06,0.463343335470474,0
5.82035669074038e-06,0.482765686101677,0
5.45867314790675e-06,0.476371795808971,0
5.44130094433091e-06,0.468413940402302,0
5.01348495988846e-06,0.449025318042728,0
4.45672315472202e-06,0.418314254263355,0
4.12843754024878e-06,0.384268325347071,0
4.52366427837912e-06,0.398077422425713,0
4.88035156583874e-06,0.401700810228986,0
4.92201204793637e-06,0.394673375854949,0
4.50029793713107e-06,0.386716549801826,0
4.05208828514529e-06,0.379258310805987,0
3.89268762652931e-06,0.365275827338327,0
3.65880167746551e-06,0.361170607325061,0
3.74074172268395e-06,0.35681871297913,0
4.04146635792998e-06,0.369070283699099,0
3.86344437670205e-06,0.364110791809263,0
4.07832265491897e-06,0.356428963633479,0
5.39171767417235e-06,0.425781839878686,0
6.14838201688848e-06,0.480016347374243,0
7.05795526402183e-06,0.513223110407144,0
7.32574095261056e-06,0.486598031227101,0
7.20548796717228e-06,0.499089813241045,0
7.50373997371483e-06,0.513736249877708,0
7.62745552241968e-06,0.549750185145975,0
6.23613914190232e-06,0.509661293277938,0
4.49349820819645e-06,0.43864741696385,0
4.02545608707483e-06,0.448317754278395,0
3.89032008454571e-06,0.427566819205536,0
4.38663318256509e-06,0.42003967276877,0
4.20794491620973e-06,0.41161543074583,0
3.57492393027112e-06,0.413782249853172,0
2.55650380144649e-06,0.352458585586659,0
2.44394687284783e-06,0.378338607139365,0
2.39901589774899e-06,0.368907778470538,0
2.43358501318724e-06,0.336295046286701,0
2.84865812898987e-06,0.3598882396521,0
2.97633032516117e-06,0.351059341898617,0
3.06718000221772e-06,0.360958793101571,0
2.37671720225185e-06,0.352629318529458,0
1.96149307948197e-06,0.337945797538781,0
2.05844992866575e-06,0.371768986135824,0
2.04833511110509e-06,0.367853709959947,0
1.98151055422972e-06,0.361690338791116,0
2.01364589655838e-06,0.367709603839997,0
2.08077533738371e-06,0.426802604200741,0
1.10934553013525e-06,0.315667949897102,0
1.16974500547867e-06,0.277946545634644,0
3.87653849108001e-06,0.502774547271866,0
5.16030722382751e-06,0.526364281181767,0
5.43270502725953e-06,0.494239970870467,0
6.52927523550324e-06,0.528374806754687,0
6.55933710204769e-06,0.493295241424275,0
6.84665655739406e-06,0.491778307854653,0
6.8766265834438e-06,0.488240328426383,0
6.04011531986082e-06,0.46279886015151,0
4.90691289660438e-06,0.392874358073686,0
4.9800640714044e-06,0.432589594572462,0
4.53702530419481e-06,0.395953331755593,0
4.92164115363085e-06,0.42304058286098,0
4.8669976046765e-06,0.433624776617635,0
3.80144475735481e-06,0.391763402904179,0
3.34157401178699e-06,0.393222166758375,0
3.02150370618112e-06,0.386307998354724,0
2.47824576529206e-06,0.340888539530366,0
2.57233811827693e-06,0.329502889925103,0
3.13423526418195e-06,0.418812024558517,0
2.61655953724603e-06,0.386657643099017,0
3.09673674604132e-06,0.454089725701843,0
3.44195103631671e-06,0.467396469769273,0
3.35654820706128e-06,0.484966876408267,0
3.14809081573834e-06,0.464338443223948,0
2.66328338892533e-06,0.410566594754986,0
3.0323124051717e-06,0.361770825818011,0
2.75918870859886e-06,0.328463765248005,0
3.85643425355722e-06,0.390606746799789,0
4.73244885146444e-06,0.422564230620816,0
4.56167211387859e-06,0.39045070462973,0
4.0409188472885e-06,0.367899163230302,0
3.33841081320987e-06,0.335990521118803,0
3.76217941354326e-06,0.347925182309519,0
3.59599249298828e-06,0.331629081982167,0
2.87480352828431e-06,0.289692962764757,0
3.159285421423e-06,0.352155236437489,0
3.66283471149725e-06,0.406897158932134,0
3.37784924103065e-06,0.398697088670999,0
2.68711047803982e-06,0.357251010300345,0
2.65924218638805e-06,0.37709566881177,0
2.6191337203427e-06,0.385545618535158,0
2.63622024699513e-06,0.389247776569518,0
2.02249194651556e-06,0.369581034334816,0
1.09620196318323e-06,0.279239782114725,0
9.32896979690337e-07,0.284010207911063,0
1.07508019479486e-06,0.285860048467893,0
1.09597942659991e-06,0.287124860362721,0
1.84753999874753e-06,0.340292708110239,0
2.98348328676771e-06,0.423828875848034,0
3.37980703311481e-06,0.434719129671978,0
3.38003133586148e-06,0.431414691404104,0
3.47901507827087e-06,0.444307222962379,0
3.26245430868348e-06,0.437961212875469,0
3.04499014653762e-06,0.41557642753924,0
2.79495417894285e-06,0.390512884111538,0
2.5356672684407e-06,0.362484235191621,0
3.36667892009218e-06,0.405517925449441,0
4.38271671531509e-06,0.477754230986449,0
3.77320137675952e-06,0.412288636501047,0
4.87049460812859e-06,0.44702937215972,0
5.81837351005792e-06,0.48905334708267,0
5.24372554777796e-06,0.420377491568677,0
5.12910706499778e-06,0.414590242936448,0
4.93093801678557e-06,0.414074377566882,0
4.95002163265691e-06,0.421124052555725,0
5.9977148153155e-06,0.486329023511526,0
6.04553744137492e-06,0.488286839332764,0
5.71034612816548e-06,0.434897612087401,0
8.27914220582465e-06,0.552487224129199,0
1.01887127317782e-05,0.642800875861555,0
9.70622979671693e-06,0.609565489287178,0
9.77508257144042e-06,0.676304436503994,0
9.32003521800778e-06,0.663709723411033,0
8.33523908645357e-06,0.600434605294833,0
7.69891095962403e-06,0.553229696771717,0
6.39775456937129e-06,0.490145782350274,0
4.80136542883931e-06,0.423872071287096,0
4.63860729367665e-06,0.466285756593014,0
4.53547284660168e-06,0.47382892362448,0
3.40572349348376e-06,0.418086251372517,0
3.07911573420218e-06,0.374489387606985,0
2.86615374323047e-06,0.359137040879563,0
2.44685684775326e-06,0.321786126657843,0
2.05844750019113e-06,0.292875907179789,0
2.07461495958529e-06,0.28661742430943,0
2.0814279347451e-06,0.284723061743218,0
1.85666576482679e-06,0.272572900034977,0
1.71765568296828e-06,0.262976118953487,0
1.72454261621878e-06,0.245534094361387,0
1.49800743905781e-06,0.219804581766329,0
1.46257312434375e-06,0.225897829950231,0
1.58109593200085e-06,0.225079149452924,0
2.34936816262781e-06,0.279411423463977,0
2.40343130614809e-06,0.278217613012439,0
2.57159456350251e-06,0.299929308110104,0
3.18570722528322e-06,0.347630212249486,0
3.73301475798552e-06,0.376740912852824,0
3.69593172977524e-06,0.372889595684079,0
4.09138983530569e-06,0.415843515784208,0
4.05534509038046e-06,0.427523884379282,0
4.43510884752673e-06,0.428417213908008,0
4.53554901239657e-06,0.468686105053533,0
3.54185406675479e-06,0.421992042469182,0
3.26552743292925e-06,0.434358357567759,0
3.28207638360908e-06,0.431948783567037,0
3.34596888853703e-06,0.410974853820617,0
3.19401371233404e-06,0.382696819909297,0
3.18086462612151e-06,0.38437526457297,0
2.26811140185914e-06,0.324834576430976,0
1.51263060936438e-06,0.263507362975366,0
1.66188973719888e-06,0.296653709660196,0
1.80249400225989e-06,0.279255734563542,0
2.47435843973749e-06,0.327911677785769,0
2.47862924351152e-06,0.306744303902589,0
2.55063903524038e-06,0.314633017790158,0
2.30232640154378e-06,0.310207100749139,0
2.31275625849372e-06,0.330806377167625,0
2.35958983307173e-06,0.35894968274869,0
2.0439232350327e-06,0.360927085196545,0
2.29307170553926e-06,0.363532105806934,0
3.00004040595308e-06,0.405503127906718,0
3.54343147140537e-06,0.445399132418749,0
3.33652101841505e-06,0.411510029257073,0
3.56339242892562e-06,0.455391205991297,0
3.59527719682763e-06,0.418664298961919,0
4.98932207896522e-06,0.463688112275936,0
6.40246316088809e-06,0.515361897328995,0
6.1371163231286e-06,0.459071776243358,0
5.64188588324867e-06,0.42027640011675,0
5.83143053500532e-06,0.449055415191419,0
5.8932003323454e-06,0.426501430542313,0
6.39121976494062e-06,0.464373653847316,0
6.4639112957263e-06,0.477607693445346,0
6.70663887933887e-06,0.475426576933786,0
6.66155733881362e-06,0.501788133497935,0
5.92574299609888e-06,0.480283436610945,0
4.83545569323667e-06,0.439176996789443,0
4.54461649508496e-06,0.416306911328857,0
4.55539009157877e-06,0.443819413354368,0
3.1563105400141e-06,0.34544226443623,0
3.84092027460613e-06,0.405194547835941,0
4.88225019145035e-06,0.422495145588228,0
4.68575038838344e-06,0.39411332544134,0
3.74868945780233e-06,0.353965016813168,0
3.76218493280376e-06,0.348839514181255,0
4.7792916984001e-06,0.414341638368731,0
4.2404619705945e-06,0.375519447593239,0
3.99467826205848e-06,0.396783466377922,0
4.51397091155015e-06,0.39389473514045,0
6.97294982152231e-06,0.511630681698609,0
7.49501887981534e-06,0.492773119590208,0
6.96735991448905e-06,0.476760612445251,0
7.49350329088235e-06,0.51739406044893,0
7.52345035680842e-06,0.501719990870022,0
7.43901891740078e-06,0.502278080285722,0
6.15579526682016e-06,0.459837599386438,0
6.05298159916538e-06,0.468959273283722,0
6.73344040832143e-06,0.501428400722601,0
7.0382411278311e-06,0.595233746934488,0
4.94620296670295e-06,0.495756473710316,0
3.73664422368957e-06,0.494084132183692,0
3.21368501906329e-06,0.524069109564314,0
1.27766796296246e-06,0.335541722114015,0
5.1104599122467e-08,0.113048120767835,0
2.93103640349191e-08,0.108898660794473,0
9.5318732667715e-08,0.128581501972608,0
6.24072719276982e-07,0.229416296079163,0
9.83762484447992e-07,0.267920429923227,0
9.80201899114956e-07,0.242712583284082,0
2.33573757612936e-06,0.34206541088962,0
4.83278900733404e-06,0.487151289249977,0
5.61004571097149e-06,0.443715991851657,0
5.11256495820096e-06,0.414454422462118,0
4.97324116157569e-06,0.39547508059673,0
5.20072300229743e-06,0.404553722347765,0
4.87699254389913e-06,0.395702112395605,0
5.10421100550986e-06,0.42371714863064,0
5.1245591943467e-06,0.413175051189442,0
5.0792127293175e-06,0.411220740709069,0
4.42031722938973e-06,0.408198947553997,0
2.29438308183379e-06,0.285725032255864,0
9.89970548657129e-07,0.208909302318682,0
1.07119309001071e-06,0.224497190182233,0
9.78375686201088e-07,0.222424792739889,0
1.05169619191322e-06,0.237556696347336,0
1.16161513476382e-06,0.252939554829054,0
1.21119840492238e-06,0.262026983204877,0
8.40931087390479e-07,0.236130093075285,0
8.05728140076537e-07,0.247625288783275,0
5.45618197448798e-07,0.199416114990675,0
1.46499607970276e-06,0.306612220997676,0
1.35114918954032e-06,0.289750727652558,0
1.38510014780269e-06,0.303568198436727,0
1.32522191142079e-06,0.300212756275491,0
1.14657117603682e-06,0.277238923922139,0
1.09975636694451e-06,0.269317637531516,0
1.25833024033775e-06,0.292809751563243,0
1.3736607077223e-06,0.294720361654145,0
1.29972579793144e-06,0.282020695174926,0
1.33137014684612e-06,0.28532255638531,0
7.99556282216274e-07,0.226119621274114,0
9.36544327798415e-07,0.243529796970893,0
1.03880319938784e-06,0.243405742410018,0
1.06228279586132e-06,0.249830678457852,0
1.06172799979598e-06,0.245983215730893,0
9.68518728490932e-07,0.239519189210781,0
7.5723989120096e-07,0.212068127417979,0
5.28064079046907e-07,0.182258730208612,0
6.22264167996711e-07,0.19782813320153,0
8.38299503984616e-07,0.243111722975648,0
6.66233025605388e-07,0.231143274936723,0
5.2387120723112e-07,0.227146159432778,0
4.63694710011859e-07,0.235206430424776,0
5.21351112887333e-07,0.242036587932704,0
5.05139278638769e-07,0.243985852442812,0
4.40145570856087e-07,0.217967044737914,0
2.25613902198496e-07,0.167863175403773,0
1.19807691501235e-07,0.140492094711061,0
1.12733103393773e-07,0.136211329261024,0
1.14527746137588e-07,0.14285738232086,0
1.23138675597517e-07,0.150307994162469,0
2.09838531070185e-07,0.16659573245798,0
1.77447315824793e-07,0.151359237855301,0
2.33831197999646e-07,0.167525888478332,0
2.77618803093541e-07,0.185852644516992,0
5.7801228270965e-07,0.227781273977765,0
2.566077069167e-06,0.434744521248966,0
4.39161111399424e-06,0.53720849528432,0
4.34979609260264e-06,0.479129865357592,0
3.97495794429599e-06,0.46129967004497,0
3.79854935329709e-06,0.452330467427502,0
4.06554203453735e-06,0.483995662959126,0
3.90843893368184e-06,0.45484048557876,0
5.40445104968409e-06,0.484802899369782,0
8.04498007296549e-06,0.575427953348269,0
1.02776092529294e-05,0.646826842693171,0
1.03015193517218e-05,0.611512008324041,0
1.06516349660907e-05,0.612688597292435,0
1.10058973112575e-05,0.656959145907694,0
1.10813433945729e-05,0.65582585746657,0
1.11500241891393e-05,0.657938225197472,0
1.09742255868107e-05,0.626435973650016,0
1.05669860678194e-05,0.612763475820709,0
9.75033177888884e-06,0.645512831147521,0
6.70708925099558e-06,0.540246865720623,0
2.60063911995181e-06,0.346158615782113,0
1.40229573504258e-06,0.268391087656783,0
2.09684212546637e-06,0.345672326507505,0
2.19807044073544e-06,0.338764145960933,0
2.15704798515148e-06,0.317509309396472,0
2.01972878393941e-06,0.300151887809374,0
1.83966401401563e-06,0.295250318712989,0
2.34910390043513e-06,0.355189784622728,0
2.78346352012503e-06,0.407396955859466,0
2.78756653837989e-06,0.423188780234894,0
2.88581467374999e-06,0.439956457267919,0
2.64892801313816e-06,0.427836019056232,0
3.19441441064625e-06,0.417093821871406,0
5.92799926979082e-06,0.596441631389316,0
7.68365726899807e-06,0.559308778236509,0
7.45226514259809e-06,0.548848673055497,0
7.31855774545649e-06,0.547270079592586,0
6.69975062146587e-06,0.518123801774409,0
6.04097522064655e-06,0.464708869312161,0
5.48276162919846e-06,0.435859107104803,0
4.46627390385969e-06,0.370421839528525,0
4.61032836904376e-06,0.386497582916071,0
5.30300439246968e-06,0.452035567194322,0
4.06443707858548e-06,0.405882192600795,0
2.91324120379143e-06,0.406224266085466,0
3.09305606159982e-06,0.439026935025181,0
3.05726476111671e-06,0.45668841092917,0
3.06993632091087e-06,0.461414335529988,0
2.81587261777444e-06,0.486212972292758,0
1.20965941432487e-06,0.321486953253129,0
1.34214948337085e-07,0.142418463231093,0
1.08320565010131e-07,0.143970097032167,0
9.55324384342309e-08,0.14160598199616,0
1.52047899779378e-07,0.161384000917685,0
1.58129020997041e-07,0.164529326533381,0
1.62655697687801e-07,0.166044082190588,0
1.36864193376546e-07,0.15504825353673,0
7.39669215017575e-08,0.132809991391463,0
3.74824018999768e-08,0.123789298342575,0
3.23358018699838e-08,0.133446875646392,0
1.66968668612032e-09,0.122533851932537,0
7.08308776862955e-08,0.148659593976652,0
2.49133899658834e-07,0.213866862672745,0
2.05986528782808e-07,0.18772854027115,0
2.54246942584994e-07,0.200484646836728,0
2.29724868188481e-07,0.181044027525285,0
2.29173825220273e-07,0.18088805147126,0
1.18672710772245e-07,0.149214726830801,0
6.75133605856297e-08,0.129889054127001,0
1.30311948082698e-07,0.140583169126075,0
1.28030948103722e-07,0.128279636892507,0
2.51692408055693e-07,0.160974143100529,0
2.89034399968579e-07,0.172615939611071,0
2.83635900889417e-07,0.177640550981894,0
2.58952222545497e-07,0.180959649651863,0
5.12532438462226e-07,0.219227157960542,0
2.55321608835251e-06,0.432201460563225,0
3.70432100573353e-06,0.498305109958504,0
4.60817166281122e-06,0.569116359798457,0
5.33764327136064e-06,0.617912035729986,0
5.32095567685708e-06,0.582307426690831,0
4.54856364942334e-06,0.529355851255596,0
3.92702073838861e-06,0.479890198818311,0
3.32120131743353e-06,0.431094080647054,0
3.54538815963744e-06,0.42378437287645,0
4.1970505582962e-06,0.481051480676394,0
3.67034973659252e-06,0.492253302319652,0
3.17887327693351e-06,0.47015450992793,0
2.21133808066348e-06,0.401339736339703,0
8.81886870307609e-07,0.26518010270933,0
1.8896601248595e-07,0.164071011226904,0
2.1104504141524e-07,0.168491033466287,0
3.26770908621925e-07,0.20705982845282,0
2.03653647755143e-07,0.169613541965619,0
2.21945580900523e-07,0.191253129066317,0
8.89541422308294e-07,0.30231193364542,0
2.77561292399143e-06,0.501500701993318,0
3.39031570510467e-06,0.452575304025086,0
4.13655835937641e-06,0.420187548441106,0
6.32203362688299e-06,0.508125811366644,0
8.24302416511999e-06,0.56100643036514,0
7.61455612755213e-06,0.51083383691062,0
6.89932354877855e-06,0.455686940745215,0
6.36153033809464e-06,0.420160375104009,0
5.63724793826625e-06,0.394860102392141,0
5.49857055743061e-06,0.402767873018126,0
5.49312194346612e-06,0.395170598847383,0
6.60546509436352e-06,0.430296670545914,0
7.57277046862639e-06,0.503887492052595,0
6.37780023496365e-06,0.4641220591514,0
4.57747927594738e-06,0.393953938262639,0
4.1923850170113e-06,0.398116374895143,0
4.44868909836943e-06,0.428319242371682,0
5.07983795114681e-06,0.506155248565032,0
4.61875627982555e-06,0.47690254874053,0
3.02694967090057e-06,0.387278539091011,0
8.91468306533661e-07,0.2133086016381,0
1.87882868651566e-06,0.321301893935851,0
2.04851106512979e-06,0.340158779788236,0
2.6921440436148e-06,0.375431730060635,0
4.38381239890933e-06,0.458397321414934,0
4.3249163701258e-06,0.404994891737198,0
3.85863952928215e-06,0.373542409999407,0
2.77314912610472e-06,0.306350639374246,0
3.11349763632431e-06,0.312382693037498,0
3.50579784176773e-06,0.327813810269259,0
2.92621566060178e-06,0.292148374824393,0
3.07065934403622e-06,0.300097820457686,0
3.13717835465037e-06,0.3056393200229,0
3.50463416088414e-06,0.308494669810244,0
4.72983912433015e-06,0.373166149039763,0
5.7800044941514e-06,0.449375316802852,0
6.73709371723084e-06,0.503331523034324,0
7.45858469586931e-06,0.549822928513953,0
6.99584548023502e-06,0.581065872814857,0
5.2968552739627e-06,0.507613072742452,0
4.82739668982663e-06,0.518130508235222,0
3.54807206563283e-06,0.494593854434888,0
1.23031712329049e-06,0.293861281816642,0
2.86361311723762e-07,0.184243322522015,0
3.48715488365462e-07,0.177737639025643,0
1.52525072965069e-06,0.324769142157609,0
2.1782964757609e-06,0.365203242425181,0
2.16833708057589e-06,0.348508047357694,0
2.03884551537374e-06,0.325980208458459,0
2.28540545270632e-06,0.331333340202283,0
3.96387107457627e-06,0.426737430644029,0
4.6569831195816e-06,0.438845267623521,0
3.90134889164498e-06,0.393931742085856,0
3.57125914129988e-06,0.378447144368228,0
3.37378441605843e-06,0.384272759209826,0
3.559048770913e-06,0.414240113730711,0
3.93683000968806e-06,0.441433046714832,0
4.1362916687091e-06,0.47778614116415,0
4.7183060775917e-06,0.514939433790377,0
4.53209947458477e-06,0.521928591825708,0
2.37558244229328e-06,0.380081613782476,0
4.90347660501778e-07,0.18802924203627,0
3.36379058068791e-07,0.166222456338136,0
3.58389868938314e-07,0.168952221242976,0
3.63948647342363e-07,0.173347174752737,0
3.45708816016093e-07,0.172439720005703,0
2.96203257045362e-07,0.168250325257306,0
3.02539368098072e-07,0.166865062682371,0
2.09791065429895e-07,0.147998577689404,0
1.71447658892092e-07,0.146818060797949,0
2.66677421080566e-07,0.166568280474379,0
2.93054077389912e-06,0.443832415061555,0
5.57103734392878e-06,0.575716280255109,0
6.00935493570764e-06,0.544157247176017,0
5.90088424681194e-06,0.525833766109719,0
5.72944806798168e-06,0.486639199300083,0
5.82204337674883e-06,0.468540595798499,0
5.43314303577272e-06,0.454491906047938,0
4.40361131094132e-06,0.395457081408976,0
3.31549219437349e-06,0.332104487362923,0
2.63009099782592e-06,0.308352145185177,0
2.50292723593178e-06,0.312434585740216,0
2.40025221210074e-06,0.302703222552388,0
2.54957161025989e-06,0.329021996617012,0
3.28152269139584e-06,0.376671235949291,0
3.45444664208618e-06,0.409104251407526,0
3.26717261409875e-06,0.423761716973009,0
2.58122125766465e-06,0.370882345712729,0
2.73946596236175e-06,0.388787635834516,0
2.55505113208318e-06,0.393477024731789,0
2.28874018989974e-06,0.366265836308433,0
2.7824331845751e-06,0.453384226256733,0
2.60484258874775e-06,0.417655631143847,0
2.65856044733123e-06,0.425680324882081,0
2.15542576410565e-06,0.359497235947816,0
1.97406794183219e-06,0.3067811630537,0
2.64106659925399e-06,0.35138258754276,0
2.98446726052945e-06,0.379337551014754,0
3.13550955104593e-06,0.39611616167143,0
2.99651757236186e-06,0.384753602779408,0
2.38300363996007e-06,0.341951613718226,0
1.45909996409702e-06,0.257733004891546,0
1.3599022951507e-06,0.256256852498287,0
1.4412323516988e-06,0.26558838237309,0
1.31527841170601e-06,0.261909680848812,0
1.38287831429627e-06,0.282449261162036,0
1.1420548755558e-06,0.248771740836763,0
9.42666269466728e-06,0.358338199448313,0
1.66290185918917e-05,0.299861928198708,0
1.65182501244651e-05,0.295389791903555,0
1.65848486124304e-05,0.294829775031718,0
1.68830741265225e-05,0.295317089931208,0
1.8215582565654e-05,0.305495523091964,0
1.8947607825651e-05,0.29859312417548,0
2.51949691695405e-05,0.286408931874409,0
2.67208515233627e-05,0.250286651308456,0
2.82416009649209e-05,0.257141445497769,0
2.31145382340119e-05,0.295823144691894,0
1.46751105217281e-05,0.309858164371593,0
1.45513051194623e-05,0.313898149551913,0
1.51008653935298e-05,0.320536869262875,0
1.92848622384349e-05,0.270197417987751,0
2.71549830872088e-05,0.276373420479572,0
2.59898665335844e-05,0.2772549007032,0
2.10923502883646e-05,0.307177848815683,0
1.97252990054749e-05,0.350802244095439,0
1.95095941628057e-05,0.346426104413524,0
1.93701217876878e-05,0.345138442712678,0
2.03745671489293e-05,0.356570849339633,0
2.05179266288313e-05,0.356519264767169,0
1.99554965431325e-05,0.35003807026105,0
1.56423072769443e-05,0.520330509069254,0
3.64016158936786e-06,0.389943852568189,0
3.42868913641959e-06,0.408143431362451,0
3.34135324136703e-06,0.411378275054987,0
2.96300131105637e-06,0.392557741662407,0
2.94453408619755e-06,0.372183115600101,0
3.4975686243639e-06,0.391505993903828,0
2.70005645546599e-06,0.33662864125631,0
2.52855603244353e-06,0.320832036487746,0
2.75381250733212e-06,0.331514688395019,0
2.45016376787377e-06,0.298682408751267,0
9.81774071506583e-06,0.382702171829239,0
1.17998793611403e-05,0.308926580586905,0
1.15519287909324e-05,0.305801627810427,0
1.16455222027682e-05,0.307411818692493,0
1.20452436058784e-05,0.311525439372525,0
1.1881581415846e-05,0.307896750608008,0
1.25014877557576e-05,0.316472907095273,0
1.31360033574393e-05,0.320835220178226,0
1.31846894166112e-05,0.320291369909798,0
1.31784628076868e-05,0.336672581347208,0
4.36237227957537e-06,0.300748535618966,0
4.47466980293058e-07,0.188205071243785,0
4.59763009602878e-07,0.187640949399108,0
2.27678503011833e-06,0.34782066726636,0
4.14014035944018e-06,0.46962009191216,0
4.86494002436252e-06,0.476326810287281,0
4.61240184482798e-06,0.480734859613759,0
4.18982959940031e-06,0.448324994207515,0
4.25445528289295e-06,0.433949730206041,0
4.51584547318599e-06,0.454120833884202,0
3.66870168540756e-06,0.379022922151783,0
3.33091080050315e-06,0.362838689595235,0
3.51865551102591e-06,0.386402616602968,0
3.58790523096449e-06,0.437768369305032,0
2.58719508445822e-06,0.368739644893551,0
3.35883538861201e-06,0.39629701073329,0
5.01754536945228e-06,0.472827441482878,0
5.16373954154655e-06,0.454294952169826,0
5.03064323692738e-06,0.471207297384041,0
4.72446998771684e-06,0.446408104759467,0
4.76397839976075e-06,0.474922613724161,0
