Activity,Complexity,Tag
8.00001751486988e-07,0.308809931848843,0
2.45889529182e-07,0.210960256337309,0
2.23559849751894e-07,0.211380676568849,0
2.29923927489383e-07,0.205705037056314,0
2.11404823751273e-07,0.202023034461456,0
1.41526318107397e-07,0.184317878749175,0
1.41769281921427e-07,0.189718777872338,0
1.36069056719289e-07,0.182562971521905,0
2.22757219931462e-07,0.219732936679968,0
1.96290113233451e-07,0.213256859916406,0
2.33750866473203e-07,0.237695136542612,0
2.31390409845165e-07,0.229269363600864,0
2.24463973407683e-07,0.223486192155935,0
1.81015291012095e-07,0.21703597124185,0
1.75131134124655e-07,0.204252272304798,0
1.92704066760899e-07,0.199428732578003,0
1.94499679125628e-07,0.204001837743925,0
1.8171974108159e-07,0.205000145527262,0
1.00400187499294e-07,0.174670499111266,0
1.07838649979642e-07,0.175378253904739,0
5.94463892810227e-08,0.155865101028708,0
3.90150588326603e-08,0.154518810761426,0
3.86291751280241e-08,0.151832886758522,0
9.17630621103418e-08,0.170803162688122,0
9.02458328368796e-08,0.172696169142214,0
4.30201298540465e-08,0.156884655805838,0
1.77179238296122e-07,0.216162015728085,0
2.94890545762491e-07,0.243660997240987,0
2.93383673002842e-07,0.250260499944376,0
2.55254303231385e-07,0.241060525117092,0
2.5350591656964e-07,0.236999661639677,0
2.75611066780302e-07,0.231344141520527,0
4.34452647460299e-07,0.274362021276622,0
8.53898913537251e-07,0.356898441679475,0
1.95871917205721e-05,0.399013080568187,0
6.35619667903466e-05,0.550028971116779,0
6.40934409162401e-05,0.449444245802369,0
0.000101141413963595,0.20654313722076,0
0.000222549357449695,0.202727481003681,0
0.000210021572968652,0.177159008917455,0
0.000200994621771646,0.174003083221743,0
0.000185495666363934,0.1702525173273,0
0.000169438758331465,0.167811151666881,0
0.000143881699422275,0.149021484800369,0
0.000184318278427394,0.167288691293127,0
0.00019433645218274,0.143736547890078,0
0.000158307174625044,0.124150935688155,0
0.000138907011808794,0.154404532537004,0
0.000125194400721601,0.181232195471981,0
0.000115413999059911,0.197958493809523,0
0.000140217076008129,0.233780767795469,0
0.000143763217383051,0.219068079773734,0
0.000142095889290739,0.209697673074918,0
0.000158360317832889,0.209179152330805,0
0.000112563917321253,0.162938532311246,0
0.000117377859205424,0.214215965537102,0
0.000135128809543323,0.268191144824807,0
0.000128244155425164,0.312216635372863,0
0.000137742052310219,0.397206627349805,0
0.000157082799599599,0.444041687738323,0
0.000172391566123495,0.476794132315714,0
0.000173445072134509,0.558727451408611,0
0.000153991588185507,0.58729609544118,0
4.83360465772995e-05,0.468445676462841,0
1.06400171637208e-05,0.300325993262766,0
0.000120393788913487,0.405883808849769,1
0.000322558493758221,0.477465699155255,1
0.000357608176637024,0.406317945397984,1
0.000486683259399569,0.394122934142676,1
0.000493451293993947,0.291727375293219,1
0.00045870633454938,0.253405179124691,1
0.000462721776169437,0.263280744610754,1
0.000466839453979763,0.26666792830797,1
0.000466659093841814,0.266612909535299,1
0.00048683795568203,0.283250033491921,1
0.000488756446011836,0.418921790604105,1
0.000380357418533293,0.43068494051087,1
0.000354873266788645,0.49986258013483,1
0.00015403759161273,0.417249706357793,1
3.98536696676383e-05,0.294944567778392,1
3.18203565822536e-05,0.35379917316332,1
3.07973507115458e-05,0.358527970821214,1
2.97915724873039e-05,0.332400387086444,1
3.30130897653091e-05,0.346276189812157,1
3.21043626391299e-05,0.347020020444187,1
3.09702069338465e-05,0.344996820021268,1
3.82079295212374e-05,0.234009576417233,1
0.000189489906336045,0.35639790151602,1
0.000956200312765837,0.314737885685473,1
0.00283939258025059,0.455872966049679,1
0.00581546500463608,0.647104605642897,1
0.00683257712418197,0.322878232753303,1
0.0101408029055925,0.0800932972713915,1
0.0203269969066288,0.0773626257913448,1
0.0190279524068891,0.0505965430993188,1
0.0247440011216291,0.0208028383814859,1
0.0399129728770802,0.0227937158508216,1
0.0339478932046657,0.0177931093132428,1
0.0297591457653303,0.014851502179185,1
0.0294076109261543,0.0146346320436566,1
0.0311148336508386,0.0155878486491049,1
0.0310336487263433,0.0155185686472865,1
0.032262180944877,0.0203970953812024,1
0.0304895308851531,0.0189313539222503,1
0.0307382389818236,0.0202074469359919,1
0.0262506378615072,0.0404260382188096,1
0.00725739095781638,0.0181027211941684,1
0.00971835616462594,0.0251414146700197,1
0.0149019141972242,0.0360683069123936,1
0.0141681485677519,0.0266204272220213,1
0.0125763332228653,0.0234271059557486,1
0.0133396750331577,0.0212513618722754,1
0.0112381795302105,0.0156346065784416,1
0.00979308012246865,0.00923590693991309,1
0.0242391717224451,0.0168585397835835,1
0.0292180904865371,0.0179947682494723,1
0.023585714841279,0.0151265361510883,1
0.0234841576810174,0.0158063532728996,1
0.025004169691951,0.0170444941027772,1
0.0226889057333175,0.0138666738362693,1
0.0220069306327146,0.0137129473107975,1
0.0231430447531028,0.0148492210120173,1
0.0223401760716933,0.0150239937782207,1
0.0197159621277475,0.0165092736645168,1
0.0139129537086313,0.0215285047111659,1
0.0115346020396658,0.0319194536917247,1
0.0154231946988335,0.0362257256179569,1
0.0179855712758097,0.0323720401949833,1
0.0191232760838095,0.0361013052880168,1
0.0183864292632645,0.0419203195979724,1
0.0227712340413789,0.0352442588775119,1
0.0181645794779663,0.0190044884879648,1
0.0157946042358743,0.0163600969043693,1
0.0163486719781952,0.0144275196153687,1
0.0185182073861897,0.0155410395025454,1
0.0202535042825603,0.0146182782384881,1
0.0316849873932607,0.025336877653535,1
0.0378145182062857,0.0275265338969196,1
0.0385761436539141,0.0274316749937238,1
0.0408522759930162,0.0309331665876283,1
0.0243347937607934,0.0256149830449986,1
0.0172949383651671,0.0190813538153287,1
0.0113112073703024,0.0114738793188898,1
0.0104353932999074,0.013734929406386,1
0.00988828354742166,0.0144494619750305,1
0.00751318456697654,0.0144767119738998,1
0.00958280909505163,0.0158182713927733,1
0.0156090805731608,0.0302061805568265,1
0.0156048700162704,0.0298182114282162,1
0.0155021890885084,0.0301693841654594,1
0.00978702744790967,0.0179293112279006,1
0.00927275926102179,0.0300731930358426,1
0.00877737671250189,0.0330142220958401,1
0.00848786134654164,0.0296079101468992,1
0.00988327483555335,0.0346495201823242,1
0.00941887849084567,0.0324188406296458,1
0.00893981621174049,0.0464846531227601,1
0.00739534207292832,0.0426189345513985,1
0.00972393404128799,0.0394058937601368,1
0.0108946927899076,0.0299916763752499,1
0.010480389546841,0.0367747770117373,1
0.00765968054005309,0.0330154131601715,1
0.00731424289456778,0.030965260558284,1
0.00710077010285155,0.0328754148614735,1
0.00619275465206725,0.029926333416839,1
0.00507373370751246,0.0262980000029,1
0.00499993380982176,0.021104945385991,1
0.00452882919153987,0.0182552878842857,1
0.00315610834483366,0.0177674509012747,1
0.00312541104529509,0.0307023332459998,1
0.00352636609254737,0.0211092436967756,1
0.00463502802094927,0.0264796461757245,1
0.0177777471694832,0.0368832452468758,1
0.0372345239529958,0.0641705774789541,1
0.0952179679833453,0.0639133529193728,1
0.222502778267621,0.077834960029968,1
0.369791632568216,0.067232779799876,1
0.400830948108405,0.0666478017221204,1
0.445681488544997,0.0755376501677326,1
0.408275477517397,0.0711751996181167,1
0.311865318006197,0.0530064826652311,1
0.206826397180496,0.0406148148162759,1
0.130195436703313,0.0279192770750486,1
0.0672535894050506,0.0143872304639407,1
0.0739144217354748,0.0159249132104686,1
0.0783571933628147,0.0181335385576889,1
0.0645773567958421,0.0201045931993599,1
0.065930935851346,0.0263019741678537,1
0.0534021670938588,0.0219549966035352,1
0.0438497395953498,0.00884895391734504,1
0.0550045943458451,0.00806342449537746,1
0.055382826210054,0.00725195062430809,1
0.0574836816301149,0.00813640855488672,1
0.0660040127850417,0.0103231906848638,1
0.0538664805046396,0.009006886153764,1
0.215390947315224,0.0214998850229051,1
0.378217366266098,0.0223194391587187,1
0.360238397972087,0.0180057704151225,1
0.319696590621819,0.0162102121888549,1
0.30243766964576,0.0191933544569998,1
0.309921825071883,0.0215667940106074,1
0.293027807038727,0.0197730929810359,1
0.277531577972505,0.0193916763949552,1
0.270643589603723,0.0108823731315292,1
0.291276300514478,0.0112886287929823,1
0.250425070953146,0.0160499498298155,1
0.234655588939514,0.0196440022378853,1
0.30093177139367,0.0296433866036088,1
0.312825143884028,0.0234513769055714,1
0.328752744619981,0.0180833610416374,1
0.341959087798164,0.0215768771133848,1
0.26596557178342,0.0157459956215035,1
0.152330142505424,0.00720956260133244,1
0.108651699111022,0.00985144709760311,1
0.107708140407452,0.0112970333461902,1
0.0725168324392267,0.00724039901224652,1
0.0813281627185845,0.00838622271342244,1
0.0804738160293661,0.00721538414479371,1
0.0880978946560967,0.016411446264731,1
0.11411649188191,0.0361652686838223,1
0.17992288224932,0.0496417683857537,1
0.208104279850186,0.0536711270204132,1
0.202769415122674,0.0505181492458266,1
0.212328493938488,0.0524929220061007,1
0.219945766695172,0.0679304245754228,1
0.162284518720574,0.0653511130436349,1
0.0668097361400609,0.053429977862189,1
0.0330271574322806,0.0284498905298002,1
0.0195018989776677,0.0270911067399822,1
0.0179579055842912,0.0355244936542493,1
0.0179255381013695,0.0364048842323623,1
0.0199086744915259,0.0558419897176186,1
0.00895485658299503,0.0298713883287008,1
0.00643838997958208,0.0205684492178425,1
0.00618555226776916,0.015464621974215,1
0.00549184005446058,0.0146546783600075,1
0.0051813653218744,0.0166949458023291,1
0.00581331579458426,0.0232250044752462,1
0.00565168153272915,0.0222921841268738,1
0.00628068398235636,0.0163712796080877,1
0.00806516330083193,0.0159455682146065,1
0.00800589024168728,0.0170053749915669,1
0.00929616585736238,0.0055712676148285,1
0.0496451198223097,0.0229361845165124,1
0.055517278094656,0.0143544008766324,1
0.0540587921887763,0.0140047760193584,1
0.0526695666388863,0.013266264211632,1
0.0485699400374332,0.0112170244929184,1
0.0453992991117808,0.0100916639139751,1
0.048104196959632,0.0100199801466485,1
0.0544661849226879,0.0105779482961433,1
0.0470065091859843,0.00786417283246719,1
0.0442241029267442,0.0084478936360582,1
0.0323773911890556,0.00682598670190288,1
0.0308240901781938,0.0126043699326123,1
0.0287098333944623,0.0112116339031178,1
0.0274490128679336,0.010083812801178,1
0.0263846573713927,0.011767380832841,1
0.0251398674384448,0.0113126515685266,1
0.0299310964554893,0.00936138769416614,1
0.0363199908667867,0.0144679413835127,1
0.044640908946273,0.0199611058381294,1
0.0513808343061593,0.0329448889245267,1
0.049921096177417,0.0352114841614172,1
0.0523279482600722,0.0399798142502611,1
0.0527013278933297,0.0379653604310087,1
0.0490282456567145,0.039299654675795,1
0.0384628195902277,0.0300619290333756,1
0.0130490285867553,0.00821637547185326,1
0.0257897444543201,0.00994596851882671,1
0.139736242822123,0.0467968051468916,1
0.183125394900277,0.0237536978334071,1
0.174264507212441,0.0234161414115792,1
0.163758443822291,0.0214888657875024,1
0.146729287151881,0.0196914517013625,1
0.14246920016213,0.0185313488079513,1
0.136894230703587,0.0158990847727795,1
0.109403431753188,0.0115825268245195,1
0.0868566956365614,0.00800595197078439,1
0.0749203343717312,0.0093853359344276,1
0.0902416572514509,0.0121629704289315,1
0.0956626018782274,0.0247077163350112,1
0.0777124743676317,0.0216526070779452,1
0.0830887108323408,0.0146842478640393,1
0.113308222858305,0.0174077100664046,1
0.105121065505315,0.0125575102107067,1
0.0895771566682263,0.0116683862923271,1
0.0800768562666439,0.00860090950989958,1
0.147091916608845,0.0192110263755282,1
0.153082462104874,0.0067174052666732,1
0.17266178092461,0.00572483252574769,1
0.192300056838269,0.00720311668853341,1
0.181824470744442,0.00540357196232719,1
0.174326416746913,0.00550477576451539,1
0.189357028668056,0.00606082028194397,1
0.17555995973039,0.0061453148235942,1
0.193369908719586,0.00609015358559613,1
0.198264864006571,0.00472333121467166,1
0.185969692554762,0.00383976885984655,1
0.161317692686983,0.00702767859925712,1
0.119170870742361,0.00569996731363028,1
0.120222988252047,0.00559301653120074,1
0.143961604052577,0.00688038987377731,1
0.142528305378848,0.00644585155965727,1
0.135279786391763,0.00737357794053643,1
0.145543537049387,0.0072782971767819,1
0.104232782877892,0.0040952359647605,1
0.0987329774043364,0.00523875786799385,1
0.118667182603451,0.00718261706483186,1
0.127496265105962,0.00482063644449041,1
0.174712809775577,0.00901701776606857,1
0.172725369796174,0.0069645756868969,1
0.169372013255564,0.00883762943577463,1
0.206539553773351,0.0145479057389312,1
0.189561712329758,0.010742967507021,1
0.215660886899235,0.0109444673346488,1
0.274627896348483,0.0180589388737697,1
0.296989499032523,0.0218813489029385,1
0.342054477136418,0.0251917877712968,1
0.357031342448152,0.0484409158020775,1
0.207342114486837,0.0312083277417044,1
0.150870394854696,0.0330147225451346,1
0.123121135279071,0.0241486527617438,1
0.119218060297589,0.0219420662439107,1
0.0519610118411597,0.0123122169927693,1
0.0241792025612025,0.018265030054204,1
0.0237879528600921,0.0132484786933115,1
0.0254679521172262,0.0130849700991002,1
0.0294812051716504,0.014368758262691,1
0.0297313453610441,0.0156632271507315,1
0.0306357481540865,0.0161689103545294,1
0.0307641777457913,0.0180120743375376,1
0.0192848419622254,0.0147630132491339,1
0.0186115993984662,0.019327964814024,1
0.0187857593368376,0.019291874995198,1
0.0165271774186247,0.0244066208027608,1
0.0102626133063123,0.021548016566305,1
0.0117496796956112,0.0334162756070952,1
0.00920772834951094,0.0203709185808276,1
0.0157203553609397,0.0226189205192893,1
0.0143764527351556,0.0154846760902224,1
0.0140462369167819,0.0170363878542735,1
0.0171338427644442,0.0161201999776146,1
0.0207982388400632,0.0218376377142721,1
0.0198307015449238,0.0159762910806171,1
0.018933681355676,0.0149703365018973,1
0.0189374084961858,0.0126740379609841,1
0.0194000645778811,0.01165829593256,1
0.0209762841768318,0.0136363684471545,1
0.0187019322707593,0.0110382305055991,1
0.0199902409816809,0.0154997488847255,1
0.0337348957663697,0.0185555768334774,1
0.0506231218566233,0.0163512309907153,1
0.0509702570254455,0.0153925769357553,1
0.0498929097071516,0.017748895216074,1
0.0392743807612919,0.0144666522526676,1
0.0414826879531954,0.0157791889480647,1
0.042890170469374,0.0150429093665297,1
0.0364015218496341,0.0129216095721945,1
0.0398609776032467,0.0138360555597527,1
0.0539230924453395,0.0189468470445336,1
0.0487070487073145,0.0246952712121633,1
0.0243301145072355,0.0237238835986092,1
0.0255936013124454,0.0292140733651173,1
0.0257438357144247,0.0300494069447533,1
0.0222676017831102,0.026170954296429,1
0.0220808470668699,0.0347013925464761,1
0.0205516590368078,0.0555731037722024,1
0.00931752838422216,0.032669970075867,1
0.00484272091604539,0.0477868617947589,1
0.00481099688104837,0.0524010870487751,1
0.00477003436678807,0.064358181220683,1
0.00359448638837615,0.0517981862692645,1
0.00398100732847853,0.0296417495901911,1
0.00723850520014135,0.0506779335019442,1
0.00979071230049512,0.0498682146873761,1
0.0380400553819295,0.0316705531909942,1
0.0983422053688417,0.0840436612179923,1
0.116813522581347,0.0454447117294765,1
0.107003227218688,0.0380302889396986,1
0.135226512918859,0.0386799363478096,1
0.136127224204428,0.029527136507454,1
0.105916106819752,0.0255921646136161,1
0.0991389620092551,0.0202593914081173,1
0.113165420278003,0.0216223843822996,1
0.0807886850837881,0.014266304763169,1
0.129214269497992,0.0211788932875296,1
0.17390811962863,0.0234954382240865,1
0.183527874489123,0.0327467250905459,1
0.136783665368903,0.0284638546502803,1
0.150492969246744,0.0314265777130748,1
0.201064787840395,0.0396565659965579,1
0.146216076060158,0.00999885682965253,1
0.172408942150841,0.014619600147184,1
0.189057417344914,0.0150556783903174,1
0.226994014509372,0.0126724481099951,1
0.256404988723329,0.010601698930786,1
0.259122030953792,0.0108940401868736,1
0.266820375973914,0.0103883585027792,1
0.270042793567692,0.00953009578928075,1
0.274134241498453,0.0107404881579851,1
0.222276807595443,0.00903616104686874,1
0.249379062222154,0.0187373804102585,1
0.209268660689944,0.00646819534832297,1
0.191253523078216,0.00429945654269463,1
0.183502245758789,0.00489786837685768,1
0.280538299568467,0.0147875597162397,1
0.282239341477032,0.0148820480657104,1
0.29363776323827,0.0144380319348933,1
0.295543435158483,0.0110835783339202,1
0.324398297597714,0.00968621331192056,1
0.32387179393232,0.00861129533939292,1
0.31117281319193,0.00803654418351042,1
0.261522708156475,0.0104673269141995,1
0.251524977066575,0.0100638246782874,1
0.27504170481863,0.0136960688766278,1
0.198957825885275,0.00886457616810839,1
0.221149052280321,0.0070292678017386,1
0.261910105616395,0.00931244159551395,1
0.267535333414343,0.015768178930932,1
0.165802510878025,0.0114844472606811,1
0.222935117090959,0.0156349312778991,1
0.210617559731307,0.0131223076078125,1
0.116619885284156,0.00655197119396123,1
0.124084667104256,0.00975443029358999,1
0.155032827842347,0.013171775579776,1
0.134419718186629,0.0103462985037315,1
0.126091383866013,0.0127852234255405,1
0.16486993127548,0.0192896819707412,1
0.231197752257817,0.0255457964796305,1
0.260064797336208,0.029895900680805,1
0.249570257235487,0.0357016743184981,1
0.280405465528741,0.0424607770646124,1
0.360635177604378,0.0520093395567318,1
0.368383945305209,0.0602020186760076,1
0.265540068464671,0.0500042347534317,1
0.168717145555197,0.036940311383163,1
0.0744091800347681,0.0317108484686879,1
0.0676342869056062,0.0318476977848936,1
0.0666157188640345,0.0294650105244921,1
0.0602482194277975,0.0256962887231547,1
0.0279318394409205,0.0122276259836239,1
0.0148069378659706,0.0151469968828019,1
0.0139260733972892,0.0132773988027109,1
0.0121856664047869,0.0112826819506691,1
0.0118192252486569,0.0104005001225641,1
0.0119374456450588,0.00866607548211667,1
0.01239661721865,0.00912836339429488,1
0.0154527080897672,0.0112874065829646,1
0.0216937308790937,0.0191339602000241,1
0.0211754594540802,0.0258798289735649,1
0.019644279847149,0.0295179258438214,1
0.0199587841447402,0.0365245252147604,1
0.0212512530767882,0.0413377467752533,1
0.0206527043893418,0.0321924091449137,1
0.0180980915623811,0.021231123457458,1
0.0194758726847951,0.0217864709204067,1
0.021312166376149,0.0215631175306163,1
0.0260559347876999,0.0238933550525644,1
0.0230074721323518,0.0190814740411574,1
0.034140843542904,0.0139402689317969,1
0.0498013964607248,0.0169256163372353,1
0.0455607244769527,0.0126604258633052,1
0.0402964041954934,0.00943258542190618,1
0.0399189189228372,0.0090162927955526,1
0.0428011690735798,0.0105732721483548,1
0.0440878835365274,0.0123183263727328,1
0.0733025103889282,0.00946834749485978,1
0.0918497074218206,0.00569110690990635,1
0.0915399874657471,0.00594551215867134,1
0.0866488740984432,0.00682234189062206,1
0.0817611469625556,0.0065808698168698,1
0.0835536260930729,0.00774566396321603,1
0.0926328236447476,0.00999398410822079,1
0.100957724413586,0.0114686988234622,1
0.107218274570024,0.0126484784191888,1
0.119556335413127,0.0143300223434224,1
0.0771963217210899,0.0203817248501016,1
0.0304897546355627,0.0413516587608457,1
0.0241031076287744,0.0543784643398909,1
0.00864779289478944,0.0559951758102804,1
0.00666480255177653,0.0683484223858137,1
0.00223737940363405,0.0476506552749144,1
0.0019999383366788,0.0413992899852497,1
0.00265361670742756,0.0551892742605479,1
0.00273131382651177,0.0658878359934709,1
0.00287728258364665,0.0765130171560232,1
0.0030010075707048,0.0851656516566624,1
0.00319782686036799,0.0426407866960126,1
0.00638858152092345,0.0715664306843998,1
0.00861134979103145,0.088439156407444,1
0.0232462184077514,0.0360425995555938,1
0.0543933455759114,0.0752272689597561,1
0.0918765525122745,0.0965859089378257,1
0.259437394080619,0.0558616372746297,1
0.38204836070165,0.0324003481075759,1
0.360171169366919,0.0316004280047128,1
0.371848818299327,0.0325052533953033,1
0.34876044053218,0.0289856287167711,1
0.293122320746373,0.0267963489800249,1
0.211492491509164,0.0199171141334119,1
0.144163446111419,0.0142811663937681,1
0.101943166671195,0.00894796765181959,1
0.0671907374930679,0.00363897754890664,1
0.0573602729423807,0.00815365106396967,1
0.0439023718117674,0.0174887150166241,1
0.0289866928461883,0.00856099938359994,1
0.035364488686824,0.0132327754636971,1
0.0351611725282032,0.0152472778526797,1
0.0446555854668918,0.0189563039248304,1
0.0573557758375308,0.0253621746184902,1
0.06185932359842,0.0245109163685322,1
0.0685992986991922,0.0158204342626844,1
0.098146125259817,0.0210535611109017,1
0.0919395224659375,0.0190411095414084,1
0.113185562752853,0.0149210700813511,1
0.128963922097541,0.0105196485824291,1
0.13528466215955,0.00791749688960192,1
0.134013272990051,0.007530486597322,1
0.209088998386324,0.00483528806179093,1
0.429404342479162,0.0130621235254988,1
0.428637595503261,0.0115124065782415,1
0.444009066982694,0.0124586341344995,1
0.455036997869228,0.0109375488664384,1
0.453878952773028,0.0107551244005913,1
0.499682662245982,0.0108191018158655,1
0.429196313562419,0.00768578680270062,1
0.453735453684031,0.00876533668324306,1
0.469491560247647,0.00947566150708077,1
0.440766006382924,0.0146718877008643,1
0.265233762074582,0.00767731908104943,1
0.259847365677607,0.00946228413241446,1
0.242184404110173,0.00879565050955434,1
0.255881864312996,0.0125829450391447,1
0.279163985297337,0.0136606219532019,1
0.201042806466473,0.012637916592761,1
0.114056510893529,0.00849854021354519,1
0.110625902850183,0.00827794094976642,1
0.122042004281602,0.0088738499283738,1
0.108306905396697,0.00909857526352018,1
0.167773109426076,0.0124368159401529,1
0.25956484440346,0.0193186106291097,1
0.33742832284163,0.0251799655054455,1
0.392847448706126,0.0277281013993093,1
0.452909843412117,0.0340772625065263,1
0.353500606274018,0.0368714973595297,1
0.293407048873477,0.0358151414208379,1
0.190459566299563,0.0274061787871082,1
0.154813299804964,0.0262365222298518,1
0.0343917124797842,0.0051649758123521,1
0.0194594199060646,0.0140672597877961,1
0.0219059861979867,0.015039547360721,1
0.0264920677308506,0.0194664728528361,1
0.0328218994117853,0.0276978669794603,1
0.0361036060164319,0.032276075612204,1
0.0369671019674825,0.0290085933885637,1
0.0233941990964476,0.0258462144579435,1
0.0166152603424347,0.0247161160124684,1
0.0154607541057382,0.0225377478535279,1
0.0176009520667122,0.0213164178055934,1
0.0169555943196622,0.0210216254458888,1
0.0160651537365251,0.0268717915107275,1
0.0196453670955105,0.0233225403954828,1
0.0193412318284068,0.0182481433505476,1
0.0174603582998554,0.0172056132093204,1
0.0258501553391042,0.0121753271853983,1
0.0900730485865504,0.0285173322579091,1
0.0961119326934301,0.0158492770283834,1
0.101793432069187,0.0161473832817821,1
0.0925334402869085,0.0148598031487997,1
0.0906376773946019,0.0141270513508415,1
0.0880235245753598,0.0110538296898778,1
0.0944615799894202,0.0123200340276523,1
0.0974991376064874,0.00996421391316126,1
0.100126346161879,0.00858883512426367,1
0.0983826804216742,0.0118847805106484,1
0.0473291421702109,0.00332048717369268,1
0.0418636407320813,0.00856965832407769,1
0.0439532468529857,0.00817788872823823,1
0.0484162865761673,0.00616958288254485,1
0.0466860192799248,0.00570728080961593,1
0.0473082609053697,0.00691207471017956,1
0.0392456388670481,0.00348527710790891,1
0.0369337584189675,0.00583617691918104,1
0.0398547734493456,0.00788142829487595,1
0.043077727879231,0.00557829790435868,1
0.0477559940634412,0.00718265198111913,1
0.0468537595766193,0.00669530451688696,1
0.039528806003844,0.00483615495291527,1
0.0454293395838145,0.0102230735151924,1
0.0518872139269486,0.013070646600437,1
0.0666812569307127,0.0222391598896913,1
0.0762191040709049,0.0284804509644795,1
0.0824323217808077,0.0326530427365648,1
0.0603475593164484,0.0345123560291802,1
0.0337768748867966,0.040322975015069,1
0.0318942807268334,0.0381864763074143,1
0.0225762025337275,0.0478285216697854,1
0.00522218326748709,0.0336816816102488,1
0.00681098244343015,0.0559285545290621,1
0.013667323870276,0.0344790353630395,1
0.0663672058509434,0.0563164042684062,1
0.0969675816606135,0.0569913057820214,1
0.123540452434219,0.0633969443469861,1
0.147069184718666,0.0632583994028199,1
0.146524136953051,0.0656202221047357,1
0.162872086088008,0.0447702723647993,1
0.248341687084357,0.0474165667680444,1
0.323713768602554,0.030333662621397,1
0.499953627610995,0.0367050600459993,1
0.462699770005957,0.0358970474454086,1
0.441765426178907,0.0349868393243845,1
0.393050851935894,0.0319567099531299,1
0.35543968655878,0.0245286571463655,1
0.338935605735797,0.0162964483759306,1
0.338412277036393,0.0136198576503953,1
0.298140055270617,0.0114493042139269,1
0.296484765367916,0.0105407643751761,1
0.316532139955976,0.0190702564571634,1
0.270436645263567,0.0120889920080869,1
0.2737091245599,0.0108466676720714,1
0.292157459241544,0.00768999866060896,1
0.37258470483512,0.0103271425699245,1
0.373244155272964,0.0137578974018129,1
0.396866951855325,0.0204380472565369,1
0.39075506903957,0.0117337571050495,1
0.409781760230207,0.00737004301194543,1
0.529834856563476,0.0108632673357492,1
0.53797776420661,0.0109247986931119,1
0.733073784025853,0.0143102140890235,1
0.663463346394809,0.00853895937779096,1
0.548895276032824,0.0069538517680918,1
0.563474685753174,0.0072446521974447,1
0.613839387206993,0.00852105953984444,1
0.634806729679786,0.00889525330128327,1
0.567813486476046,0.012075062997803,1
0.475307124483427,0.0134050021329714,1
0.430997050110624,0.0141614690619263,1
0.412423725072294,0.0154635668077583,1
0.117054974669763,0.0016675926029607,1
0.101829040087881,0.00893522225543756,1
0.0933445771134898,0.0116000907880347,1
0.0795937672730606,0.014251331879679,1
0.0865939878197282,0.0129215436740753,1
0.0601558770239616,0.00829762003191994,1
0.0782513561132718,0.00420972596101631,1
0.250381079857867,0.0207302709153035,1
0.399402920305328,0.0317365656512228,1
0.632562688355226,0.0454590293365163,1
0.850462254084705,0.0611370273261336,1
0.872390070931433,0.0532443335876367,1
0.820570430613297,0.0480660893320341,1
0.768967276434499,0.0447186327790294,1
0.548179445809001,0.035511660781944,1
0.299635488496243,0.0204940760259929,1
0.0841962665827452,0.0130250346998822,1
0.0741643504326357,0.0114003079086318,1
0.0608814211612498,0.00781053317557635,1
0.0664537124777248,0.013798914607665,1
0.0628075113339124,0.0112757205563076,1
0.0645532205261427,0.0171995796772588,1
0.0448321261244104,0.00930897528269364,1
0.0389989493013168,0.0115736135058402,1
0.0371249577205193,0.0120242560180338,1
0.0328213471734706,0.0136108424739007,1
0.0321719164224682,0.0161821801444775,1
0.0391273813725781,0.0203627101005456,1
0.0396616723940046,0.0131774341361273,1
0.0354876088275843,0.0118640510355834,1
0.0243250866965058,0.00895193434546824,1
0.0210444864235473,0.0126933320830688,1
0.0206354134067873,0.0137551777946224,1
0.0213614501551762,0.0146164771406287,1
0.0216981656313095,0.0164735618624225,1
0.0219575276988891,0.0174526024572391,1
0.0218719228237075,0.0167395293330219,1
0.014108991051675,0.00784981849897983,1
0.0160996954558072,0.0196091909692255,1
0.0129055429382344,0.00715865163764371,1
0.0620725425743528,0.0201245414775449,1
0.0721768265031243,0.00647688906926011,1
0.0824534315086866,0.00806152220622117,1
0.0804594104127786,0.00704093482693892,1
0.079346067620588,0.00624754722409928,1
0.0822723214762861,0.00670801951271757,1
0.229812640927283,0.0115359282062231,1
0.306418212178249,0.00566698209542324,1
0.313974435343229,0.00627780351819977,1
0.30554999591462,0.00623288001663198,1
0.285957285463022,0.00588937997528934,1
0.28820785701632,0.00813802882933143,1
0.267513727986637,0.00718422442935889,1
0.278602067148321,0.00786474287404141,1
0.287060033039085,0.00832486884414698,1
0.276242884674929,0.0069506554641515,1
0.152693870756812,0.00442280502733746,1
0.0744607329147865,0.0125386081209239,1
0.0859439586612796,0.0154525378693175,1
0.0778694107190836,0.0135984229102414,1
0.061076297771081,0.0102923668224781,1
0.0659515873937974,0.0141011582051222,1
0.0709973674098485,0.0159241622777274,1
0.075369818768234,0.017133653117312,1
0.0803745505512314,0.0187907702259686,1
0.0429962753047211,0.0193202887870987,1
0.00497743329762502,0.0233046652860594,1
0.00485509522175573,0.034145962103323,1
0.00505330080722374,0.0395794224441144,1
0.00326773170469779,0.0276227587749663,1
0.00196909974612213,0.0159053282797422,1
0.00183832129377068,0.0184897310296016,1
0.00170303804478644,0.0205731126936796,1
0.00161861605560751,0.0280049590517649,1
0.0013703936015538,0.0241000478916769,1
0.00345051211684091,0.0316290172839692,1
0.0121873485294376,0.0481990167323585,1
0.0344557864053,0.0968057382733844,1
0.0823300981476057,0.106570020462588,1
0.106219208899289,0.0662202570373727,1
0.245341089370823,0.0640830355852174,1
0.291637738645916,0.04975737144036,1
0.366558361525888,0.0447224803921173,1
0.546036863951915,0.0642723374677922,1
0.518140458583133,0.0223163375080671,1
0.422884851847902,0.0173308925339687,1
0.345425002154037,0.0157818390971627,1
0.320933555962304,0.0139400601755467,1
0.288590715876361,0.00951844413739046,1
0.24421561034204,0.00674087658575086,1
0.258978344217192,0.00813881061981184,1
0.260200315086492,0.00690154678607307,1
0.28799970173768,0.0080242237374818,1
0.242018873373215,0.0066029579375582,1
0.212860472845629,0.0115214701971247,1
0.19266367470434,0.0107328440344402,1
0.199180138156854,0.00704684129593586,1
0.45677602210516,0.0112388958444531,1
0.788688186366007,0.0230831978862533,1
0.916127079795022,0.0301319049250896,1
0.920592055157263,0.0267913481800506,1
0.886805740649892,0.024957156703108,1
0.889178080539686,0.027517541252548,1
0.825383946231438,0.0242749766163288,1
0.938438419369239,0.0282156064445133,1
1,0.0205574074039346,1
0.916439811222739,0.0194059824830759,1
0.92503338399298,0.0230373487312256,1
0.996897410272966,0.0242572237768685,1
0.811157970042254,0.0136784704978904,1
0.526976245216406,0.00817747439920821,1
0.437329474128667,0.00757735338150551,1
0.448553296977024,0.00795251288324308,1
0.500866487144225,0.00889947705319626,1
0.486928836501727,0.00677943386412993,1
0.481240794843493,0.0127116023158847,1
0.287955933692503,0.00610521498765511,1
0.261077103958778,0.0164737945183535,1
0.160707024851814,0.0107364610992164,1
0.140758170793708,0.0130805963368115,1
0.158602479875653,0.00646056471995912,1
0.199106601071029,0.0100147184348221,1
0.227541987059917,0.012845839066863,1
0.189579145079938,0.00974542064386663,1
0.181363799680628,0.0115429360445453,1
0.179616379072212,0.00913768781609692,1
0.389927679238751,0.0196209410843459,1
0.496113131372288,0.0228181032069191,1
0.605276161507784,0.0264672346542069,1
0.699698282578696,0.0300790391042176,1
0.74166589290556,0.0492563715649367,1
0.605157351792606,0.0381454519553453,1
0.374134115774725,0.0267765377048441,1
0.207899594267971,0.0197241166446871,1
0.146566581864936,0.0167216240660674,1
0.0248402915944416,0.00104381155253268,1
0.0223335201871656,0.00616217104689652,1
0.0126509878678751,0.00538740408260415,1
0.00935259971573604,0.010267746076139,1
0.00980893883271804,0.0114084558908778,1
0.0133937980616604,0.0104697486580146,1
0.0145155875395213,0.00803378288520856,1
0.0140413152149573,0.0046076529464764,1
0.0175607560655875,0.00511360127794643,1
0.0196281762353818,0.0072162009972774,1
0.0244784939991803,0.0115321181582839,1
0.0264894689890672,0.0102745119137902,1
0.0277291499864343,0.00885874156839376,1
0.0296744675920403,0.00861938038883866,1
0.0328656113847245,0.00956870722935249,1
0.0298829127202965,0.00690866084455525,1
0.0319418888917287,0.00943980918853737,1
0.0276125753985317,0.0118497446320648,1
0.023630591818457,0.0129996868617893,1
0.0261222518135576,0.00859962931556668,1
0.0426751251539214,0.0121965839236559,1
0.053353335146952,0.0137286069491969,1
0.0606419221810546,0.00992357480655204,1
0.158685178812275,0.0218790675140096,1
0.170271324597928,0.0106829103803559,1
0.171531363828019,0.0119471325500158,1
0.163425060495859,0.0110764466607864,1
0.158786656065818,0.010633973577235,1
0.147064719238466,0.00976272908546099,1
0.133131718980537,0.0091221532648643,1
0.129571716270432,0.0100291380657889,1
0.12845935938273,0.0105711442409585,1
0.126681123843213,0.0118796854692415,1
0.0822646368342942,0.00649860088680761,1
0.0800186852828674,0.0245063699877742,1
0.150834730020167,0.0201827737520908,1
0.183559582774762,0.0107496052250198,1
0.177863378373118,0.0104624835281358,1
0.180127720544545,0.010480406649946,1
0.178797876138727,0.0106044185492346,1
0.207105999876164,0.0123460320793799,1
0.246351560293035,0.0151672994404294,1
0.28249690405249,0.0201248870542425,1
0.26185219086582,0.0196270913653196,1
0.258233936526801,0.0189919060915169,1
0.142325698451485,0.0216927669787948,1
0.0341564471734609,0.0400786884265221,1
0.022846800453566,0.0282913084590392,1
0.0210961354385265,0.033398357395344,1
0.00541182357070245,0.0174174084896284,1
0.00207060284434592,0.0349706077831672,1
0.00220465047858741,0.0426269158979742,1
0.00224803715135655,0.0444390755303346,1
0.00213846271734969,0.0580519548592577,1
0.00131260676842286,0.0515296721755673,1
0.00137460814590911,0.0623815468140622,1
0.00153947320758556,0.0975854816745774,1
0.00168681153496257,0.143834236972124,1
0.00295937839045861,0.337298182615135,1
0.0293605628017569,0.00119042086185325,1
0.225994997688449,0.0309326875511926,1
0.269677296773174,0.026546041982135,1
0.274385796339994,0.028081286249038,1
0.320444840740189,0.0271471970997169,1
0.466992738987751,0.0318397603197004,1
0.66825197020512,0.0393026615025635,1
0.655502125473498,0.0365587081516482,1
0.529479303368564,0.029998552270323,1
0.445616129647872,0.0232792598836842,1
0.329464228478428,0.0114133741607144,1
0.363117848628104,0.0116731839509669,1
0.323238273651766,0.0124564755521965,1
0.240837640914816,0.00829259619852419,1
0.278055155147252,0.0105068741592308,1
0.340667211779639,0.0154895716374338,1
0.40341396738337,0.0190823254972116,1
0.456021849630524,0.0191038275843133,1
0.405767790229337,0.0176938772651692,1
0.403978037250993,0.0178317506737904,1
0.403673900103146,0.0313190970188374,1
0.31905998441623,0.0355379405111852,1
0.33580362055118,0.0235049167167984,1
0.336003880110063,0.021652576074392,1
0.32210620229431,0.0237689147235452,1
0.321708755175796,0.0213032983671203,1
0.342831151400002,0.00799385491868239,1
0.414738212669783,0.00883641030966655,1
0.413257663649539,0.00918523192815302,1
0.409229756647761,0.0104538944083124,1
0.355660839028611,0.00821159371434615,1
0.34736402666773,0.00670835275944051,1
0.454567382958405,0.0148226332711932,1
0.497858425987263,0.00516866715096461,1
0.599748750777732,0.00754106032729585,1
0.558809646891834,0.00727041250515142,1
0.521430701374442,0.012530864200179,1
0.430114121182143,0.00515843719096709,1
0.657157478287256,0.0105286590299555,1
0.684434319801898,0.00823112326440856,1
0.703350245300526,0.00872591782095336,1
0.687098709590707,0.00904360700233033,1
0.54592088237033,0.00568625642338035,1
0.481041412535391,0.0124885632270081,1
0.395416094246617,0.0107779380418954,1
0.384128771635383,0.00904814223144212,1
0.379917867830805,0.00785064656364811,1
0.370625993483473,0.0250764270034518,1
0.187872096200523,0.00851625710989238,1
0.15795199798821,0.00802673020083557,1
0.208170410272171,0.0115672481611598,1
0.230756575726409,0.0124390808192737,1
0.260275802058625,0.0144781988679885,1
0.271206984488664,0.0153684050721203,1
0.312339250549077,0.0183745659282927,1
0.359791367176211,0.0226016996141084,1
0.407057704338883,0.0266926485617815,1
0.457227484108631,0.0314149819404236,1
0.262213973531131,0.0323553001775863,1
0.173303349609555,0.0436564634967071,1
0.176262933318107,0.0483474889758444,1
0.132126593963991,0.0624515507442244,1
0.0851427225249895,0.0288503091746386,1
0.0616523510411141,0.016999138447467,1
0.0427422288162425,0.00978225669806381,1
0.0449157301269231,0.0078639176790554,1
0.0396500089388964,0.00521977114947323,1
0.0379338097841608,0.00568992517847541,1
0.0389966463440534,0.00605561171385203,1
0.0419972773676579,0.00587437511837819,1
0.0507950400720691,0.00831024723216572,1
0.0425460541988511,0.0054006069497906,1
0.0462110494998736,0.00599626149411876,1
0.0650003427683777,0.0125338455517572,1
0.0553292783514659,0.0125001669429562,1
0.0504691874782344,0.0144009050715506,1
0.0517963055127348,0.0184599691155047,1
0.0438168747555585,0.0168042276961549,1
0.043756006550323,0.0125896142593939,1
0.0563006068821292,0.0193250887618411,1
0.0671175083629451,0.0187393175125928,1
0.0647364952685678,0.0168509031047562,1
0.0627437589969993,0.0296994643937263,1
0.0588254450295266,0.0188697448175461,1
0.0696480519682767,0.0128282259946907,1
0.0819809116222525,0.0145456188306963,1
0.074326524527359,0.0106279483436813,1
0.0702067893021495,0.00774530580367438,1
0.073567254878413,0.00473258028740079,1
0.09664431351968,0.00757281597236699,1
0.0910075374192515,0.00599428948648048,1
0.098542947337245,0.0071690320858963,1
0.101307027320678,0.00767961325983894,1
0.106442333898082,0.0104370285055183,1
0.0931197387382301,0.0122640177910998,1
0.0989654854897736,0.0105688294534012,1
0.112688238719228,0.0111857124794117,1
0.109593910326923,0.0123244253280939,1
0.107077444163248,0.0210018380716986,1
0.0671886274414091,0.0133746421334374,1
0.0642222051509334,0.0166133903106005,1
0.0582627158354014,0.0159319423221883,1
0.0571313321778035,0.0154054059249154,1
0.060241750447896,0.0170508052306878,1
0.0759670151275839,0.0205706094202143,1
0.0539368463298269,0.0249894740744313,1
0.0240583095042284,0.0176527019826352,1
0.0251245574034551,0.0168526494318352,1
0.0303348966340667,0.022847100499675,1
0.0298947452378288,0.0259151880259939,1
0.0385979049585453,0.0328119710424512,1
0.0442167131647344,0.038124589662065,1
0.0465026985957973,0.0395880712469525,1
0.0462410507609032,0.034020292773118,1
0.0462261158560356,0.0331525157422152,1
0.0281138579378059,0.0383135642887433,1
0.0172698885513198,0.0341626371854618,1
0.0174119014650504,0.0299037467811145,1
0.0168961902379828,0.0287896460847738,1
0.0171409841144923,0.0312384274937168,1
0.0186925907833312,0.0197104409626468,1
0.0565342178807764,0.0319422314005306,1
0.100584588442586,0.0329350518115471,1
0.300057122045402,0.0521186240352836,1
0.472825037966221,0.0585242105751185,1
0.512923889402201,0.0656537026403098,1
0.48486473818291,0.0504621726077785,1
0.53966983610347,0.0249553315451176,1
0.670052729186155,0.0272815382603282,1
0.520018608554853,0.0187398965091707,1
0.395115713417929,0.0130615988847838,1
0.323603093894798,0.00677384536033896,1
0.276171900280648,0.00524550916381516,1
0.278747014381395,0.00579816422934439,1
0.283729924338365,0.00517055121091342,1
0.329244396935536,0.00644059928829326,1
0.276676066827529,0.00291220961131091,1
0.265388297406256,0.008691201360614,1
0.18725756059105,0.00486049114951864,1
0.216226057938516,0.00781336262328932,1
0.19599522083118,0.00931077532955658,1
0.186137827827352,0.0115871150819892,1
0.186242631404022,0.010551423953629,1
0.250305112592878,0.00959871573663433,1
0.512141496962884,0.026619770152669,1
0.502240392888169,0.0112441527089805,1
0.515930246815704,0.0152556680515079,1
0.488006968600183,0.0145234103778327,1
0.484397169888028,0.0149382993505029,1
0.452755103647418,0.0134647652429855,1
0.421388094778528,0.0127435748617327,1
0.418122025864319,0.0132511777760281,1
0.433570937943381,0.0156082954934731,1
0.373184337624826,0.0191855905516006,1
0.147814352719054,0.00437398289638594,1
0.137008061325906,0.0285272109119179,1
0.127964627263254,0.0211373156721563,1
0.144395301585902,0.0235578121008523,1
0.195198402656089,0.0309073602353419,1
0.20902867233713,0.0113078019582845,1
0.291026398143783,0.016591813558539,1
0.266183412354677,0.0109405036487591,1
0.26149451923793,0.00989809389473115,1
0.265969869706204,0.0116745645286213,1
0.238968348653736,0.0109619033393855,1
0.221676495929422,0.0101064421963524,1
0.252409362686778,0.0135782851282516,1
0.25633007208524,0.0108012424516758,1
0.21131257369792,0.00842534010851128,1
0.218184021154661,0.0177047997920367,1
0.154603037112262,0.0126885518336608,1
0.160964951634171,0.0191475785126963,1
0.157616756740277,0.0195125068193153,1
0.144613995772304,0.01597664013059,1
0.161503146255983,0.0180856156141816,1
0.183729560219082,0.0179909438792657,1
0.296427480767502,0.0251229977307697,1
0.493506082231482,0.0500858792799629,1
0.648209772776175,0.0634700577175986,1
0.657129673716544,0.068703496659222,1
0.656185158698289,0.0705701810938427,1
0.512965015983525,0.0748907088238909,1
0.397363728754118,0.0762250599408388,1
0.226189962711631,0.0601891097522294,1
0.128412565322673,0.0417031794937765,1
0.0187403373077298,0.0130519782684781,1
0.0022113026529976,0.0340847611545055,1
0.00639282864107157,0.0374997578055439,1
0.0173649177349703,0.0635887177794034,1
0.023016622343255,0.0668004283016075,1
0.0406723247550888,0.0822194604208103,1
0.0505704931968397,0.0798641480670334,1
0.0751572607000655,0.055664330984683,1
0.107766543232976,0.0557361242368977,1
0.105235670593536,0.0502043506148985,1
0.103729213629689,0.0391990320734914,1
0.0740192821486926,0.029865802778693,1
0.0557310909445746,0.0241618184033127,1
0.0524328658395893,0.0220344028217426,1
0.0418863915974647,0.0153523603060461,1
0.0403580887434021,0.0140472119117118,1
0.0445771901868346,0.0145015931610155,1
0.0526997566196246,0.0284382672856317,1
0.0469487929672929,0.0271338470364791,1
0.054292176201639,0.0378430699083007,1
0.035132564995227,0.0134764288370502,1
0.0399278932063974,0.0102218845113233,1
0.041356306575234,0.00866607659789476,1
0.0603284118546405,0.0136318423835776,1
0.0595184588438695,0.0116893410107613,1
0.0576388271102069,0.0121248205292884,1
0.0570891525544407,0.0132582750487758,1
0.0557794698660834,0.0128588701003194,1
0.0552878521238855,0.0106484515867558,1
0.0469817213720519,0.00787702634214967,1
0.0432993909208433,0.0113611095371717,1
0.0410855012372081,0.0147142932377619,1
0.038585822977658,0.0169746185956333,1
0.0276510946380229,0.0104641012600672,1
0.0234758903030561,0.0115936031787674,1
0.0238289454960657,0.00974714445363717,1
0.0290292623067513,0.0111640836449742,1
0.0285160317634236,0.00964745290109243,1
0.0318081686890279,0.0083428363002518,1
0.060153200912599,0.0120103676191309,1
0.0701565920013445,0.00727873924513497,1
0.0946471708041835,0.0114130173035652,1
0.116495461452595,0.0155464885089158,1
0.135474076614747,0.0196802167232279,1
0.153928294283406,0.0224159511840953,1
0.168777989038191,0.0257541386871525,1
0.161913692184008,0.0262868279168013,1
0.152294391015873,0.0253667321576088,1
0.125819390215171,0.0318304295199798,1
0.0165526283441875,0.00258664859219698,1
0.00468502680892605,0.0389207916596014,1
0.0133028334552812,0.0630927110648676,1
0.0161722034919072,0.051469648865012,1
0.0320833506846124,0.0382975429071645,1
0.0547878560303666,0.0533600942062678,1
0.180394888259416,0.0481529731117346,1
0.28783347735871,0.0649048756601579,1
0.534349578182947,0.0707244369293317,1
0.604856789534159,0.0546774728417074,1
0.689192053070272,0.0572737321995068,1
0.709739395238296,0.060267115625707,1
0.652646061828825,0.0499647610596682,1
0.48700191231692,0.0352547954444256,1
0.360849103661764,0.0219647743524747,1
0.235088749991339,0.00885900575901707,1
0.226052622169141,0.00892105560980239,1
0.194797462394832,0.00624368672049348,1
0.186116060116596,0.00748457214923591,1
0.198826976296723,0.00960345642218061,1
0.211395692222485,0.00841388869949033,1
0.214231149162818,0.00704690966147942,1
0.238553808803477,0.00506711020138245,1
0.36669647603054,0.00863374831719722,1
0.282500209265727,0.00463501399290493,1
0.271332638102179,0.00622807015248427,1
0.263884812930062,0.00524109302743776,1
0.335104708747583,0.00646568542995494,1
0.463828842382347,0.0106119354423068,1
0.524719345765437,0.0120623533915062,1
0.651708443404505,0.0186640996629594,1
0.691917467561389,0.0188199742945809,1
0.630135100099589,0.0235706662407329,1
0.337489906363196,0.013963609756698,1
0.349502247431026,0.0155673123700186,1
0.251401558050497,0.0145379507278077,1
0.146050912822021,0.00906098095992594,1
0.146133770600637,0.00982504095514241,1
0.186144258029359,0.0123683924861149,1
0.198283262261185,0.0115456999111593,1
0.164513517664508,0.00984001594860223,1
0.151045060674591,0.00659539565507804,1
0.213974253159102,0.0122782974734093,1
0.236819873790122,0.0154333295535055,1
0.178099868142083,0.0104877445620037,1
0.174279140827266,0.0143379834982054,1
0.165092315258875,0.0145784436605529,1
0.165477216489928,0.0216372123227441,1
0.176437231222434,0.0264144179534604,1
0.187585189692589,0.0249360784853401,1
0.187885510983543,0.0216173665910196,1
0.207506448261012,0.0318034482419393,1
0.183747884855039,0.0299622429049558,1
0.204774266026732,0.0326779485670343,1
0.215639971151553,0.0193397291231653,1
0.22181323644015,0.0148359921768949,1
0.246429831681017,0.017247071567125,1
0.226799079609146,0.0180280060191356,1
0.141700246841983,0.00914987202620288,1
0.106144230231482,0.00748237901814244,1
0.106864762261829,0.00812560034924829,1
0.198468455140575,0.0114909704005603,1
0.247029253675898,0.0109763674724164,1
0.201732954867295,0.00846131535488274,1
0.195239909424207,0.0105842224489317,1
0.195643694313256,0.0129435821353618,1
0.15310855262056,0.00926326602503666,1
0.176005559408297,0.0024991515198676,1
0.367883173230216,0.00979459364847578,1
0.373358676043421,0.00792212294526795,1
0.344692480085861,0.00668049680842508,1
0.38415045055954,0.0104824489776404,1
0.48406818261939,0.0151594026628202,1
0.598959389650922,0.0185830139561149,1
0.65482893061702,0.0206126906945743,1
0.767442754527592,0.0241843919641196,1
0.877491909967168,0.0265581245765521,1
0.887113723674022,0.0637497877218414,1
0.377483024813215,0.0497934749252098,1
0.224108877654394,0.0575360367284979,1
0.0808459055964383,0.0278720714335077,1
0.0336528832567912,0.0367242934508496,1
0.0247351732468618,0.037992240106688,1
0.0197960692411509,0.042995727575827,1
0.00671340695364703,0.0366329731639546,1
0.0088285919941971,0.0882818650671259,1
0.00802602034257491,0.0646712981939772,1
0.00814696800841071,0.0577247959593765,1
0.0061975084528472,0.0363486318366853,1
0.0106324405198691,0.0168766599831214,1
0.0226120971964902,0.0259014677567468,1
0.0302788767075297,0.0222081728018387,1
0.0490655106186107,0.0267006190032219,1
0.0544421806883902,0.0250491567696743,1
0.070946444797434,0.0272418103303045,1
0.0705330330581969,0.0264739057713854,1
0.0606242362342042,0.0177762380991896,1
0.0573470679547824,0.0155816700893072,1
0.0467666943826576,0.00544294989415457,1
0.0485721730772504,0.00359480727298761,1
0.0624287408713318,0.00637913773717817,1
0.0702800616935019,0.00880511815476397,1
0.0672499930269199,0.00790899169177084,1
0.0674957450023354,0.00873530503252757,1
0.0580635107197939,0.00712420347997411,1
0.0565242356814074,0.00698533212582397,1
0.0514528202072233,0.00647849272350272,1
0.0513548852312465,0.00662640170482911,1
0.0472536083037828,0.0151812155630812,1
0.0287856610153267,0.0217687747604192,1
0.0254495172260302,0.0128553216751957,1
0.0331457245854779,0.021033590529263,1
0.0331226277296811,0.0196732442309982,1
0.0338456060191309,0.0218655220960954,1
0.0381670751383021,0.0157721405520746,1
0.0439229343584173,0.016470055692104,1
0.0455080064282342,0.0157208963071288,1
0.0417080768378534,0.0138635600131411,1
0.037118734307438,0.0104150614303055,1
0.0367113635651691,0.0099842614284498,1
0.0359177633438877,0.0119337498391986,1
0.0325206136764893,0.0099392623362004,1
0.0308681666258524,0.00959444051950233,1
0.0331808087574119,0.00914882158956899,1
0.0349163832284443,0.0138310838840026,1
0.0318261703761577,0.014639549226934,1
0.0284245331600717,0.0175152614214547,1
0.0256759097065879,0.020017813800434,1
0.023373308772971,0.022976832980797,1
0.0165724407660564,0.0159855971252221,1
0.0140775727946124,0.0203657775167984,1
0.0164514425662328,0.0303265167584253,1
0.0103536864406711,0.0295397014721626,1
0.00956201298850943,0.0581098334492918,1
0.0101976466725044,0.071018909954768,1
0.00849636141900506,0.0637383495263991,1
0.0066148626119968,0.0608959970874611,1
0.00387001917151133,0.037315198093065,1
0.00798195654850492,0.0558933502758643,1
0.0169505198267393,0.0754874629886235,1
0.0707200609086402,0.0351578587894794,1
0.204439536824312,0.0740676453922129,1
0.272355265043167,0.0747781154546844,1
0.357379328481222,0.0467009699175232,1
0.635134696015927,0.0665269993553936,1
0.703548028191718,0.0457347137182456,1
0.640728158135956,0.0442243742345817,1
0.607962431089891,0.0430755953683824,1
0.469187177704898,0.0249820745192064,1
0.304578221876766,0.0168941335861319,1
0.204451222681802,0.011225836163768,1
0.182586056144467,0.00915379393994781,1
0.206069236672664,0.00846254464340682,1
0.254740648971594,0.00808516791734279,1
0.317525910638638,0.00638872425250022,1
0.408951910322177,0.00938706140576466,1
0.416787709555607,0.0103169434139767,1
0.430587939122327,0.0100183911797959,1
0.425708387228504,0.0115744130487049,1
0.459252164866435,0.0102741774937928,1
0.518984335509025,0.0116331514340694,1
0.56018142104982,0.0134970831594956,1
0.447750401169213,0.0124022788393882,1
0.189813816512275,0.00206578655821738,1
0.242871809254624,0.011363802779459,1
0.232367516292905,0.00863883002786787,1
0.304777513568687,0.0108303391309484,1
0.415397548086528,0.0189623999297101,1
0.413701538734461,0.0176132875353631,1
0.405427701218252,0.0155804727029035,1
0.442374685596137,0.0159253097795912,1
0.455479521927867,0.0101741319004342,1
0.484621400130039,0.0147411897323901,1
0.432498431714087,0.0192932107747743,1
0.254643080097552,0.00256487664339689,1
0.391049470135868,0.0120395691164198,1
0.424815695591637,0.00931645636526863,1
0.392081321605067,0.00783842048723065,1
0.363830256926165,0.00732231459137144,1
0.364503406419456,0.00938351736523934,1
0.324547536098477,0.00783040388190902,1
0.310344026089232,0.0129249561736336,1
0.300430737208568,0.0105743434990847,1
0.287577825244177,0.00978727880489829,1
0.423858811912178,0.0208771136588037,1
0.503771086971169,0.0127239179322591,1
0.539046348429509,0.0129147730546569,1
0.537327755919229,0.0125882898204721,1
0.484247585455056,0.0103213592268977,1
0.521436334973913,0.0136939759311008,1
0.529816061752563,0.0120027178299723,1
0.530839510670167,0.0109119898277586,1
0.547477640405386,0.0121011106022641,1
0.590961764222923,0.00805583670173367,1
0.641500639496985,0.0124396806016229,1
0.548245238734777,0.0122167240795889,1
0.512500140962406,0.0150505805724218,1
0.468853483125664,0.0144704777134929,1
0.448868954629641,0.0129899984595421,1
0.412990599437667,0.0114809833010103,1
0.410048357776739,0.0136853400666845,1
0.440808123263005,0.0164093895073747,1
0.416542916793665,0.0155159276301044,1
0.423366082384552,0.0232818861168686,1
0.207707851733093,0.00667569118403999,1
0.106859781347258,0.0019163642475618,1
0.139602625152223,0.00456740639964978,1
0.197720669803904,0.0107639415702303,1
0.21098719739332,0.0132431693798566,1
0.270980386481847,0.0181963511177361,1
0.284144706506193,0.0200429338900022,1
0.30898386020457,0.0212923050172972,1
0.238594803730518,0.0174776016762679,1
0.213029645986101,0.0232522333450343,1
0.173385869005653,0.049670654631281,1
0.0362540753258931,0.019321289877611,1
0.0123983255380311,0.113144479485312,1
0.00812528203333259,0.0770348420501911,1
0.00542021780456584,0.0613149793106571,1
0.00662873965448943,0.0512928282730899,1
0.00701180504827137,0.0505609381998372,1
0.00690484011460158,0.0417117231587873,1
0.00679318174102129,0.0392898980221819,1
0.00739527886774591,0.0342201022681631,1
0.00751719359315055,0.029838717925545,1
0.00698486298190769,0.0262774385524957,1
0.0080656256067019,0.0176945270537424,1
0.0113478216997532,0.0259962576669305,1
0.0138689308484751,0.0344858703262413,1
0.0144627685284637,0.0439256759425918,1
0.0174418663390901,0.0508338149123774,1
0.0199744677186773,0.0655478133267905,1
0.0415493762814077,0.0346510837623108,1
0.114244811523893,0.05010658643109,1
0.273450920216759,0.068539816923528,1
0.292055517781089,0.0619899317971797,1
0.273182066440726,0.0408602049087782,1
0.253133776415555,0.0395122621075664,1
0.228264057032565,0.0348307470001142,1
0.209827382747337,0.0290882061455256,1
0.175255243557313,0.0215805310689346,1
0.145716734459993,0.0138083696169265,1
0.174818245067484,0.0205688811265971,1
0.184435295762476,0.0247879982723609,1
0.139207271502725,0.0218404737857973,1
0.128416611794894,0.0189806889974387,1
0.136744953457657,0.0244692006016362,1
0.1395392684476,0.0193189119224781,1
0.15764542594505,0.0225120379969371,1
0.135387928190159,0.0233548868998149,1
0.0997430112615737,0.0202830164012551,1
0.146573923888181,0.0193409420446695,1
0.184563882701109,0.00981089541188707,1
0.212528343088199,0.0100558611864025,1
0.226858460486227,0.0104388206089128,1
0.210945536463731,0.0094274662900029,1
0.220012731099252,0.00962521850992566,1
0.253543446073768,0.0131356770660159,1
0.241259759064727,0.0074859555511031,1
0.256903476321223,0.00849310748797783,1
0.263285312828632,0.00708765647688897,1
0.208238619556344,0.00700959247869969,1
0.125617540328669,0.00534838496905523,1
0.120607023597558,0.00750974283216392,1
0.112978775100123,0.00791902522363306,1
0.114995433619683,0.00780343885672572,1
0.105765467105041,0.00797589982153457,1
0.0903480623983574,0.00632880857446493,1
0.0830519085795972,0.0112972439693441,1
0.0397967528278576,0.0045707839216017,1
0.0428753890215284,0.00629229771447744,1
0.0446943409983236,0.00859967294308781,1
0.0391836615984904,0.0106762032848982,1
0.0398183822116302,0.00847476160455629,1
0.0464995338208229,0.00993295359821709,1
0.0511049057324855,0.0128827530857216,1
0.0522505577971548,0.012990721895306,1
0.0528723466712351,0.0150664229377956,1
0.0457198905479235,0.0197577905786361,1
0.0408019298807071,0.0186536617044877,1
0.0387886888530786,0.0357693195575468,1
0.0251976708241846,0.0353811991324833,1
0.0164528875702146,0.0286838540123665,1
0.00394045644110926,0.0126845407458805,1
0.00529237186952457,0.0178485756702294,1
0.00712766706452628,0.0150443050383684,1
0.0112593772923922,0.0245365155692183,1
0.01427715935243,0.0321495672228658,1
0.0137284911476033,0.0360913409572617,1
0.0128069479894795,0.0352461170032461,1
0.0113395013148757,0.0347026235130348,1
0.0124491407507047,0.0377347846252272,1
0.0131267537757203,0.0394516124978516,1
0.0123282118914695,0.055441447699289,1
0.00260933522772246,0.0313708960694202,1
0.00107918961036623,0.137631632807255,1
0.0012179557880863,0.155099088814636,1
0.00124767398343046,0.15700760831686,1
0.000971302155522378,0.24779490419013,1
0.000328711465146687,0.198571587507333,1
0.000138189557272037,0.134538868364179,1
0.000151028941705356,0.21536402204835,1
0.000153324914328664,0.320799597647227,0
0.000119852086073161,0.312092637456815,0
8.60385181567301e-05,0.27831804593473,0
5.85420636732136e-05,0.274568681018337,0
4.96023002376461e-05,0.365705595282891,0
1.09445351247229e-05,0.298971533778249,0
9.09619754104674e-06,0.280998696480914,0
1.49932692083407e-05,0.372505796569244,0
1.65210880171751e-05,0.372236596895056,0
2.06177106206596e-05,0.48196293413775,0
2.20434786208234e-05,0.514829921348138,0
2.34876041631099e-05,0.533400716854506,0
2.39817289718523e-05,0.541493935868974,0
2.58313072658831e-05,0.564866246642711,0
2.38139087079578e-05,0.540736564256285,0
2.24943523494538e-05,0.528695828470109,0
2.0426524404563e-05,0.574247552801804,0
4.6684463285806e-06,0.343750978492264,0
3.58211534703896e-06,0.432204095723103,0
2.96896333218521e-06,0.396523180955971,0
3.07625743666862e-06,0.432263366702756,0
3.39537725362462e-06,0.471841139265483,0
2.89219008103612e-06,0.44815939984614,0
2.73971651356886e-06,0.464027319892404,0
1.83306918249337e-06,0.382712179082126,0
1.80404505253518e-06,0.396827970044165,0
1.9659977299643e-06,0.413966848244699,0
1.98113481055196e-06,0.41322786863998,0
1.88246126103541e-06,0.390221105042644,0
1.84527226271808e-06,0.397939352265069,0
1.89031895519487e-06,0.436849552463324,0
1.87406502815772e-06,0.431376657454344,0
2.13559600015002e-06,0.471948707455273,0
2.29008867355007e-06,0.472372560464985,0
2.12050800943783e-06,0.51918408977948,0
1.28930415313798e-06,0.419205773512072,0
1.0668783416485e-06,0.397469910772677,0
9.0325805836536e-07,0.358609378773908,0
6.53272320840429e-07,0.30346279428905,0
6.69320774643544e-07,0.315553599400842,0
6.9853960706141e-07,0.325296025176151,0
7.59497011707605e-07,0.312747939598053,0
6.71045134193245e-07,0.277766140603161,0
6.44559800030926e-07,0.277860786226416,0
6.37815431106259e-07,0.267709817847849,0
6.26147575515355e-07,0.258697377606551,0
6.19090854134118e-07,0.244283684091675,0
4.89867453044577e-07,0.230276183835742,0
5.55158851590829e-07,0.247216838603529,0
4.45169567952983e-07,0.229046217228309,0
2.63365524848964e-07,0.183407774157554,0
2.94968426746357e-07,0.204438039313785,0
2.864098037321e-07,0.202146864730959,0
3.4114190792589e-07,0.208620730268294,0
3.3436957641393e-07,0.206689672003824,0
3.74367261277075e-07,0.223809778674219,0
2.48770089933677e-07,0.204314157856501,0
4.64417563133183e-07,0.250476586365991,0
1.19447059181265e-06,0.364227238669965,0
1.22464470906454e-06,0.3522539051205,0
1.24023644060854e-06,0.355890419060058,0
1.13154275684858e-06,0.343657938669619,0
1.14540080798045e-06,0.361420864703165,0
1.05635446657328e-06,0.358886874649385,0
9.10602690830574e-07,0.33338397299787,0
1.1843609772899e-06,0.349044657741617,0
1.32342099519811e-06,0.336209239221133,0
1.30824414559741e-06,0.348953153280867,0
7.55233649231748e-07,0.275690424389804,0
7.6489503383671e-07,0.279122761014418,0
7.44636864299284e-07,0.262580125395731,0
6.91268298713987e-07,0.241490866347792,0
6.50098463617597e-07,0.226832692434216,0
7.48169471160567e-07,0.245601436378237,0
9.55629705931114e-07,0.282709302522894,0
6.97596542913685e-07,0.239814506241638,0
8.13408880007483e-07,0.261078453490821,0
9.13144593580597e-07,0.271342668373435,0
9.25850793246294e-07,0.274633938258571,0
9.54144996111022e-07,0.284327219875348,0
9.62648729602076e-07,0.283847348188981,0
9.23917024987313e-07,0.289341582291119,0
1.00904756852216e-06,0.310203579299079,0
9.88947853646054e-07,0.295579930717101,0
8.88050346353508e-07,0.271854343550174,0
8.62904109427083e-07,0.283903138434815,0
6.07574410775146e-07,0.25521606697196,0
4.8469665282851e-07,0.235148875490399,0
4.18669320410774e-07,0.231122554800875,0
3.4879185041828e-07,0.211209624158693,0
5.06080575417303e-07,0.267058039013916,0
5.43592696965561e-07,0.265271688860878,0
6.58012497212194e-07,0.288276221260905,0
6.74919920270876e-07,0.293454990706128,0
5.80549087982667e-07,0.283619416451134,0
4.67725019384192e-07,0.248340139639551,0
4.32802854810044e-07,0.234497859707813,0
3.84572984247997e-07,0.225216998994362,0
3.90071257430801e-07,0.222214757958133,0
3.87063518689513e-07,0.225891547008946,0
3.69122101291837e-07,0.210249209557682,0
3.88347726402205e-07,0.213864141968334,0
2.02414334111054e-07,0.167815330359009,0
3.46880452229133e-07,0.212140118076706,0
4.33797287266276e-07,0.239258093516152,0
4.24789398682851e-07,0.250354263390584,0
4.17979990851445e-07,0.251291921990019,0
5.3348826069972e-07,0.254857677968672,0
6.65206545966578e-07,0.275276974909322,0
6.89294761441967e-07,0.272452785364357,0
6.9850646621721e-07,0.270082283263836,0
6.11090654344605e-07,0.258000867016894,0
6.92027431176408e-07,0.269923312933701,0
6.85278091125111e-07,0.277151830369194,0
6.25341217349951e-07,0.254186718423273,0
8.66358006783393e-07,0.291022515560994,0
8.68572850827234e-07,0.284359037571174,0
7.75989759953256e-07,0.293107150367591,0
7.0840874333344e-07,0.284699790575092,0
8.06632613020275e-07,0.303471938754392,0
6.51527662523656e-07,0.292081497582801,0
6.58102598882359e-07,0.294474371509126,0
7.46087604754073e-07,0.310359061980034,0
1.01405535721082e-06,0.354470305139202,0
1.10276987591546e-06,0.374765844009481,0
7.34139501899416e-07,0.304895353605477,0
7.79181016119293e-07,0.311662022347734,0
7.62015922996968e-07,0.30111822251899,0
7.66153350264871e-07,0.30477702242445,0
8.50118993126138e-07,0.314076878837782,0
8.91260037114132e-07,0.306816148715574,0
9.00774773483514e-07,0.307023836124124,0
9.1952938434571e-07,0.312881253285959,0
7.502666652075e-07,0.287963729146294,0
7.01429488675516e-07,0.28322254967864,0
8.25522065692303e-07,0.315454345267675,0
8.07273888355515e-07,0.312498378624202,0
7.98238658575629e-07,0.313608801067084,0
7.82637606169195e-07,0.306383308179844,0
7.57392568101001e-07,0.331823198488497,0
7.71275474866021e-07,0.350235335362596,0
6.94304207172843e-07,0.336100496797852,0
7.14398950922314e-07,0.322813518769108,0
8.70563787042458e-07,0.323631297348915,0
7.01383920014743e-07,0.282230504248099,0
6.5064425189549e-07,0.269037573102863,0
6.85284719293951e-07,0.276679294178824,0
6.55004965601181e-07,0.27125573589022,0
5.98076244827862e-07,0.264202478480391,0
5.84029705144612e-07,0.252960892330415,0
4.77088343521644e-07,0.23133123814145,0
6.39477444442812e-07,0.259037580672277,0
8.27933890628847e-07,0.309332520093422,0
1.13599357222443e-06,0.376191477115534,0
1.70283291435302e-06,0.450774818554198,0
1.448329458373e-06,0.414728224123752,0
1.32045240407903e-06,0.418478291716314,0
1.32493470325687e-06,0.414881255241943,0
1.14866828808814e-06,0.376020690272711,0
8.45530643246859e-07,0.319271785864629,0
8.0070288747206e-07,0.311128798563437,0
8.96043917974183e-07,0.334496127175903,0
8.68616762445796e-07,0.332903310536144,0
5.9463788224227e-07,0.291809218115806,0
9.24795257358569e-08,0.150219996432554,0
3.8758155151039e-07,0.238045443331725,0
8.52887910658922e-07,0.310681936654231,0
8.60762382370757e-07,0.302236572650728,0
9.44976374433237e-07,0.310148209518576,0
9.32803949489412e-07,0.324688524906087,0
1.05075034981931e-06,0.330564760059875,0
1.16676836727742e-06,0.344176464126309,0
1.21696493981237e-06,0.355830249754282,0
1.24448012570816e-06,0.362567702430255,0
1.23464060906563e-06,0.368617654436296,0
9.27068926400862e-07,0.328210927126641,0
1.95145097066394e-07,0.187673803589192,0
1.41821271620764e-07,0.184433302937881,0
2.4433915906434e-07,0.210715357760499,0
5.75374145161074e-07,0.269062921117089,0
5.78996439431968e-07,0.278914831392279,0
5.9508963337475e-07,0.274527532067047,0
5.55339469191713e-07,0.255370266637641,0
5.58608813471892e-07,0.259765301736584,0
5.66894231651789e-07,0.261464133034634,0
4.51395904056772e-07,0.23891805467763,0
4.33424245638765e-07,0.221957813417627,0
6.28068087436658e-07,0.254888505288831,0
8.84010477445714e-07,0.313728603567647,0
7.87255989938529e-07,0.31166129974645,0
7.6509056481748e-07,0.3205419291053,0
6.68414579684991e-07,0.32238499094271,0
6.65998405012646e-07,0.330398591762877,0
6.0289326653211e-07,0.3027281774122,0
4.87733182678194e-07,0.271222932924964,0
3.64693448855539e-07,0.240500811550603,0
2.66866647908257e-07,0.2315560669888,0
4.58957609051485e-07,0.280504301333419,0
6.54452342024172e-07,0.327488919324781,0
7.11662552842902e-07,0.333563554020054,0
6.71877797903732e-07,0.312353988088222,0
5.49818411678522e-07,0.273527449000889,0
4.89672543454634e-07,0.265417926178575,0
4.13369063772055e-07,0.251677208662637,0
3.74440171134312e-07,0.254607930545347,0
3.3242586590169e-07,0.239454705152471,0
3.08101521911386e-07,0.235344864436501,0
3.84167008906566e-07,0.264209872886968,0
5.48973320151461e-07,0.299068310993804,0
6.7788602582664e-07,0.300105549700427,0
7.060143173401e-07,0.297912497618265,0
1.05537846871163e-06,0.345962605380719,0
1.39459986471622e-06,0.387680439130364,0
1.48956101829171e-06,0.362670467142328,0
1.48301570156251e-06,0.339604272125052,0
1.37118523689916e-06,0.31658245841925,0
1.33055456191183e-06,0.301517439258936,0
1.39842701083031e-06,0.305399186518919,0
1.3792218916173e-06,0.301684860313548,0
1.66477251896355e-06,0.338427596186572,0
1.60423993851392e-06,0.325439008667935,0
1.53153783294434e-06,0.325199243467397,0
1.21359803717208e-06,0.288973514699148,0
1.13022644394307e-06,0.294834689689631,0
9.92983579948325e-07,0.287874182693884,0
9.00369833793464e-07,0.28588683992472,0
8.69263008907666e-07,0.289875911049139,0
8.34255506659709e-07,0.292563336552752,0
7.96390435120735e-07,0.299446187846178,0
3.91203845781284e-07,0.224927087525955,0
3.29071391077973e-07,0.228177357042456,0
2.43924898511859e-07,0.210339364324588,0
2.77849730805909e-07,0.213334542817481,0
2.26604871942905e-07,0.202146621506433,0
2.60852620337614e-07,0.203708885113926,0
3.96923126968836e-07,0.224242262379896,0
8.01998487349946e-07,0.316075868062847,0
9.75225679975399e-07,0.334911694575291,0
9.64544593020506e-07,0.321267141778836,0
1.03512112769531e-06,0.341205748964894,0
1.05895705849424e-06,0.341626952582408,0
1.08537859653148e-06,0.339725612022721,0
1.01449095218176e-06,0.328924633874605,0
1.05228311386349e-06,0.337637476930091,0
1.14146843968602e-06,0.364081165090903,0
1.03303988267965e-06,0.343931457885776,0
9.80820890127483e-07,0.32372166474727,0
9.92572633480265e-07,0.31623393147227,0
1.05924455531766e-06,0.327359402404805,0
1.03505484600691e-06,0.313578176195946,0
1.03460744461024e-06,0.318459231901547,0
1.12995696745368e-06,0.337950292333122,0
1.17886643245207e-06,0.337562575025218,0
1.21620787865271e-06,0.338830520764663,0
1.16379811911613e-06,0.326584968369872,0
1.18372798716571e-06,0.342876907177253,0
7.45917550797279e-07,0.280857961052813,0
7.4351318255068e-07,0.285723445035903,0
8.79175228277156e-07,0.299814808355919,0
8.79505186807208e-07,0.307650324620753,0
8.71635686222001e-07,0.314734855257518,0
1.03328284649368e-06,0.267105814476177,0
3.15480200380104e-05,0.458642578280719,0
5.34940337144791e-05,0.323809939555569,0
5.20570995282535e-05,0.318622417879298,0
5.17940931673035e-05,0.319100586600408,0
5.26539445907194e-05,0.321882569568471,0
5.3877463132472e-05,0.323766783796484,0
5.39464915754622e-05,0.313767130968867,0
5.27649682829568e-05,0.314372555600906,0
5.20837099691027e-05,0.324758076766436,0
5.27939232314027e-05,0.333172232655516,0
2.7475373799652e-05,0.443063059310889,0
9.95275890715479e-07,0.279352855534029,0
8.32134492631004e-07,0.288741402525347,0
8.20240243648171e-07,0.290428679004235,0
7.4958789929226e-07,0.271766233164718,0
1.20857719927601e-06,0.329290596501077,0
1.31173118379792e-06,0.347415490630045,0
1.05272720117575e-06,0.31749483746515,0
9.13113109778608e-07,0.313272924583218,0
8.99286128188175e-07,0.308275829856608,0
6.39691202887893e-07,0.261564680591305,0
6.79239207921319e-07,0.268342708226085,0
5.57279865619532e-07,0.267287661439721,0
2.49947625554104e-07,0.199107151441363,0
3.37584445431459e-07,0.226539872055119,0
2.56453173270266e-07,0.211513681167202,0
3.58986802614836e-07,0.234336067310782,0
3.86851417286642e-07,0.232737337703689,0
7.71224106557514e-07,0.267529343407289,0
1.16990576957163e-05,0.618977410337472,0
1.76393999133683e-05,0.553745862685194,0
1.73309415059909e-05,0.523815062039473,0
1.74810655947348e-05,0.527427591934267,0
1.71203159063388e-05,0.524189380544493,0
1.72026037939626e-05,0.525482449817158,0
1.71165875613665e-05,0.52117739503529,0
1.67309143010911e-05,0.51761001309176,0
1.66019672117901e-05,0.515353146765854,0
1.65040144756349e-05,0.537307191868824,0
7.84903963512735e-06,0.540016820470664,0
8.31709254173882e-07,0.258740228601263,0
7.29702771382345e-07,0.293230895545354,0
7.54019865812979e-07,0.2761432480697,0
8.2547546138015e-07,0.282171648777902,0
9.98011667404064e-07,0.306021697866534,0
9.95782945631716e-07,0.298788952738853,0
7.10863858497718e-07,0.250444716376604,0
4.45239992246904e-07,0.211103380321041,0
4.32620580166953e-07,0.207679454599832,0
5.008246446577e-07,0.219890458311636,0
5.27802120356367e-07,0.21972094593194,0
6.0511805282921e-07,0.239722871597475,0
5.70914216053063e-07,0.25941560055466,0
7.9822312380491e-07,0.318260895813618,0
7.75065130400118e-07,0.290105219288896,0
8.26732535026652e-07,0.2949726073707,0
8.23036502377417e-07,0.293138666463347,0
8.42173475729553e-07,0.293853782681201,0
8.59557505553865e-07,0.290981297796213,0
8.43438834587106e-07,0.292769504520158,0
6.92962002982805e-07,0.26740063043476,0
7.00214669605366e-07,0.274451806115273,0
6.97367249697887e-07,0.275086186702202,0
5.65541256687386e-07,0.251628423294202,0
7.07259791691133e-07,0.285678701553913,0
9.13422976671865e-07,0.33433701505341,0
9.23494479223782e-07,0.329655403643747,0
1.19203473976406e-06,0.357235010179417,0
1.35982206994461e-06,0.383317010214917,0
1.27093584024097e-06,0.369478422061434,0
1.30852418573089e-06,0.357782752962978,0
1.44052313252205e-06,0.364808422258356,0
1.44309983315848e-06,0.359599530787289,0
1.4025271546485e-06,0.348731364514013,0
1.21787465598562e-06,0.347585085145246,0
8.64084544871377e-07,0.290664917812762,0
8.71582660871284e-07,0.286831061143926,0
9.56613989003809e-07,0.30723904602954,0
6.16499447248073e-07,0.244777793497676,0
6.52024568056357e-07,0.248109364483031,0
9.79005600386512e-07,0.308250903915513,0
9.77777524978682e-07,0.310407787017727,0
1.05344635749486e-06,0.321201333052335,0
1.09321205644862e-06,0.33903122322122,0
1.0510869365182e-06,0.315875211195724,0
1.08204856308036e-06,0.324182726875526,0
1.11741647200898e-06,0.344652929063159,0
6.27290934640203e-07,0.266623380578207,0
5.43070728669435e-07,0.252675935836472,0
5.28559388646303e-07,0.255810896168307,0
3.74524680287018e-07,0.225015325317138,0
4.82415734226549e-07,0.250696841346584,0
6.57711536920816e-07,0.280234737004986,0
6.52733782122205e-07,0.272928230141289,0
7.59528495509595e-07,0.308896521084741,0
6.55459616557528e-07,0.268622041351017,0
5.8022824318477e-07,0.251130048990057,0
5.83825681822515e-07,0.245505354408578,0
6.25019958291502e-07,0.250096435587132,0
5.94031404793437e-07,0.250448160871857,0
6.03037429204374e-07,0.250064472591597,0
5.99024280102214e-07,0.245924840319652,0
5.47418807428276e-07,0.241495208430182,0
5.85748057916304e-07,0.250998943038047,0
4.16081641869701e-07,0.21842057871128,0
7.46974950857486e-07,0.276378095619126,0
1.30202754461661e-06,0.365775959280495,0
1.40390415672494e-06,0.381796987061886,0
1.36540215958653e-06,0.372757509010333,0
1.46137700873395e-06,0.376357232813789,0
1.3778192053866e-06,0.349024215564909,0
1.85357570123201e-06,0.407357778149243,0
2.11500725069172e-06,0.440291782321714,0
2.00495810640404e-06,0.429054746113303,0
1.95218131201796e-06,0.416987714218638,0
1.74011636407631e-06,0.429796482611166,0
1.29131663090193e-06,0.372760106399074,0
1.1135969897151e-06,0.342885313999169,0
1.09834557321496e-06,0.341555604235578,0
8.86192802036183e-07,0.314240158146815,0
8.56039812072473e-07,0.337859352178272,0
6.16953476813592e-07,0.29744111717698,0
5.22356044003177e-07,0.272955469274933,0
5.20999133563524e-07,0.288938186175982,0
4.28627108441036e-07,0.276540518196312,0
5.35811226747758e-07,0.304185322191426,0
5.69405479120929e-07,0.311986141948332,0
6.57074611321376e-07,0.318613900328305,0
9.51236887032605e-07,0.378989638113402,0
8.71662198897359e-07,0.352222674199111,0
8.28395169754036e-07,0.341354761244074,0
8.35495595623559e-07,0.344765074438374,0
8.98514775039454e-07,0.365506109584975,0
9.21721444059163e-07,0.352892263095567,0
8.53728031059356e-07,0.344488120327894,0
5.80591342559021e-07,0.292963762995195,0
4.87982360400512e-07,0.275798203039046,0
3.82506652612221e-07,0.267548217942346,0
1.72940731453412e-07,0.207470268754445,0
1.63894938029437e-07,0.200970012448758,0
2.43228940783691e-07,0.233436965949494,0
2.81780027797573e-07,0.250613838686027,0
2.37578426847851e-07,0.231998760589332,0
2.93634507767369e-07,0.247275214970568,0
3.27438168849818e-07,0.232387715572188,0
3.84922620154291e-07,0.251002947455828,0
3.67862749212295e-07,0.239315203986663,0
4.30938889454156e-07,0.264074570199506,0
4.00595132506028e-07,0.257928185722087,0
3.88617202891592e-07,0.244101278984642,0
1.42225424215764e-06,0.417325388804127,0
1.94216138490482e-06,0.432181289094014,0
1.91929751649229e-06,0.426116590229714,0
1.70692746565374e-06,0.408135234109675,0
1.73303250862888e-06,0.429379266008933,0
2.81376558732484e-06,0.432310312079504,0
5.77641434590858e-06,0.506012466287412,0
5.55569487363477e-06,0.460112278795148,0
5.49541996324879e-06,0.45010030104878,0
5.5700380238736e-06,0.437540527759216,0
5.7675011158614e-06,0.440071518768795,0
5.83666108657699e-06,0.446959428328744,0
6.14418657919016e-06,0.460032567616325,0
6.45938355584444e-06,0.473184377371065,0
6.75656806941629e-06,0.484601656027391,0
6.23882854500996e-06,0.535394964539562,0
2.6875567602757e-06,0.425326604762068,0
2.57637689181002e-06,0.457147520565028,0
2.33801965512351e-06,0.438136839175295,0
1.66750663860992e-06,0.439843157451388,0
6.52360947624971e-07,0.304730751839215,0
5.91083526701983e-07,0.301530098364649,0
5.09714468983666e-07,0.276736822921776,0
4.79283095928687e-07,0.262456717709518,0
8.16182768666896e-07,0.31198949465844,0
7.62321647284698e-07,0.287895580419638,0
7.79447799915092e-07,0.290780266484663,0
7.38957973515598e-07,0.291808306288103,0
5.86061031763703e-07,0.2651155971223,0
6.12799271993313e-07,0.272761346214428,0
5.11051909177351e-07,0.249806080110241,0
5.13434528744945e-07,0.249936102730705,0
5.82247556247839e-07,0.254694584910597,0
5.68136806178955e-07,0.250287039929795,0
1.54684890296403e-07,0.157988544532017,0
1.89704820360937e-07,0.177844302328115,0
2.18388221014721e-07,0.17932556171702,0
2.83494445094015e-07,0.201447363878213,0
2.75698682887152e-07,0.197193551181971,0
2.855415136141e-07,0.199069653496496,0
3.35882455951591e-07,0.213104469832223,0
3.27910425879646e-07,0.219157136324407,0
2.74290197008716e-07,0.227832344412357,0
3.53674325289821e-07,0.255984949162134,0
3.60189608128966e-07,0.244288619415067,0
4.46784355586554e-07,0.278010582218519,0
6.04550308742035e-07,0.3378990007119,0
6.14055309988435e-07,0.310569807586506,0
6.40504810612966e-07,0.309096720007012,0
6.5939447041527e-07,0.317311576850334,0
6.91725020973097e-07,0.320273976794508,0
6.57435018002035e-07,0.309314745077408,0
6.27127508852249e-07,0.290651234489492,0
3.92976880945902e-07,0.243640583334602,0
1.09480778809678e-07,0.166894818500636,0
1.08804912718304e-07,0.171002444906806,0
8.81913076268514e-08,0.164544075564035,0
9.28424179798308e-08,0.176485383755334,0
9.45127165274342e-08,0.192725407713797,0
1.89852504247896e-07,0.242188643000509,0
3.90314635505383e-07,0.325774137528362,0
4.32466475241429e-07,0.321158492167432,0
4.26534471260178e-07,0.30597784216489,0
4.45045289787238e-07,0.300913846004334,0
2.94572393658185e-07,0.25099882489387,0
2.48543282281194e-07,0.226702893788945,0
1.51589742578542e-07,0.175563146805493,0
1.33834535299207e-07,0.174279114638208,0
1.80303798513209e-07,0.176806091660469,0
2.11173666362989e-07,0.174374436015221,0
2.22878805403615e-07,0.176959865644137,0
1.97534344802828e-07,0.172952114675762,0
1.86216746509047e-07,0.175785633515543,0
2.22389977951687e-07,0.187734803763368,0
2.24413226490004e-07,0.19247154689745,0
1.92233466773281e-07,0.185469379731044,0
1.72506379264136e-07,0.188576397410638,0
2.05021897158645e-07,0.199873421168436,0
1.59349671247616e-07,0.193728696911939,0
1.32382137802208e-07,0.185747118813657,0
1.9794964100669e-07,0.210822113309565,0
3.02650474431565e-07,0.243090336578271,0
3.18078573057338e-07,0.247688295281182,0
4.41369763035351e-07,0.287548452067611,0
4.54836545075403e-07,0.27920682354209,0
4.21601249470958e-07,0.274293353731163,0
3.97777332228052e-07,0.267753222103204,0
4.36149458683262e-07,0.281772177809392,0
2.4936331104483e-07,0.229889254265347,0
4.71670851146574e-08,0.161732043057063,0
8.92516075109255e-08,0.178419830823069,0
2.63807747988737e-07,0.242654714925887,0
3.35226267236461e-07,0.259920387397192,0
2.64711871644527e-07,0.241053336413122,0
2.75339311857874e-07,0.247900722568525,0
2.95650506746018e-07,0.240695081361653,0
2.78154419442259e-07,0.227752460026421,0
2.64455651492816e-07,0.219180298777552,0
2.67961331418188e-07,0.217655251521489,0
2.31969338967258e-07,0.199146022331749,0
3.12261319249124e-07,0.233272337738986,0
3.86844789117803e-07,0.259271243770013,0
3.16410552942774e-07,0.234777843548675,0
3.24895644708965e-07,0.231670167796823,0
5.1956082092531e-07,0.272413562700143,0
5.89690989854817e-07,0.283724804106954,0
7.89227870168339e-07,0.336446410077064,0
1.00089015685298e-06,0.37178782462953,0
1.07019905423719e-06,0.387293795286114,0
1.0554275585871e-06,0.380385254134008,0
8.62952785041999e-07,0.346939274779485,0
3.47167949052554e-07,0.23641804115582,0
1.78776626986489e-07,0.188919147736167,0
8.26234386712296e-08,0.156546592460569,0
1.1661268848119e-07,0.179197769917871,0
1.96207261122955e-07,0.216956804472744,0
2.94600770506031e-07,0.245829368805029,0
2.26956786282237e-07,0.230960544023001,0
2.25096135010769e-07,0.214927194755417,0
2.32678760163381e-07,0.223180400943725,0
2.58712343193221e-07,0.229038865005107,0
2.73194892107956e-07,0.224897549611085,0
2.4284388560016e-07,0.221552314799984,0
2.52475443445343e-07,0.215765526376917,0
2.3761260334343e-07,0.213380277013771,0
2.31014882654341e-07,0.216750381369165,0
2.00898140488974e-07,0.199707809124213,0
1.96525206096984e-07,0.204809944096166,0
1.46855365854514e-07,0.192995474329939,0
3.24619747181013e-07,0.241805697796016,0
2.89693440001341e-07,0.224218534975244,0
3.56019868537968e-07,0.246853501927884,0
4.04843788732273e-07,0.252221268100737,0
2.93450783212344e-07,0.215176140214703,0
4.33075645383853e-07,0.257837420059264,0
5.3512355423064e-07,0.272926962757401,0
5.35907335195934e-07,0.273055117548675,0
5.22730535542619e-07,0.273136027743082,0
5.21867216551248e-07,0.28897900664708,0
3.90655986200628e-07,0.269175718312094,0
4.22524221981885e-07,0.29410850476972,0
3.52227520310281e-07,0.29239658770831,0
2.29039895470389e-07,0.247138880607141,0
2.04968871807927e-07,0.248965940778922,0
3.25781126639894e-07,0.27516823983823,0
3.70714518855574e-07,0.284889865697137,0
3.82299522335981e-07,0.28639167330844,0
4.00883457850555e-07,0.279356685122148,0
4.38735065921572e-07,0.278559391745526,0
4.9145075687616e-07,0.290529409857768,0
4.40126359987079e-07,0.279046759569054,0
4.07656617883618e-07,0.260127743091874,0
3.574737159469e-07,0.252715239205714,0
3.69714493881885e-07,0.26655870068387,0
2.63126910770734e-07,0.24819095889547,0
1.59346357163196e-07,0.205345149219268,0
1.86778690948487e-07,0.202950498207535,0
2.81522564864205e-07,0.239586672822552,0
2.77494916642709e-07,0.223554136543312,0
3.28927228405711e-07,0.233157472247879,0
3.52042138713045e-07,0.226327791787098,0
3.60183187090402e-07,0.228440051800758,0
3.27487880116116e-07,0.217496528985447,0
3.25359616527744e-07,0.216931782213568,0
3.2861984707577e-07,0.217796352244869,0
3.54197122107052e-07,0.231762161817552,0
3.65889833331106e-07,0.259083551451253,0
2.18165555967763e-07,0.209686546417713,0
2.45705597496699e-07,0.23130793261928,0
2.02489936661882e-07,0.204168768632944,0
3.79718886224301e-07,0.266749969757369,0
3.52514188612597e-07,0.24973508172265,0
3.71059805026067e-07,0.244530702038519,0
4.13173532791285e-07,0.241933337673473,0
4.20728195356604e-07,0.22937347322886,0
4.43093086933672e-07,0.232306205705823,0
4.47342778811298e-07,0.227031992906535,0
4.9829247703066e-07,0.233696119029269,0
4.68876663720089e-07,0.223851126344554,0
6.2224109850546e-07,0.252768434163115,0
4.37261334006121e-07,0.215632012709834,0
4.27424095796631e-07,0.220676521703662,0
4.2044131992401e-07,0.2274614685115,0
2.78790102260041e-07,0.203244000855013,0
3.08483470140774e-07,0.217274903257705,0
3.29211204014436e-07,0.21806210994394,0
2.89094212112177e-07,0.207021879746745,0
2.78199159581927e-07,0.210725951299373,0
2.43790678092856e-07,0.20902137966278,0
1.44979801203155e-07,0.188148306201514,0
1.97048210044491e-07,0.215368096302525,0
1.96102660333453e-07,0.207374121308032,0
1.85774316238997e-07,0.209389177421433,0
1.39128578029638e-07,0.188485665285842,0
1.18031116612885e-07,0.194207307491475,0
6.17662483749167e-08,0.185518809000332,0
5.79749357986108e-08,0.183348849375701,0
1.56305684707985e-07,0.234812437128786,0
1.55621326275287e-07,0.206899177852184,0
4.49456336150056e-07,0.286090193994819,0
3.93565130930425e-07,0.248910933060739,0
4.50140694582755e-07,0.268566404154172,0
4.80297205761162e-07,0.255011183837432,0
5.05172516286264e-07,0.257965607968772,0
5.04476558558096e-07,0.257811146371046,0
5.22730535542619e-07,0.256775466611587,0
5.36240607810406e-07,0.259582092395914,0
4.63703585070981e-07,0.241686100668452,0
4.48095697365433e-07,0.251406487038781,0
1.92414084374162e-07,0.193411061368494,0
2.42208202782378e-07,0.215049364706611,0
2.69764814733414e-07,0.229383128515379,0
3.30533730828232e-07,0.259352574672899,0
2.97926247091072e-07,0.232199792613716,0
2.97224696845445e-07,0.226451959722188,0
3.39520699253755e-07,0.23302057872575,0
3.73114537366373e-07,0.234318312898626,0
4.20789298788095e-07,0.250180613464705,0
3.87519205297242e-07,0.24044670998527,0
4.5003961500795e-07,0.255999854951808,0
4.03504691496379e-07,0.247622114779974,0
4.11608663554288e-07,0.23942231279753,0
2.56019649602094e-07,0.197992150202771,0
2.72175811148853e-07,0.211473577193765,0
2.54413354309851e-07,0.201528485014241,0
7.76707466360431e-08,0.140490187471533,0
5.94215336478741e-08,0.138013599114646,0
1.6709302949459e-07,0.176548641364767,0
2.49906820889685e-07,0.192195360076222,0
5.07740931711646e-07,0.255040594443745,0
5.79548855878702e-07,0.266057338228662,0
5.9508466224812e-07,0.271002606838866,0
6.50768530061234e-07,0.288574047881608,0
6.1623017788896e-07,0.290645060202343,0
6.0314513694802e-07,0.294040723526971,0
5.9134865345557e-07,0.290265223067104,0
6.10280360703951e-07,0.296003251300233,0
3.6937977135548e-07,0.241635126589548,0
1.26148966399303e-07,0.178129522324069,0
5.07396681192539e-08,0.147207016822929,0
1.29591057329869e-08,0.13293508614935,0
1.75888816675144e-08,0.13802652246649,0
2.41143138901952e-08,0.135252355241886,0
5.3950187400981e-08,0.140839158960266,0
1.16075806805175e-07,0.163266530218628,0
1.17820050861396e-07,0.165964661883211,0
8.94587377871659e-08,0.153590353360322,0
7.61609740525261e-08,0.15900358112462,0
8.8004890378234e-08,0.165533656658758,0
9.45270085164948e-08,0.1695644687613,0
1.28743894500044e-07,0.16865054539098,0
4.37214936824243e-07,0.252970956700064,0
4.2496193820296e-07,0.255794653802552,0
3.85716343372845e-07,0.256106913101033,0
3.74615817608563e-07,0.25761675506607,0
3.8727085609603e-07,0.25793898251822,0
3.3067105820138e-07,0.241986000780055,0
3.4866674373143e-07,0.23158432296914,0
3.70050044929394e-07,0.238553825166655,0
3.53097467470491e-07,0.239652272150814,0
3.71112208985955e-07,0.257897385670354,0
7.11898474227543e-08,0.158984956836794,0
4.5409584720757e-08,0.146412505066216,0
8.29600253701205e-08,0.162092840519319,0
8.9637698345838e-08,0.165039541866155,0
8.2926056004817e-08,0.165539343637824,0
8.1269013794893e-08,0.165995144199823,0
1.80185112864924e-07,0.207661071259922,0
2.68747390816521e-07,0.24589191127663,0
4.39260348302118e-07,0.299267798411079,0
4.50727287525069e-07,0.293605909190997,0
4.32723523914244e-07,0.284798065271742,0
6.55778804313216e-07,0.32917926716215,0
4.87432429517094e-07,0.267863666765322,0
4.14275465860885e-07,0.249953883084031,0
5.17460519924232e-07,0.281343713627842,0
6.14886316656712e-07,0.303515799674917,0
7.12076813395383e-07,0.328505556371521,0
9.13767641451526e-07,0.369622731738749,0
8.24030520573096e-07,0.335708661442972,0
7.17345379101836e-07,0.332767747629439,0
6.66419293733966e-07,0.338775504457224,0
2.08646676992854e-07,0.212958167004077,0
1.04334005705654e-07,0.197228596143993,0
1.35553716592003e-07,0.212268610409253,0
1.77459278429599e-07,0.217775541821336,0
3.89709815098761e-07,0.284802579516283,0
3.78181979574596e-07,0.277069386699324,0
2.00666154579584e-07,0.215310266970286,0
1.2024347509341e-07,0.194801419769082,0
1.33536060571144e-07,0.200838426461206,0
1.33600063826503e-07,0.19752300472857,0
1.49733855303427e-07,0.214539712700683,0
1.54585674894085e-07,0.220418796402677,0
1.82339267737824e-07,0.245671475651222,0
2.30514455906945e-07,0.277317075375959,0
1.0488186528631e-07,0.244474694640662,0
8.41562027154094e-08,0.237479892207214,0
9.70067721836458e-08,0.227908236805633,0
1.99073944146123e-07,0.263638372951934,0
1.36952881608007e-07,0.245438789265774,0
5.65797062578545e-08,0.190186324658474,0
7.01792588049767e-08,0.190492312938416,0
1.54316405534972e-07,0.22448657977716,0
1.83728904761123e-07,0.227037555829443,0
2.62051283246218e-07,0.243882698641632,0
3.46273146259195e-07,0.257828833680606,0
3.08920722153918e-07,0.234106176702239,0
1.23711395169422e-06,0.364844491029352,0
3.51638276100432e-06,0.569465037923147,0
3.5501913932134e-06,0.514344797103891,0
3.48965736285183e-06,0.513220365006124,0
3.31199157553682e-06,0.500686096911064,0
2.93598881359855e-06,0.462027129906956,0
2.59632768001751e-06,0.432014624451039,0
2.57544956956329e-06,0.427838042512586,0
2.54112228314251e-06,0.413694790570233,0
2.3249099656797e-06,0.403845257339101,0
2.05454012340938e-06,0.441454473715564,0
6.46519873834989e-07,0.26878085488287,0
7.84558118090496e-07,0.321321085375692,0
8.62344650550957e-07,0.325234480230349,0
7.30921318797467e-07,0.317197595180189,0
7.97228069957851e-07,0.321693437090268,0
8.58894688669897e-07,0.32190376700679,0
5.82848026918659e-07,0.283033139211775,0
5.91651270789158e-07,0.2933608591064,0
7.83124776578912e-07,0.307960059486186,0
7.6815443586363e-07,0.301205954809714,0
1.1900083842716e-06,0.36269726761197,0
1.31981444282821e-06,0.371964699705832,0
1.30931024512922e-06,0.374958206369159,0
1.42544259849981e-06,0.379006497919489,0
1.3410187834675e-06,0.376145409727864,0
1.30449094499193e-06,0.379943317387807,0
1.23256930630322e-06,0.374638552374854,0
7.89945162314956e-07,0.30855614907814,0
3.27686725181306e-07,0.228419253384214,0
3.32568371531743e-07,0.242536581703883,0
2.0118149470687e-07,0.212627199639455,0
1.15375913601758e-07,0.185188735537016,0
9.83653396655071e-08,0.194636314543256,0
1.89360569841828e-08,0.153629429511133,0
3.4035854122115e-08,0.154813469282792,0
1.33201338044739e-07,0.200537293406853,0
1.24357910900651e-07,0.191989527096641,0
1.91206100603128e-07,0.217715288282049,0
1.60615444365722e-07,0.199733518353866,0
1.55108471711315e-07,0.19613535348384,0
3.86536579266756e-07,0.258667340009222,0
5.37362425386523e-07,0.280946609539248,0
5.85639521651554e-07,0.287121256441021,0
6.02672879918192e-07,0.27881207285109,0
5.82520139691371e-07,0.27759830981698,0
4.17075867195656e-07,0.247999907837329,0
4.00160158925923e-07,0.233589780288126,0
3.98268438113018e-07,0.233128990153912,0
4.40616844481217e-07,0.236286717589696,0
7.45808186011424e-07,0.285407380801849,0
5.67137609726371e-07,0.249848144805074,0
4.33949735149588e-07,0.234652564997804,0
5.03376282530706e-07,0.258068195238695,0
5.03020225585849e-07,0.257571066176421,0
4.91291473693731e-07,0.263110648407422,0
5.10539054613379e-07,0.261840464716867,0
5.06398727521608e-07,0.266398942711284,0
4.56356052781904e-07,0.264855014972832,0
5.02390342415801e-07,0.284206436488139,0
3.5180497454675e-07,0.251092549360434,0
5.99231410378455e-07,0.328642916601287,0
6.21835123164027e-07,0.326639131573684,0
4.70261329616757e-07,0.274793175531274,0
4.50367709365515e-07,0.274591534236002,0
4.86881462982294e-07,0.275111999988077,0
4.26307249347142e-07,0.25594718798861,0
3.95211195235709e-07,0.260311640941732,0
3.07233231793386e-07,0.223977091387803,0
5.13015504196111e-07,0.288183935799551,0
7.39280475355705e-07,0.336353924289305,0
5.84872932499187e-07,0.296687000394699,0
5.3686510559327e-07,0.270953717385792,0
5.53103497859696e-07,0.279872559672835,0
5.47238189827393e-07,0.281678647283577,0
4.24366852919321e-07,0.259519548073804,0
2.31224705624173e-07,0.211457235566651,0
1.81524210100819e-07,0.192115258744711,0
1.54386622698617e-07,0.184404041498616,0
1.75422980683878e-07,0.194871083455148,0
1.07437645764841e-07,0.170389064926964,0
5.63073299445979e-08,0.161303528655905,0
1.2873581641927e-07,0.199347258336487,0
1.35917230226804e-07,0.195521703768383,0
1.58198855432824e-07,0.195949437411891,0
1.62741429521053e-07,0.193685046096255,0
1.40019445347747e-07,0.188759469224625,0
1.43365634960413e-07,0.192813620966173,0
1.39776688663993e-07,0.194271554811221,0
1.27140913292218e-07,0.181003380980208,0
1.34198877455113e-07,0.17672734062491,0
1.55801736745892e-07,0.179183623712915,0
4.19068046192542e-08,0.13994093792524,0
2.22192789928707e-08,0.127059723087056,0
1.37899052709874e-07,0.175831350398232,0
1.10141938651437e-07,0.169315401181549,0
1.18294586324263e-07,0.167296090322852,0
1.24733852352028e-07,0.164697720149787,0
1.32334704968949e-07,0.167549070774307,0
2.55968488423863e-07,0.211484722840497,0
3.42036710719248e-07,0.241844609470438,0
5.22844871455103e-07,0.288296451204667,0
5.53074499621023e-07,0.26576243008076,0
7.55303037874289e-07,0.294407588291109,0
8.34556259820809e-07,0.306013489178353,0
8.07867109466668e-07,0.293248471400124,0
6.66841839497497e-07,0.270727035921016,0
8.50582964944918e-07,0.295532912364683,0
1.08687821973146e-06,0.332989482823203,0
1.12511011898965e-06,0.346069225428593,0
1.0707177084489e-06,0.334963237128805,0
7.83966554021554e-07,0.289397557314281,0
6.81108972924943e-07,0.290947828079154,0
5.0285431423458e-07,0.276259827147524,0
3.27932174558652e-07,0.246335101525817,0
2.07270503437512e-07,0.220553262619616,0
1.678627256011e-07,0.205583389769393,0
1.63984211178497e-07,0.20623840940641,0
9.80896492678312e-08,0.168784160338685,0
1.03555195866989e-07,0.166578466450864,0
1.13383113214048e-07,0.172909556973133,0
2.64571851577789e-07,0.22106088101392,0
3.35492429641429e-07,0.23199548915738,0
3.63365536654561e-07,0.234181477109359,0
4.02893242920916e-07,0.243267699319595,0
5.02338974107294e-07,0.25996238502775,0
4.72562961246341e-07,0.251926286208881,0
4.74999434685759e-07,0.265285840584381,0
4.87534959003833e-07,0.277339256632507,0
4.95065594457107e-07,0.27585716346466,0
4.79107242324159e-07,0.269151899566443,0
3.38846904465145e-07,0.220451319304957,0
7.92778704493929e-07,0.322865203644252,0
8.16649433179265e-07,0.310890143609104,0
8.55973530384076e-07,0.297474199135254,0
9.91382877173539e-07,0.305056651163183,0
9.5832902769108e-07,0.292496531300006,0
8.30267627451251e-07,0.274269753685874,0
6.51983142001108e-07,0.245318942374824,0
7.26854315823484e-07,0.256015885939414,0
8.86023990861046e-07,0.284738151496054,0
1.00601870249269e-06,0.32255430106875,0
6.87825172132039e-07,0.285950085254651,0
7.83771023040782e-07,0.327376975319151,0
7.04732802321001e-07,0.330677446897959,0
3.37792404228804e-07,0.264407594152712,0
3.59308061673286e-07,0.268133205345746,0
3.44422851501539e-07,0.255617008814127,0
2.31964367840628e-07,0.222875694088846,0
2.40702987064938e-07,0.243316285631442,0
2.31861631223613e-07,0.232953666141753,0
2.36154406198697e-07,0.238216672748776,0
2.09647323357371e-07,0.216772224160384,0
2.05323478840852e-07,0.200613270022406,0
2.4872307136097e-07,0.216890881535591,0
4.6862645034639e-07,0.25488031290353,0
4.8067722767898e-06,0.430564401165875,0
6.37394163336532e-05,0.622893722519843,0
0.000200485541328438,0.360004855033601,0
0.000664283423700461,0.309753270905813,0
0.000679553222598357,0.197032518812283,0
0.00070169620950371,0.167266489154505,0
0.000846174180651846,0.17759336081287,0
0.000766680831747559,0.153314200683079,0
0.000641672031145635,0.143233420940566,0
0.000533532164033073,0.127700782275497,0
0.00042183421966342,0.105320393128649,0
0.000446347565888187,0.103689445616441,0
0.000564665625872395,0.147638043099733,0
0.000455487352753087,0.169325580471996,0
0.000511387443654437,0.244466807067596,0
0.000520932167516694,0.47353168121977,0
0.000263199282089253,0.407007959399741,0
0.000163686662737029,0.400872419324101,0
0.000130536763838524,0.289246576962738,0
0.000129630141984473,0.296617735781956,0
6.83335822239593e-05,0.2857481935326,0
4.08704059120145e-05,0.432459445089104,0
4.10597074497276e-05,0.415356394033587,0
4.35562031005936e-05,0.43961725089282,0
4.44501856580586e-05,0.446284926613532,0
4.4992916693075e-05,0.450055348453671,0
4.40155824268875e-05,0.444539025513128,0
4.31979917937329e-05,0.451695166845418,0
3.67753094444053e-05,0.650824389805219,0
8.51379173726786e-06,0.36525764499216,0
5.7996261931852e-06,0.447500058989011,0
6.01847362202235e-06,0.474911108376707,0
5.87489919974348e-06,0.491621824375236,0
6.56294040875363e-06,0.500519844465968,0
5.90312691378953e-06,0.454809737265753,0
5.36676720607029e-06,0.429380294378558,0
6.87756301315191e-06,0.532722187016447,0
4.72264590083417e-06,0.425261621160355,0
5.05918185280729e-06,0.453916253899149,0
5.05943869434983e-06,0.448968826635416,0
5.03280836899414e-06,0.454577759104496,0
4.77682206736653e-06,0.435102866229603,0
5.02747041464515e-06,0.470508229313822,0
3.25063958771439e-06,0.39953291187638,0
3.39447416562021e-06,0.418251976833557,0
3.35260070897543e-06,0.414670609443172,0
1.86236568876483e-06,0.319469153276922,0
1.44976611396901e-06,0.304928792508645,0
1.98400812174397e-06,0.352499921043812,0
1.86700437130124e-06,0.339345368971624,0
1.37449497158321e-06,0.293279021823697,0
1.44608437330883e-06,0.303776011539443,0
1.81202888903286e-06,0.342880104750276,1
2.54381497673363e-06,0.434007784050851,1
7.48083967782534e-06,0.319773492876427,1
0.000107707806819793,0.516222763524848,1
0.000309692936964586,0.415478631062628,1
0.00103506571972503,0.522315408810301,1
0.0018040467493464,0.630664517472193,1
0.00381217641962685,0.204589101154756,1
0.00660721310509938,0.148110654744254,1
0.00627048198503772,0.117058623059407,1
0.00586661501958124,0.11287181386085,1
0.00535837728341647,0.109727068518345,1
0.00400065488728246,0.0732079739129061,1
0.00297581817714967,0.0537612939444036,1
0.00211192453182608,0.0385910115021929,1
0.00179895661560215,0.036008110484756,1
0.00161115412112426,0.0284854796746842,1
0.00152726953911086,0.0340073406796177,1
0.00108414934296664,0.0302074132081561,1
0.00113501705902266,0.0212719597793102,1
0.00204359156830026,0.0241934337467881,1
0.00225826158212689,0.0229974873491187,1
0.00254146027667024,0.0274536584222495,1
0.00215930027583842,0.0240529655448294,1
0.00270574440689621,0.0286305493794843,1
0.00324869321702801,0.0315987093290719,1
0.00329088929979106,0.0294633642905514,1
0.00397670094255874,0.0324472476769645,1
0.00387811865298485,0.0307743017167602,1
0.00385651841037085,0.0397342317335714,1
0.00267273395783479,0.0345162060018609,1
0.00276197003554613,0.0411517004919478,1
0.00267437870644856,0.0413206840948063,1
0.00266291503822693,0.0452404195797783,1
0.00246056418188173,0.044837759724366,1
0.00206016355961847,0.0409601088430551,1
0.00199642284043538,0.0533862823370832,1
0.000904496132365886,0.0445258179330044,1
0.00102675413167038,0.0600217990107425,1
0.000737032457326822,0.0391865558889175,1
0.000858051439773772,0.0665034257376777,1
0.00117464921694472,0.0744217077910092,1
0.00130593943124793,0.051363060646564,1
0.00128384396707037,0.0453505689893523,1
0.0013164114259886,0.0506820364668225,1
0.00141218365097894,0.0545528550586302,1
0.001453885250805,0.0550295304674792,1
0.00172964518232196,0.038658919265739,1
0.00198424065965554,0.0333465653485576,1
0.00207960340880278,0.0362546255593575,1
0.00241891206402875,0.0409781522638471,1
0.00282977577940193,0.0471692116378228,1
0.00289742040324402,0.0672547922671641,1
0.00289614616678283,0.07510743299532,1
0.00306622335116545,0.0773320280479165,1
0.00325670947749201,0.080436831063582,1
0.00322334457301703,0.0780086116382677,1
0.00229137810923094,0.125002244060266,1
0.000485239524712114,0.107018797273331,1
0.000702824418291632,0.377654611430995,1
0.00119130248141933,0.381067376234887,1
0.00132783906244877,0.172377821460583,1
0.00121081375989366,0.148330266327022,1
0.00111739191464342,0.114514055599764,1
0.000940376763295098,0.0712422775045662,1
0.00142930033195606,0.0632393346617496,1
0.00328159405937541,0.092023100992083,1
0.00424708233047778,0.0463462165767386,1
0.00432961802876399,0.0432859108708166,1
0.00437301601788864,0.0384433227284878,1
0.00448811552690753,0.0374257063435229,1
0.00436224366208448,0.0394445812836506,1
0.00400822777627644,0.03642407919171,1
0.0038591048279028,0.0352428545397403,1
0.00306397327736858,0.0293243523895446,1
0.00312128802207373,0.0361718304213698,1
0.0021287821597307,0.0309757356798436,1
0.00201653269040303,0.0365742247428732,1
0.00511260732785025,0.0647923071768083,1
0.00568186058278856,0.0610758422160905,1
0.0109552433086677,0.0256100101946507,1
0.0314005539195381,0.0503371578651324,1
0.0435868622848472,0.0519978690089266,1
0.0803562353811279,0.0706738520596392,1
0.137595948289764,0.0970537854651334,1
0.139213281526882,0.0558963812074183,1
0.11824838449047,0.0501823847365859,1
0.0973517578727325,0.044578722841258,1
0.0865175290787117,0.0349963098351414,1
0.0618053440946283,0.0155445141900046,1
0.0549577885191308,0.0148516717111988,1
0.0624477292626801,0.00837209158931264,1
0.0763045598238869,0.0115837029244857,1
0.100153973944829,0.0170376461042612,1
0.100799181122253,0.0116104079761062,1
0.103816762974308,0.0138592328874907,1
0.101658495550485,0.0129747627905194,1
0.101802244612378,0.0124876397080201,1
0.155840394745269,0.0154668175781722,1
0.283591245393975,0.0334417821831394,1
0.384666740503214,0.039504599716562,1
0.399787849068138,0.0423012528709216,1
0.399034717944694,0.0433190786408367,1
0.405478875134373,0.0415201361041805,1
0.36485460398861,0.0413885191247159,1
0.308745514749661,0.0281882238499414,1
0.208350639822972,0.0151920354810218,1
0.134820639232618,0.00878587754195548,1
0.142449578097956,0.0099664993536798,1
0.162386642034576,0.0130338698265925,1
0.104968001916486,0.00743833583395263,1
0.0980669070826562,0.00745609130293225,1
0.154480402701113,0.0108302960691059,1
0.251353386169784,0.0192329707205287,1
0.266124733539453,0.0144891756705047,1
0.176978288931487,0.0107267244176349,1
0.164010873811412,0.0132068285133374,1
0.156977669724184,0.0104729827989079,1
0.157305928732712,0.0113368916757606,1
0.154431033023918,0.0115863851021681,1
0.13828235530117,0.00954396077931194,1
0.121609352399908,0.00747390890348609,1
0.1163065529771,0.0104320927854346,1
0.0918621394545318,0.00696731657397545,1
0.0716458543916317,0.0152704879052757,1
0.038674310861664,0.00937005627421423,1
0.0213399265174164,0.00166816846417726,1
0.0252028637175374,0.00989654005127214,1
0.0428262891474668,0.0295821345614182,1
0.0705759171366002,0.0382977314637879,1
0.0873723113496447,0.0251377653112965,1
0.103475692846965,0.019432624070489,1
0.160196103714544,0.0229980818593012,1
0.336582950909264,0.0391637016825714,1
0.427964531554774,0.0320011035608702,1
0.42870340000762,0.0293337818540149,1
0.426212616160539,0.0269978919896657,1
0.413789207064653,0.0297557111303039,1
0.425914331668379,0.0112308033888877,1
0.447970645665872,0.014625225531287,1
0.314628004563158,0.0125470750935846,1
0.293923124506289,0.0118739811571514,1
0.293414247313393,0.0135114377686354,1
0.257327826911101,0.0122318197953973,1
0.237355228970684,0.0132344372119156,1
0.250416180859551,0.0143924348837201,1
0.283392810595658,0.01614777899524,1
0.342265706737276,0.019842035330115,1
0.4126767088414,0.081587183429204,1
0.286794060494905,0.0929060200275744,1
0.255087784920469,0.0784183507107114,1
0.237216030162442,0.0999612561416903,1
0.186448493603856,0.0964405575072603,1
0.133492413456286,0.0876961454931497,1
0.0671111840591917,0.0146823961003077,1
0.0844358997013358,0.0137317352696141,1
0.0766314074073583,0.0116982469567443,1
0.0833671485067856,0.0120698123892794,1
0.0786799991386389,0.00970935121338407,1
0.0765717645715807,0.00829628662951058,1
0.078946236981076,0.00908555098266356,1
0.0715042815999115,0.0077842329372448,1
0.0684720676044847,0.00707358311461932,1
0.0569832088565063,0.00554433014997164,1
0.0522800560307093,0.00983290146240081,1
0.0335778463928327,0.00796227041244386,1
0.028182865433297,0.0065191249379827,1
0.0381911906643187,0.00820698434198072,1
0.0396165568325751,0.00780457615003328,1
0.0352430125121394,0.0058789008919537,1
0.0376830423338664,0.00450178551632465,1
0.0528604148339068,0.00747815715491586,1
0.0634553209042053,0.00971299377014592,1
0.0666653072805369,0.0105297896287292,1
0.0644358206813012,0.0104684356732515,1
0.0641718816607715,0.0102981805633073,1
0.0709325564607488,0.0136457032265397,1
0.0864781320515581,0.0214624848702433,1
0.0680100439406126,0.0167495161942835,1
0.057751694208049,0.0182618701891779,1
0.0249792254847178,0.00944894483958654,1
0.0247975232635435,0.0122996181724695,1
0.0254061142846278,0.0128035997795826,1
0.0261100496911033,0.0106076522260334,1
0.021193359067617,0.010262171197635,1
0.0145334042112602,0.0109401528030606,1
0.0144258586682275,0.0106576201227524,1
0.0105446971728907,0.00642075115939916,1
0.0102030095471112,0.0149492084261104,1
0.00840411476466052,0.00983876226472699,1
0.00898477643043389,0.00714537621399759,1
0.0114878063441076,0,1
0.0489364486086684,0.0137069926283798,1
0.0524540491513273,0.00916440928036792,1
0.0523416370598771,0.00847442627220523,1
0.0556787020072232,0.0100406250347006,1
0.0552852106364198,0.00975463634668033,1
0.0555701118150702,0.0106588554480344,1
0.0480490423759563,0.00734893689662755,1
0.0536604227661612,0.00918476968568764,1
0.0565746022316752,0.011141699569098,1
0.0612516360837433,0.0219675681142998,1
0.0382001472898158,0.0233116762457227,1
0.0379922035373779,0.0583006533077034,1
0.0368679400586285,0.0906992167588709,1
0.0286859839610478,0.0720309773556694,1
0.0188291584109106,0.0564913081783495,1
0.00889659669165436,0.0370938540746559,1
0.00386575324331274,0.0705678272609822,1
0.00420936247797548,0.0619696733371795,1
0.00420907847253999,0.061137293849571,1
0.00405331193634176,0.0594229870590391,1
0.00512234036813863,0.0427085831665436,1
0.00865948492828323,0.0638590736539452,1
0.00893434394479951,0.0455373661018164,1
0.00661124719030847,0.0379807371245905,1
0.00479040229880148,0.0346050031966139,1
0.00476294682276469,0.0350244965204388,1
0.00533529719999378,0.0375465904947617,1
0.00552856345042959,0.0324134703983556,1
0.00508057816012957,0.0264543855343524,1
0.00382479522377944,0.0199519301747044,1
0.00348256953485284,0.0295050990559759,1
0.00234147317136011,0.0211268934498949,1
0.00599991935274158,0.0232869650257698,1
0.0232006617512136,0.0548705144736137,1
0.046731014929909,0.0901662337058221,1
0.075558878162369,0.142281093029591,1
0.0985683162820943,0.146112116241816,1
0.0916022491250026,0.0792376457627289,1
0.0967678265478409,0.0677185585079536,1
0.219151394835731,0.0258554978017351,1
0.373498080737501,0.0233553779453319,1
0.328798985468212,0.0202958843934717,1
0.36724315182542,0.0216436847408544,1
0.339540745328518,0.0182188482012431,1
0.386240528609172,0.0142176866819501,1
0.53667811786334,0.0172195118417737,1
0.497049044263543,0.015947902560345,1
0.378921983097213,0.00782136797396549,1
0.346000404336146,0.00504762367794928,1
0.340070243555854,0.00699118279943818,1
0.321614684210151,0.00798699210066984,1
0.294224115447769,0.00727878988470645,1
0.310624411666299,0.00857960270760537,1
0.351933527374341,0.0107112124717351,1
0.350440702703709,0.0106392249150566,1
0.236020404267337,0.00669482244034119,1
0.219811013886734,0.00569899562164942,1
0.226735619889317,0.00982073510269315,1
0.201920819067332,0.0132361697418871,1
0.143684048577463,0.0108109554176818,1
0.137996256441408,0.00735409773924611,1
0.162684113342386,0.00677483343574553,1
0.212018258270281,0.00780127551231686,1
0.217712151378911,0.00646709263169835,1
0.19664455019274,0.0130514123882465,1
0.140233391105086,0.00754134685789195,1
0.15922683797131,0.00864982526213766,1
0.201553336634162,0.0128390445148563,1
0.216578663701909,0.0151404496448651,1
0.206702402319051,0.01286066596795,1
0.186965685944755,0.0178924699179826,1
0.0808384969037569,0.00932064466359552,1
0.081529923472372,0.0156986529775944,1
0.0668978105607588,0.0297883708607241,1
0.036368049729557,0.0170727458673223,1
0.0267452076333087,0.0123040211538772,1
0.0273289879229455,0.0163826964916921,1
0.0275570166405124,0.0156249639112662,1
0.0334435668033371,0.0121970996761731,1
0.0808935084432637,0.0266552748625855,1
0.0780865014190871,0.0231918049499069,1
0.0688282222065034,0.0187000673032086,1
0.071619229330492,0.0183900409246138,1
0.0802704779257069,0.0118486158917784,1
0.0903612934015184,0.0130848615579271,1
0.100258413063971,0.0149792454332748,1
0.0992649761680211,0.0145049482146916,1
0.107094720448873,0.012928335997038,1
0.111162047659619,0.0149922941828725,1
0.0982728659553681,0.0136047788567958,1
0.100789491091531,0.0125831560604979,1
0.123392425470548,0.0158368062067338,1
0.123479654996285,0.0177255009322323,1
0.122384760138077,0.023098859398111,1
0.130536502357263,0.0257456041913362,1
0.127615494264092,0.0178203264414161,1
0.169791844469945,0.0232735721305604,1
0.209210466195845,0.0257954667664296,1
0.223604478213545,0.024098638702498,1
0.269092002782314,0.0231779369504588,1
0.26574053151248,0.0277918991081682,1
0.245755807638752,0.0247219234601125,1
0.238857421779368,0.0245622028746129,1
0.20930125193446,0.0213653834647865,1
0.176160524106741,0.0187792308139157,1
0.174231433977221,0.0205443444843657,1
0.156363182548191,0.0177449286821581,1
0.15261347871293,0.0180703704631347,1
0.172011152477791,0.0300486505131067,1
0.15123986847678,0.0347102564343694,1
0.161586746764622,0.0305464915620863,1
0.167583936456818,0.0375556861043239,1
0.191432506314546,0.040242537751027,1
0.205092063098145,0.0465082460666351,1
0.196793566797323,0.037810412480547,1
0.128991288693355,0.0436011912098046,1
0.0253590573499441,0.0182113137974263,1
0.00739749465630381,0.0284250284834922,1
0.00422844001964458,0.0252885853521309,1
0.00416075515722512,0.0319719468214923,1
0.00344723341296493,0.0589453771364406,1
0.00182599429682256,0.0665295159187716,1
0.0023400919929159,0.0867668913130763,1
0.00462170333959958,0.0573540975820166,1
0.0139005017860282,0.109772887523435,1
0.0174788675067018,0.0821249242878574,1
0.0180723968121708,0.0675319821946204,1
0.0204110127479268,0.0527927407213745,1
0.0198186233528635,0.0462563093431959,1
0.0202615597529927,0.0163264058053177,1
0.03649307869222,0.0238506507566062,1
0.0307083352110083,0.0130836710508195,1
0.030830601500495,0.00795027006184394,1
0.0386651259605821,0.00888909233102967,1
0.0387497213499074,0.00840312373588284,1
0.0429849635309307,0.00968262500126675,1
0.0426897619086342,0.00808533671359303,1
0.0435644980146609,0.0075973300041993,1
0.0355997743961009,0.00552776611565275,1
0.0259604739547031,0.00527973885498111,1
0.0239141265528753,0.0053366651764828,1
0.0194296467101754,0.00620869067399052,1
0.0240391428921907,0.0148374777084912,1
0.0250695358471281,0.0154452484886954,1
0.0737472429202835,0.0247906181349094,1
0.0829429901139189,0.00993784743709701,1
0.0809929822323173,0.00801835597791687,1
0.0952440100222615,0.00922324681360627,1
0.0970210824873725,0.00579710774248178,1
0.0968900410831354,0.00314183995960315,1
0.108371800762362,0.00371878836164641,1
0.106534679200085,0.00314867466673172,1
0.110710491519373,0.00353676621583777,1
0.135865696801704,0.00561641996545197,1
0.125690276593335,0.00508602020650453,1
0.11828094607828,0.00842601287992329,1
0.115080749846397,0.00797858927411748,1
0.116275897328146,0.00903341359231349,1
0.141103739794793,0.0153515225186607,1
0.138802158257388,0.0271183257949004,1
0.0757772101243152,0.0166286761749571,1
0.0674457621816173,0.0158599968565161,1
0.0599281070259874,0.0138071286379182,1
0.0616933853757264,0.0127217655273208,1
0.0697476729880162,0.014507000608451,1
0.0508748185183997,0.0133433729865203,1
0.0276231895656299,0.00658509426218181,1
0.0311044775115181,0.00634080815675254,1
0.0301490024045182,0.00636907480822077,1
0.0307730184038107,0.00707479029093614,1
0.0352670593330433,0.00858196284867965,1
0.0427912639380657,0.011088651956391,1
0.04477364309618,0.011961669607642,1
0.0463580370148443,0.0175775100310466,1
0.0303795066779008,0.0126706896275858,1
0.0285883284352974,0.0141777660867766,1
0.0258256303453226,0.0224135950310107,1
0.0158322505904765,0.0252035629699374,1
0.018802220705882,0.0121216842750931,1
0.0551170760316181,0.0186680866786749,1
0.155965212182145,0.0476500217912904,1
0.231187206119344,0.0671602057740319,1
0.282570871240812,0.0709608149109838,1
0.340352443371475,0.0730887213273913,1
0.343627508905345,0.0458920086048807,1
0.293803929206295,0.0432538141876871,1
0.255979309570654,0.0393717053331173,1
0.182421892924675,0.0284509290032877,1
0.0921705230514245,0.00792300903565851,1
0.0777907983830674,0.00474298329575505,1
0.0884542080199509,0.00634136112558552,1
0.0941841209643118,0.00651103453601107,1
0.115735471890269,0.00174354755788933,1
0.33129489479789,0.0151239864070858,1
0.377944528947129,0.0150626583752581,1
0.358624627717899,0.0134440512254277,1
0.35112876212527,0.0122608616033041,1
0.40230699314376,0.015831871400268,1
0.41996087491837,0.0192818052240518,1
0.378467110829622,0.0177575468606122,1
0.387376296333172,0.0177551251547095,1
0.390229359902716,0.0159688449190546,1
0.413071589790816,0.0329054681866222,1
0.201684063532617,0.0151603380628904,1
0.112615627063308,0.01407244462018,1
0.111402730624436,0.0143351572185673,1
0.110631901890842,0.0172185907491008,1
0.119818451491695,0.0176187689681752,1
0.119118103092362,0.0156880813324266,1
0.128595661195884,0.0227318181157518,1
0.082383398366828,0.00419785401322523,1
0.0904521676698918,0.00783241177804925,1
0.0925434898264015,0.00957541646356676,1
0.101764719645438,0.0103468617255696,1
0.124795388553232,0.00801631278115648,1
0.188958496114192,0.0141137202189636,1
0.240316811593488,0.0182521012922935,1
0.301630284992419,0.0232484181395032,1
0.31253391194558,0.0183425512503756,1
0.311195499957328,0.0188442437152347,1
0.287009641709408,0.0332296006320533,1
0.212287519847303,0.0220508497312396,1
0.175326809231022,0.0156137944568674,1
0.121578974330586,0.0105855848725206,1
0.117264501456763,0.0193937991456254,1
0.103019085750631,0.0171233375247297,1
0.111213036962804,0.00956954800731812,1
0.159997479039281,0.0162576905455137,1
0.168134805029767,0.0102389054699495,1
0.175307372089445,0.0105528892282969,1
0.200077846922742,0.0116195814361984,1
0.210148215463532,0.012636725502557,1
0.203945775383384,0.0127960202751213,1
0.212676484142541,0.0110775238967472,1
0.214617672175052,0.0110952671107842,1
0.20434508915829,0.0113241391064578,1
0.200113556527652,0.0176540917174214,1
0.121704508435939,0.00994949056745857,1
0.0819365951507871,0.0117539133065743,1
0.087062369985805,0.0132673693817648,1
0.0689956959762436,0.00844641306442744,1
0.0452502951009259,0.00406762591426114,1
0.049238958038774,0.00580190033428909,1
0.0410603299849511,0.0076356401174214,1
0.0402294602546424,0.0100113259614593,1
0.0407944728386409,0.00818204179854171,1
0.0443804120682493,0.0107208631942804,1
0.0470046815891837,0.0126223571369701,1
0.0810199561865941,0.0201508422327208,1
0.133467230267319,0.0319682805956506,1
0.149060067738899,0.0391959111062487,1
0.171986540796882,0.0547152231583073,1
0.179219906661553,0.0623477880348246,1
0.198772453866365,0.115149443799917,1
0.150932752964579,0.0891142690599372,1
0.113733231489679,0.08178856216729,1
0.0919910830957351,0.0711190833433047,1
0.0599845715323923,0.0560521935995339,1
0.046829006504441,0.0543581473723994,1
0.0429618457622256,0.0608023301556467,1
0.0287652369128964,0.0494427960953812,1
0.0143435439686252,0.0284731456739477,1
0.00434995348668556,0.0246826435729817,1
0.00410767809084157,0.0279928172557963,1
0.00462867081683,0.0268676187639581,1
0.00592714843766571,0.0324306040864856,1
0.00635634567032792,0.0325118846760911,1
0.0063530993516849,0.0272221023045373,1
0.00603078090223947,0.0378871918230395,1
0.00608170368325804,0.0480202400409112,1
0.00557513038820379,0.0527102585054785,1
0.00485247644053238,0.046015009202865,1
0.00724676794521982,0.0327138762321695,1
0.0208976232441174,0.0588663452115683,1
0.0239993275300249,0.0387525787792185,1
0.0313198147609389,0.037249289056787,1
0.0496101032123363,0.0424571937297118,1
0.105488085872058,0.0661692966890103,1
0.134203064754588,0.0769701409735654,1
0.182909252072536,0.0951904673404458,1
0.163427006939662,0.0358311763500785,1
0.129688973330432,0.023857865714399,1
0.143397382056466,0.0243065087317103,1
0.139234283691801,0.0109409220737118,1
0.141372417478815,0.011510183502035,1
0.164433094720102,0.0147402417516837,1
0.201856062006902,0.0188382047862395,1
0.202281875162096,0.0148929013461295,1
0.205139019324638,0.00982919782069299,1
0.200754756605007,0.00836977704786637,1
0.195138636033459,0.00990461038420277,1
0.193486445048248,0.0130540466811981,1
0.114517794335311,0.00515604859178283,1
0.0875685155402684,0.00822402355347952,1
0.0868858855991614,0.00724157659538328,1
0.0834271652267967,0.00552402143108624,1
0.0762996526806279,0.00388543583321725,1
0.0715345864776782,0.00575030372151514,1
0.0719062630224226,0.0145346553305137,1
0.0722327774233812,0.0119726948841356,1
0.0733932680031871,0.0130989443126182,1
0.0779100069358782,0.0105530750860834,1
0.0674034807180973,0.00917045682566579,1
0.0523049210940853,0.00714219775599113,1
0.0540086651413827,0.00854580353000987,1
0.0597943593223927,0.0134430904063315,1
0.0603244109378239,0.016774779894327,1
0.0563100163563421,0.0214310558114162,1
0.0434072000640794,0.014137261898617,1
0.038255638114697,0.0157253317931862,1
0.0364723958515553,0.0165908120988397,1
0.037821643983244,0.0264244558722666,1
0.0348393658960133,0.0327396380948786,1
0.0366276566636493,0.0337876313624742,1
0.0364759910730706,0.0431541247255331,1
0.0297703024233994,0.0358554186395111,1
0.014007336280028,0.0199315158001565,1
0.00371215235108958,0.00814067705082091,1
0.00391920715382141,0.0129449509113161,1
0.00714354266624969,0.0321960483321879,1
0.00615018709875984,0.0325735144563184,1
0.0065010208210067,0.0444231329408308,1
0.00773291712148053,0.0517845819682305,1
0.00772776878081458,0.0505342078408216,1
0.00840684576844615,0.0441691934352891,1
0.0068735928294972,0.0352457509198249,1
0.00674317589922296,0.033414351970917,1
0.00432847125198958,0.0111186960370719,1
0.00827983867456872,0.0309425531687315,1
0.0119841580460763,0.0437476546688649,1
0.0146571525164235,0.0480897345604658,1
0.0299959874714187,0.0248868629583363,1
0.116445683654395,0.0316468928416743,1
0.351849147477762,0.0672794693351198,1
0.422268304459316,0.0289628846609487,1
0.422955717297829,0.028593891173247,1
0.450116754283152,0.0360714857711411,1
0.466396235380167,0.0379786633551783,1
0.466701712735467,0.0371805278728867,1
0.39892855056346,0.0303583779811465,1
0.264486088722895,0.0170896216965284,1
0.154135134429162,0.00598326174618064,1
0.195315545822814,0.00982558753529601,1
0.204502428361559,0.00938116907652677,1
0.191278424139177,0.0137757617306945,1
0.146203616096965,0.00696407799726132,1
0.268002310229458,0.0128111190110746,1
0.323464134493529,0.0150058316508872,1
0.3497598331419,0.0167959608731791,1
0.34519237651119,0.0164173766660788,1
0.365995808297425,0.0198145429707519,1
0.390519554085339,0.0133451320097426,1
0.439722590768678,0.0156131593481736,1
0.4629672282024,0.016685403414716,1
0.441228206071284,0.015225467141257,1
0.453876538309045,0.01769119566094,1
0.404578171498541,0.017187261729263,1
0.380457379866626,0.0161980862097827,1
0.321997172137979,0.0119043225169165,1
0.292021531040662,0.00858561015406174,1
0.346597637118526,0.0103418523263288,1
0.3378235766156,0.015887809860511,1
0.244981862914128,0.010463699181697,1
0.230441388159477,0.0102581123121644,1
0.234361659721611,0.011949372031091,1
0.258496087120937,0.0188364285867692,1
0.238979160103516,0.0127373423227165,1
0.162366843719108,0.00780641532917824,1
0.126568494423842,0.00572008735325658,1
0.112859874833387,0.00705591718038152,1
0.0866482077398387,0.00513906296984429,1
0.0775901569931908,0.0124765752969344,1
0.0761655920634608,0.0170707113459449,1
0.109993652474581,0.0217511428304069,1
0.142488727295184,0.028063246550087,1
0.156570819100538,0.0376106083737321,1
0.162883758556183,0.0255186760966354,1
0.172889702801481,0.0279820963305845,1
0.173601286948058,0.0291317887334784,1
0.208445146467061,0.0343419164441747,1
0.225459624784164,0.0378081053709567,1
0.235891711699719,0.0390939305501746,1
0.23416312493861,0.029325165017727,1
0.211843080371112,0.0297319094589863,1
0.175026946082827,0.0248633708524753,1
0.132862249718545,0.0173891750771963,1
0.123928667723801,0.0364113892475661,1
0.114658698464517,0.0336576650684991,1
0.109273529701969,0.0327438257978949,1
0.091300418684513,0.0229400414336726,1
0.0867515324759322,0.0215695556251476,1
0.070177720424595,0.0175505282054609,1
0.0818300788306403,0.0278325179152656,1
0.0891403255438039,0.0154298809639689,1
0.0969517087880386,0.0128399045327985,1
0.150182932240085,0.0197192911228435,1
0.195022986859719,0.0190867566971356,1
0.213789861056337,0.0176391460653469,1
0.269079218390969,0.020799679704806,1
0.261418268445561,0.0201959990672667,1
0.243136741894003,0.0188247928880333,1
0.232526603909555,0.0147596403629237,1
0.200488852703594,0.0144151301945425,1
0.117068001712776,0.00622230542332995,1
0.11711177488857,0.00762560912116691,1
0.110509299217644,0.00802327601919021,1
0.100373761710943,0.0101947441287041,1
0.169237443284335,0.00712013975049885,1
0.260089905829855,0.00511893207794837,1
0.296243354558701,0.00693170353612532,1
0.280941901377343,0.00389434179042449,1
0.366082863503772,0.00576142251505959,1
0.470675488152813,0.00485420778682597,1
0.562788471809348,0.00502707090245895,1
0.67122549636542,0.00699958752446619,1
0.761199525495514,0.00868329524057403,1
0.881218758246776,0.0101336158957221,1
0.863572352984477,0.014366179662465,1
0.773454999607159,0.0155499501526493,1
0.863533757958297,0.0162372099118602,1
0.927205020642968,0.0250808461823976,1
0.636742071381747,0.0305566609496123,1
0.146160674438001,0.0136891684956522,1
0.111032741253764,0.0568569822955743,1
0.101702635289699,0.0917244600241768,1
0.0686842085064773,0.119495534046357,1
0.0540424688109575,0.152490154469423,1
0.0228631002328253,0.107006911481089,1
0.00925234940190499,0.111472544889035,1
0.00316462559212532,0.0468443136453391,1
0.0012444552071074,0.045323095037098,1
0.00294768930981404,0.0785875235395618,1
0.00544944863956183,0.0859683352709425,1
0.00760387639189569,0.0515698369664679,1
0.0161379300011547,0.0557543093709287,1
0.0164933548426126,0.0430105085465311,1
0.0340518617364556,0.0265535508118415,1
0.0815062528191057,0.0425876242591751,1
0.0892883944621269,0.0399524536267781,1
0.131643857409822,0.0443978675219838,1
0.150330877612448,0.0461940410565704,1
0.190020848115588,0.0485252565194302,1
0.360232861452712,0.0600767954891321,1
0.399003819132252,0.05168963281262,1
0.689971916069246,0.0408192035019964,1
0.726265198805089,0.0140978075713674,1
0.695844389762891,0.0129262379346928,1
0.728099867093797,0.012846351764697,1
0.659607810311579,0.0112005710960071,1
0.715188692540193,0.0120676077356444,1
0.764509239628923,0.0127054965848898,1
0.815326107649583,0.0137032890014565,1
0.890199182631492,0.0166730982608227,1
0.896675532864567,0.0144615810434789,1
0.499987806044278,0.0103583798303705,1
0.127423586944652,0.0096473395401295,1
0.132645937746563,0.0143899061472889,1
0.133554728566752,0.0163468066872851,1
0.077340095855067,0.00880412530476003,1
0.0787719227598542,0.013664712685565,1
0.0746769983352739,0.015216979760862,1
0.0636389528688902,0.0221747234053619,1
0.0626629502258497,0.0247619084289101,1
0.060024350653388,0.0259473728802815,1
0.0542096356565043,0.0218763087338879,1
0.0453270194287323,0.0142319742153226,1
0.0319409721876013,0.0077589925933333,1
0.0169053688485182,0.00664124972238607,1
0.0148510790420476,0.00686631425163565,1
0.0136998689031992,0.00619185297218144,1
0.0202059876709042,0.00767299349402278,1
0.0386213323515942,0.0205648023171228,1
0.0444270677965591,0.0235490149998675,1
0.0648406395048284,0.0306804323325733,1
0.0645148190350353,0.0197201527584082,1
0.0607459084649449,0.0231502001074836,1
0.0475115581714309,0.0201672016135798,1
0.0451234890706861,0.016005536364976,1
0.0382528078482834,0.0115019815369357,1
0.0314165666375689,0.00768926116284088,1
0.0287431264818994,0.0105937309062497,1
0.0285042963698992,0.0106550243639782,1
0.0301318816787011,0.0121183018635577,1
0.0266868491195797,0.0106520915510888,1
0.0282730115784745,0.0361738518673649,1
0.0188580392694781,0.0341727531011764,1
0.0184043370685966,0.0326074590278101,1
0.0135567351739887,0.0387688470152112,1
0.0062277784927514,0.0330814097821367,1
0.00774268150265101,0.0544048032957306,1
0.00785516162728318,0.0532270408536067,1
0.00732772757742769,0.045480128508555,1
0.00740360017331747,0.0419097546772301,1
0.0138933079560034,0.0156790649739896,1
0.0716996974620246,0.0382180425724114,1
0.0784354827854229,0.0238651502297216,1
0.0876351795375086,0.0154819624036757,1
0.218179145017976,0.0300096584182796,1
0.259238035864046,0.024276267053184,1
0.274316527905923,0.0258486990687823,1
0.2642291901373,0.0241928185691931,1
0.245590449389325,0.0141064299553752,1
0.443816253817102,0.0223958442737444,1
0.419041711503603,0.0138294267329804,1
0.405192726188026,0.0144252315678499,1
0.329492377795114,0.0120654023868442,1
0.275690721892981,0.00987316381262549,1
0.351714144845148,0.0139658483565572,1
0.324193073082405,0.0113385948625106,1
