Activity,Complexity,Tag
1.20474008720562e-07,0.0706096893952564,0
1.2587798170188e-07,0.0732132916685086,0
1.06296106845931e-07,0.0726833602037204,0
6.97854228766248e-08,0.0600120440685894,0
8.26392160993894e-08,0.0613919659567366,0
7.87119806251598e-08,0.0632480442860715,0
5.04843695992779e-08,0.0544732124767327,0
8.24514845468435e-08,0.0634668519059294,0
9.25878247589956e-08,0.0645786478822799,0
8.11411454613308e-08,0.0619395092897497,0
7.63128761099027e-08,0.0613053712966199,0
6.64357334390499e-08,0.0577646386002002,0
4.25902384209678e-08,0.0474336961508228,0
5.6538227324997e-08,0.0502264948149167,0
2.00284742559512e-07,0.0917199919622151,0
2.07506298299569e-07,0.0876547094603375,0
2.20898850048132e-07,0.0916417185323436,0
2.49386628303084e-07,0.0974214919494371,0
2.50170620866273e-07,0.098811804005717,0
2.43694658053657e-07,0.0989243476290295,0
2.4203406774511e-07,0.0958944421352478,0
2.38713953784563e-07,0.0979529027800342,0
2.40961205194816e-07,0.0971011610762082,0
2.29995975875658e-07,0.100204823304599,0
1.1036685611033e-07,0.0753765043422734,0
1.05045888402246e-07,0.0825233091619429,0
1.15410687053344e-07,0.0880704256270154,0
1.29458068953942e-07,0.0928255426931388,0
1.32170479588144e-07,0.0937869949609517,0
1.31450874292977e-07,0.0858291487751501,0
1.33625302151597e-07,0.0849190608444779,0
1.12602568236104e-07,0.0755234798179541,0
1.49634556351322e-07,0.0833622937442409,0
2.46454777326212e-07,0.105971235152308,0
2.54194049367427e-07,0.104321251078028,0
2.44227986327935e-07,0.100670226751039,0
2.19534305416197e-07,0.0929111145684478,0
1.47809894871852e-07,0.0766983732303427,0
1.12334061692199e-07,0.0694509166744619,0
7.78077467783157e-08,0.0607794597246566,0
7.24605005316263e-08,0.0599965397096595,0
5.14583239968869e-08,0.0528975370893023,0
4.71850069570392e-08,0.0522970565111676,0
2.43763990729313e-08,0.0428345830295655,0
2.40890805862612e-08,0.0431096155645346,0
2.4339163062509e-08,0.0428698703928969,0
4.06159541183676e-08,0.0474078797200886,0
5.37850898043964e-08,0.0511638029382325,0
5.11728479169823e-08,0.0509757697001264,0
5.27829174926392e-08,0.0516438535208176,0
5.70564284700411e-08,0.0551903551566503,0
5.55849272769193e-08,0.0551174327275928,0
9.73590764694644e-08,0.0694988800066917,0
1.09923805767571e-07,0.072217763122296,0
1.41212139275146e-07,0.0786165772797052,0
1.40633429613166e-07,0.0771182157259235,0
1.54997220633577e-07,0.0846715014781294,0
1.06349924517244e-07,0.0736652046262711,0
9.76087710706037e-08,0.064121329229121,0
1.43046497632331e-07,0.0732881249063329,0
1.75089636101175e-07,0.0776557821590284,0
1.89903750122632e-07,0.0742706394361962,0
1.68235107182599e-07,0.0679265802588947,0
1.58945498332446e-07,0.0666599375462382,0
1.02592966215675e-07,0.0526335663918705,0
9.93531424026017e-08,0.0514289459652133,0
1.01446407394755e-07,0.0519294590212255,0
9.58183395694637e-08,0.0519238527139093,0
1.34716879675879e-07,0.0594279158306343,0
1.56556478570012e-07,0.0622833560491428,0
1.81292825743693e-07,0.067025008576863,0
2.15121741212374e-07,0.068729973345178,0
4.93442349598428e-06,0.112950397218552,0
3.18646326227247e-05,0.168155197022615,0
3.61478365990894e-05,0.129734678674119,0
6.03512414342248e-05,0.14071372979757,0
7.00905929272914e-05,0.131790701987463,0
9.52449189724638e-05,0.137817016833196,0
0.000109278496107043,0.147032990609242,0
0.000110112419348113,0.124755127403623,0
8.79398037826127e-05,0.0880402022727178,0
6.23408196523559e-05,0.069077377128707,0
4.90590764526834e-05,0.0626372628065492,0
5.24932260830237e-05,0.0545539495793194,0
6.27259311507733e-05,0.0640730648887142,0
6.48117973282615e-05,0.0687880000655922,0
6.51246985055922e-05,0.072078132140054,0
5.90238397226863e-05,0.0746917145926149,0
4.80235347604925e-05,0.0617467856681957,0
6.9240188388014e-05,0.0663196278498226,0
0.000115193319515253,0.082955464894892,0
0.000114337050789177,0.0655050501125235,1
0.000114644461594346,0.062307530675077,1
0.000112205888459542,0.0738031536421948,1
9.22319547771379e-05,0.0671507897053002,1
9.3504821733256e-05,0.0550200916947435,1
0.000137600025272337,0.0636895423292574,1
0.000134233108361815,0.0614856365604271,1
0.000128417906602552,0.0523168821024477,1
0.000145451920730075,0.0648676893282861,1
0.00012946388950479,0.0683082831297892,1
0.00013126814089908,0.0845509034200547,1
0.000163731144185163,0.106940992467492,1
0.000197719579110369,0.119506866980421,1
0.000227104977941565,0.128616339479075,1
0.00023675451161996,0.209096165870818,1
0.000155488241818263,0.225111158505493,1
7.93893413755961e-05,0.167836284023654,1
2.9841901167564e-05,0.211974735533587,1
2.6179397727589e-05,0.270902328012316,1
1.29888187540582e-05,0.245744830556257,1
1.89039234686905e-06,0.125605065216415,1
1.17297544306473e-06,0.165621157499243,1
1.01388070978426e-06,0.164473712647451,1
1.11281378344429e-06,0.170563749128947,1
8.33805811881467e-07,0.135000735185095,1
5.77858760960878e-07,0.110227094943832,1
4.61362799353766e-07,0.097542312381463,1
4.42200993240395e-07,0.0940136988024993,1
2.6885563150244e-07,0.0719847622383893,1
8.09340201533566e-07,0.117384138597136,1
8.37463183248912e-07,0.108644885907175,1
8.39449394711101e-07,0.109382875144249,1
8.68571154831006e-07,0.107565959203784,1
7.97914952335649e-07,0.103350457871246,1
7.53701553554111e-07,0.105925525531744,1
7.8028534986989e-07,0.10984411641411,1
8.07126307382649e-07,0.116487109530265,1
7.81353170043771e-07,0.11842276112744,1
7.26937686219179e-07,0.119300052470043,1
3.06324366989904e-07,0.0848962411984619,1
2.32620435828993e-07,0.0775079570644751,1
2.83151156503744e-07,0.0845511395772521,1
4.7702442048744e-07,0.114013853878203,1
5.2145929595597e-07,0.118500203041438,1
5.09848351549827e-07,0.119065605896959,1
4.85276463422179e-07,0.114060657993509,1
4.59806644418199e-07,0.102767343426908,1
5.0305694930517e-07,0.105742303080064,1
6.15869648881339e-07,0.108051259097316,1
1.25160858807407e-06,0.155868406504261,1
1.19791348529486e-06,0.140742593650979,1
1.19847289817019e-06,0.135468024741083,1
1.4538272759249e-06,0.144055670529208,1
2.0896189661324e-06,0.175560417389822,1
2.57550633285057e-06,0.186923761742373,1
2.42528065483379e-06,0.175703327793717,1
2.93943635946424e-06,0.185954498403452,1
3.01844580151016e-05,0.108430383362643,1
0.000143392488435174,0.184733879213252,1
0.000511452666610373,0.159410393618221,1
0.00141329061598769,0.154616611731716,1
0.00362902734191111,0.132159687479934,1
0.00483807873125081,0.07673360394182,1
0.00465243194069894,0.0594621122010915,1
0.00415172470971084,0.0430566327633632,1
0.0038815701407117,0.0375128136732225,1
0.00377655123367776,0.0350899507290705,1
0.00380093061551027,0.0360611878919115,1
0.00389227260093556,0.0365819827877013,1
0.00422400709789564,0.0425293704701948,1
0.00440838560821151,0.0555692884989011,1
0.00293583681484523,0.0791692670473484,1
0.00122864120351427,0.0632766520406923,1
0.000494812682199701,0.0450482773571675,1
0.00018179824873116,0.0349566655204716,1
0.000336694998075365,0.0689450315236626,1
0.000492949596551381,0.0437464652348227,1
0.00136776423397602,0.0465791052775572,1
0.0016257389214204,0.0390322998251583,1
0.00206270712444355,0.0435098112804876,1
0.00216375564722468,0.0388365505546038,1
0.00299862625075119,0.0309158944436633,1
0.00247227801401931,0.0164580940077191,1
0.00197697792310974,0.0135278885927173,1
0.00187731752844592,0.011467432887891,1
0.00176436356940971,0.0104451882927804,1
0.0015435046123165,0.00957553389046374,1
0.00267672452073744,0.00859472474531458,1
0.0108332022812147,0.0173225664281899,1
0.014358995867934,0.0143197954488656,1
0.0146124392989671,0.0134430822708263,1
0.0155739939357009,0.0125885722043037,1
0.0166226189069377,0.015645780128182,1
0.0170568272387345,0.0148149335639202,1
0.0161055209016841,0.0132545429402512,1
0.0147481305970362,0.0110398543212741,1
0.0171458686398251,0.0108689206555778,1
0.0143574642934198,0.00604398934741057,1
0.0149078086346502,0.0050865983622595,1
0.0192390019531301,0.00699390153505503,1
0.0248538389019389,0.00977962804603982,1
0.0230910167955314,0.00456626917487529,1
0.0214319021519191,0.00320029296624189,1
0.0220499051076916,0.00337675764755513,1
0.0211287630460599,0.00321511185737725,1
0.0197423339500081,0.00319490917838234,1
0.0201479961969999,0.00362930072960829,1
0.0187982889531446,0.00394629440036307,1
0.0135444674008517,0.00257343867686809,1
0.0154792203222214,0.00352462004487206,1
0.0110306816865063,0.00223848468545265,1
0.0106078950952863,0.00478947141625634,1
0.0150921080486982,0.0114483382552591,1
0.0111039090983571,0.00847304569602535,1
0.0142327961927018,0.00961027698129637,1
0.0138754060576034,0.00877970666079813,1
0.0140194900560851,0.00848239304440818,1
0.0108750670535476,0.00968397620195549,1
0.0058308759499747,0.00852961376542786,1
0.00540276409339034,0.00567440261353054,1
0.00556200218909271,0.00500743875023241,1
0.0053616389500172,0.00598683115626817,1
0.00509880066158079,0.00661653616973947,1
0.00489836424046007,0.00802667989107494,1
0.00442819690586089,0.00772901813487947,1
0.00762301531021133,0.00440842901705132,1
0.0217958361101319,0.010912318875111,1
0.0259580271849485,0.0115517400981696,1
0.0517756886997804,0.00648445457279237,1
0.132342205716369,0.014346985739881,1
0.161494155478626,0.0136578492470367,1
0.153226956455897,0.0134691797309368,1
0.139340087899122,0.0122691547619169,1
0.117025008397251,0.00915536026405873,1
0.119749848998295,0.00820725003042938,1
0.15489978160063,0.0119401060610445,1
0.186821276256966,0.0134604546483615,1
0.202965602044663,0.013550037226822,1
0.191081379519029,0.0192015713451783,1
0.118872652334884,0.0139280410146438,1
0.0759686303393314,0.00931769632881933,1
0.0618568093150083,0.00651193345224219,1
0.0572130908051584,0.006331585184799,1
0.0484945881761895,0.00518413488245989,1
0.0545626837990445,0.00729257348691562,1
0.0438003218106031,0.00566256350600452,1
0.0323133180752789,0.00430076105245693,1
0.0277482401882825,0.00220439230142261,1
0.046434940866115,0.00596209720959665,1
0.0627523309768584,0.00851530245696246,1
0.0737653366294364,0.0116092433107791,1
0.0765808813073874,0.0140753182365155,1
0.0786095267377703,0.0100715549589036,1
0.0867127509951582,0.0123005478996846,1
0.0731175471959706,0.00935879081519286,1
0.0630295643564789,0.00793316089505223,1
0.052412949872388,0.00631541775738595,1
0.0457841833437617,0.00789726745211309,1
0.0465683417073655,0.00800312348380225,1
0.0462721833658335,0.0079627020355604,1
0.0437833456930415,0.00755022845817563,1
0.0429160158639386,0.00727326785940755,1
0.0460596287336518,0.0141105980489531,1
0.0271517150053091,0.0142661875930706,1
0.0148376337716859,0.0177674623113281,1
0.010792271404023,0.0191317316817658,1
0.00178025048440629,0.0081840453723228,1
0.000799771571718034,0.011783412531996,1
0.00108996751492348,0.0168855941366298,1
0.001358319209388,0.0126000686942354,1
0.00476508020401675,0.0175003147120936,1
0.00500940202053341,0.0115748712442888,1
0.0042189301351457,0.0100653142597775,1
0.00397214368930502,0.00862000191935995,1
0.00462926424531199,0.010482262063567,1
0.00513402948047327,0.0117534410276054,1
0.0053023558876383,0.0120581544972913,1
0.00529670156018332,0.0118609738660347,1
0.00525492116125612,0.0120896375768245,1
0.00512757992070717,0.0145972311939766,1
0.00201946074921627,0.0113959530210031,1
0.00139034972523718,0.0247672297688283,1
0.0014759286517298,0.0242454476623699,1
0.00188141455702468,0.0404131546032672,1
0.00271157421488684,0.0418340758660381,1
0.00681397532401179,0.0297207025838756,1
0.0142340562281675,0.0379028283409526,1
0.0161578810162055,0.0323188636750859,1
0.0184125753984746,0.024359332212863,1
0.0538984279389884,0.0107621619390188,1
0.180126863885589,0.0240243723380533,1
0.25744479204992,0.0179861483552148,1
0.266793546640603,0.0197503934253078,1
0.358291545368036,0.0138194613807174,1
0.586082925023101,0.0227742565004304,1
0.760896361478656,0.0283425778187424,1
0.795137548311564,0.0263696702862001,1
0.651642149831097,0.0221775075928604,1
0.437856988262983,0.0169693209385397,1
0.306625552564524,0.0150165665357505,1
0.290510038458725,0.0126393510586299,1
0.255826457122073,0.00884643356929355,1
0.22882451578462,0.00586549418136539,1
0.228752592341103,0.00350034989116124,1
0.276207495785904,0.00361983892126558,1
0.249731365623126,0.00285415241698928,1
0.236650228927809,0.00255838746077219,1
0.241298334682831,0.00266524750954663,1
0.257484590242293,0.00217873560377279,1
0.359810562116931,0.00366140902993891,1
0.423392306672522,0.00547674115992984,1
0.461680692450872,0.00675930180070445,1
0.510432945647722,0.00816148032465817,1
0.59809178212657,0.0217866795500318,1
0.442646478482821,0.020903341948848,1
0.421633711006605,0.0240809665424397,1
0.316632390932138,0.0199346787250524,1
0.225594141692623,0.0171129561633605,1
0.119323000865578,0.0230837646469459,1
0.10350473148092,0.0233362873819689,1
0.0689562733091567,0.0187850373027701,1
0.0490458688785741,0.0171457156976103,1
0.0157371714842647,0.0099648199962483,1
0.0104927097166411,0.00974835404286473,1
0.00560345388771973,0.00616655778383188,1
0.00522080133276516,0.00703551926727535,1
0.00528213615022694,0.00548463279923453,1
0.00527115887738566,0.00559193725653809,1
0.00531626739145812,0.00548911524639698,1
0.00746443880639079,0.0078326008719342,1
0.0134157080228701,0.00894076195929811,1
0.0281915524685329,0.0148453667829566,1
0.0256132197662746,0.0101148575626432,1
0.0280181532712814,0.00411600440833815,1
0.0938809704595774,0.00862931560701783,1
0.092490772597336,0.00311531204589139,1
0.0946943651864323,0.00320226911137299,1
0.0918815428757726,0.00314438742008638,1
0.0928665473732653,0.0032214654538207,1
0.0947628443976024,0.00290740188004962,1
0.0965587236623388,0.00305478379430871,1
0.0981349847976783,0.00272378965485495,1
0.101003987351471,0.00296708413062381,1
0.100851355316062,0.00412339170529802,1
0.030729199993572,0,1
0.0188798080032879,0.00365874743634347,1
0.0201456773774928,0.00442671659290209,1
0.0204255784283901,0.00342549359759988,1
0.0215770003917375,0.00343814342847522,1
0.023798460059059,0.00497803856564528,1
0.0125271767650134,0.0024398918656132,1
0.0129950099529296,0.00534564205873329,1
0.013510643550935,0.00415152387906869,1
0.0136937125891632,0.00360656423968925,1
0.0164607199802331,0.00365591092019776,1
0.0191351634957956,0.0040983401663095,1
0.0198613396109601,0.00440764491904329,1
0.0181196774648998,0.00634201288374808,1
0.00801003866899009,0.00246020240706814,1
0.00688727074122961,0.0050553841384159,1
0.00734057670161515,0.00540426904101483,1
0.00731594553802554,0.0055052724180451,1
0.0114787075161298,0.00674358017696629,1
0.0204112820066215,0.0133108388602385,1
0.069205213113868,0.0203793536945273,1
0.113328774531539,0.0283295368290008,1
0.134839428998828,0.0279658148568096,1
0.157343273648774,0.0281814437154057,1
0.163579728306945,0.0263094348112062,1
0.251998489438813,0.0197703169683261,1
0.365604687343904,0.0249513542484499,1
0.325554217600703,0.0148797251459327,1
0.273506471987981,0.00937767131870833,1
0.316330068354873,0.0110510368099022,1
0.341896510875462,0.0118000714885287,1
0.307832902522537,0.0104528412439199,1
0.261275699195818,0.00960994354344804,1
0.210026964597568,0.00864977504846423,1
0.158048366124807,0.0073084610686788,1
0.148850676411647,0.00761259000804192,1
0.151326739396696,0.00774135912915998,1
0.201306797967607,0.00763923044653559,1
0.224153280363523,0.00585376232378586,1
0.222358758184096,0.00593308824396139,1
0.242466166452506,0.00446968804532925,1
0.369970909853885,0.00641566279625151,1
0.364731264627821,0.00539287038139761,1
0.342599185308104,0.00487424205453647,1
0.286583549073806,0.00376102276985627,1
0.259051821247145,0.00339967943932208,1
0.268075241852953,0.00316854500676205,1
0.284958011061801,0.00403432282058865,1
0.32287144312659,0.0095933917749182,1
0.225193784073809,0.00640387512558215,1
0.239917967786631,0.0101998143588462,1
0.302451440512364,0.0135056764379899,1
0.235352478213843,0.0187845657861138,1
0.163907042565689,0.0136099746800735,1
0.107470331075114,0.0102218947571233,1
0.0970200093730662,0.00921375844235444,1
0.0795954682318536,0.00901359349030397,1
0.0488817869037775,0.00708878091862061,1
0.0391182117335831,0.00545365794585967,1
0.0158473083637929,0.00165131665866736,1
0.0134211600482441,0.00317631147317893,1
0.0128674973488668,0.00501635699673026,1
0.0151377676251797,0.00844661146665456,1
0.0215381772080072,0.0100755104734774,1
0.0234263794457118,0.00958394194722888,1
0.0345189054835617,0.0145402228786319,1
0.0297827094797365,0.00997381952026374,1
0.0375987679971265,0.00897872169153604,1
0.0328848840241746,0.00586406478721556,1
0.0260930167020382,0.00443524074172345,1
0.0202304699126086,0.0024892116942652,1
0.0244920987866733,0.00340911783409195,1
0.0289297604478442,0.00454854570345292,1
0.0284609716453321,0.00467988658309508,1
0.0298683761067306,0.00565579640797666,1
0.0287220439615748,0.00560560669685308,1
0.0283764557777494,0.00642486235167344,1
0.0165637526454536,0.00504166233633864,1
0.0178925886741501,0.007652659021431,1
0.0166022673753826,0.00782515127290095,1
0.0110564383813345,0.00791273492043569,1
0.0112589284193386,0.00831549712490959,1
0.0112170175720973,0.0080536713785742,1
0.00847462634422599,0.00696839802960429,1
0.00875454140449343,0.00400446346058915,1
0.0102432046286617,0.00359968439840379,1
0.00831683310803006,0.00365945826557221,1
0.0101873571901295,0.00515392591179933,1
0.0103109677793273,0.00485165919513973,1
0.0111033796364219,0.00510356917290204,1
0.0111536861035148,0.00468825241338047,1
0.0111996264387392,0.00470055220973085,1
0.0102551461934468,0.00373235527536698,1
0.0108774944582065,0.00379779305410168,1
0.00809131983474745,0.00514527354613116,1
0.00573119291436201,0.00394150383492112,1
0.0175867166602996,0.0100041462248288,1
0.0286764549722539,0.0156532996046798,1
0.0733189151640367,0.0116114251342309,1
0.135557718714717,0.0219309184487076,1
0.222672509041124,0.0222524431276484,1
0.334911481984118,0.0275943287696378,1
0.328017530413849,0.0199492217766462,1
0.339522153153631,0.0169522119411705,1
0.334858253025668,0.0178313714591256,1
0.333622717247458,0.0173988860546105,1
0.366528687574787,0.0178439792318248,1
0.303521317642152,0.016551323490811,1
0.26087352314412,0.0143857382631534,1
0.208441700138662,0.0129964726155584,1
0.194514487359009,0.00869319792209973,1
0.216426246503431,0.00578959955202776,1
0.16302107852159,0.00494200351909022,1
0.13000316425357,0.00442115993780905,1
0.142098505725416,0.00467052779497503,1
0.152699798931812,0.00442618748050437,1
0.161382101122208,0.00460260235191002,1
0.156481936850435,0.00418334643901999,1
0.20976541813358,0.00334363933347033,1
0.315441839814726,0.00454795385671242,1
0.322412542208272,0.00573457177566855,1
0.344243045086967,0.00883433747813538,1
0.407120386090706,0.00918345529662477,1
0.389006303983445,0.0102331452274187,1
0.309913898171681,0.00811519365273796,1
0.330460716403806,0.0095343852998847,1
0.350491049316066,0.00937825354367585,1
0.197899072235269,0.00542360719244955,1
0.165643677616648,0.0117382878432689,1
0.177437417228756,0.0173271115965175,1
0.127053674298224,0.0133735552308288,1
0.0693893189674732,0.0100402556652535,1
0.0564796913639918,0.00807254963447939,1
0.0265792826035415,0.00305750430931835,1
0.0158970582410625,0.00388749800687123,1
0.0169212632024885,0.00429748598689987,1
0.0167768587874583,0.00559041654328296,1
0.00689934613621188,0.00287287953270147,1
0.00716987290124407,0.00273391692623897,1
0.0213629267136016,0.00741826680595089,1
0.0272137982113082,0.0065393109729338,1
0.0275066145802749,0.00584023409277068,1
0.0421819897981221,0.00862106028021042,1
0.0376670217035267,0.00507706088831064,1
0.0379280844718356,0.00503132987307834,1
0.0389231425483377,0.00380979985991668,1
0.042546010311635,0.00461000095211553,1
0.0346532949481616,0.00400078531168369,1
0.0270761996768338,0.00374592468132853,1
0.0247156571610694,0.00389693781688275,1
0.0241020575081099,0.00432335137763956,1
0.024641435017903,0.00470658211185306,1
0.0162371741803601,0.00358009675470558,1
0.0160199310439012,0.00426772413739602,1
0.0223060734165376,0.005887034839867,1
0.0249822587024386,0.00974685569847099,1
0.0183859202835626,0.00732401878348994,1
0.0221169342729802,0.00754426147085444,1
0.0235330095707226,0.00639470842523876,1
0.0210051322501204,0.00523288815381327,1
0.0230999546129064,0.00545284600754029,1
0.0199209824178054,0.00512355101714106,1
0.0147934109835147,0.00244584252983409,1
0.0138349310926931,0.00308523923206567,1
0.0160966307866444,0.00393794225968955,1
0.0193038145723658,0.00552872628368597,1
0.0159969847108751,0.00452288855882086,1
0.0166302185819516,0.00488875459000886,1
0.015465434439513,0.0067477640351782,1
0.010650397412117,0.00568165975194811,1
0.0111700578541548,0.0063274254900174,1
0.00337123876858008,0.000933558051030905,1
0.00415261376794406,0.00666495003907199,1
0.00565764897392588,0.00864555701938494,1
0.0255353356604631,0.00476843133221787,1
0.0636305391791832,0.0077766659518791,1
0.0652122122280833,0.00749795064132349,1
0.0627990075931955,0.00770763560153893,1
0.0581642938980003,0.00672458797446417,1
0.0647284835880393,0.0072061531049755,1
0.0986074464129628,0.0075799560485967,1
0.142811915551498,0.0113255250514661,1
0.19271376919055,0.0140077530841458,1
0.187009535404507,0.0113933280091353,1
0.207570341182591,0.0103817264368942,1
0.359864095013055,0.016899252650305,1
0.517487226635608,0.0244694249323546,1
0.627303227282671,0.0286294230671655,1
0.681219048382731,0.0290494054947817,1
0.615881046455648,0.0240103148723195,1
0.544017148289584,0.0257805389503029,1
0.47428022578276,0.0236131397686868,1
0.385865896643955,0.0221968929891932,1
0.249081678086841,0.0125713040186694,1
0.16058400704682,0.010821693189842,1
0.154718189453119,0.012456897042398,1
0.166277348866849,0.0127538304395601,1
0.182592983889562,0.0120556925652321,1
0.211978421717721,0.0126104823833708,1
0.230393541413612,0.0122278515588079,1
0.275447718721788,0.0119377241575922,1
0.211520678607764,0.00680500147381112,1
0.175055065527385,0.00533803456947594,1
0.194365869583995,0.0045363030098405,1
0.249870810256743,0.00708488015996918,1
0.241900430812911,0.00652147753828045,1
0.269985714632276,0.00674055563017148,1
0.343474722511378,0.00961516053393245,1
0.407220508050446,0.0106820321816202,1
0.458415220640896,0.0122595450242595,1
0.534467571605318,0.0156010942121181,1
0.462901530978243,0.0217539504473344,1
0.225828352371791,0.0129876454527312,1
0.127437999822037,0.0181476192340653,1
0.0900023620860679,0.0138148915845267,1
0.0315656616168669,0.0037813954022582,1
0.019211102823352,0.00742546042713203,1
0.0197230212116052,0.00737595227461499,1
0.0228942123593522,0.00658269824201968,1
0.0316211773089218,0.010014755267222,1
0.0270851225081692,0.00917951591879648,1
0.0193339621628518,0.00689819373019554,1
0.0135664006753664,0.00464375429071241,1
0.0105421253902445,0.00322729740395588,1
0.0229444494562426,0.00688247106042119,1
0.0233121995410683,0.00710713875918903,1
0.0249001713705587,0.00559727353272901,1
0.0221319681337657,0.00358501238106845,1
0.0222774690466129,0.00360018960337629,1
0.0270067162934679,0.00411056498340823,1
0.0327793736975113,0.00513483765699401,1
0.0348528222279426,0.00485168858440597,1
0.0349081708966122,0.00492556690317188,1
0.0365109750951751,0.00645665896013081,1
0.0261417660124111,0.00556127595210456,1
0.0195746564086395,0.00361808607103735,1
0.0200791867930831,0.00440167708017512,1
0.0170416837371951,0.00592214581575672,1
0.00661935389354931,0.00260610279908074,1
0.00810097588472767,0.00480467989073687,1
0.00979093961258382,0.00548859954537871,1
0.0100437139629334,0.00790170663254548,1
0.00701505001689617,0.00582581466987448,1
0.00634665434020659,0.00486912501509002,1
0.00728555188102516,0.00512154368152638,1
0.00895523328316668,0.00716188976289437,1
0.011579093500129,0.0112164105896109,1
0.0110619891441961,0.0180076653545761,1
0.00986201520649484,0.0182985676087303,1
0.0101437604593408,0.0199123088568456,1
0.00937790449056005,0.0221884392678876,1
0.00761879729553174,0.021663243908239,1
0.00692251483212268,0.0246922496183815,1
0.00276180752233431,0.0103349733545438,1
0.00367357888487902,0.0190383435248708,1
0.00647990572445056,0.0126490565913087,1
0.0257726810868171,0.0140142169923874,1
0.0268973954380051,0.00914756247602016,1
0.0286201580502763,0.00870214045532425,1
0.0298286738068788,0.00913121140010115,1
0.0427299376073219,0.0113052298915054,1
0.040686824387293,0.00877511475743076,1
0.0403054680942726,0.00781054843998709,1
0.0365978775970882,0.00654219606944447,1
0.0649338348599932,0.00888147793710946,1
0.0979686122054827,0.0126435939665716,1
0.12987965815686,0.0147700933507851,1
0.146054670576039,0.0144697623572696,1
0.224975860594325,0.0203075781120049,1
0.252028519202926,0.0216922079498103,1
0.337897408849297,0.0243412922277199,1
0.321176482262912,0.0172348198930322,1
0.26305894543314,0.0150429757057793,1
0.20043271481202,0.0128353704607843,1
0.238710448035127,0.0134828476011967,1
0.340995169819116,0.0177214670497829,1
0.343499361870381,0.0209462227225682,1
0.299733935427094,0.0220876418434219,1
0.282083164171495,0.0110480058258944,1
0.262367032325424,0.0102364158478966,1
0.264428456566909,0.0118788827629659,1
0.255464014688039,0.0142381538578867,1
0.200642870111131,0.0119198298023927,1
0.218453751117872,0.0129042968734127,1
0.390245458301779,0.0178246715944837,1
0.507196775535554,0.0165917195306273,1
0.424289588280151,0.0117858806465089,1
0.311125703040065,0.00846010381181356,1
0.274747601689468,0.0106414722954876,1
0.357278338804293,0.0117903419761257,1
0.430205298329356,0.012669792088292,1
0.450249508686995,0.0134375989243391,1
0.315715984531475,0.00991170142241575,1
0.24806247284788,0.0074270208102788,1
0.260452665457657,0.0119314437069247,1
0.285082056777732,0.016247956676258,1
0.218292885801436,0.0168643903782251,1
0.149661613806079,0.0130712189076278,1
0.0413188794247518,0.00431049936862861,1
0.019028251152371,0.00596574624456294,1
0.0175327649975298,0.00552200135708361,1
0.0175518834748905,0.00610422717105443,1
0.0127123320375126,0.00589847251183726,1
0.0128385139867553,0.0096461274190908,1
0.0265235785819276,0.0127825897311199,1
0.0287832724988326,0.0110153858239883,1
0.0221200195069385,0.00913740873409032,1
0.0183772361330177,0.00788376111121249,1
0.0209444265604605,0.00590475546706521,1
0.0225186918692048,0.00492312647062355,1
0.0226304898293157,0.00432513774826883,1
0.0267682693163508,0.00510313496756747,1
0.0259611139436439,0.00439607272377458,1
0.0214200225404858,0.00401230447674405,1
0.0249453934913111,0.00484717086688364,1
0.0283789142427683,0.00641646002847309,1
0.0288596225338627,0.00365845984367222,1
0.0373061587970067,0.00447331126501808,1
0.0365340574871288,0.00530650347488058,1
0.0344025220460751,0.00576201937247676,1
0.0360137781297498,0.00683266935630691,1
0.0310897045193945,0.00579879328937121,1
0.0375984658928407,0.00623515489940824,1
0.0479086486070332,0.00775652421399263,1
0.0454386636436503,0.00907303292202771,1
0.0303436374495422,0.00595269523411129,1
0.0279085954419695,0.0100612505339468,1
0.0273324621783379,0.0109965389553255,1
0.0240997052756833,0.013094871620259,1
0.0148492977264983,0.00794801419755187,1
0.0102159465766327,0.00565041244836251,1
0.00763721576770231,0.00440198070518512,1
0.00765035151742624,0.0095015347664943,1
0.0108757084244334,0.0129900777059165,1
0.0135839561704139,0.015796040082961,1
0.0154602798945656,0.0187629678365626,1
0.0144372077960904,0.0230152732304771,1
0.00932812071911502,0.0189525384318548,1
0.0073799625738261,0.0141125869278967,1
0.00661572743699165,0.0129355937136656,1
0.00846922212222886,0.0191330356175575,1
0.0243169358623461,0.0336114755460852,1
0.0283895448619282,0.0204817121504083,1
0.0329746661349421,0.0200596025665326,1
0.0308881927137595,0.0146841643721959,1
0.0323964674157999,0.00653980474808506,1
0.0571496793455771,0.0108961587836457,1
0.0943428387804389,0.010815779706409,1
0.149885979847577,0.0141198747136967,1
0.215790879986403,0.0121410257651936,1
0.383942995310042,0.018511137132916,1
0.462634674084727,0.0188402393907744,1
0.49165027668013,0.0204559241122871,1
0.503581085203615,0.0200166367344961,1
0.389710424319172,0.0171329080494775,1
0.286183976825773,0.0132256477909455,1
0.3075565762547,0.0141409489464036,1
0.303619253827232,0.014343106786155,1
0.285498074275635,0.0149339321624945,1
0.256347147382415,0.0157605049257509,1
0.255067825876517,0.0163288305659442,1
0.208272221171764,0.014303075697401,1
0.186304655865412,0.0151562038567871,1
0.193178504804358,0.015547946679671,1
0.264667646365877,0.0143210728669055,1
0.41143771862857,0.0213036965226848,1
0.41563853476982,0.0214635753681988,1
0.46865558287063,0.019218497911435,1
0.462837376515286,0.0206081274038019,1
0.378623533765222,0.0174010740332495,1
0.334239362918166,0.0137405727797242,1
0.231118845024665,0.00946368085394489,1
0.228103805761411,0.0082649307552624,1
0.171504069935654,0.00558585684627351,1
0.168552172053864,0.00737867646576867,1
0.178997496120797,0.00918578051219933,1
0.127351872153695,0.00751137296592223,1
0.119437477246342,0.00946651872355495,1
0.0979870966303853,0.0085339659203399,1
0.0819544748032059,0.00838601530526185,1
0.0791310767228054,0.00919861223279264,1
0.0320335995594743,0.00531739496684418,1
0.0387784544313684,0.00844619690392069,1
0.0367984891353842,0.00866749044417031,1
0.0398152437633123,0.0102251064420028,1
0.0398269795058558,0.011237520804503,1
0.0333566246178381,0.0129713234370086,1
0.030863401662135,0.0115525679374726,1
0.0274438664506438,0.00904362618364753,1
0.0267125860929881,0.00846045546209235,1
0.0318303826712498,0.00968186828549155,1
0.0361851240635691,0.00764762426883267,1
0.0348221157211584,0.00932353245562324,1
0.0440919010680079,0.00495102651098785,1
0.0735845091878842,0.0055999043110997,1
0.0777115827062681,0.00475849322786713,1
0.0908702884427487,0.00566404256801433,1
0.0881539529522991,0.00498034717909414,1
0.0815679912159857,0.00489485368795588,1
0.0832087909007243,0.00514786823816723,1
0.0789584225056386,0.00492219747447033,1
0.0773313936871207,0.00514547000721946,1
0.0815060609883174,0.00532092729729993,1
0.0700400210360012,0.00924599862900573,1
0.0216550583497666,0.00496373203261832,1
0.025600318259759,0.0123209447916687,1
0.0277309668786794,0.0123854741234415,1
0.0343834347239097,0.0362015809043289,1
0.0334405336913706,0.0308575336915644,1
0.0278544319824209,0.0254999832514398,1
0.0221800299898112,0.0243488481119955,1
0.0207258007433963,0.0231266561180293,1
0.0145636065015801,0.0188154705203014,1
0.00766037419481355,0.0139312994579174,1
0.00644884448561305,0.0160371523655151,1
0.00506216164680456,0.0188333960539392,1
0.00114695169030921,0.00732855687532981,1
0.000412113156563306,0.0125492378098094,1
0.000550966606358007,0.0151518308591093,1
0.00159758335819593,0.0227399880398188,1
0.00688746351826157,0.0350141804036547,1
0.012163402441844,0.0465580583242461,1
0.0207809801278534,0.0505197010019886,1
0.03447621725664,0.0607360527495373,1
0.0515009722933267,0.0729512526095464,1
0.0737633928115599,0.0682284813049124,1
0.0826144358762682,0.033532139200855,1
0.0699644537908305,0.0317011537359477,1
0.0617629064864808,0.0245591309365244,1
0.0592194302168292,0.0245241067795671,1
0.0869810647291585,0.0123082729954467,1
0.178563008167604,0.022382295638035,1
0.285443550722145,0.0266954152837848,1
0.455017197828203,0.0383071744779323,1
0.640379736805977,0.0496153205590895,1
0.767086881809594,0.0538749484241126,1
0.88469582569106,0.070583274808415,1
0.785216497019838,0.0408356256418504,1
0.590750646046697,0.0324025749032494,1
0.448697943460134,0.0262481797078959,1
0.260098897421146,0.016097055091019,1
0.169272686634854,0.0102760018776885,1
0.118971360524083,0.0096445935082477,1
0.143133105034207,0.0120668657062929,1
0.176049841086518,0.0149419174828479,1
0.241407857658558,0.0158338421423016,1
0.360669721637306,0.0192622505475803,1
0.387935754526361,0.0206208278363577,1
0.445651776631108,0.0275885260571116,1
0.370431666974233,0.0289460798639977,1
0.345490342202727,0.0294861056205874,1
0.395276363337442,0.0316611904597557,1
0.38951120799295,0.0302696814200485,1
0.374792211414924,0.0274639362163363,1
0.279762859665119,0.0196916834303433,1
0.209524250728451,0.020161733222819,1
0.211088210478418,0.029516121746462,1
0.134816685032561,0.0223686479790802,1
0.068753395982996,0.0130965121070091,1
0.0212867151326278,0.00631153061901924,1
0.0195745785271965,0.00904769662861731,1
0.0334051476760056,0.0146582729151903,1
0.0651630462185358,0.018759124620168,1
0.111376073926067,0.00927903411282468,1
0.113651962522128,0.00666454540253179,1
0.173128000078596,0.00625840967839007,1
0.172799850125767,0.00470438075997228,1
0.146415318040821,0.00389552258991476,1
0.134426275275069,0.00332414079002074,1
0.112727425305696,0.00180314304725724,1
0.116374207352207,0.00197056048681544,1
0.140976728097401,0.00283977259391684,1
0.14920087487591,0.0034094334850586,1
0.135983770583569,0.00397471748295472,1
0.122187368039729,0.00426772607031191,1
0.08248484105186,0.00657892758377968,1
0.0585908233032682,0.00648189445362259,1
0.0657981454628511,0.00590656315942955,1
0.038594552883316,0.00502606271532821,1
0.0243169648720103,0.00639664651151288,1
0.0263204205271814,0.00630125959647671,1
0.0308927140458043,0.0071162498813261,1
0.0354974439443537,0.0086977096067082,1
0.0396933050948367,0.00927616565099288,1
0.0360932190347575,0.00882533885391634,1
0.0387167743887692,0.00910391935831156,1
0.0241648821914875,0.00755995637874601,1
0.0212274190018637,0.0123970499612638,1
0.0225750303175764,0.0127255843460002,1
0.0231589562319429,0.0117794805711736,1
0.0166187969849858,0.00891616501035609,1
0.0138908739460779,0.00730266674221173,1
0.0133505310170789,0.00755456950005577,1
0.0132000129207935,0.00852658583466186,1
0.00767315867863316,0.00485014270756861,1
0.00561657145928882,0.00583286119636935,1
0.00630578266390789,0.00772502390601288,1
0.00515917603311339,0.00679114887278077,1
0.00481210621757288,0.00777296502436849,1
0.00491694381704182,0.00819125979163312,1
0.00305496286369775,0.00467580593166289,1
0.00229050578239893,0.00589900813222773,1
0.00206491927315647,0.00511487460623943,1
0.00205640848028831,0.00451026858813361,1
0.00413621673172579,0.00418382956253516,1
0.0243135624271944,0.0119679761786452,1
0.0458700635364389,0.0172453436436939,1
0.0932770337582538,0.0231213266438915,1
0.162269063150344,0.0406691188119506,1
0.164666611878371,0.0140195210715065,1
0.155814435418935,0.0117371348729248,1
0.169356141064457,0.0115825637900487,1
0.139650110031666,0.00863195506187861,1
0.170764309274344,0.00533111658360479,1
0.387650372124502,0.0105970083677489,1
0.419184503907606,0.00820301482773303,1
0.446996668864637,0.00868114365181033,1
0.521014266620201,0.00976608262159836,1
0.663697935607277,0.0117094052800228,1
0.676751031612461,0.0149259327175728,1
0.497907276408966,0.0112877529236168,1
0.40099310564454,0.010439036356285,1
0.211715194529507,0.00681341026269006,1
0.125354552824994,0.00471992822150025,1
0.171608269830821,0.007325485843858,1
0.24753275908603,0.0128584043211411,1
0.253741693033524,0.0117043286959119,1
0.257624771080611,0.0133101958343527,1
0.271215618951082,0.0123158777835314,1
0.295270979412309,0.0132764859239398,1
0.417556945338477,0.0152441096586015,1
0.508588474434126,0.0165888333253822,1
0.386641708746075,0.0135977251516438,1
0.345196650680268,0.0130956265581499,1
0.387700391853854,0.014917068002649,1
0.403958155140922,0.013616297012414,1
0.3116890219853,0.0154035325905363,1
0.199863936276392,0.0104549966151861,1
0.125543707190323,0.0079313198808498,1
0.0929394341849045,0.00524284975477093,1
0.0875258472505656,0.00685939026183633,1
0.0879516391414718,0.00778162340765434,1
0.0566631839970383,0.00489973231669482,1
0.0507445386707552,0.00665697111846466,1
0.0549308046804499,0.00633087803151234,1
0.0652680207367545,0.00787635519743573,1
0.117052582037753,0.0244887521041101,1
0.184759717485653,0.0387347494462473,1
0.204241123095071,0.0389401494102725,1
0.19772750808592,0.0271261816374847,1
0.164771965895244,0.0246939933224169,1
0.12114884094119,0.0197215537254762,1
0.0946284367020967,0.0192029084085514,1
0.0581840287841563,0.0142075008516804,1
0.0394950754437648,0.0111257591188975,1
0.0371165444553388,0.00763244020727265,1
0.053541966767975,0.0100369191825229,1
0.0956921129555295,0.0144264831816781,1
0.103215354829531,0.012931745442024,1
0.102618374316089,0.0140053060357034,1
0.10363825002966,0.0114118887049291,1
0.101529072491918,0.0105538863980113,1
0.105716787397832,0.0100753498630694,1
0.101281210514849,0.00983695338868563,1
0.0728679273244013,0.00790159489696212,1
0.03152540800336,0.00375470808748695,1
0.0267714463002266,0.00433573136338351,1
0.0225925733191667,0.00455772175709579,1
0.026577618258117,0.0066661530329951,1
0.0351211305875455,0.00865088295949602,1
0.028927214098665,0.0125033980774978,1
0.0224003071971743,0.011439630431735,1
0.0249363620420484,0.0116260901160037,1
0.0227982586687273,0.0114822069592604,1
0.0264837282370316,0.0148804494925822,1
0.0256634761920483,0.0219428318178853,1
0.0203296589496103,0.0173988298814713,1
0.00959723078437365,0.0100411722890183,1
0.0059945346458774,0.0150974931491738,1
0.00547781917779507,0.0167522300088625,1
0.00110564229472021,0.00811182762822924,1
0.000233125304155055,0.0503875004916616,1
0.000211390539854358,0.0609003221050246,1
2.6209665949561e-05,0.0371545022444376,1
1.90063985208732e-05,0.173026324371385,1
4.75446618242064e-05,0.204426747907895,1
9.72399584721235e-05,0.176174359823577,1
0.000526475529585009,0.078662492399638,1
0.0012830784491688,0.101332869449582,1
0.00515474919549345,0.0249261139265574,1
0.0153442915347375,0.0445544698298676,1
0.0292449558273156,0.0126854563432317,1
0.103753558273564,0.0182044363104726,1
0.133948243694875,0.0189057028141482,1
0.156342952874363,0.0226118180694122,1
0.227671929624316,0.01399318047384,1
0.41932625525573,0.0219410801747086,1
0.461022856820242,0.0138378457699699,1
0.39237470188113,0.0127196418710682,1
0.333397188514249,0.0124495180254235,1
0.354302691013779,0.0105411094787705,1
0.438114030929887,0.0132806088709181,1
0.587925383107089,0.0174804411695305,1
0.588064405333659,0.0182998305597382,1
0.544279743621489,0.0163600375728504,1
0.465418582803862,0.0183410598608517,1
0.464021368052739,0.0185943328293978,1
0.4721528171685,0.00992693235523253,1
0.567913615567231,0.0115506965041406,1
0.544519303191107,0.00803093117971754,1
0.527228039607659,0.0100370256128336,1
0.530279499578233,0.00887529412714677,1
0.60762585013904,0.00930337167872337,1
0.640249243067817,0.00910226667045395,1
0.512821936056059,0.007912905525494,1
0.417016714779612,0.00607743522813168,1
0.388756021970278,0.0049946643821217,1
0.456092634288626,0.00979246371652867,1
0.483015762964615,0.0104321855458094,1
0.500269011868469,0.0182145954473709,1
0.365696815911056,0.0153154067847839,1
0.240578800411475,0.0127728162496641,1
0.231690431352519,0.0165937286219255,1
0.207972548589531,0.0182493728609189,1
0.123535814925309,0.0115555548126776,1
0.0443013239596179,0.0064000592008918,1
0.0428882603531617,0.00937564560995812,1
0.082470797003649,0.0120188035843321,1
0.0829321970103104,0.010932760901202,1
0.102266892802082,0.0173447537343534,1
0.106498756994513,0.021317214436666,1
0.0964891553711722,0.0192811490569154,1
0.0739139448328568,0.0141003909782448,1
0.0740487913753027,0.00926641922796935,1
0.0570934955934351,0.0050498498056217,1
0.0512500748153553,0.00228193938189565,1
0.0936164696020876,0.00346146464163899,1
0.0957899131481055,0.00372906666618498,1
0.0904743848697333,0.00347673363528593,1
0.0895897174836852,0.00319974623595498,1
0.0902829255759662,0.00264350856338585,1
0.102497767814565,0.00291959070930467,1
0.0825798034585063,0.00194816333873795,1
0.080073244436434,0.00233806959567875,1
0.0986241096454439,0.00304280714634979,1
0.108257559788162,0.0052482293261546,1
0.0886643449770433,0.00529261364688056,1
0.109237170120872,0.00644775633006145,1
0.104767061917543,0.00594410586359115,1
0.095185385236584,0.0061373533505662,1
0.0953126848173099,0.00712845046242307,1
0.110987355783752,0.00909270231235708,1
0.0892315812154463,0.00819029543354249,1
0.0336510418133166,0.00289332638133057,1
0.0390051124827373,0.00540467772531475,1
0.0397756191978989,0.00558664788923427,1
0.0414527437898477,0.0100764168133407,1
0.0504524078689095,0.0158402936332566,1
0.0479011298877605,0.0160927576578062,1
0.0325040810405239,0.0141414606335075,1
0.0316345504803936,0.0166218196906241,1
0.0307912475415335,0.0153977723342287,1
0.0199547771359742,0.0147342788955924,1
0.00510443941381382,0.00590611413816956,1
0.00291267953361403,0.0195401905015188,1
0.00211281415449493,0.0343539339781729,1
0.000326615391579593,0.0487857630323227,1
0.000222926876483368,0.0942015757377146,1
7.10137156131414e-05,0.069458369082696,1
1.06791698750897e-05,0.0676036113628599,1
0.000138415893411948,0.0963306068185586,1
0.000686677210813653,0.118957410024917,1
0.00219296709231203,0.103981868590507,1
0.00412182384696924,0.0953884688711628,1
0.00588029314240006,0.0360856812268304,1
0.0178795508047098,0.0277522204600823,1
0.0256358879761693,0.023192696001352,1
0.0304790660334973,0.0151519137723567,1
0.073811284976512,0.0185725545260864,1
0.0841086880580389,0.0121226697121194,1
0.0815230128717331,0.0125196558810806,1
0.13089535999846,0.00718280523953251,1
0.275993120002222,0.0142988966519892,1
0.390152372164171,0.0202164418690501,1
0.492628847130825,0.0246972411489711,1
0.662619321976216,0.0285514246920985,1
0.815479877711554,0.0347481981176453,1
0.846073616777817,0.0363691261608809,1
0.852163804713096,0.0355274154111756,1
0.689954525822511,0.0351559070979764,1
0.442259981358275,0.0076155888541303,1
0.477668537380518,0.0112296955517482,1
0.504638812333747,0.00907111776362386,1
0.526422259141571,0.0079317005945107,1
0.665027652613701,0.00975704922153115,1
0.703806257843736,0.0112323964514245,1
0.660250987157253,0.010425652366594,1
0.545724290717807,0.00819568868964571,1
0.349948864185196,0.00522875471888008,1
0.15292150039621,0.00125836567408396,1
0.123089492093931,0.00332474045380685,1
0.207492427173548,0.00576146571862354,1
0.252797291780355,0.011680678660915,1
0.208069211422811,0.0137035965728348,1
0.225117639626647,0.0150753441197705,1
0.214876921768481,0.0145134832352097,1
0.225639995205398,0.0153137916567864,1
0.20861245747472,0.0178662469460182,1
0.110251830058076,0.011950121845723,1
0.0411937181882509,0.00567169353310323,1
0.0178435042863254,0.00283687248087269,1
0.021660366191878,0.00523820754657167,1
0.0217364114861382,0.00434871355497299,1
0.0243843352870074,0.00396134921423227,1
0.0293475780855685,0.00482121086267738,1
0.0306182531861144,0.00625408611341116,1
0.0238341829407558,0.00655080398880286,1
0.0316705287142379,0.00882293357338464,1
0.0577884058966723,0.0153165500981776,1
0.0591758854779836,0.00603718121740445,1
0.0557352286115274,0.00379846936400481,1
0.0854763045060714,0.00609899932689715,1
0.081377269788771,0.00533355044207494,1
0.0745478047100195,0.00478594219079272,1
0.0700197589120828,0.00439345640135305,1
0.0628862560687481,0.00348168774347462,1
0.0669372657420659,0.00340051807750846,1
0.0937154256603538,0.00556791043882429,1
0.10509384149656,0.00666153863464808,1
0.0959188047467966,0.00815246090724678,1
0.0920877381562052,0.0139059981991888,1
0.0531791626125724,0.00961998838477409,1
0.02827227796984,0.0062733441403323,1
0.0282063992470688,0.00792729843596154,1
0.0211979203714279,0.0077930408444963,1
0.0185015902712351,0.00812762911405053,1
0.02074257457701,0.00876595470032318,1
0.0255391590959037,0.0061163688116084,1
0.0284167154357082,0.00479122858186065,1
0.0279612299018159,0.00541114573245594,1
0.0261591355354046,0.0045263375156178,1
0.0278153221058465,0.00435239547420963,1
0.0270863636053419,0.00473734432542706,1
0.0299706482429229,0.00502623763904365,1
0.0309914747350632,0.00425328199310678,1
0.0306955183731909,0.0033735686764663,1
0.0309859568853439,0.003693559475861,1
0.026532555374836,0.00589814709336674,1
0.0164742746982979,0.00473035778740586,1
0.0205642115705534,0.00667914626107141,1
0.0177291112109525,0.00602641490333763,1
0.017705627143003,0.00655494031061615,1
0.0176549246649272,0.00723884037210847,1
0.0193190538847781,0.00852106836705358,1
0.0171469727174975,0.0138214144709695,1
0.0140996589344056,0.0165346198425528,1
0.0155462970723193,0.0130579787191281,1
0.0166215947224227,0.00935517219779509,1
0.0151309161735653,0.00853964971336534,1
0.011909092092004,0.00526334175767594,1
0.0139187408662222,0.00599463305250245,1
0.0237400493995561,0.00701534350393787,1
0.0802727377532887,0.00819233258467324,1
0.219077555543365,0.0165491125354573,1
0.34794789469883,0.0231751365726981,1
0.426769276913426,0.0232273229282332,1
0.40072970980629,0.0253572338383693,1
0.3526139001803,0.0217992014883521,1
0.284832875256623,0.0192531446541691,1
0.182596315147659,0.0135403832510654,1
0.138188449047359,0.00961748224960789,1
0.135838105054684,0.0111140539956188,1
0.176140340386894,0.0276428743722595,1
0.188251458427341,0.0380264380325464,1
0.153133565478805,0.0286143744889682,1
0.115648224446167,0.0256993250594927,1
0.105946881127447,0.0288539273455577,1
0.0726878368002709,0.0249237012070341,1
0.0454150994925816,0.0103668789355938,1
0.0273719616029262,0.00562315993625998,1
0.0390622547828776,0.00822532350065578,1
0.039490031938152,0.00700347711950109,1
0.0463110076945711,0.0071061204579179,1
0.0466842880157138,0.00609175427979007,1
0.0479374205663501,0.00569119351659239,1
0.0548124453474275,0.00701879167088028,1
0.0558096264978026,0.00720623783702723,1
0.0602093665498182,0.00743360870811279,1
0.0631701478321417,0.00957392481179377,1
0.0598262218931558,0.0101480127306095,1
0.024069374036806,0.00487935660215987,1
0.018062111163642,0.00411665772671281,1
0.0186975511388828,0.00395893446476746,1
0.0117679387204623,0.00279871998245007,1
0.00972780432075859,0.00376194569472953,1
0.0118323052659657,0.00491387206823951,1
0.0124604709614089,0.00517287822530764,1
0.0158136212558518,0.00703030871532124,1
0.0176331662529478,0.00894598455474867,1
0.0181717787597672,0.0102435610165,1
0.018671799551788,0.0100743232726868,1
0.0242929460847694,0.0122613036146698,1
0.0267796089615123,0.0274055831686658,1
0.0152391606989713,0.0244050426719025,1
0.0118727590788827,0.0218579383959922,1
0.0113068938150143,0.0255755072613599,1
0.0101943735065073,0.025266295151979,1
0.00959667584049833,0.0280309481852248,1
0.00823308793868822,0.025403614931261,1
0.00407555261510186,0.0253976133006448,1
0.000372305237737638,0.0219249402273635,1
4.15189010925704e-05,0.0552448139698605,1
4.36808563422309e-05,0.0390826051484615,1
0.000279230651535367,0.033433742339679,1
0.000371965174539173,0.0193712856346856,1
0.000398326209428634,0.019594473879365,1
0.000424763464201147,0.0214464563599971,1
0.000434011193497046,0.0235995470526851,1
0.000454427175058991,0.0246582826050111,1
0.000471639276515393,0.025976553589029,1
0.000478949554129001,0.0266290839010237,1
0.00047692888917545,0.0260942687558577,1
0.000499310122398405,0.0271633631841633,1
0.000239929186766174,0.0307424477259428,1
8.68496613962328e-05,0.0565629636071103,1
8.85648942894812e-05,0.0559470929080736,1
8.78986521729693e-05,0.0522522823523764,1
0.000115648470106867,0.0513622149751846,1
0.000210557317697546,0.0640537103162264,1
0.000618269622333808,0.0668465892763072,1
0.0012445770523497,0.0708072866774267,1
0.00131182237044857,0.0602269154902415,1
0.00130411531288966,0.0618738434050716,1
0.00125079900787482,0.0625491351324979,1
0.0012020883523595,0.0606461091207667,1
0.00130550698211278,0.0642475547117756,1
0.00141920207428843,0.0672597579063034,1
0.00158952449451964,0.077856659882442,1
0.00173499524842864,0.0914492845745375,1
0.00149229348500505,0.199790570954687,1
0.000650517842008805,0.19457754034441,1
0.000224331777580974,0.193230576834128,1
6.57201175363432e-05,0.150785311139198,1
1.4942364926104e-05,0.247877439289385,1
3.02316540764992e-06,0.138234403003759,1
1.60862095909525e-06,0.156239194511489,1
1.22905995348148e-06,0.135551716090855,1
1.1489931251021e-06,0.133771215330955,1
1.13003689279627e-06,0.136806518938086,1
1.05750279296279e-06,0.133449048047896,1
9.32139133654871e-07,0.136044657934397,1
3.06307300485127e-07,0.0895466238001303,1
3.11447130517511e-07,0.090541535404731,1
3.29453844557573e-07,0.0935968908656666,1
3.44956727803066e-07,0.0908386254612064,1
2.36311358393328e-07,0.0779717412938653,1
2.52698790823905e-07,0.0812662480827547,1
2.39166119192373e-07,0.08150723941658,1
2.18336934956054e-07,0.0764980713621039,1
2.20503217437394e-07,0.0791102598542877,1
2.33084237490061e-07,0.0795710961037339,1
2.40379392531967e-07,0.0776418397699059,1
2.31257054822383e-07,0.0801635260516459,1
1.16411404833444e-07,0.0608178263834394,1
1.27540026542084e-07,0.0676679962617372,1
1.27186672318181e-07,0.0694434070690393,1
1.04412197443627e-07,0.0682578208347293,1
1.56516236527498e-07,0.075363613598435,1
2.38383096316956e-07,0.0854649513879109,1
1.81111009286552e-07,0.0760204723539856,1
1.7897769618944e-07,0.0755848911732528,1
2.39297996729286e-07,0.0878665978071288,1
2.28012382570453e-07,0.0830839814792327,1
2.17723607440634e-07,0.0803182365693004,1
3.28307576642983e-07,0.0920102795207797,1
3.73680431092803e-07,0.092587450357883,1
3.649556653695e-07,0.0887235855634383,1
3.29807877562917e-07,0.0874408886806218,1
3.62500415932277e-07,0.0981622971718821,1
3.51996661023536e-07,0.0948418929057406,1
4.3776205352919e-07,0.10634019794709,1
4.7848816417839e-07,0.104832835731442,1
4.89313758458464e-07,0.102558347107743,1
5.47964838468596e-07,0.105235957633965,1
5.79446624686569e-07,0.105880058013772,1
1.10726939967367e-06,0.149695712476459,1
1.71193100941789e-06,0.184384679192358,1
2.83515991830861e-06,0.217401352009966,1
3.88565681409171e-06,0.235888014793616,1
4.20697691762266e-06,0.23983095887707,0
4.04688098171821e-06,0.227495315503355,0
3.25966953997221e-06,0.203512267075446,0
2.63154798306782e-06,0.182854253878584,0
1.31260970639823e-06,0.123249004356174,0
8.02656046756427e-07,0.094291363067832,0
8.91683081050011e-07,0.0988024288391688,0
9.35624676349222e-07,0.0991824843821595,0
7.93643380733791e-07,0.100710400521638,0
6.3491819546301e-07,0.0905750671486416,0
6.88536498970722e-07,0.0941026076625652,0
4.82949212770784e-07,0.0805950356247214,0
5.05751905559486e-07,0.0820828402493208,0
4.84207867498081e-07,0.0800843220806575,0
4.77980823536386e-07,0.0844765077355887,0
8.46140725177748e-07,0.104616835825765,0
7.15886115900855e-06,0.114695869074108,0
0.000194793083137246,0.0651713201647158,0
0.000518428441409136,0.0706037736902987,0
0.000671332492564806,0.0727392484196669,0
0.000753166001688804,0.058511336021884,0
0.000699390090560976,0.0519406584360841,0
0.000674459602198581,0.0442349770439413,0
0.000608830659748882,0.0385601790656393,0
0.000503963553941647,0.0331645332048645,0
0.000376061287635703,0.0213114724113242,0
0.000342127565209686,0.0184690944968752,0
0.000475160998745338,0.0335037433696598,0
0.000489996618017345,0.0389525210726485,0
0.000499616091374827,0.0448582493539844,0
0.000495997848848334,0.0514134739003945,0
0.000550178774219119,0.0579680333688501,0
0.000521552023706674,0.0799910096740636,0
0.000443973022879728,0.0801192188600995,0
0.000286562667803373,0.0973750071904051,0
3.03859499219677e-05,0.0748949080078049,0
1.17499216090421e-05,0.235650816926798,0
1.16640809687654e-05,0.252822723085432,0
7.1593390211423e-06,0.222335691699587,0
1.17041314009754e-06,0.138312460490263,0
9.1055630808261e-07,0.139975702518605,0
8.67349348239021e-07,0.126988164866344,0
1.1497719783201e-06,0.148926292136592,0
1.39190766934366e-06,0.170659933715871,0
1.34683813322873e-06,0.16773802402001,0
1.4965051741204e-06,0.181866710577104,0
1.58121011607923e-06,0.189617708370487,0
1.52136796857947e-06,0.179908162568387,0
1.21308919588628e-06,0.165149518757324,0
6.69036950606568e-07,0.121342718894441,0
4.83424359778776e-07,0.0987578191757351,0
5.63165954879624e-07,0.10936482290452,0
4.43672494433517e-07,0.0967839271171991,0
4.61222388564466e-07,0.0995259775615958,0
5.5060083770641e-07,0.110763494350897,0
5.26914856326725e-07,0.107459618413397,0
5.07905388162243e-07,0.106258359327716,0
4.97005321861326e-07,0.111086624844057,0
4.84868709714299e-07,0.112815565073877,0
5.22082708224212e-07,0.119233287445584,0
3.49886717401715e-07,0.107141984900588,0
1.50412536850328e-07,0.0724971128749268,0
1.65867517519913e-07,0.0786620369485693,0
1.66929907442276e-07,0.0778499126776066,0
2.00183216249845e-07,0.083350624085883,0
1.37538671090695e-07,0.0730312037042538,0
1.014394256428e-07,0.0633997771886216,0
8.67603891279019e-08,0.0590348202458415,0
1.07579488611398e-07,0.0651406173140028,0
1.49078731320748e-07,0.0770100477609591,0
1.7420479600976e-07,0.0795152004281365,0
4.98423490227019e-07,0.132308063185918,0
5.28575737541605e-07,0.119314793746313,0
5.35746772548771e-07,0.117797211899888,0
4.3293688717863e-07,0.106345811870796,0
4.40456331002065e-07,0.110524573287117,0
4.37738005272459e-07,0.110180505007533,0
4.55550490851908e-07,0.110232999780045,0
5.4682865530683e-07,0.121001367051833,0
5.74833722989173e-07,0.118140775775047,0
5.7618663136785e-07,0.115945382720223,0
2.47292587560714e-07,0.0809139124234954,0
9.32549699457289e-08,0.0555766523394352,0
1.34311841093759e-07,0.0675642091260972,0
1.45819319814691e-07,0.0676453750447406,0
1.5092811983839e-07,0.0683751525953668,0
1.6488658137035e-07,0.0726190976167407,0
1.783860896801e-07,0.0763643371217213,0
1.70783737552209e-07,0.0729868093135039,0
1.73298816724927e-07,0.0794012268119228,0
1.38912524725236e-07,0.0754764189337676,0
1.56916426670761e-07,0.0789098780645641,0
1.63479758351582e-07,0.0803938126854399,0
1.32517530841533e-07,0.0738931974667513,0
1.22733769103067e-07,0.0746538887547967,0
1.24899760678076e-07,0.0708531533550566,0
9.05052263323283e-08,0.0593288798416516,0
6.84173873687128e-08,0.0524211895978066,0
6.78253929842641e-08,0.0529814880599666,0
6.3800509951453e-08,0.0505120890023482,0
6.1247903861981e-08,0.0514951762698281,0
4.56747182530611e-08,0.0464185882379353,0
4.8021750534993e-08,0.0480913380536969,0
4.91608427600738e-08,0.0470516916963885,0
3.81878559387452e-08,0.0440559286185383,0
3.28274219383647e-08,0.0443158173331948,0
3.81107657609178e-08,0.0509052196022362,0
3.12821275058382e-08,0.0479446524638555,0
5.82565140559438e-08,0.0559522698370968,0
1.20602492350275e-07,0.0753651565302578,0
1.36017037039792e-07,0.0716705756920293,0
1.67472932594267e-07,0.0790613209591157,0
1.92948569724874e-07,0.0775006868896248,0
2.27377818892839e-07,0.0794430614788455,0
2.43878510855117e-07,0.077824392465995,0
2.66502781093879e-07,0.0787499945412042,0
2.67848028939163e-07,0.0750127601233765,0
2.90028667022503e-07,0.0774948877794861,0
2.8441184757536e-07,0.0765651116514463,0
2.56852448392761e-07,0.0714389146011641,0
2.71131391733173e-07,0.0756211625336288,0
2.27488751173889e-07,0.0685599743892489,0
1.92578439902525e-07,0.0671070230563125,0
1.71852818320193e-07,0.0685536334689699,0
1.44231359120222e-07,0.0646582821450811,0
1.24579763713509e-07,0.061374658684034,0
1.68149289814829e-07,0.0734783309319766,0
1.32310405533559e-07,0.0627428689931675,0
1.80659037816296e-07,0.073353298667648,0
1.70764440765557e-07,0.0701437060127043,0
1.44404351418643e-07,0.0654276259209516,0
1.4720102792018e-07,0.0649382566535739,0
2.18777173204277e-07,0.0743779168940884,0
2.43840111219369e-07,0.0733805842387117,0
2.58315222395939e-07,0.076272004915721,0
2.76401353864481e-07,0.0775092874892994,0
2.41880469202117e-07,0.0719195575366115,0
2.39378674751867e-07,0.0741109674370979,0
2.23229979450613e-07,0.0755660553833724,0
2.14620606572107e-07,0.0748575447890816,0
2.08671378156924e-07,0.0738155392594515,0
1.97622464783094e-07,0.0733586710188524,0
1.43136484657518e-07,0.0634666509421046,0
1.07863122284537e-07,0.059398144687704,0
1.08536764379339e-07,0.0581631398011831,0
1.00589979155041e-07,0.0622967850484276,0
7.17181075738313e-08,0.0538751780733532,0
7.69567487901221e-08,0.0551735023395272,0
7.51895897954959e-08,0.0511147720986567,0
9.22007254006469e-08,0.05817949580181,0
9.44801704449114e-08,0.0596404000099164,0
9.2028799758775e-08,0.0614994767829867,0
8.37484419411106e-08,0.0617706479882656,0
6.89471277982368e-08,0.0550325892428796,0
8.99536679279477e-08,0.0647997853759689,0
9.42924388923655e-08,0.0640934871958554,0
9.06821943506115e-08,0.0625159448507331,0
8.80647161492317e-08,0.0652888768275194,0
7.82708696579432e-08,0.0654333049931076,0
3.98275009914304e-08,0.0480633090000139,0
3.94600862948412e-08,0.0505393997797204,0
4.3615004457799e-08,0.0524799944796852,0
4.55427437473714e-08,0.0533418148053151,0
5.7892687204109e-08,0.0624975995718203,0
4.99510413249998e-08,0.0588727953234753,0
5.43026121680003e-08,0.0560881169119418,0
8.03483287394221e-08,0.0616402135862195,0
8.59501180261077e-08,0.0605446285640943,0
8.17913211120644e-08,0.0587872696476837,0
8.64694827964775e-08,0.061170300185564,0
7.52260500557011e-08,0.0571052848517832,0
6.45491089109855e-08,0.0497482797080762,0
1.09111692259011e-07,0.0637032255792099,0
1.12144487732887e-07,0.0620071884763651,0
1.11485390954657e-07,0.0622386924702388,0
9.80455184428489e-08,0.0623668174882866,0
8.14926572784685e-08,0.0620243477793793,0
6.63189830313714e-08,0.0587599433669528,0
8.48361407143066e-08,0.0678600474470372,0
6.74382936259155e-08,0.062610718367241,0
5.94776418664865e-08,0.0600405455888985,0
5.24213209226787e-08,0.0575217349150007,0
5.23077704846461e-08,0.054753304375586,0
5.10614307920468e-08,0.0547200400279716,0
6.11267898593314e-08,0.0548252979968188,0
6.29001548556946e-08,0.0545878674345094,0
5.71627062497882e-08,0.0508509302780936,0
5.87630789477309e-08,0.0498596323108663,0
6.05113290308144e-08,0.0505229113556308,0
5.81835935355335e-08,0.0496540321436623,0
7.06227482672413e-08,0.0513351949432288,0
5.96223192819814e-08,0.050163099397704,0
4.33474676016657e-08,0.0462018323183563,0
4.49997185953792e-08,0.0472609935394264,0
2.97694145824314e-08,0.0431609252383025,0
3.14706348086014e-08,0.0435891834848305,0
3.47366401915032e-08,0.0459758586892781,0
3.64467815451701e-08,0.0490891265565446,0
3.49304807770089e-08,0.0493271252226743,0
3.19508241930058e-08,0.0468510987472758,0
2.84495725567588e-08,0.0470105235187027,0
4.25948929222707e-08,0.0541943798229618,0
4.59656245844854e-08,0.0569988608072182,0
6.83018005863602e-08,0.0655510718661047,0
6.83948906124159e-08,0.0629255415056109,0
5.56538720774668e-08,0.0566841898205452,0
4.98982903102349e-08,0.0547483818209528,0
5.21716263215393e-08,0.0551920983260805,0
7.21238249373912e-08,0.0609688816789565,0
7.61786713223389e-08,0.0617664107671638,0
8.4432750601398e-08,0.0641345855148706,0
1.72007192613402e-07,0.0852396289067777,0
1.98628515845936e-07,0.0846721163431819,0
1.72820566716065e-07,0.0782021232328451,0
1.99420265911296e-07,0.0860150810340373,0
2.52660003313049e-07,0.100905066791838,0
2.69408741407255e-07,0.0958522039625009,0
3.06613430914562e-07,0.102111020869354,0
2.5734194677977e-07,0.0916300165834572,0
2.13232789433659e-07,0.0818897499247468,0
2.2254179203924e-07,0.0812310218735252,0
2.27442691004747e-07,0.0851285619220386,0
2.58485887443708e-07,0.0877914097119257,0
2.94898439010548e-07,0.0881038236182019,0
3.40991577536974e-07,0.0936309413569917,0
3.14824262119017e-07,0.0852742404501515,0
3.15084623285641e-07,0.0894452079284578,0
3.41811933391591e-07,0.093069261150784,0
4.19709570226316e-07,0.0998489453950962,0
4.24191951949681e-07,0.0970373891132995,0
6.48121464158591e-07,0.118851979018719,0
1.1488811261645e-06,0.15684545080565,0
1.70235951233259e-06,0.201417928598837,0
3.19197941843206e-06,0.237457679201326,0
3.59125088919714e-05,0.0742171702312541,0
0.000231903645052582,0.142212187398398,0
0.000600926677318565,0.130913934224607,0
0.0019472978585646,0.0869035878368051,0
0.00340911023838061,0.0516919169974558,0
0.0032601359432086,0.032446363540746,0
0.0031379154371156,0.0304544642726775,0
0.00311736130336111,0.0313692018236023,0
0.00311123355853021,0.0318801799126288,0
0.00313741546997941,0.0315860689172059,0
0.00327936908294834,0.0339525242600816,0
0.00351532676828443,0.0355610713037837,0
0.00358799476493263,0.0394144583806796,0
0.00252281752006527,0.0585619109623384,0
0.00044347263683842,0.0420763210673042,0
2.86889536557301e-05,0.071207529798538,0
2.96173917820678e-06,0.218729903982231,0
1.58560677740361e-06,0.17996824695541,0
7.88411333394346e-07,0.129599412262129,0
6.17913750703482e-07,0.117746314262071,0
5.61672635711646e-07,0.117940796900875,0
5.46273218151363e-07,0.119241379708916,0
4.02841657505003e-07,0.105019694627068,0
2.00378608335785e-07,0.0787898847629022,0
2.02621011307182e-07,0.0807936995734517,0
1.95619380753682e-07,0.0770708129331168,0
1.89802902594405e-07,0.0803018879281927,0
1.75674066921007e-07,0.0788220708663772,0
1.61145041104347e-07,0.0713871666346406,0
1.61535340432341e-07,0.0719043229512389,0
1.31208840225232e-07,0.0695453315978787,0
7.78117224981783e-08,0.0546804945234029,0
1.83847371208707e-07,0.0753561019641493,0
2.07758417120137e-07,0.0715389264650302,0
2.38145716750513e-07,0.0805278359333275,0
2.64575526648192e-07,0.0865699326973557,0
2.78616605578278e-07,0.0852050155692786,0
2.70525530813592e-07,0.0819362264079267,0
2.73754978967512e-07,0.0872437250901375,0
2.75202819779013e-07,0.0864503848998835,0
2.93951151026652e-07,0.0854207452934381,0
3.10510412130325e-07,0.0899454159342675,0
1.74449254296934e-07,0.073054648425008,0
1.03855111818949e-07,0.0622578521059503,0
1.00702947780411e-07,0.0590248763078473,0
9.10332213238636e-08,0.0542819722600005,0
1.01958402538062e-07,0.0586365190685569,0
9.06678429715946e-08,0.0558813268249065,0
8.49059582338484e-08,0.0546044177181704,0
7.90901588560115e-08,0.0559181034460172,0
4.20006682559479e-08,0.0435783730751207,0
4.18726694701211e-08,0.0435272327224144,0
3.49149657726663e-08,0.0426737246370906,0
2.22935097399327e-08,0.0396915895229882,0
1.78810425048872e-08,0.03834161084737,0
1.94101431516309e-08,0.040894511995168,0
1.02926538809043e-08,0.0358655064228008,0
8.70672953075542e-09,0.0373540836797919,0
9.87297301343592e-09,0.0348274956110947,0
6.68484325545638e-08,0.0612318388121784,0
7.89350088125852e-08,0.0632903769614596,0
7.40473945695465e-08,0.0615589698722199,0
9.65701384986415e-08,0.0681864450381885,0
2.01328126601554e-07,0.0919508888691277,0
2.34782839559248e-07,0.0957865491099693,0
2.3391739322326e-07,0.0910945622714658,0
2.64834918127046e-07,0.092077726398538,0
2.45175856124493e-07,0.0853878933363965,0
1.88536490364937e-07,0.0756969368531719,0
2.08760589431894e-07,0.0786634942311773,0
3.32072001540393e-07,0.0950370994945613,0
5.19822947841707e-07,0.120138127715471,0
6.62965444563409e-07,0.124864566804664,0
6.62295681219692e-07,0.124730240205913,0
9.77104040459257e-07,0.141801110852072,0
1.24380386210829e-06,0.161608939201761,0
1.34060391357753e-06,0.169052964377281,0
1.29739617798373e-06,0.162751033331572,0
1.46245051533853e-06,0.167252666799151,0
1.94592335950588e-06,0.188437485408313,0
2.75690582424911e-06,0.189053475529848,0
2.73756045624061e-05,0.140449575170673,0
9.02264511827994e-05,0.188828296366699,0
0.000576440683842802,0.0462232791662733,0
0.00238311760266364,0.0714170858547793,0
0.00550941988652132,0.105428553604369,0
0.00772745313844213,0.0631593493280605,0
0.00734728187844743,0.0267694519529404,0
0.00714304166582091,0.0264257466100024,0
0.00706443933477381,0.0264319539882878,0
0.00699305959974782,0.0266172950032246,0
0.00705787648357328,0.0264980747944173,0
0.0068663151845678,0.0223182407142449,0
0.00748432848031489,0.0210869685631182,0
0.0116249755458699,0.0235542812173575,0
0.0120704196268924,0.0124189723607514,0
0.010672529130228,0.0119991187062599,0
0.010479547771093,0.0150160468438319,0
0.0102999138727403,0.014174032442265,0
0.0102356376557861,0.0141793399751758,0
0.0101770456006706,0.0140767467139342,0
0.00994689310981905,0.0134335816482686,0
0.00973452735458511,0.0139575056265308,0
0.00918722165788826,0.0163871211507609,0
0.00456426142182001,0.00936493281125385,0
0.00458537511244846,0.0217284991650036,0
0.00488812072104642,0.019735336527185,0
0.00505710795888838,0.01794671698447,0
0.00521811065865205,0.0191122209844733,0
0.0052638924607863,0.0190568787586439,0
0.00533254315503281,0.0194093195875709,0
0.00557286919602238,0.0217695205655738,0
0.00605914867732405,0.0252344172272273,0
0.00628595907372057,0.0260256827218742,0
0.00557597384613587,0.0402121976124113,0
0.00169075028466167,0.045454028451869,0
0.000287959429341825,0.0275273327490396,0
5.885856109655e-05,0.133149861946664,0
6.05558051180133e-05,0.143830074927798,0
6.08233605921518e-05,0.139738214315893,0
6.63619789871559e-05,0.139014377218355,0
7.38202533544699e-05,0.14469305434111,0
7.85334425854059e-05,0.148571419352204,0
8.14945578665006e-05,0.163849117842721,0
7.91625689327791e-05,0.286090042379442,0
3.71772876823881e-05,0.229997350427655,0
1.22907637999233e-05,0.168011303230662,0
9.54975755818697e-06,0.214205485557852,0
8.18720388918446e-06,0.227275368611823,0
1.45511589400433e-06,0.120852592867637,0
9.05461083687711e-07,0.132892587642945,0
8.62828179004801e-07,0.130868028661182,0
7.94796921306666e-07,0.135773638757207,0
5.57171829920624e-07,0.121062624032887,0
6.16591096583272e-07,0.133731012816964,0
5.30516276709761e-07,0.123305967849335,0
5.11900501780472e-07,0.120299727606169,0
4.33355016545664e-07,0.112305965253546,0
2.73308922592662e-07,0.0891841635222639,0
1.34448082225643e-07,0.0683932458971621,0
1.3236907164373e-07,0.0716762528055995,0
1.10945953647419e-07,0.071368026727068,0
9.73434644963448e-08,0.0694938635589668,0
9.96319276368836e-08,0.0679539797621181,0
8.14077126296926e-08,0.0591187722423332,0
1.22370814970227e-07,0.0736554944774042,0
1.39471064881571e-07,0.0798812224803076,0
1.34738503713181e-07,0.07928884486531,0
1.33334880664059e-07,0.0802859361184977,0
1.04813163337107e-07,0.0707617007071166,0
7.3111451932577e-08,0.0612223180460883,0
8.0454606519169e-08,0.062735701402866,0
9.27476293037248e-08,0.0657273972301331,0
8.26771308912517e-08,0.0696689856315249,0
6.93272454046311e-08,0.0658985590698223,0
4.90289652231614e-08,0.0562384682432775,0
4.04460648208158e-08,0.0520710106617876,0
4.1524454591406e-08,0.0525516853296547,0
3.97478896253972e-08,0.0517007055694424,0
3.56865463323811e-08,0.0519225588894003,0
3.13767690323284e-08,0.0496014542176118,0
4.23753556108224e-08,0.0525108684229201,0
7.08862124347346e-08,0.0665897236041867,0
8.35420923833537e-08,0.0699417236822961,0
9.62695352895029e-08,0.072308098162006,0
9.46346417068977e-08,0.0770840462298248,0
8.08742873866373e-08,0.0718924262219322,0
1.03544811732096e-07,0.0839201256587633,0
1.86969765832663e-07,0.101716604590727,0
2.5090244422736e-07,0.108597434106568,0
2.50259056391026e-07,0.105798034827549,0
2.54129565130628e-07,0.111172530621405,0
2.29480877731483e-07,0.10590506021851,0
2.28306100996414e-07,0.0991632669865788,0
2.48292820496928e-07,0.101634611361702,0
2.27721476239028e-07,0.0905093013605121,0
2.37297046012971e-07,0.0899691519434627,0
2.40136291807674e-07,0.0872675213963099,0
2.14612170288496e-07,0.0871230909359593,0
1.77544885538398e-07,0.0781206970636311,0
1.96179957254337e-07,0.0809864343529533,0
1.8439582661222e-07,0.0757520836259132,0
1.95236935896636e-07,0.0797863445164904,0
2.16676344647506e-07,0.0877149749882912,0
1.39055262765188e-07,0.0681940657348713,0
1.50641868008268e-07,0.0736638196168409,0
1.40275033012851e-07,0.0770255493344374,0
1.30769765602335e-07,0.0768906477691067,0
1.35934807516776e-07,0.0758575698633255,0
1.29038388086474e-07,0.079157721929251,0
9.79408891323134e-08,0.0709097516127075,0
1.01818088717538e-07,0.069665532579011,0
9.96008976281983e-08,0.0638309692418486,0
1.08335942041879e-07,0.0664268808343469,0
7.49301983166425e-08,0.0588299724932337,0
6.41219614476771e-08,0.0559366954258595,0
6.35704030432964e-08,0.0557335396337402,0
7.23046717067601e-08,0.0556845949830849,0
6.59280049219369e-08,0.0539491519655173,0
5.38936948347948e-08,0.0477961055635499,0
9.45570666851846e-08,0.0600595356942132,0
8.6776970788793e-08,0.0590809526915985,0
1.34531475373984e-07,0.0693320052038628,0
1.32190261218681e-07,0.0653394343763025,0
1.31601078928769e-07,0.0644709385604537,0
1.29126435736119e-07,0.0623899877423363,0
1.42740464171673e-07,0.0639871037858152,0
1.41159873104266e-07,0.0658331289805437,0
1.17144488788633e-07,0.0609968532451433,0
1.21443696491977e-07,0.0636011211067724,0
1.01984487139113e-07,0.0609936425582657,0
1.07450714075354e-07,0.066992727218316,0
4.01349889837459e-08,0.0480621367959304,0
6.50700251817893e-08,0.0642305880424864,0
6.24188988147414e-08,0.0606140980021628,0
5.9754972569111e-08,0.0647094314287157,0
5.48455403512155e-08,0.063952486583454,0
5.98492262204924e-08,0.0647511719059537,0
7.20001897465359e-08,0.0643761181953345,0
9.96421093584833e-08,0.0727676652949364,0
1.0594808590477e-07,0.0704091165285185,0
1.39350823597915e-07,0.0780281732921528,0
1.63528242740152e-07,0.0854433240500325,0
1.42072446265945e-07,0.0753797972726246,0
1.51072409378776e-07,0.0809783290725143,0
1.49954068472004e-07,0.0782747620198915,0
1.49069713224473e-07,0.0804886501975999,0
1.44302049358759e-07,0.0780608814370147,0
1.34507427117253e-07,0.0793960503812714,0
1.04668098046503e-07,0.0672021039154606,0
1.04705043150594e-07,0.0662031868799891,0
9.40889014291457e-08,0.0635292919574863,0
7.60391332520322e-08,0.0582891435327077,0
6.97259810162369e-08,0.0600925006921234,0
5.97763057000821e-08,0.0539462537997574,0
9.56450563647119e-08,0.0617974414053986,0
1.14409193523026e-07,0.0603263967833895,0
1.17274039074894e-07,0.0610167896503466,0
1.21880443864222e-07,0.0621420621387112,0
1.05093209165491e-07,0.0583268123067787,0
1.08563236855499e-07,0.0628545812227892,0
1.08285130402657e-07,0.0618089811094418,0
1.23201255577666e-07,0.0640315809261671,0
1.4881032174562e-07,0.0683573436285167,0
1.05989297635055e-07,0.0598380770995358,0
1.03402073692144e-07,0.0613812390326037,0
9.18682194638288e-08,0.062436351186891,0
8.12210477336954e-08,0.0594958433470245,0
4.79243938827431e-08,0.0497427225746471,0
5.47237475671258e-08,0.0524065352391424,0
7.27953337190958e-08,0.0591424679027854,0
9.66585740233947e-08,0.0692734644152823,0
1.29374190961715e-07,0.0793859305906145,0
1.09769528443138e-07,0.0709080851497704,0
9.16864030066886e-08,0.0644449969763279,0
5.91028575428346e-08,0.0540626166464956,0
7.70150270251841e-08,0.0605085988657176,0
8.31857321273586e-08,0.0588121148729185,0
7.41404845956023e-08,0.0550752578347946,0
7.69598517909906e-08,0.0551995701902473,0
1.68460365651899e-07,0.0725187218602356,0
1.83001027721817e-07,0.0714120155819868,0
1.73995052544803e-07,0.0682161543839035,0
1.76869207099276e-07,0.0694740534172025,0
1.95300547414441e-07,0.0761932767345388,0
2.24087183440543e-07,0.0853474611700506,0
2.31001445125839e-07,0.0899408824245681,0
2.20306176882243e-07,0.0921853639178682,0
2.20182056847502e-07,0.0927875364548986,0
2.07441523156438e-07,0.0931108207681939,0
5.31897984815249e-08,0.0546493876348611,0
4.73759384792308e-08,0.0577090612461289,0
1.80943738145983e-08,0.0428754762237907,0
1.81471248293632e-08,0.0476293581311567,0
5.05425508655629e-08,0.0573404390620763,0
4.28118120767363e-08,0.0492512117948037,0
4.09852112217223e-08,0.0459749186840728,0
4.86268357043559e-08,0.0468467337224677,0
1.1368823066498e-07,0.0604257037140339,0
3.51467599375452e-07,0.10378181796517,0
4.608345134559e-07,0.118244111722218,0
4.51449390360263e-07,0.110744890073056,0
4.20660349086189e-07,0.101104156868751,0
4.24903702773899e-07,0.0954460602362994,0
4.48551284517835e-07,0.0997405834415289,0
4.32696501580096e-07,0.0987822224624428,0
4.45125474590205e-07,0.10020903776128,0
3.68285088332652e-07,0.0944488538547855,0
3.43291192086884e-07,0.0987769809216612,0
2.23390462776782e-07,0.0808600988836547,0
1.24564539615498e-07,0.059385097970791,0
1.24040132468717e-07,0.0602008556438077,0
1.0288590889142e-07,0.0585119829336858,0
7.63145245791142e-08,0.0538377002262267,0
7.93569199619278e-08,0.0551572525717721,0
8.3591837366027e-08,0.0580502647004649,0
1.13812350699721e-07,0.0668448334573594,0
1.11082485685634e-07,0.0633622539526648,0
1.05356964239316e-07,0.06266987920954,0
1.0718695900153e-07,0.0649611423327716,0
1.08280088026245e-07,0.0667193668512488,0
9.31506315415247e-08,0.0637747973829874,0
1.05622367782352e-07,0.0655650007616901,0
7.19485053883193e-08,0.0568780220922034,0
7.51135662742169e-08,0.0599502264773403,0
1.21418096734812e-07,0.0720658659084153,0
9.25300313678193e-08,0.0646270002015748,0
8.51401378306448e-08,0.0666011816892288,0
1.07345309014602e-07,0.0702241181717455,0
1.2554789998449e-07,0.0699198961629495,0
1.38936960857076e-07,0.0733305773612788,0
1.90933946410983e-07,0.0883785360698426,0
2.80761070084761e-07,0.106073366817981,0
2.83207107488155e-07,0.104980243262407,0
2.84185328511958e-07,0.104404923057023,0
2.33053692325261e-07,0.0967878431082056,0
2.77550239936053e-07,0.102504176647346,0
2.73227856694972e-07,0.0964626261354243,0
2.22540337507582e-07,0.089553282408203,0
2.13744784576966e-07,0.0914984009624957,0
2.02659023067821e-07,0.0897522010568799,0
2.01654717442967e-07,0.0915747881018149,0
1.63256633195379e-07,0.0890195884238532,0
1.68745162950363e-07,0.0896721316276154,0
1.61656745341322e-07,0.0880059118924773,0
1.46021499715031e-07,0.0853064867094668,0
5.72958443808032e-08,0.0585123880311447,0
5.36330427618385e-08,0.0569126815728313,0
6.71129633786057e-08,0.0575119085369125,0
7.05181189567057e-08,0.0592351366337165,0
7.52966433254601e-08,0.0594166045656958,0
6.20080421059932e-08,0.053041621068917,0
4.87458163939084e-08,0.0469610988995015,0
4.24828939846723e-08,0.0458447714271961,0
4.63409907208e-08,0.0474196372210957,0
5.30071093053903e-08,0.0477937722469461,0
6.55630144447766e-08,0.0511024661472647,0
6.1102450696269e-08,0.0522435957976151,0
4.87752949021595e-08,0.05087127818586,0
4.10202169502704e-08,0.0467599379063647,0
4.99506534498912e-08,0.0496603045575572,0
6.0177271593562e-08,0.0564159301164838,0
6.41515369247051e-08,0.0585706379703368,0
6.7394851613756e-08,0.0571287165402299,0
6.38218430824241e-08,0.0549233566510846,0
5.9145523804777e-08,0.055019257347015,0
4.02909147773894e-08,0.0473045696632139,0
5.04299701153015e-08,0.0494386879786416,0
6.95398009641253e-08,0.0561351294773285,0
8.31973683806157e-08,0.0625925950891442,0
9.457791497227e-08,0.0664823317335317,0
1.21308812922973e-07,0.071964359476998,0
1.01063186787492e-07,0.0641952476255926,0
1.05463242019063e-07,0.0670087158967265,0
1.34221854068572e-07,0.0737070821794367,0
1.32451689041854e-07,0.073266499924848,0
1.43919507532936e-07,0.0791426283136908,0
1.33142882485318e-07,0.0762995092717195,0
1.2002562509506e-07,0.0751373465175091,0
1.03995231701918e-07,0.0715617414013916,0
8.92443413231576e-08,0.0680821577098116,0
4.2802018230245e-08,0.0484022629619963,0
4.55846342590965e-08,0.049551594374309,0
5.41535711575341e-08,0.0550470254048673,0
3.79706458779482e-08,0.0519118397609436,0
4.20898795309179e-08,0.0551212636225717,0
3.40869493846553e-08,0.0510484801560758,0
3.8121917170289e-08,0.0531370910557878,0
3.40531072814329e-08,0.0489162637984391,0
3.13330361138376e-08,0.0465211059424014,0
2.5104828526818e-08,0.0446083662241675,0
1.82743478649729e-08,0.0463493580800654,0
1.41163267011467e-08,0.047388068894923,0
0,0.0327542260814774,0
1.05720209278488e-08,0.0397074851442249,0
1.59049157955211e-08,0.0424549756713566,0
2.46975596628238e-08,0.0474735555688839,0
1.99659681822059e-08,0.0488056783573591,0
1.6196210002054e-08,0.0475121368494949,0
1.76964139532097e-08,0.0486563806115134,0
2.72413415935761e-08,0.0495806901832706,0
7.34190368936698e-08,0.0650177484145057,0
9.85436470510248e-08,0.0698393799531483,0
1.04554159733362e-07,0.0705287282473319,0
1.24490067594653e-07,0.075148017125618,0
1.1072437999165e-07,0.0712276281442911,0
9.43257961517022e-08,0.0626553356134866,0
1.08314124067022e-07,0.0643894014518604,0
1.32535373096527e-07,0.0688153475686712,0
1.31980711691278e-07,0.067910064415415,0
1.06541631789653e-07,0.0647960254485084,0
9.57648128044817e-08,0.0627927261834038,0
8.81810786818015e-08,0.0603316828112738,0
8.84913787686542e-08,0.0605128696525816,0
7.94291617008981e-08,0.0575954312663212,0
8.05683508947561e-08,0.0579858928636341,0
7.44464210874838e-08,0.0551742866232136,0
7.6820216751907e-08,0.0576730804111622,0
5.56465994191811e-08,0.0495524042321297,0
1.0521975341966e-07,0.0663518537771959,0
1.13271264923271e-07,0.064815600063172,0
1.11358943669264e-07,0.0661292418775317,0
1.12421818435512e-07,0.0664658487691445,0
1.57439379285885e-07,0.0789248012386328,0
1.63494109730598e-07,0.0828291407581393,0
2.20227826110313e-07,0.0986550079842692,0
2.25837954711833e-07,0.0967540254504679,0
2.33343338062582e-07,0.0954550126020754,0
2.26791448697465e-07,0.0970943321458301,0
1.42602283664246e-07,0.0764340539212578,0
1.40810785506557e-07,0.0759610141408285,0
1.66156096600686e-07,0.0788320688769078,0
1.69708547751264e-07,0.0789811768244021,0
1.55787710104834e-07,0.0785656762052285,0
1.59848762491519e-07,0.0783639093589619,0
1.28745542379507e-07,0.067515641778559,0
1.25433379858685e-07,0.0714054985638424,0
1.28202032383629e-07,0.0774700086893762,0
1.35847050773462e-07,0.0782732121747118,0
1.56241523981857e-07,0.081058001893536,0
2.63903339085048e-07,0.108038562672539,0
2.42160999874387e-07,0.103589256219706,0
2.00886724728006e-07,0.0958813983250904,0
2.10577396440416e-07,0.0949855989752351,0
1.68989912143869e-07,0.0831608472039179,0
1.48938320531447e-07,0.0757853448053856,0
1.57584347607712e-07,0.0757133604802708,0
1.5788698716117e-07,0.0729173799416917,0
1.7232990470373e-07,0.0779966027912606,0
1.9304776878389e-07,0.0874508120425933,0
1.25563802863941e-07,0.0734550811062561,0
7.72628792195578e-08,0.0596207196393664,0
7.28453696081008e-08,0.0611263011534976,0
9.378277099971e-08,0.065681554740464,0
1.59380694204257e-07,0.0912730064674284,0
1.70129877087944e-07,0.0932727400219801,0
1.69177158852529e-07,0.100845587632934,0
1.88373970694448e-07,0.105987368514526,0
1.92386053848677e-07,0.102727488708937,0
1.82357155041597e-07,0.102175566721456,0
1.55782764697201e-07,0.0912486035545793,0
1.49176766754438e-07,0.0893237244109084,0
1.62958454205669e-07,0.08673200306993,0
1.51987309791106e-07,0.0854724025382215,0
9.10148942249838e-08,0.0641009707834847,0
9.16906696328827e-08,0.0653561823160569,0
8.82017330313326e-08,0.0622961680328571,0
1.17778276716029e-07,0.0682434623465442,0
1.14645118557812e-07,0.0626467048389513,0
1.30231104045314e-07,0.065675290776493,0
1.23028263279246e-07,0.0655803438894026,0
1.2346268340084e-07,0.0665593100762288,0
1.39730456360424e-07,0.0706468584164122,0
1.65484587818981e-07,0.0764902273944902,0
1.63367565476429e-07,0.0792559891965279,0
1.47054023254034e-07,0.0787223652633927,0
1.50256611056685e-07,0.0783309044410665,0
6.40266411397471e-08,0.0543875063132432,0
8.45815976743101e-08,0.0642723882128939,0
1.16530191585442e-07,0.0680016034164777,0
1.15049672296046e-07,0.0671341915164992,0
1.14641239806726e-07,0.0660720658762633,0
1.21882868083651e-07,0.0699840989578234,0
1.68128441527744e-07,0.0782527808771369,0
1.82415336307882e-07,0.0771802864350657,0
1.8311593572273e-07,0.0773239189408775,0
1.77697708331173e-07,0.0781531863044815,0
1.74414733412271e-07,0.0841885501643229,0
1.02748116259101e-07,0.0691652990770169,0
3.93305360085804e-08,0.0485528578328716,0
3.24054138202451e-08,0.047081689213383,0
8.879004260225e-08,0.0647675986022146,0
1.65523860173724e-07,0.0833185203371431,0
1.26628035193069e-07,0.0757851414832643,0
1.19661798243225e-07,0.0756441513004716,0
1.19867081144434e-07,0.0750914506826183,0
1.33974486718084e-07,0.0765418213662743,0
1.93115743896666e-07,0.0847596519307541,0
2.3671397275602e-07,0.0922432852668966,0
2.73704070359514e-07,0.100439247096031,0
2.75170723113778e-07,0.0961871357879971,0
2.51286925428725e-07,0.0969912273815254,0
1.69864958388793e-07,0.0843149468874954,0
1.70415256199071e-07,0.0886008334599734,0
1.79531969719581e-07,0.0861720255155066,0
1.91767005175405e-07,0.0922667334504949,0
2.13583428531802e-07,0.097199063651951,0
2.02744355591705e-07,0.0948766647298349,0
1.84226713064885e-07,0.0935658399629307,0
1.64713492103153e-07,0.0902014114435874,0
1.81395224772354e-07,0.0898327007845922,0
1.94171152067074e-07,0.0959059866727173,0
1.88268856540027e-07,0.0944934105496183,0
1.99779826136937e-07,0.0948034849174455,0
1.9684506609675e-07,0.094945982255085,0
1.72548278389852e-07,0.0922183869222458,0
1.43564698777375e-07,0.080752955113454,0
1.262049604184e-07,0.0762560795719047,0
1.2655404801611e-07,0.0770051378371676,0
1.13375991202584e-07,0.0719682217765588,0
1.08491479960414e-07,0.074963761869523,0
8.18456236272636e-08,0.0654748990883794,0
7.93380110503851e-08,0.0634670481327595,0
6.89859153090929e-08,0.0586974288049251,0
5.91532813069483e-08,0.0581162175636124,0
5.6390834783742e-08,0.0530251492793492,0
4.7147770946617e-08,0.0511246464191206,0
4.36092832999476e-08,0.0514507590027777,0
5.51690281917594e-08,0.0512713689952587,0
5.40485539718898e-08,0.0521141776114894,0
5.36803635250836e-08,0.0528770278070594,0
4.70066813758762e-08,0.0473753755117629,0
8.52937363736371e-08,0.0603531764447948,0
8.63603929221932e-08,0.0598002949228833,0
9.59471141055074e-08,0.0613102017298956,0
8.49508547776648e-08,0.0593633952595858,0
8.55753337024559e-08,0.0604269759408821,0
8.47026147081826e-08,0.0610920310882227,0
7.50926210183545e-08,0.0619680198027778,0
1.2284935588542e-07,0.0723876783372551,0
1.28850559565151e-07,0.0707753135099506,0
1.22400196509701e-07,0.0691429828964339,0
8.07875003310959e-08,0.0555953478238843,0
9.06096617053096e-08,0.057723468740407,0
9.14288539346007e-08,0.059574058594599,0
7.5513853386257e-08,0.055505610802398,0
7.96059357816271e-08,0.0568075824648319,0
8.19331864330223e-08,0.0534148617052857,0
1.11933871548936e-07,0.0587237365410769,0
7.47241396652167e-08,0.049686015273271,0
7.171238641598e-08,0.0500227526393235,0
7.17863735929389e-08,0.0513602646111852,0
7.200174124697e-08,0.05361642449261,0
6.14189567848585e-08,0.0523958998685848,0
1.00508525382242e-07,0.061451993682655,0
1.36918361823321e-07,0.065656900596255,0
2.03993313441288e-07,0.0775632519836782,0
2.65077824913786e-07,0.0905436828757959,0
2.780459443248e-07,0.0907658898336925,0
2.91226425357754e-07,0.0922810980688949,0
3.06536631643067e-07,0.0951950234916062,0
3.30954533352614e-07,0.0994185424945528,0
3.29646230611422e-07,0.100887437277169,0
6.04284595138693e-07,0.109854013006888,0
3.36057602521584e-06,0.216784926907249,1
1.77173266275632e-05,0.284332738117823,1
2.34989286085782e-05,0.218197594583617,1
4.21338358654713e-05,0.235544795706627,1
5.3621069542081e-05,0.24884423875873,1
0.000167124948598211,0.0837197288518686,1
0.000330147914482843,0.0650677549806422,1
0.000305713313974121,0.0588079980938393,1
0.000284184853752825,0.0553361263469869,1
0.000251604764256188,0.0475935894014176,1
0.000210845380904425,0.040696790614165,1
0.000193796307234905,0.0369046291864426,1
0.00016307807333765,0.0305344566722036,1
0.000156497063957851,0.0295556016089376,1
0.000132851170246387,0.0253378115057572,1
0.000109417728143889,0.0372147126304476,1
5.6727535686828e-05,0.039194975416801,1
7.18946295357396e-05,0.042570909886702,1
9.05318283587742e-05,0.0248290621542569,1
0.000175885129161333,0.0301893598736365,1
0.000178112347694948,0.0280097796181986,1
0.000162454034360201,0.0263268954109377,1
0.000158700130090268,0.0284388930183137,1
0.000171729920092044,0.0295479563302325,1
0.000173015810342807,0.0297887805377008,1
0.000175418245444653,0.030483238641919,1
0.000182221908421492,0.0270904571698795,1
0.000247399721477795,0.0264732414132657,1
0.000221136417346127,0.0283321036691702,1
0.000208251247451298,0.031786933426231,1
0.000238056984889178,0.0368232735366778,1
0.000268018864748949,0.0412799603044354,1
0.000298295471029342,0.0414469276112034,1
0.000354798230181693,0.0461341881141544,1
0.000349763759440799,0.0425358609805175,1
0.000395406788297491,0.0428181234041155,1
0.000452361275431498,0.0574349963975621,1
0.000223930033513057,0.0666630628496409,1
0.000144245421144409,0.031584151832065,1
0.000311520848993988,0.0339447469785872,1
0.000323000359204468,0.0289218873619646,1
0.00034959393579111,0.0312928410789242,1
0.000371029300943973,0.0331516894253856,1
0.000385965117374619,0.0343627899523012,1
0.000394405452341436,0.0360668035562364,1
0.000402994441510267,0.0379994038320276,1
0.000404558030169258,0.0381130094586923,1
0.000401985309167562,0.0358279494448616,1
0.000506655945565744,0.0449364382815062,1
0.000349879502924696,0.0321156819182535,1
0.000342154388421912,0.0374746828049393,1
0.00039067729522121,0.0296106943112367,1
0.0014726085630781,0.0244062380277692,1
0.00330325216694319,0.0318169536506732,1
0.00326167036550183,0.0209244026913605,1
0.00299038784550526,0.0197257822921683,1
0.0026406816662213,0.0183780431014186,1
0.00239114434921429,0.0163914429717835,1
0.00243995885945355,0.0165245465681123,1
0.00231127233178697,0.0178876454765988,1
0.0019260757382253,0.015014323905684,1
0.00212788106146389,0.0138252782902591,1
0.00323964660612431,0.0270720526365665,1
0.00333119713386231,0.0275954702924341,1
0.00349783236870585,0.0421346866045208,1
0.00477660019219477,0.0362700574812607,1
0.01010949615319,0.0334906766668908,1
0.0101233633756359,0.0170436457761449,1
0.0103999956126436,0.0105703105862698,1
0.0334863178771913,0.0107017180224479,1
0.0563755186988215,0.0136204867022032,1
0.0691783023063511,0.0164407597684948,1
0.0752786887821736,0.0117251183752415,1
0.0668761996996545,0.0101666390288876,1
0.0652104091814291,0.00865895579041357,1
0.0565388576085698,0.00704022266605702,1
0.05231415293077,0.00633380083854265,1
0.0347671853009335,0.00499933992927947,1
0.0212982658643687,0.0025129199552265,1
0.0267804452117131,0.00537542037663084,1
0.0415462798179759,0.00813005650183372,1
0.0461556764121367,0.00856257687409933,1
0.0450109986435302,0.0105024392604666,1
0.052120915491058,0.0137401419293886,1
0.0412497752654249,0.0150099334463497,1
0.0332553231691652,0.013608160170066,1
0.0219293941272005,0.0101870201042699,1
0.0122192589969928,0.00524216751158296,1
0.00786007696180267,0.00344911793045456,1
0.00717729408728441,0.00276857901774487,1
0.00662332451779985,0.0019403946641434,1
0.00913017888698563,0.00354027049687553,1
0.0194317982747962,0.00845840457999989,1
0.0209090391628056,0.00555631273368397,1
0.0210087584554319,0.00632096391420627,1
0.0210816532286926,0.00797012675601005,1
0.0215531144092489,0.00822444232559985,1
0.0242750517006214,0.00898760888623324,1
0.0266674452080227,0.010031159811374,1
0.0257109595626236,0.0119991964036921,1
0.0256326538090298,0.0144004286075065,1
0.0242852495720802,0.0169664098329519,1
0.0113224322338257,0.0110462072245749,1
0.00270005787292877,0.0114575966206776,1
0.00239051602955017,0.0133202199473289,1
0.00329855841190367,0.0139729193739545,1
0.00476028944849129,0.0154587762625902,1
0.00501754478663807,0.0163089701026786,1
0.00579069802942244,0.0235637197828773,1
0.00668022939415596,0.0324174300798046,1
0.00787764148881299,0.0385399053845786,1
0.00882065849610657,0.038787086549083,1
0.0080380759024764,0.0457280425052753,1
0.00524821305625768,0.0365244451604121,1
0.00327996371148962,0.028000591290619,1
0.00276982952187544,0.0374236598244231,1
0.00254685554775399,0.0615425070429496,1
0.00122686827730163,0.0339801511530342,1
0.000463496875498186,0.0153582989927992,1
0.000352549477694769,0.0149385751980054,1
0.000356231921309232,0.0138975231419406,1
0.000359435659549455,0.0146160242595347,1
0.000364884880586406,0.0132551176787244,1
0.000384489034115871,0.0117473472439404,1
0.000366191432459359,0.0117963190752517,1
0.000360032703001161,0.0115507702101679,1
0.00038927822437133,0.00704839800775869,1
0.00109591121640928,0.0113212014403216,1
0.0010938471661703,0.00981092604801429,1
0.00107783130257872,0.0110125967672124,1
0.00123843935386777,0.0120431633216862,1
0.00152370697427088,0.014096088857204,1
0.00173255920850617,0.0163859014772566,1
0.0018527941441006,0.0179615410605747,1
0.00189350657827347,0.0179469713553561,1
0.00207702707161319,0.0193498995008414,1
0.00211291840902114,0.0314776200507245,1
0.000610456311043401,0.0301104619303168,1
0.000368408930648815,0.063144182838587,1
0.000177295021823711,0.0496912853749159,1
0.00011961830037705,0.077475910902368,1
0.000122774110441609,0.0767467168225378,1
0.000124023975918945,0.0622558734459921,1
0.000236241001824354,0.06285892950019,1
0.000265335851944976,0.0457258981032585,1
0.00026295046569959,0.0480258274914915,1
0.000252320651380564,0.0464755920693896,1
0.000239282202939709,0.0459975824103654,1
0.000227796191554535,0.0434950507825149,1
0.000208957771173585,0.0416979782826245,1
0.000189326418968788,0.03865957263344,1
0.000165442040246822,0.0370125056580583,1
0.000154787246770806,0.0407837696209948,1
7.89458111343588e-05,0.0536224994903509,1
9.33007401782275e-06,0.104769048544759,1
1.12788834590427e-05,0.124436343677423,1
1.1943169521382e-05,0.135671406238701,1
1.33415865107976e-05,0.187499194851822,1
1.45837531520726e-05,0.209637768666613,1
1.74332625100226e-05,0.0852724637231512,1
7.00921832152366e-05,0.132891549558787,1
0.00044447504682065,0.0390074242699355,1
0.00281757765444835,0.0561068493455287,1
0.00487378419037348,0.0707818774052448,1
0.00618999806098327,0.0624924836633509,1
0.00637740955683182,0.0483296064934713,1
0.00834349189456783,0.040723054536957,1
0.0113923135538775,0.0279347832168335,1
0.0197654404374423,0.0344927540256579,1
0.0194759333395814,0.025709994168971,1
0.019498462016739,0.0135354623745803,1
0.0515790938931279,0.0156677037152239,1
0.0994301219095759,0.0137412087680695,1
0.315405798956215,0.0195316002678259,1
0.481343792941177,0.0248166005868176,1
0.478528863486869,0.0138195620690671,1
0.428441776616009,0.0112803380372349,1
0.442716912361025,0.0111474012558203,1
0.46248227118809,0.0125537242263496,1
0.385037986717091,0.00902789586746501,1
0.263111965028145,0.00607747095562157,1
0.2596959719128,0.0060858479785853,1
0.21445289339898,0.00331429124338706,1
0.221343903234535,0.00456209840721068,1
0.224808792050913,0.00417703022766282,1
0.197751233836135,0.00470957747145957,1
0.108304485077341,0.00272546879432245,1
0.123575452631737,0.0036879897447486,1
0.126184685673414,0.00378363070935973,1
0.157224376534671,0.00563992699358153,1
0.180241246227973,0.00879204435210782,1
0.147681005951535,0.00821950760769694,1
0.202671034798147,0.0153848688456928,1
0.273092215437543,0.0176635831358208,1
0.268975965121316,0.0242639950398969,1
0.245489838283085,0.0223766164133576,1
0.260660844073071,0.0226707805155328,1
0.237781725985082,0.0179600612935458,1
0.167576262202126,0.0145068551769166,1
0.140220238115025,0.0124239621025446,1
0.083239555728216,0.00751765976814513,1
0.0359325603013795,0.00384526481163649,1
0.0401052664168161,0.0062907319871396,1
0.0365978249633087,0.0050620449057483,1
0.0207436428029012,0.00240296533539645,1
0.0159064881365819,0.00255555033545003,1
0.0145747579194846,0.00232888435405663,1
0.0168779212203136,0.00509358532249804,1
0.0174920380871791,0.0095441726124723,1
0.0163974969876156,0.00921284414541232,1
0.0246105759845656,0.0101659135948427,1
0.0536513063640115,0.0147807903292923,1
0.0452462823516474,0.00633447621607936,1
0.037605307903478,0.00551009799512842,1
0.0357766582379352,0.00503467679358931,1
0.0296589777467666,0.00396518786817084,1
0.0288685076052654,0.00387212977217093,1
0.0310035803686919,0.00292475156955397,1
0.0466277113155417,0.00446394409099457,1
0.0485448006492164,0.00438744417770455,1
0.0474820199965003,0.00493932191026303,1
0.0223673410152431,0.00213430861810015,1
0.0220729896267524,0.00488616897040763,1
0.0234719815152479,0.00580914722423054,1
0.0283089694358036,0.00702358105105374,1
0.0220259678706104,0.00550840575274071,1
0.0169950116345606,0.00454798566005737,1
0.00745896786706289,0.00367943476963048,1
0.0116236145502952,0.00792812029220384,1
0.013883126156978,0.0128347334306481,1
0.0148262495491049,0.0135419506633509,1
0.0167188423293071,0.0152115327324897,1
0.0183383327844235,0.0171717477784084,1
0.0191441850442552,0.0202071048765873,1
0.020480149634083,0.0270955319236938,1
0.0146024545408322,0.0261554392919222,1
0.00913309196791025,0.0208308279957387,1
0.0038153099784557,0.0074048966935887,1
0.0228828344150147,0.0108279111839625,1
0.0562945778300543,0.0146504587622559,1
0.0581351248916861,0.0111074629342325,1
0.0623266328045298,0.00886252090246484,1
0.0791250947950641,0.0115001840807374,1
0.0859967457311027,0.0126748222530472,1
0.0833386529874701,0.0120961301449378,1
0.0726033750940169,0.0112254443244074,1
0.0561907081574038,0.007909600199659,1
0.0497887504989823,0.00347628998758367,1
0.104079243077123,0.00823978808649877,1
0.118166399446101,0.0095475399043906,1
0.165315745105441,0.0103273217309627,1
0.21680680016649,0.012310344497759,1
0.229758093179056,0.0114667283211458,1
0.214307130786506,0.0104965277019477,1
0.236931384022084,0.0109200671416692,1
0.246932064919961,0.0116054660691247,1
0.275621127086079,0.0137493087740359,1
0.20608163744031,0.00845686309292478,1
0.189142561148321,0.00832128398995624,1
0.123700314471708,0.00381469680751497,1
0.140306043191809,0.00640368610713342,1
0.147285911973555,0.00516995647247858,1
0.151114058679602,0.00336153389604974,1
0.225453392383381,0.0056584309697683,1
0.28994080649312,0.00765419758557362,1
0.33329498804351,0.00822243721424586,1
0.335142163884154,0.00877292460797095,1
0.346713472894052,0.00960007992530295,1
0.305734007772587,0.00880972542977087,1
0.267440408076181,0.00787255180499667,1
0.326121729385195,0.00960835189531462,1
0.213528317105391,0.00865209246298314,1
0.113995655433652,0.00806099357728133,1
0.121293013146932,0.00862555496594064,1
0.103456196950862,0.00882152791452418,1
0.0796674185947758,0.00908678872396681,1
0.0762010156058033,0.00905932099047231,1
0.0720122332202694,0.00784234532768622,1
0.0458615575431373,0.00573606393675343,1
0.0470845750103246,0.015771538486372,1
0.0492987082897368,0.0132312015225728,1
0.0603017160401592,0.0157739385301973,1
0.0610757438442476,0.0167504781679834,1
0.0634434393603781,0.0154167232723511,1
0.0559089619272096,0.0134686017602069,1
0.0461484556554194,0.0113542869276242,1
0.0479402432820713,0.0110670213431131,1
0.0327243684558871,0.00820280319211294,1
0.0370020423831817,0.0063706259354421,1
0.0435180607242018,0.00773466137862222,1
0.0387278982850924,0.00802661046684781,1
0.0445614273608333,0.0061857026604266,1
0.059820078964275,0.00670350321372881,1
0.0635227783620616,0.00756176009185746,1
0.0759661361205668,0.00770027305410619,1
0.0671910635988279,0.00670073243985482,1
0.0410399312456884,0.00411188320043638,1
0.0300833090365461,0.00262744008142985,1
0.0363623535837596,0.00398192831395055,1
0.0511207024194796,0.00616924096080904,1
0.0520498501796192,0.00637190542190818,1
0.0520633060473247,0.00872688355993675,1
0.0549646174804836,0.011848123202128,1
0.0599088026285494,0.0140105054388913,1
0.0688600513467492,0.0231068726850717,1
0.0484846713535072,0.0283550918113152,1
0.0203223635437102,0.0142113054908635,1
0.00760671425679168,0.00943778718942138,1
0.00516489421315056,0.0114611528940786,1
0.00642793716160885,0.00886223523043682,1
0.00675818244981045,0.00593614165810964,1
0.00598420901485476,0.00555553310350187,1
0.0046477255924213,0.00494710360913843,1
0.00518205442855369,0.00507961599628991,1
0.00625336676227926,0.0058832340930607,1
0.00753905940473515,0.005685857172079,1
0.0142623364808274,0.00867691130763737,1
0.013504141305802,0.0082799445359296,1
0.0162095468476644,0.00288081904853148,1
0.0790031160791623,0.00976203499876688,1
0.112558626934523,0.0144775668110002,1
0.169214853207694,0.0174381245449678,1
0.184866120073913,0.0168448611388019,1
0.198251267658238,0.017863756068662,1
0.239291858741449,0.0218104964324856,1
0.300343976952738,0.0265519118447382,1
0.295505266842749,0.0231544488036371,1
0.263285091117975,0.0167940981094329,1
0.237184727226286,0.012934736542363,1
0.209904921867534,0.00987783760929935,1
0.200131459749283,0.00424869478156048,1
0.316662458439893,0.0063910065619554,1
0.270477940075794,0.00447228713211581,1
0.221560791146436,0.0032406633330087,1
0.209843311479353,0.00276329417352349,1
0.217646934153301,0.00284397656581595,1
0.247618833699942,0.00331227916189095,1
0.287591597511157,0.00515225614545299,1
0.310144557880897,0.0056692658380832,1
0.332445675836853,0.0067980780134832,1
0.35031725380558,0.0176473794219658,1
0.1937147062508,0.0134240323098225,1
0.168253080642555,0.0142148128777446,1
0.159968428484244,0.0185757415744851,1
0.0831938944401385,0.0170823628286541,1
0.11451198944499,0.0214721912537208,1
0.126780642986768,0.0164945888769518,1
0.126217214995489,0.0132573304517765,1
0.160932990690218,0.0152989265829757,1
0.15284795394467,0.0131160433041912,1
0.148966288721515,0.0119934468931531,1
0.112091192939038,0.00879128300454986,1
0.0877934269365471,0.00720366525251423,1
0.0399002599036767,0.00293352891098423,1
0.026148866955768,0.00273174547733995,1
0.0269627411561838,0.00259152743813202,1
0.0251046875667976,0.0042466533747418,1
0.024144919820847,0.00991676867325683,1
0.0252196910548045,0.0111677813606076,1
0.0328900450554605,0.0143554471781599,1
0.0291072781500283,0.0101514289261394,1
0.03738991949968,0.00898501573913147,1
0.0452874321382777,0.0100389450814408,1
0.0528971246266002,0.0091930201320474,1
0.0423092203177819,0.00809921822881339,1
0.0233542734928958,0.00472668414851485,1
0.022884386095326,0.00435183847308802,1
0.0309780712486304,0.00450335708956426,1
0.0362324733859614,0.00256328351010791,1
0.0409650543054362,0.00318511726030352,1
0.042055746232882,0.0037155836925182,1
0.0453380079072524,0.00490732722405568,1
0.0471257467401165,0.00550101377825315,1
0.0433983690363996,0.00563115156299719,1
0.0534698118703626,0.00683883735989466,1
0.0654292875896488,0.00766290367594899,1
0.0917019610364654,0.0110463745141253,1
0.077134939295815,0.0149137324467,1
0.0604552221788884,0.0362483117004717,1
0.0589880102032617,0.0549041781845016,1
0.0495401443413365,0.0626379555187933,1
0.0409190651438144,0.0577349155374431,1
0.0279435518832276,0.0448150415092948,1
0.0160872825141083,0.0328221938934668,1
0.0072305693276706,0.0195681137350498,1
0.000434031386275198,0.0194014990776495,1
6.46868627557924e-05,0.125383822258069,1
7.89134801925593e-05,0.29340000524919,1
0.000123356832283712,0.570344672419657,1
0.000156019516390811,0.624272512306513,1
0.000178112756418344,0.673177032758262,1
0.000195767570863129,0.6058374542245,1
0.0002194885842499,0.650242542658468,1
0.000249757018098725,0.327445414316713,1
0.000898091599072093,0.049034750848974,1
0.00373072818761958,0.0452433920330657,1
0.0190527169760502,0.0206146105313292,1
0.0473753349440105,0.0305669223576219,1
0.0847280467675449,0.0340788994830233,1
0.0906794870808739,0.0260746076052349,1
0.0951637076166624,0.022970825208919,1
0.144198555846322,0.0158267726307565,1
0.26150249806156,0.0280415961559565,1
0.399809049090104,0.036204861681107,1
0.378463879666387,0.012003688806401,1
0.307369018629619,0.0106502399827245,1
0.264410073276659,0.00994117144538783,1
0.234129392820125,0.00887479996837361,1
0.290809018525345,0.00671459383776671,1
0.417871411565786,0.01090526698626,1
0.467732544039985,0.0116285430204418,1
0.485380405292059,0.0123727256596892,1
0.504021198705287,0.0130777696657987,1
0.541590704336112,0.0137712884130102,1
0.530513097636983,0.0242389657507045,1
0.40591748075749,0.00579252113012925,1
0.472458117273982,0.00624351821234179,1
0.398384239057569,0.00507942307571959,1
0.549201998927638,0.00941350606255374,1
0.535044184853536,0.00825517214226932,1
0.486654728370898,0.00708695236893156,1
0.512942727923777,0.00717931677446846,1
0.492315309119293,0.00654853755589696,1
0.423378312822041,0.00581370512277343,1
0.232921638259114,0.00272908650691402,1
0.164947758667754,0.00425008394395604,1
0.190880469238646,0.00711182646998334,1
0.170430048174054,0.00877200548210761,1
0.1843914502228,0.0109172059529703,1
0.130289765988252,0.0120416974997634,1
0.0551418025444655,0.00929611610964389,1
0.0566748664738567,0.0114204750842635,1
0.0322918899462271,0.00723817995541709,1
0.0230431456191802,0.00688399418925641,1
0.0215106841827889,0.00526484900862548,1
0.0257684825854554,0.00195170949391676,1
0.0406255385448818,0.00481914226726157,1
0.0523269450309053,0.00600252542184523,1
0.0677141893845758,0.00672255371028873,1
0.107607366891338,0.00875792179487086,1
0.109614284819412,0.00881175176460009,1
0.108036507364686,0.00741222636778484,1
0.105851503229081,0.00451756718715094,1
0.110220705776346,0.00478281355425715,1
0.0900470063585319,0.00373779915427471,1
0.0782097074372443,0.00434642622107301,1
0.0820114301127321,0.00291079454309905,1
0.0966708692632732,0.00256114345463772,1
0.106168956558722,0.00340445852870363,1
0.0921873553418728,0.0031266292975757,1
0.105734449300888,0.00377984008424499,1
0.0985391997938166,0.00467015413343204,1
0.0800236021615377,0.00543387619558968,1
0.0772144848665935,0.0046611952137703,1
0.087508255717266,0.00562240842722023,1
0.0906432816530636,0.00495978883496457,1
0.0827552994200622,0.00650613083802271,1
0.054951727952424,0.00695660820991221,1
0.0585364062873369,0.00650030923266762,1
0.0641921506971231,0.00677397697046614,1
0.0683245105988159,0.00679487120493718,1
0.0781709433121537,0.0078219758032352,1
0.0875966987210268,0.00856395936515511,1
0.110816482588624,0.0126360447254636,1
0.0982372494265479,0.0119535471047683,1
0.0939039677749078,0.013714390054001,1
0.0854825032599741,0.0213083386825598,1
0.046274238935959,0.0167289959011182,1
0.0422902544727673,0.0207582740201206,1
0.0376585007507549,0.0234662530877042,1
0.0258288350824414,0.0259886978576572,1
0.0188731836923067,0.0252694208185413,1
0.012388691358273,0.0246423267861371,1
0.0102615886934981,0.0230077677294887,1
0.0049509924050934,0.0223699528820524,1
0.00109158703730644,0.0364022706747749,1
0.000560370414949124,0.0371633963403524,1
0.000534277248452046,0.0465285702149477,1
0.000490429269913288,0.0527958289703041,1
0.000461493761602391,0.0598696316150935,1
0.000187521450684329,0.0527043632166664,1
2.10963231325911e-05,0.0857938152038713,1
3.82272966312846e-05,0.267759750011299,1
0.000283960114260421,0.0317234172014025,1
0.00302497142940318,0.0235059802677069,1
0.0123527718474595,0.0399913957095081,1
0.0289276850504159,0.0292685624076849,1
0.0696780627298356,0.0254450521024217,1
0.176216757772074,0.0343999024531512,1
0.241533629209657,0.0391015549957354,1
0.234177092707531,0.028004010131299,1
0.242110617925635,0.0220601610526373,1
0.293242579880781,0.0255400988856916,1
0.31247677517221,0.0267001730677931,1
0.309473753973475,0.02757047100678,1
0.349646323089664,0.0298547119166709,1
0.341878226813652,0.0254671194460198,1
0.306053646437813,0.0205478240762241,1
0.284173584474414,0.0172499290669954,1
0.259243722281303,0.0137522513538154,1
0.156814580824149,0.00709169188479803,1
0.111740544973973,0.00471195120532905,1
0.0915168198128997,0.00370336689511559,1
0.0950053401324349,0.00366462301816375,1
0.0942592840884175,0.00265278883223447,1
0.144137517518654,0.00505213539872124,1
0.155098904010942,0.00425645857168423,1
0.15727603775895,0.0035801870020297,1
0.247555420610897,0.0058087262369168,1
0.346638237360547,0.00796232991225635,1
0.403338302000615,0.0133215440670128,1
0.372543276038583,0.0128183287747445,1
0.347494850512349,0.0129276032844155,1
0.241765748304884,0.00938052100320082,1
0.196316606306812,0.00816013697544027,1
0.187457785551421,0.00699458421892045,1
0.163109817560167,0.00928129207205528,1
0.0450627368602418,0.00422843645944233,1
0.0425584923226875,0.00689349721188597,1
0.0615434490486991,0.008543621345061,1
0.0684792634231253,0.007738191818027,1
0.0615284253866048,0.00617023743341659,1
0.0544414838549069,0.00521181774964643,1
0.0540805683393345,0.00667543806585877,1
0.0664788870428903,0.00863509002097615,1
0.0619749559024125,0.0106560289000271,1
0.0682235858786907,0.0143639122533145,1
0.147544328006728,0.0120469745530396,1
0.223896234606419,0.0128347880612521,1
0.192701837616846,0.0110216025971931,1
0.14586477301747,0.0080074501991523,1
0.142856585387744,0.0081043422599902,1
0.144089627589511,0.00640166005315566,1
0.133522871321928,0.00607089608693861,1
0.141688582645533,0.00641273287375469,1
0.159159480979107,0.00759926312131854,1
0.166147116510742,0.00731323066822718,1
0.157447007037627,0.0103541797030352,1
0.143881497689272,0.0108684783087143,1
0.161411267412814,0.012564159552659,1
0.19560703301035,0.0149795021039793,1
0.176917039905761,0.0107303317644309,1
0.172016945137716,0.0141486829395593,1
0.179377529338659,0.0135878444992303,1
0.161808236931306,0.0118112528652468,1
0.131055381914703,0.0076263452760496,1
0.0815060541379582,0.00405779126702403,1
0.0764195371867654,0.00453515715718669,1
0.0956027461857919,0.00551024014209129,1
0.112622879257982,0.00667945608250972,1
0.127678315421816,0.00769360179127336,1
0.138928125083823,0.0126783820935361,1
0.123474336458883,0.0111953299385292,1
0.119075396937261,0.0114139146253324,1
0.0550346482833356,0.00715640833168316,1
0.0419283116932423,0.0251738505862157,1
0.0399272303664822,0.0323195921921789,1
0.0233442371371898,0.0355860037819604,1
0.0181911008656449,0.0462157721828543,1
0.0111943126466236,0.0370132910150438,1
0.00377380433192831,0.0268094302843343,1
0.00116545372086291,0.0289860815289155,1
0.000955307340552131,0.0434699246280021,1
0.000320582949311337,0.0375348049734543,1
6.83037796221328e-05,0.170478748727409,1
9.24012894132845e-05,0.810695322791169,1
0.000107264631864739,0.96537155643133,1
0.000104325684227912,1,1
0.000117916153129371,0.71692776321748,1
0.000171713373436881,0.695191062872806,1
0.000220172575725317,0.751794434299477,1
0.000264452048158881,0.745517506204607,1
0.000327113520963519,0.69031395879592,1
0.000463128655184997,0.566616365356689,1
0.000515501204594555,0.293174400725698,1
0.000949051146709373,0.0566576357485581,1
0.00195640827764785,0.0526305436741162,1
0.00602172757959076,0.0443131728539518,1
0.0105794324113872,0.0572827566546417,1
0.0175808893647884,0.0457679809237437,1
0.11539278646203,0.0029741071489831,1
0.420658216005816,0.01735162346369,1
0.619085651713974,0.0225119533555218,1
0.638144951155196,0.0166559857320863,1
0.611542381962948,0.0150227969461536,1
0.610846533806885,0.015444052686846,1
0.577451250759924,0.0152369424489427,1
0.545118589589681,0.015707585848373,1
0.477567789907778,0.0149127430243712,1
0.295135395374313,0.0104603092949695,1
0.217321838075988,0.0167077802229349,1
0.221041735807992,0.0158232494334118,1
0.217490647685454,0.0156882017981241,1
0.148858885829047,0.0192023001593752,1
0.116962739754756,0.0152390177965425,1
0.137471146395562,0.0102568443203702,1
0.146486630765283,0.00900312765602495,1
0.183313886322969,0.0104153503092246,1
0.178622897127751,0.00648574682842896,1
0.188487852137826,0.00727158477737372,1
0.292039325307921,0.00644366330367472,1
0.419270893879012,0.00623978252537773,1
0.423167913055043,0.00690139648639952,1
0.426861146569579,0.00679484615005697,1
0.42285978243086,0.00701953876182665,1
0.45232935614,0.00897753088190412,1
0.392485539439588,0.00929014083551677,1
0.265093467372337,0.00621264483055962,1
0.214955833178293,0.00543674988190653,1
0.186323486509963,0.00437092930704554,1
0.19644969281931,0.00783500820401396,1
0.229626848432068,0.0152281241361672,1
0.194962178657697,0.0125522614177381,1
0.151791041435272,0.011854974247935,1
0.0815934452694181,0.00556287234560748,1
0.128770291914531,0.00568823651673288,1
0.170393416360179,0.00694896639417219,1
0.179691450145784,0.00968370571119506,1
0.165075571167348,0.00894395388478503,1
0.163052904220376,0.00909758800829177,1
0.150758369480514,0.00936140667449292,1
0.126224641590836,0.00745443668040969,1
0.133736364488722,0.00787951040150436,1
0.144401192776024,0.00730200525752309,1
0.113729846198852,0.00632432679093564,1
0.106508936945851,0.00955454721021277,1
0.112359669839976,0.0103004256778446,1
0.142461540054926,0.0129133146596161,1
0.146509017379109,0.0117068694172136,1
0.145797965356019,0.0112696299625775,1
0.147409389559602,0.00799946576373864,1
0.197873606898162,0.00911971727400549,1
0.207945760229725,0.00874190373850262,1
0.171487522656691,0.00671966630843572,1
0.187965431896416,0.00734131423943337,1
0.197603907455222,0.00788277529948142,1
0.211722965705536,0.00765257251646288,1
0.227146055895277,0.00795386275517129,1
0.269189908935181,0.0100761290751971,1
0.303425148024363,0.0106170488976657,1
0.322654885045064,0.0167691112797495,1
0.197099887311465,0.021137512745173,1
0.086813892149497,0.0136495606273277,1
0.0437009837455848,0.0162785593295711,1
0.0375178968853704,0.0152394306098406,1
0.0237696377091414,0.0122127955193341,1
0.0140373891028798,0.0130053155266442,1
0.0143857805702713,0.0124795647958113,1
0.0171943531374857,0.0159355047314273,1
0.0163827417406236,0.0205308077607841,1
0.0124930662672461,0.0184560432623593,1
0.0112925255138791,0.0190484810874065,1
0.0119797471037228,0.022845868946033,1
0.00850124261936096,0.0385138212208821,1
0.00480423914301064,0.0436786055237474,1
0.00258921251469076,0.0348401152995836,1
0.000208138269904801,0.0270141467481579,1
1.84738732450386e-05,0.140729884255075,1
1.48373051711666e-05,0.167713714014994,1
1.17592834596312e-05,0.161154192819398,1
5.09575083838965e-06,0.0945113258911319,1
6.29195486111228e-06,0.143257358180655,1
8.50351604021994e-06,0.181721743756284,1
1.06628408178629e-05,0.202724906252638,1
1.46404817291072e-05,0.241086501115348,1
2.59154166195446e-05,0.0688620591984949,1
0.000836594035517732,0.0253027903564788,1
0.00731659130266357,0.0180914723544938,1
0.0209957011630486,0.0339090909098654,1
0.0256014031226803,0.0291793853172192,1
0.033836340369499,0.0150596147602813,1
0.0647358566516755,0.0215174391189904,1
0.134582633732439,0.0174579642068785,1
0.314025638190715,0.0256270130754066,1
0.528542076586143,0.0409877700390433,1
0.567209074906376,0.0136092888150117,1
0.489883230428677,0.013706182992579,1
0.526972282160176,0.0131158976215406,1
0.495438056198765,0.00985698366257481,1
0.39077837974588,0.00728254494191409,1
0.314756925143799,0.00598866285552144,1
0.242161566314008,0.00473248789154794,1
0.217468036822604,0.00458699270593296,1
0.25338916106073,0.00468935190121015,1
0.284740780337734,0.00431274538460327,1
0.275217905970356,0.00437930575604413,1
0.174874600764574,0.00218845586365801,1
0.197380953080429,0.00295245017187631,1
0.219212096632611,0.00254454244345222,1
0.212971594830479,0.00291932613148713,1
0.233865902354699,0.00304417087076943,1
0.265968986276148,0.00370223946693594,1
0.284447906941817,0.00398890282278865,1
0.195833304703202,0.00244116911672943,1
0.258603791075453,0.00354084519498839,1
0.269602617314995,0.00493228631201026,1
0.252744487774093,0.00466051715046116,1
0.267301314488252,0.00554042532933637,1
0.257175309859222,0.00858543062840343,1
0.108235016852231,0.0043226972047691,1
0.0875944202049434,0.00400684716645438,1
0.0904885164399261,0.00427968986426309,1
0.124892462769121,0.00660675557213481,1
0.0579027366933632,0.00249821910704961,1
0.0517619031801231,0.0061629271988285,1
0.0482150592976649,0.00581064227545152,1
0.0504904202229979,0.00626937806825345,1
0.0523196170019934,0.00565626487632435,1
0.070790058835412,0.00696601635330796,1
0.0723546780009912,0.00703438946198405,1
0.0956424494717192,0.00837301317643931,1
0.114750785754357,0.010670648274508,1
0.0764553280943866,0.00635871704506645,1
0.0513900963716938,0.00471400331326179,1
0.0547006776595143,0.00378472884672417,1
0.0552409148310679,0.00394253650891586,1
0.05446657990902,0.00314373862444052,1
0.0520354882311025,0.00250318826622987,1
0.0627293747650411,0.00242828544587789,1
0.0650786711759931,0.00221518739261103,1
0.0810241194518062,0.00296464039528763,1
0.100444455886818,0.00190833889350208,1
0.166891291626663,0.00404140636743479,1
0.16797956192074,0.00327868678837455,1
0.173705696323377,0.00416502620404324,1
0.164099733645784,0.00366624250670023,1
0.160629357716365,0.00377747463402889,1
0.155554772872011,0.00340808563538249,1
0.17588202654834,0.0038913743948867,1
0.222527860591658,0.00506409351687236,1
0.266441009248418,0.00601324236662528,1
0.270857978025053,0.0189044025749022,1
0.161807397005989,0.013152552968363,1
0.145958179423167,0.0224836607012824,1
0.164780523928973,0.0228855232215135,1
0.160858141011283,0.0296782347793294,1
0.117075249806633,0.0236309427591391,1
0.0416602343924901,0.0160476602141619,1
0.021699087407024,0.0632809197401995,1
0.0148399054098709,0.0520410943265109,1
0.0104907082500509,0.0565495260095029,1
0.00697986577726566,0.0457784250783779,1
0.0042932106786309,0.0439591553915703,1
0.000924269122587157,0.036755886612235,1
0.00033362901523145,0.273000417007129,1
0.00012700485430954,0.556560168792783,1
7.78139116652911e-05,0.770960744681348,1
5.45702072054e-05,0.890686982695419,1
4.19312724536177e-05,0.815946689662026,1
3.07254879375354e-05,0.703180106191153,1
2.16379759824493e-05,0.567680920659776,1
1.23320624142328e-05,0.367687840081407,1
8.18924023350444e-06,0.272134439204104,1
9.29208969934723e-06,0.291186249093011,1
1.37059184729925e-05,0.284677108586814,1
2.71759537047428e-05,0.363464655136356,1
3.3237553805504e-05,0.407623042408041,1
4.23877238813781e-05,0.421260186105133,1
0.000131751893401201,0.0152400760909347,1
0.0031257113827962,0.0231739039264947,1
0.00647906865893626,0.0344886757862441,1
0.0101783244709638,0.0454303491165761,1
0.0129486453946263,0.0549283068467984,1
0.0302218754542029,0.00886203373257323,1
0.104636567426809,0.0172713410408984,1
0.140919431684299,0.0107412405028871,1
0.144599156153161,0.0093324824239203,1
0.233918453701831,0.00990626638148654,1
0.431501750365411,0.0164792884632794,1
0.515061898697343,0.014715996094866,1
0.478468330228931,0.014318599554525,1
0.439966717328488,0.0139218123204758,1
0.445975420163557,0.0121837464011766,1
0.505579823330881,0.0122339565561476,1
0.48851059953832,0.011644371116759,1
0.388240898511821,0.011145122922043,1
0.204483861835695,0.00637410413789761,1
0.206600854291016,0.00746485482078694,1
0.220047025146667,0.00432019897491915,1
0.276307372055369,0.0050092593023234,1
0.303716838760177,0.00533527584627029,1
0.395477908207102,0.0076672927939452,1
0.399759875374254,0.00629808579193509,1
0.338571145492535,0.00527537096502769,1
0.327037224949891,0.00528597824405734,1
0.320382533709509,0.00528613356410559,1
0.312645473150153,0.00618435865864446,1
0.195001350485296,0.00422780016957065,1
0.144983313723075,0.00495723749279476,1
0.1503116146895,0.00616770746738915,1
0.160475379603446,0.00664267330092138,1
0.150519222744992,0.00603034991569641,1
0.149016540280717,0.0127088645942716,1
0.183747062941401,0.0156799221717613,1
0.191636091909201,0.0161474308125458,1
0.177071411002879,0.0151234494694229,1
0.136693647273711,0.00962142509007681,1
0.0921252592346628,0.00654639831936066,1
0.0862426570503113,0.00705334187266616,1
0.0741394186977375,0.0065164959445077,1
0.0645978820508533,0.00551256227850229,1
0.0563645778094411,0.00351786280147801,1
0.0550696458594277,0.00646575428077938,1
0.0449966123464445,0.00659142496060639,1
0.044608269223603,0.00572954932054944,1
0.0353721672927053,0.00399756535487965,1
0.036968127812477,0.00581798618161998,1
0.0358765007701198,0.00477826603281264,1
0.0389148101388441,0.00561793588878292,1
0.0351983736039716,0.00382444035886422,1
0.0684934225383661,0.0054747834580565,1
0.0732747679282154,0.00548754991480044,1
0.0772335604902517,0.00490809042633129,1
0.0942438843317574,0.00514999892649178,1
0.0953613040018868,0.00341045302857561,1
0.100110516216982,0.00346897078741944,1
0.086200088211445,0.00229196779622838,1
0.113739950472654,0.00344068512155139,1
0.143644625418381,0.00452184990959228,1
0.156426256594704,0.00547357449805075,1
0.13612715193068,0.00600769092278827,1
0.133416377131143,0.00652481288947223,1
0.123513940914232,0.00681764225378612,1
0.143018024108486,0.00792712829754537,1
0.132933913249041,0.0152196409812413,1
0.0584383093472243,0.00785656868190668,1
0.0347548695357708,0.00585688129261914,1
0.0407093889480375,0.00816546777641108,1
0.0510413296553043,0.0109801634429824,1
0.0466847481403189,0.0103853216557797,1
0.0469514373529049,0.0111325316292975,1
0.0423312584388172,0.0106715320754399,1
0.0389818365016381,0.00991010581843471,1
0.0351021692356761,0.0109754649978522,1
0.029650170827156,0.0231907135976181,1
0.00633301403633543,0.03077332809495,1
0.0023826431197948,0.0507577581868378,1
0.000312383909898058,0.0372626415840247,1
1.56019745721969e-05,0.162851683079534,1
1.14081245118734e-05,0.175993846349202,1
9.60947403415155e-06,0.15641974103631,1
1.13782441650099e-05,0.136657098983132,1
2.08629317949839e-05,0.183466155974606,1
3.01444099101422e-05,0.220702613425758,1
5.03159255243805e-05,0.296256778877282,1
5.81879354094988e-05,0.357088184535924,1
8.33517873764312e-05,0.270617692661647,1
0.00013500470482441,0.322716785758645,1
0.00016404309885026,0.344270998692781,1
0.000202661395311985,0.41984302267188,1
0.00019267323890631,0.326601525569985,1
0.000185224172791042,0.28846756342121,1
0.000219230698211311,0.312750950821146,1
0.000249690356234097,0.327819790711358,1
0.000291671175078333,0.345386258330646,1
0.000602704139924544,0.0286288397639485,1
0.0024701215119058,0.0280379178208263,1
0.00366761769197127,0.018153901588134,1
0.0142349603143309,0.0244279618098693,1
0.0198332959178987,0.0199104695382851,1
0.0252477364560678,0.0213357184803971,1
0.0308865366177598,0.0192608363453878,1
0.0919828964323632,0.0104752843158265,1
0.20321764787945,0.0210011485279006,1
0.281374249907133,0.0246896737260612,1
0.288509801591542,0.0236894290786477,1
0.265726816129694,0.0154625752513417,1
0.21582484499949,0.0131680012735489,1
0.202427752992516,0.0101977965245729,1
0.332113878983151,0.0113200638890476,1
0.428357546818731,0.0136555192002953,1
0.631254463289866,0.0171358788927381,1
0.752301773918809,0.0137881261922753,1
0.748743678703272,0.0136070102027392,1
0.737265332061489,0.0134607451860058,1
0.690976382169318,0.0111724056312518,1
0.643931318586862,0.010528042111335,1
0.469689431721473,0.0067639595849469,1
0.403548939815585,0.00349052429716054,1
0.552758213741326,0.00619564434013145,1
0.569532668559249,0.00570431427136349,1
0.411566049430738,0.00453118865399087,1
0.270417267249047,0.00319357104563173,1
0.277868354001244,0.00295060696892486,1
0.29712799633885,0.00311613868856618,1
0.355464444333961,0.00434037303404272,1
0.40354742847894,0.00572431084897117,1
0.273564928554539,0.00440452818457364,1
0.207815101287896,0.00945998184583336,1
0.212721661932158,0.0107504630961262,1
0.218032452947442,0.0139515870932157,1
0.132578802502745,0.00959679250798233,1
0.07992768703365,0.00695746550977197,1
0.063059354046069,0.00570588841734953,1
0.0681770405267569,0.00492202762792122,1
0.0765626981179304,0.00392849126544589,1
0.0916164200762551,0.00435644182828086,1
0.0894383918980413,0.00558417303424029,1
0.112814818208193,0.00596344704779159,1
0.230056236114611,0.0100705412528681,1
0.242551985898801,0.0111295813814464,1
0.227278943864689,0.0106949375025236,1
0.204543528935159,0.00948393173601162,1
0.171784599044012,0.00880403213045244,1
0.131949873372508,0.00860945344319144,1
0.0776693124075032,0.00583037758903262,1
0.0749759019867664,0.00560655362568533,1
0.0699914909169551,0.00506457250605924,1
0.0703861515708515,0.00688012964927692,1
0.0433344866557097,0.00469813278582493,1
0.0612815369486164,0.00678997256300819,1
0.0636990630219785,0.00738868042482697,1
0.0563498213639151,0.00669376961991494,1
0.052849412002345,0.00678458866963562,1
0.0343285297339406,0.00430581168148679,1
0.0340192686641411,0.0053898472933841,1
0.024951000522342,0.00428767772840045,1
0.0268352037951195,0.00350140351918835,1
0.0333267652162304,0.00486026023821162,1
0.0582497198284169,0.00923391221421714,1
0.0953336313143728,0.014897693859243,1
0.119721612708952,0.0171226662529975,1
0.149132723656198,0.0225129652170976,1
0.16389997953887,0.0229663151731667,1
0.155816990987712,0.0242370192240206,1
0.135656575060378,0.0215375569595041,1
0.067571182010839,0.0173378992895606,1
0.0359570694410115,0.0375164939119269,1
0.0165571449405695,0.0257035129461009,1
0.00780923624891693,0.039569458629433,1
0.00521663681129936,0.040512076962149,1
0.000971695839639258,0.0225622644278093,1
6.41051944794527e-05,0.145538931183119,1
1.63601857557007e-05,0.211735150979879,1
7.59780671646275e-06,0.188747310255176,1
9.01613023220017e-06,0.157988540172724,1
9.23397291729914e-06,0.147839298132944,1
9.99552884483293e-06,0.135841523806051,1
1.43643884450477e-05,0.170010368741511,1
1.65435588526204e-05,0.178791862714221,1
1.9729308511965e-05,0.196367285533444,1
2.06495485100081e-05,0.203709312547729,1
2.70989588472233e-05,0.214618084603163,1
4.85936157528076e-05,0.229255813039502,1
0.000155084207832675,0.181791804841416,1
0.000708358163649038,0.106104739959273,1
0.00220608127957384,0.053570937386391,1
0.00723977736173092,0.0491106982381429,1
0.00945753582828254,0.0468091432312382,1
0.0112952919980852,0.0527810955394162,1
0.0169351312845626,0.0312310773170873,1
0.0336817219639872,0.0334167654184801,1
0.0644167552356561,0.051073859511078,1
0.114942986934807,0.0317095229568447,1
