Activity,Complexity,Tag
6.69695861598295e-06,0.385447359925311,0
6.50010177981177e-06,0.453376659460772,0
6.22357366105913e-06,0.482992310795654,0
5.97086847353073e-06,0.482171458063718,0
6.19354905999937e-06,0.421316257148962,0
8.11142425820799e-06,0.496361646074414,0
7.17049873942433e-06,0.479226404245883,0
6.83890448670597e-06,0.453559471825731,0
7.82910274682101e-06,0.463578878413198,0
7.26775564244651e-06,0.419602746899829,0
5.6427515313537e-06,0.361084539362169,0
5.76903277078093e-06,0.368854615297192,0
5.82777948459718e-06,0.367964854984721,0
5.65262842040934e-06,0.354484899990143,0
5.60111421116473e-06,0.402660476797275,0
4.38793401022389e-06,0.368324726951484,0
3.85707846128083e-06,0.342421285260877,0
3.46225789120353e-06,0.331604430950588,0
2.86693699487155e-06,0.293071367085129,0
3.35437549433562e-06,0.310347093028285,0
3.34844692688627e-06,0.33182775526907,0
2.7722375471919e-06,0.31560348893422,0
3.48599606651482e-06,0.342997591894866,0
3.74791009264654e-06,0.355673879492887,0
3.75049710389716e-06,0.36325752345947,0
3.84316400336697e-06,0.320402690958786,0
4.99749679756933e-06,0.322313014024089,0
4.59346680936109e-06,0.295916739523676,0
4.32168458708789e-06,0.316778790573015,0
4.50021502165099e-06,0.302845617369908,0
5.17877230953867e-06,0.30357843325267,0
5.32874782506073e-06,0.305191833892844,0
4.99081991509369e-06,0.294708609179051,0
4.98210845606157e-06,0.265704290998739,0
5.82192046046102e-06,0.266412921607272,0
5.43087913480983e-06,0.290951566887393,0
4.28479533660688e-06,0.278764411560414,0
4.48211304210985e-06,0.288299316478245,0
4.00404318598753e-06,0.261106928205776,0
5.8244518370611e-06,0.347017863000143,0
5.07853141885308e-06,0.322573097225283,0
4.85393853615365e-06,0.300430197004572,0
6.67289662961962e-06,0.35093977613898,0
5.88669310236509e-06,0.360367735539978,0
3.65105306367521e-06,0.306663884104011,0
4.0827031928897e-06,0.326528635449267,0
4.5280659595279e-06,0.346912829830606,0
4.08203832983923e-06,0.327014912091399,0
3.09998938697469e-06,0.30223427093152,0
3.03107428171501e-06,0.30876519988159,0
2.58014384844654e-06,0.282100503410911,0
5.90945593270891e-06,0.398031470037679,0
5.82939303434506e-06,0.361034757161433,0
5.7399400501179e-06,0.348366454451039,0
9.39323979745481e-06,0.403382019773996,0
1.08080589515219e-05,0.38811545975799,0
1.08561784329096e-05,0.340799562933402,0
1.21691874804053e-05,0.36769763219334,0
1.23389699456969e-05,0.363383149869488,0
1.15945648473069e-05,0.34215447559386,0
1.28978536230836e-05,0.383891125407241,0
1.18093968913546e-05,0.408365956078263,0
1.19423254573493e-05,0.433470958868659,0
1.18977205211519e-05,0.477391179555474,0
1.43628165484798e-05,0.308487813026704,0
3.21589417005835e-05,0.440364420239996,0
3.83894017433492e-05,0.526574869799503,0
3.65910742532683e-05,0.407719435654041,0
3.70809964631865e-05,0.39338618532463,0
7.16421287871529e-05,0.179036391827616,0
0.000239572599289439,0.257271274550578,0
0.000247474863919845,0.189701491165221,0
0.000235806818014122,0.13137833426047,0
0.00051075650581251,0.139403243842344,0
0.000680279752460856,0.136713095217098,0
0.000700303260107618,0.131670872439667,0
0.00079593083096162,0.140819283857221,0
0.000800968693450921,0.126259377517848,0
0.000581792730659883,0.084640293252966,0
0.000523033952237848,0.0909228867442592,0
0.000605090629138844,0.106528106676287,0
0.000621681290500132,0.115561474908199,0
0.000666974331702797,0.154854558321454,0
0.000666733870629729,0.246524906264233,0
0.000590340101230359,0.273074122659474,0
0.000596903020615683,0.334250158398807,0
0.000419404691113219,0.229123153294236,0
0.000141357114715441,0.124606789908932,0
0.000104454777341947,0.144273264349168,0
0.000106990435057357,0.148350863004215,0
0.000110827414921598,0.134696503327817,0
0.000138179304767308,0.15336304814674,0
0.000134919911095479,0.118283626419433,1
0.000139592441118077,0.119210188832333,1
0.000140099290605071,0.122234099627567,1
0.000139188337095217,0.11905608395076,1
0.000142281459080014,0.14958727370245,1
0.000189455343666614,0.110959632041484,1
0.000312946897853781,0.142124417143678,1
0.000307911354054448,0.129274924322002,1
0.000313831644545588,0.130050335443226,1
0.000326080233103826,0.135923040772243,1
0.000319171669253528,0.151703184843986,1
0.000295680494404851,0.142743910988549,1
0.000302276812111216,0.139888608126261,1
0.000306609697373302,0.141583147361148,1
0.000286339260545818,0.143356665443205,1
0.000226756418057774,0.286839725891592,1
0.000113296960417033,0.174272059136208,1
0.00012525775614372,0.201524807587718,1
0.000271073115911775,0.3283802789453,1
0.00038347246325477,0.302771048948081,1
0.000391571624708752,0.258305325260433,1
0.000420266164700621,0.240896759264509,1
0.000420892498582352,0.217504003608548,1
0.000392167115986201,0.204095249484486,1
0.000395272205940553,0.203622111777599,1
0.000382794216593681,0.211200697712753,1
0.000378312173239766,0.245933425244675,1
0.000366362035750236,0.242397591458595,1
0.000259478419511701,0.233559972717292,1
0.000101696895852708,0.118756465146645,1
0.000238977859079772,0.110984353784059,1
0.000414355227205578,0.142113633101095,1
0.000401731382349845,0.125163773303551,1
0.000410493769109267,0.114075084416728,1
0.000384482610159155,0.099194602354664,1
0.000382382101760669,0.0950735484369249,1
0.000395937323403639,0.0940442878872269,1
0.00039202277898456,0.0924743724173966,1
0.000423122003741763,0.0922991622045464,1
0.000470161646842568,0.107435133035785,1
0.000394744394650145,0.162244312027577,1
0.000209221931221541,0.114201041696652,1
0.00022620662209772,0.148543577884303,1
0.000306721105181503,0.19696019925981,1
0.000458789928906154,0.295479603858857,1
0.000593769364151738,0.299143309614728,1
0.00165469404423028,0.149523224887776,1
0.00748221148382809,0.0831332766045274,1
0.0202998434737623,0.100889117801321,1
0.0215020493989748,0.0592921185809085,1
0.0200425614408559,0.0541786569510942,1
0.0179733222118601,0.0506924194002612,1
0.0159319658437298,0.0431609395322567,1
0.0137591924269972,0.037978172933508,1
0.0152386180832687,0.0219231272442098,1
0.0180497949733356,0.0215289898565792,1
0.0158403321318782,0.0159821952657785,1
0.0160749328599219,0.021220288828157,1
0.0133187371760778,0.0193694911099976,1
0.0134315508626256,0.0239560991244895,1
0.0134556552472289,0.0233256317936775,1
0.0131044168709915,0.0217739174114694,1
0.0118427563853495,0.0197836858601426,1
0.0103336686646988,0.0143907771139794,1
0.00892847858194596,0.034661003824365,1
0.00396641677406861,0.023181092013664,1
0.00441566788714564,0.0360192528218319,1
0.00454673106372948,0.0279650455013472,1
0.00542817765367199,0.0332354227001849,1
0.00546457535274609,0.0240920704110465,1
0.00567682485152778,0.026489160563985,1
0.00562934152049513,0.0284378900069717,1
0.00348103521875354,0.023432508892628,1
0.00311076532053757,0.0279767796748895,1
0.00414926491490665,0.0299329374089153,1
0.00438587282407768,0.0216658814436102,1
0.00378596509420936,0.0161710674101984,1
0.00395676558160601,0.0168619458864909,1
0.0029810883597982,0.0105510763448321,1
0.00249922130780254,0.0103535101181644,1
0.00316803766105909,0.0124947112413395,1
0.00470405818906198,0.0192869449053667,1
0.00703214181784774,0.0266451822561396,1
0.00781850170454907,0.0212518240049131,1
0.00601956333890591,0.0178801355876845,1
0.00538240069402057,0.0197189161231057,1
0.00452677609681314,0.020170245774579,1
0.00418535058124785,0.025436425135677,1
0.00373978033865444,0.030158126139625,1
0.00347388224275581,0.0237690753474996,1
0.00447391989286809,0.0319840736861321,1
0.00443010878431829,0.0285094423801696,1
0.00376087554744091,0.0292345712000537,1
0.00355252078685294,0.0581297621640825,1
0.00312969156784868,0.0406291602520109,1
0.0101566925972201,0.0517216563628285,1
0.0109246811486401,0.0284476498073464,1
0.0222655696083775,0.025767886813678,1
0.0211998752942238,0.011461579518059,1
0.0226690311472256,0.01315620006242,1
0.0241406151958484,0.0105530309933551,1
0.0237102843368978,0.0105007904649072,1
0.0225947501871329,0.00905770347388365,1
0.0222484763509721,0.0085206153924864,1
0.0219036497825856,0.00881525470551843,1
0.019314406115835,0.00802230839350687,1
0.0189017934852674,0.00885960901731387,1
0.00851872192168247,0.00428960913855895,1
0.00719098621702047,0.0109281925604592,1
0.0105494367472538,0.0160323276786773,1
0.0120470245236891,0.028946531490208,1
0.00955144801034179,0.022999606920224,1
0.0102689176552565,0.0123878419641352,1
0.0313308884945197,0.0226973797106251,1
0.0348877048042,0.0140015672006179,1
0.0351960684909997,0.0137548954778225,1
0.0358838742741303,0.0141948211749747,1
0.0368450871015288,0.0136084355044205,1
0.0366895956456928,0.0154631402006998,1
0.0308089983246311,0.0131307537402681,1
0.0261393042471955,0.0114495863306626,1
0.0272644345599441,0.0115718749574408,1
0.027962229576745,0.017139303779036,1
0.0116289942622776,0.0120408454309644,1
0.00929887530644707,0.0251976780357448,1
0.00926209121588711,0.0296413245349845,1
0.00709093822209985,0.0240908388657866,1
0.00715431102303069,0.0299521026675682,1
0.00678218028715852,0.0319748394470525,1
0.0069133770619525,0.0324659975530078,1
0.00461967559780256,0.0277091404100636,1
0.00500436016637944,0.0344545502980052,1
0.00379790931008578,0.024031976135245,1
0.00387077970533661,0.0269491971060695,1
0.00372992229293903,0.0376868610360174,1
0.00238941131242218,0.0395730314004192,1
0.00244496129674218,0.0391280244091267,1
0.00199025450234234,0.0323951998356517,1
0.00126424852584396,0.0234496542661008,1
0.00112936694760224,0.0225031129072404,1
0.00116911021161242,0.0235344081618873,1
0.00339172661513747,0.0193227637605135,1
0.00596248749243627,0.0197426043762096,1
0.00627272101072598,0.0154245051058712,1
0.013077440441437,0.0266669288651506,1
0.0198187500098471,0.0338576321552174,1
0.0200996541844672,0.0291715209078289,1
0.0183013971111925,0.0283225216968691,1
0.0158626734826574,0.0245803373389224,1
0.0137110781722241,0.0208917025904685,1
0.00958384790455486,0.0138974666474393,1
0.00895451610215823,0.0156667758994292,1
0.00857825398929362,0.0200679545527926,1
0.0069046099885533,0.0238199587799556,1
0.006188427446498,0.0278526795240795,1
0.00384492412491984,0.00966583910881865,1
0.00657379388711581,0.0214608794218991,1
0.00610390217467172,0.0159787024252952,1
0.00548278605239126,0.0132213468188314,1
0.00604048387068178,0.0127766831017808,1
0.00588102836210739,0.0134956127901797,1
0.00631642074450065,0.0180044323959758,1
0.00586819468609624,0.0140358550551404,1
0.0062393303185866,0.0118499373448023,1
0.00459303659718476,0.0059055216300628,1
0.0152145869926813,0.00986960184516422,1
0.0343669097745901,0.0205655188155333,1
0.0444123621479264,0.0277790812653581,1
0.0475597197562481,0.0149046832476763,1
0.0512559827759911,0.0164631837260956,1
0.0479545366161896,0.0145452891771413,1
0.0471952367060612,0.014143786975365,1
0.0447723702964231,0.0133218358161602,1
0.0438776316583221,0.0130484218759708,1
0.040563944272426,0.0102140819109629,1
0.0402479559889007,0.0186197932824749,1
0.0336448958543286,0.00989680530855226,1
0.0339691339254881,0.00958391797114657,1
0.0317529550509878,0.0210454478668655,1
0.0288140019572931,0.020538909782226,1
0.0328856867829798,0.0238802938556226,1
0.0322006429555623,0.0172234515389366,1
0.0279303535101495,0.0156771843351196,1
0.0278666161307174,0.0169942398469172,1
0.0223570254155395,0.0185196314385469,1
0.0116271238276441,0.00654184661093891,1
0.0206209036965799,0.0252451053908724,1
0.0214395132526371,0.0139382937510904,1
0.0229325789612235,0.010207040422405,1
0.0353817351648031,0.0160353389388207,1
0.0296355056058499,0.012217860001061,1
0.0251466559690576,0.0130754824870164,1
0.0260738802122012,0.0137662898431033,1
0.0260629963313343,0.0128933436282385,1
0.0248854761564517,0.0120890670162432,1
0.0181404505253093,0.006934235526863,1
0.0185963437115361,0.00616849579765784,1
0.0161366722879283,0.00823649648592305,1
0.0128355130557237,0.00957609401505827,1
0.0136535337475464,0.0116102636986327,1
0.0193802760183645,0.0191490847168473,1
0.0215120181154842,0.0117656761718889,1
0.0222882978554112,0.00960449530560376,1
0.0214756846654488,0.0090762092032177,1
0.0193787527945143,0.00699485805752326,1
0.0259361907658957,0.0123070585599699,1
0.0296833803436003,0.00878760622953977,1
0.0317904023343997,0.00431241857750743,1
0.0440331530179277,0.00884616686140536,1
0.0523605862687527,0.010900892112518,1
0.051476838571276,0.0107053485235584,1
0.0517303773839169,0.0125537727025288,1
0.0506625011756945,0.0144505682230556,1
0.0460259625947682,0.0125721389050329,1
0.0448238069260451,0.0131930608420634,1
0.0455093592814064,0.0134511708784556,1
0.0266130599107188,0.0189547007311912,1
0.00287016050433866,0.0199962021042564,1
0.00344563908740197,0.0362817468710371,1
0.0047430133898408,0.0401124655992143,1
0.00465378813678323,0.0415496528832558,1
0.00457340938906254,0.0335796754014392,1
0.00453983247021706,0.0216255117349135,1
0.00488275567173424,0.0244173309049239,1
0.00847747544766323,0.0293138265977854,1
0.00701036054080579,0.0200603736310481,1
0.00709073728596883,0.0196867634591419,1
0.00713150809633059,0.0171034583347593,1
0.00773976100060046,0.0185262808256962,1
0.0112928999363769,0.0107716426617822,1
0.0182970545213059,0.0132519802261577,1
0.0154383253846664,0.0099117673724204,1
0.0135785131960565,0.0107564544362612,1
0.0136806236775833,0.0109134989185316,1
0.0129568887360622,0.010679936117878,1
0.0130010857548001,0.00919100196141743,1
0.0159516969686863,0.0119059635519844,1
0.0157191036828471,0.0121125966722842,1
0.012597182906981,0.00916479154344784,1
0.0218757730668859,0.016144239883952,1
0.0274497943431631,0.0104643037606723,1
0.0269987542076362,0.00898336460147924,1
0.0361905096976035,0.0113468937495083,1
0.0461093136516568,0.0139763892106396,1
0.0392879971839115,0.0118748736119149,1
0.0323643619150368,0.010130902829396,1
0.0321802318326122,0.0096161776960628,1
0.0305790652452489,0.00902156857650733,1
0.0276613093763245,0.00479577941364904,1
0.0334680653835997,0.0109024951727047,1
0.0335937959064873,0.0086447786298419,1
0.04640522721526,0.0125199994394208,1
0.0468041026726538,0.0136732454098479,1
0.0461493162164582,0.0125939166062839,1
0.046922185467116,0.0126468750949324,1
0.0479441098711928,0.0120710793021543,1
0.0479384675648836,0.0102585336372917,1
0.0538587577165652,0.01306694365495,1
0.0480475740493864,0.0123683690948594,1
0.0338946851528894,0.00605742941349368,1
0.0298600883699972,0.0069320997603263,1
0.0274261988022013,0.00389762181048606,1
0.0299390496489636,0.00513464029992969,1
0.0426655713353756,0.0081605770412906,1
0.0487286686905424,0.0075984310877337,1
0.047628659508817,0.00808981400858301,1
0.0454206988446504,0.00964293931939713,1
0.0395989543042867,0.00764163283302262,1
0.0389403446464958,0.00756379376061419,1
0.0390765489204442,0.00813479727558955,1
0.0245439820264111,0.00488419026182182,1
0.0198954237959765,0.0056740120438978,1
0.0209851174652062,0.00459486396851192,1
0.0213851325800165,0.00651699958928188,1
0.0198100253261398,0.0102361835911853,1
0.0220426633677662,0.0108058160334216,1
0.0210831601084233,0.0086859957403333,1
0.0177730567449646,0.004625699603207,1
0.0201225944510974,0.00629128427161825,1
0.0189847248669507,0.006802848865757,1
0.017955750124693,0.00738320581369118,1
0.0181901381469794,0.010835882872465,1
0.00991009789085783,0.00562337590667098,1
0.00955834995019152,0.00681292073820946,1
0.0157864357099206,0.0112166860170858,1
0.0179071878423404,0.0131719506927302,1
0.0320715755038591,0.0173875481821332,1
0.0362644944002844,0.0108859557422965,1
0.0358287869937816,0.0123140454309765,1
0.0355470013715756,0.0128429980305439,1
0.0344520979154572,0.0129644989871223,1
0.0347027527900813,0.0117789317461683,1
0.0469532319955725,0.0168595424036911,1
0.0574920611127742,0.0208191529591773,1
0.0599863447614537,0.0252993808258595,1
0.0606880597169167,0.0227500955080668,1
0.0327102502276992,0.0199133747456957,1
0.0142930629687654,0.0439525202272729,1
0.0146406283290017,0.0434938310404867,1
0.0114071926859018,0.0384780407299062,1
0.00465784656414407,0.018081471288136,1
0.00251345142049685,0.0180854589934335,1
0.0024033307629664,0.0193832581356849,1
0.00264317507087811,0.0210358599239665,1
0.00311682047173975,0.00706322361922494,1
0.0134859148612227,0.0193329157111616,1
0.0148573334178752,0.0169093257326671,1
0.0164435201623115,0.0206227429813798,1
0.0150556490660106,0.0185964031133276,1
0.015081105284534,0.0198535101368748,1
0.0144622587094386,0.0198704178605575,1
0.0138356261536662,0.018291044585981,1
0.0133063696222366,0.0170532906278562,1
0.0102221346208963,0.0116057986005862,1
0.0092120093113036,0.0140927557157629,1
0.00769229380535505,0.0208806517420918,1
0.00960584434020466,0.0321268437433453,1
0.00974125394923287,0.0260192778044428,1
0.0185098822401383,0.0200415009902369,1
0.0326337817596539,0.0221559948869247,1
0.0295689490917578,0.0120112396484457,1
0.0351258315064429,0.0146749521941176,1
0.0416866992237819,0.0161996429677828,1
0.0429130016140632,0.0139345184568939,1
0.0434076861591961,0.0122957727683401,1
0.0440786236256656,0.0121864603876744,1
0.0438616556927691,0.0120437967468506,1
0.0453078015160416,0.0129430727967671,1
0.0569257514172745,0.0217025185608273,1
0.0569726737580469,0.0235317052301793,1
0.0613347497251515,0.0308381794947656,1
0.0464556567105071,0.0251742982265492,1
0.0339023099215899,0.0196652024111975,1
0.0601687492082749,0.0275293842415505,1
0.0747833032634233,0.0322961627477432,1
0.0812311378989701,0.0286203338402655,1
0.0823512108297253,0.0187124239963472,1
0.0760274898535794,0.0145754404096901,1
0.0799388615422699,0.0146660737851064,1
0.0828994219502637,0.014794926696834,1
0.0883456364138585,0.0169989674672368,1
0.0840874934575683,0.0151990945243863,1
0.0869846318517261,0.0149973006420154,1
0.0914175376854867,0.0194524276946728,1
0.0834103974710057,0.0183165506207757,1
0.0542108826213968,0.0154271652214029,1
0.0177863834633623,0.0051969452728594,1
0.0158219588051951,0.00654337478028418,1
0.0125302033785904,0.00716573108219572,1
0.00956688440874196,0.00679051134786786,1
0.0111525960622389,0.00794416778990651,1
0.01037505415102,0.0101390097711743,1
0.00702970540423553,0.0127956296540754,1
0.0076698241651283,0.0107976902807607,1
0.00839958020089746,0.00800441956330425,1
0.00916280252369138,0.0119822644319751,1
0.0143836460934067,0.00895589447249124,1
0.0178548812252909,0.00345091735034688,1
0.0221901728308956,0.00549811440959894,1
0.0223806100034294,0.00552701149127393,1
0.0224350577895488,0.00564494019394718,1
0.0224668603963834,0.00559464234289889,1
0.0226740549839877,0.00538932129398613,1
0.0228625047643787,0.00608192210697852,1
0.0242923981170157,0.0091415743092714,1
0.0220305180610249,0.00540176755043918,1
0.0194983360120373,0.00761265808412055,1
0.0183708893529311,0.0241788846039018,1
0.0177044800648496,0.0168488732449876,1
0.0178615942100185,0.0126275932376054,1
0.0267131072155669,0.0183970318238793,1
0.0327121162377842,0.0221316921982235,1
0.0323710048486401,0.0224421455571667,1
0.0258627126087396,0.0180395910516202,1
0.018285011894687,0.0122139469739387,1
0.0109179806562097,0.00868543490777167,1
0.0116328172366981,0.010487168313719,1
0.0111887952883192,0.0106891381105186,1
0.0126620000981866,0.0194830977205738,1
0.00730959173249229,0.0162231910321784,1
0.007025383125198,0.0195419750075387,1
0.00738585537200937,0.0211776051076506,1
0.00697927056878641,0.015623107494331,1
0.00752498544310893,0.0182391777599461,1
0.00998347450796726,0.0259790514047904,1
0.0106832955999444,0.0218594222094015,1
0.0114260044262359,0.0208382934379052,1
0.0118765747443799,0.01655015470653,1
0.00982508657545506,0.0137469150050391,1
0.0142305442350591,0.0127785660281761,1
0.0292352686084626,0.0277408855378888,1
0.0269186476961977,0.0131129144730679,1
0.026108907437429,0.0149787290466833,1
0.0277579592264934,0.0114676615736056,1
0.0371472672745134,0.0132062289707102,1
0.0371127089013204,0.00986408286033313,1
0.0376662689484006,0.00749653668778101,1
0.0339746490389611,0.00771757054892669,1
0.0279321392549362,0.00569279128022617,1
0.0278029136943372,0.00939988956946892,1
0.0204313608168615,0.00515504998239363,1
0.0187587241365246,0.00903376657070667,1
0.0170782314861061,0.00779205508873885,1
0.0164629604300393,0.0115544140569161,1
0.00944926146016581,0.00596825627282932,1
0.0102633209434268,0.00322615480784575,1
0.0342606912966777,0.0205063083197697,1
0.0423036484285251,0.0222851955183511,1
0.0576419729347348,0.0285155406229211,1
0.0596548863181331,0.0256299624878775,1
0.0634310312194871,0.0241225852204707,1
0.0650868533711487,0.0232345416699366,1
0.0595107866247896,0.0110677823868769,1
0.0599523255894419,0.00899001212951912,1
0.0500830343524387,0.00655541830689546,1
0.0471523265398266,0.00738897290114439,1
0.0578882261899491,0.00983428443709427,1
0.0760703710671941,0.012839970111201,1
0.0858903485898292,0.0131741100521279,1
0.0824108685505128,0.0126140660917481,1
0.0826217787249124,0.013096766409038,1
0.0823087588658365,0.0139455834376658,1
0.108922236664642,0.0147831158105963,1
0.114858413113888,0.0149059631391304,1
0.11969084992973,0.0173319971830112,1
0.116035930927775,0.0184365864056461,1
0.109343262679287,0.0170858521429731,1
0.0825343702799009,0.0158431595318872,1
0.0600577445975708,0.0110518620244632,1
0.0544264060442013,0.0103626758353515,1
0.0590363357968904,0.0115141305936486,1
0.0441037480437694,0.00443945259754303,1
0.0391821346895263,0.013952614611867,1
0.0367791286712309,0.0231371327050106,1
0.0425258534331945,0.0240229166603324,1
0.0459361721997146,0.0248775602529486,1
0.0450696872607479,0.0234034200937169,1
0.0453353024677776,0.020563376453702,1
0.0478604593673173,0.0251610770676385,1
0.044413597215871,0.0178187334205758,1
0.0253719667979428,0.0109229431490219,1
0.0157675045493744,0.014670147431283,1
0.0163486729027826,0.0157228392810068,1
0.0169984067793852,0.0168150071503958,1
0.0197564395361968,0.0193204344400607,1
0.0211386404749608,0.0141586579842109,1
0.0253369246855199,0.0198364246055429,1
0.0284985018752153,0.0277875739696253,1
0.02140621767141,0.0225435678283363,1
0.0212625632520205,0.0304728203612308,1
0.0233296331211157,0.0190752423052865,1
0.0252708742004486,0.0191615656279229,1
0.0253376065924774,0.0186355981983026,1
0.0340811188342373,0.0218394897430354,1
0.0342910826435271,0.0191212706157455,1
0.0417652145435029,0.0278828748047225,1
0.0444035318876178,0.0237547554418296,1
0.0356359055918365,0.0173346493377094,1
0.0328485973733694,0.0140378904449049,1
0.032823273309163,0.0170101927243572,1
0.0186026734863844,0.00884337285823201,1
0.0298071761166047,0.00961668749317844,1
0.0341414124835656,0.00508857315570442,1
0.0350692022354014,0.00570453459724572,1
0.0436261606265618,0.00596945361634584,1
0.0465184171015764,0.00515765886033182,1
0.0441255460823435,0.00537978906683325,1
0.0432699415159284,0.00521444792736186,1
0.0428311085425876,0.00624084278003971,1
0.0344105887821393,0.00424040923420797,1
0.0278249821415083,0.00312942883892867,1
0.0241819422756386,0.00283831573423682,1
0.03625006506179,0.0164218577654235,1
0.0305637826204433,0.00871589224981005,1
0.0298823393036032,0.0153425122967404,1
0.0316957777025754,0.023826721897252,1
0.0333665474045816,0.00968343334290576,1
0.0592981838184494,0.0153303450906319,1
0.0584524450999299,0.0119131399836676,1
0.0564989516339597,0.0100832894222938,1
0.0585313919828509,0.00802325548366731,1
0.058191147805342,0.0094756131362059,1
0.053668856725439,0.00844869353723623,1
0.0521515996422573,0.0109641180679418,1
0.044594975557336,0.00907464183274125,1
0.0421224749644136,0.00682900792906469,1
0.0428575339623614,0.0092234725061854,1
0.0393740660753377,0.00653522257319286,1
0.0550189281358467,0.01448229798878,1
0.079453284568796,0.022009772888959,1
0.0802772396314576,0.0206630631422249,1
0.0696028774677302,0.0180847835254347,1
0.0616707718769733,0.0135325430578245,1
0.0904921071840312,0.0174859694368254,1
0.128520506915981,0.0244602202542349,1
0.134043014217577,0.0167035573446075,1
0.148301140199793,0.0200299905039201,1
0.183999002774156,0.028660112830885,1
0.191097679003637,0.0178472341694355,1
0.168925876397504,0.015323583644295,1
0.168947633386543,0.0168602734713062,1
0.181030312698955,0.0174619102367733,1
0.182572173843413,0.0168328550724858,1
0.1559570349678,0.0148907591046657,1
0.119307554291215,0.0107333680709319,1
0.109938903222765,0.00912486747838803,1
0.119391702279701,0.0110066168382015,1
0.0909462607064644,0.00686793080143515,1
0.138666708659701,0.0148065149423241,1
0.177320031867185,0.015242205379623,1
0.177826078743645,0.0140915630404556,1
0.174613757357245,0.013107363415193,1
0.204685181705642,0.0174459063270138,1
0.216340584005342,0.0183437767599795,1
0.201105847164953,0.0169920810493974,1
0.210397144281941,0.0281808212821012,1
0.215812252141943,0.0273731993279584,1
0.244928050448767,0.0327474664171761,1
0.177694144021139,0.0383382059182944,1
0.0720208905111156,0.0195925285575314,1
0.0397428583489642,0.0193652984231567,1
0.0389634408137319,0.0264031646676444,1
0.0405682724778578,0.0271894199145868,1
0.0397598298150203,0.0244610779461255,1
0.0234764184300146,0.0133738878224959,1
0.0315139568830874,0.0195004771140248,1
0.0338808835769571,0.0118080361940567,1
0.0303439615670697,0.00889243908941896,1
0.0430382963879676,0.0109070257736256,1
0.0444710444240677,0.00493603140432812,1
0.0453618967997112,0.00498483692378871,1
0.0455181275857223,0.00490761099088215,1
0.0496907792344606,0.00554371204140746,1
0.0543677782030883,0.00747803800427093,1
0.0543264352319268,0.00795324401507555,1
0.0485544111518755,0.00693321279572402,1
0.0454451643995531,0.00999239585149545,1
0.0444258310715335,0.0117592709499233,1
0.0199400286836385,0.0044478547661916,1
0.0242174363864192,0.0177771159089072,1
0.0299252749221108,0.0155259571789368,1
0.0297264578832039,0.0137425130772466,1
0.0322803333357517,0.0174646121629114,1
0.0326851161919,0.0178612576061346,1
0.0343095940559923,0.0172679446572192,1
0.0388691281988484,0.0162439537820172,1
0.0417945457977302,0.0149880815234065,1
0.090496789573557,0.0203630316519851,1
0.110908463257982,0.0138199155797422,1
0.108398662059362,0.0137962467861045,1
0.107203287020147,0.0149740780573513,1
0.102448520086692,0.0155798562838762,1
0.0928754514746423,0.0116150008062417,1
0.0877181787411633,0.0113447016045078,1
0.0710357570816623,0.00890304274629669,1
0.0695794414326154,0.0091757036629117,1
0.0708816107246215,0.00921110763818053,1
0.0469203442593638,0.0101174188976342,1
0.0321072426754927,0.0128019074352009,1
0.0355800564081327,0.015777848407462,1
0.0327602168293245,0.0135368779984439,1
0.0325064955967495,0.0105348049112518,1
0.033169273008336,0.0146476218027074,1
0.0251486465339692,0.0092707321111267,1
0.0259639873290151,0.00954847932412243,1
0.0286674842238257,0.0100171973878283,1
0.0279370032442196,0.0105265873789581,1
0.0301268090271019,0.0121646691822735,1
0.0295327470393213,0.0182357905998706,1
0.0570631818012643,0.010269840712173,1
0.25697672869187,0.0336706867639292,1
0.341854605634326,0.0332293998926186,1
0.316945343270301,0.0214162809912726,1
0.303588262119476,0.0245606669477369,1
0.291598903232866,0.0215177435328917,1
0.279528947004632,0.0209084298132773,1
0.242817530161428,0.0186343293575077,1
0.219575727047616,0.0173366718533085,1
0.212556390644535,0.0164107040140389,1
0.208694016417215,0.0231903610509301,1
0.111136321303551,0.0189141925542213,1
0.037649169276349,0.00709919541020356,1
0.0276709075634533,0.0103505000838572,1
0.0367365411228011,0.0159217420726499,1
0.0354441079596934,0.0147469240129595,1
0.0404102002176567,0.0158771458095794,1
0.0446066286644688,0.0130508169198245,1
0.0987309545782327,0.0234161080911031,1
0.0999301397751802,0.014749432577861,1
0.109062579908554,0.016493399132911,1
0.114150992403984,0.0146792408435028,1
0.114672481659135,0.0122829000284863,1
0.114674134977227,0.0120280285975312,1
0.116635843246778,0.0124033632971853,1
0.116209021144696,0.0129413925274934,1
0.106539036560501,0.0111286002803453,1
0.171520996910748,0.0216500104176338,1
0.142987098160357,0.0221805011827349,1
0.143186949296161,0.0297147337562762,1
0.153594312709071,0.032692817453587,1
0.166515673602079,0.0347498858698819,1
0.162539078498972,0.0271419426299038,1
0.148869922393047,0.0204176017209686,1
0.10963823354561,0.0147642395766301,1
0.0549012098862732,0.0076461878826581,1
0.0524278915471499,0.003310733246387,1
0.0714478240364214,0.00437799577574755,1
0.0766518916257544,0.00547509441254891,1
0.0733187001993186,0.00534309616745724,1
0.073965369292257,0.00543087164008295,1
0.074028450988356,0.00498322626591089,1
0.0670888047808859,0.00543692958946013,1
0.0664735973750609,0.00666288074379714,1
0.063343386575973,0.00529987612508851,1
0.0689532661930911,0.00540536557662694,1
0.0574340993257859,0.0077592261996484,1
0.0306717760675509,0.00489061094459578,1
0.0316237393359834,0.00274950976119685,1
0.069937228664407,0.00977206942001433,1
0.0761449495424184,0.00804343942989132,1
0.0785204021340567,0.0101162924089346,1
0.0638972503886798,0.00666652830126388,1
0.0640230833564015,0.00829899635332531,1
0.0693113961030355,0.0111385736629048,1
0.0605960657127501,0.0100866561292721,1
0.0609534945895873,0.0102032595210252,1
0.0567990501369601,0.00782453832270874,1
0.0670934734461837,0.0158024727299775,1
0.0431404493366981,0.0143364656163402,1
0.036762783883151,0.0166702186201995,1
0.0292926401503472,0.0142539236265123,1
0.0229207197245231,0.000566376767479151,1
0.0653495998487046,0.00945397812020927,1
0.0647711326310357,0.00690769862857343,1
0.0646880754873698,0.00635658483251832,1
0.0680877798297459,0.00769870882918608,1
0.0682362610043494,0.00744201408991667,1
0.069178340026913,0.00731791962493204,1
0.0643440198622446,0.00627150878572038,1
0.0627813249683861,0.00626745879000543,1
0.0661153894977899,0.00717801209930315,1
0.0710881969762984,0.0091228351686452,1
0.0564026078543436,0.00793160730698277,1
0.0559151917153728,0.0113212003372463,1
0.0612288921044486,0.0136702920624613,1
0.0627605415296617,0.0139368302804594,1
0.0805897264416175,0.0228544633013639,1
0.0731055847797995,0.0144394103504547,1
0.0668692626887777,0.0125627088899273,1
0.0755143385196071,0.0113199753510198,1
0.0628957832518594,0.00677816035827161,1
0.0577302279194868,0.0103922779449198,1
0.0729011405270759,0.0176448697431617,1
0.0681450515639366,0.00915584905030521,1
0.0688870556979837,0.00826966628667748,1
0.0752668061220697,0.0073719455044136,1
0.0870247655220446,0.00957467510112598,1
0.0940726544824457,0.0135147910464932,1
0.0823421983791204,0.0114346881701442,1
0.0890644697832961,0.0107876512963115,1
0.106825000295124,0.0148623927251274,1
0.120635531697863,0.016975507999672,1
0.131641273285742,0.0188135699305627,1
0.134570802866566,0.0131939312514625,1
0.145443335151947,0.0134048745048634,1
0.147079538996306,0.0123983442196983,1
0.166505970104207,0.0142828772187839,1
0.172241368238959,0.0132792537425439,1
0.124579536393575,0.00899562176838642,1
0.121968866569379,0.011336189734893,1
0.12675082142476,0.00909448153702155,1
0.134778499065887,0.00955261337635014,1
0.139928299176367,0.00940311008125687,1
0.14598360663354,0.0221298902413839,1
0.0733465137043481,0.0102564083313073,1
0.065644276942486,0.0126106054291863,1
0.0759582882449371,0.0124977468754614,1
0.0731085483536029,0.0147168922213332,1
0.0687693184329502,0.0126170235020009,1
0.063382216527651,0.0154557830887193,1
0.0279989312538426,0.00976976509794527,1
0.0271992649177217,0.0102485458743583,1
0.0253700977796749,0.0101468428851861,1
0.0254567144623303,0.0102226211865241,1
0.0257158055058836,0.012587943079739,1
0.0380366469671993,0.0110777300849531,1
0.0471149125037689,0.00635329173710937,1
0.0473041543668498,0.00626720322880891,1
0.0512644431199146,0.00414549278054497,1
0.0579740880378926,0.0046142603896957,1
0.0571847376293541,0.00417461313621802,1
0.0572357914734559,0.00397873063329809,1
0.055385995629977,0.00287635080725118,1
0.0585721921051396,0.00323876356122245,1
0.0547026593984826,0.00216827932100202,1
0.0467667739978256,0.00334107689269844,1
0.0415071104744425,0.0100980528893044,1
0.0260020968919434,0.00261914318592823,1
0.0241893572039112,0.00975001873043457,1
0.0266201503371425,0.0105371411867681,1
0.0290593058818099,0.00674748480151182,1
0.0296483432203306,0.0082035951615661,1
0.0355339806285433,0.00754829066877617,1
0.0491075080558473,0.0127211660006055,1
0.0594934299281863,0.0157083195163817,1
0.0632418389872956,0.0120812704686337,1
0.0696010563926223,0.0129099992193677,1
0.0713632746972481,0.0165946612420388,1
0.0660741421575218,0.0128702652642423,1
0.0649803589295773,0.0134473161191883,1
0.0670420590743337,0.0166627890896986,1
0.0803329948453389,0.0190155362130312,1
0.0782282867986103,0.0300221405321911,1
0.0489005643453107,0.0195493235104746,1
0.0233196752907428,0.00847392651895149,1
0.0220110065073444,0.0141796242664572,1
0.0280879692035766,0.0159014886549498,1
0.0276896000313549,0.0123141821992873,1
0.0279032634944874,0.0187671841675568,1
0.0245707031289952,0.0111682117331139,1
0.0317185454306519,0.0155339963613662,1
0.0209607656807009,0.0108528463610988,1
0.0418719419731387,0.00639125363519297,1
0.094536445021082,0.0140862387633753,1
0.0948541322012415,0.0130853859944675,1
0.116296228488556,0.0152920064958112,1
0.122167414086801,0.0131205472315796,1
0.105752140073538,0.011571276087363,1
0.0858844375370081,0.00893322349238903,1
0.0748476439799226,0.00891550080634458,1
0.0721285725935407,0.00753701807182024,1
0.0967361755911218,0.0111966215253764,1
0.101383864868441,0.0139228528396846,1
0.134287141963717,0.0138386713265315,1
0.209539072112027,0.0230894831947845,1
0.250612661216354,0.0283075556668029,1
0.245195457448389,0.0314262913709251,1
0.188284599667715,0.0255738935989261,1
0.158757938041659,0.022298803868488,1
0.12675197197715,0.014039633056429,1
0.158610223528767,0.0201466191864372,1
0.188764180061828,0.0203661092939138,1
0.184314458144955,0.0228427501739287,1
0.17472891798182,0.0399784274098839,1
0.144227056955774,0.0280691941780274,1
0.130475896430256,0.0244700474084679,1
0.140058802988845,0.0237561792520446,1
0.145153211892675,0.0193351637701175,1
0.122715261222999,0.0162066057466793,1
0.123444400639363,0.0199906242361021,1
0.129676624152047,0.0228569166625074,1
0.159971047588767,0.031412474891307,1
0.175997752771814,0.0291816125734251,1
0.0969469221248897,0.0159388036770952,1
0.0678145744155934,0.0132954749401255,1
0.0568861424369108,0.0101050521123371,1
0.0554273163223586,0.011483116701369,1
0.0570509216802515,0.0133446486648674,1
0.0508811823360737,0.00872063003859716,1
0.0520970556846902,0.00863347639532584,1
0.0498377194261698,0.00689617171034144,1
0.0665374292893548,0.014161596953465,1
0.079581423365898,0.0178801558591737,1
0.0742143427334422,0.0167110261505505,1
0.0848936205023695,0.02068292687999,1
0.0918976721562406,0.0222148546675439,1
0.0872292862218489,0.0190190328380028,1
0.0580007937151903,0.014123583234816,1
0.0312700441098171,0.0106115381395029,1
0.0349270319998398,0.0118445683204913,1
0.0751423121821567,0.0249172511852211,1
0.0724053849950711,0.0122159136106464,1
0.0625470948521608,0.0112390858182742,1
0.0643852467814086,0.0120008145485054,1
0.0609938798790586,0.0122176645093164,1
0.0554854154400047,0.0115114023440199,1
0.0600602595823773,0.014485666210181,1
0.0614061348454688,0.0160396518750991,1
0.0652338505870708,0.0177655478859143,1
0.0621165033716754,0.0162865809312153,1
0.0184891323850388,0.00269601140267504,1
0.00900720501966339,0.0078609935124106,1
0.00779925512900198,0.0074137830651351,1
0.0076410972178076,0.00919928194776295,1
0.0104378385097575,0.0133228273995632,1
0.0105287631850807,0.00868174638196859,1
0.0185147135601465,0.0144813887687013,1
0.0236997126759512,0.0171829429330172,1
0.0378516362178124,0.0242213751141028,1
0.0393035569114374,0.0223252270820835,1
0.0397276267651836,0.0321466668243012,1
0.0403488235077231,0.0337290627455337,1
0.0394572721112372,0.0301010480850858,1
0.0330790137512507,0.0247449138003632,1
0.0191575834994224,0.00958293629814196,1
0.0149951812154638,0.0044225685687354,1
0.0180879694611767,0.00290707434237053,1
0.0251395581306206,0.00708225228786093,1
0.0273471018872609,0.00879438331877275,1
0.0307220425632687,0.012594345222816,1
0.0341282662878735,0.00995636681942443,1
0.0414055027222512,0.0123934256594176,1
0.0530607315732496,0.0158384210687336,1
0.0518933361989026,0.0145819955662493,1
0.0555769721650904,0.0164616018204132,1
0.0627955590040477,0.0242553131599836,1
0.0605828259937616,0.0225414779972279,1
0.0577584360945541,0.0172611603954188,1
0.0554117674412714,0.0168075645854697,1
0.052006729235725,0.0155441620306009,1
0.0495145020843786,0.0197159332171457,1
0.0429495543640107,0.0186371876609575,1
0.0307641939238681,0.0137492443643734,1
0.0412642059647567,0.00284833461438809,1
0.128957584590018,0.0197881374419433,1
0.146505642551145,0.00947114300760372,1
0.143178157875213,0.0126212012996668,1
0.202283851193377,0.00586317786164377,1
0.405732001553566,0.0156237747393605,1
0.489838201171245,0.0142714746984729,1
0.449663219564842,0.0111759966894222,1
0.391207090622611,0.00958699564020624,1
0.321546058718862,0.00591303946644025,1
0.342572352372689,0.0103151824302289,1
0.341988991103031,0.00979405104441257,1
0.335716360460074,0.0114185366572378,1
0.339405878060088,0.010302258826661,1
0.365600184434018,0.024828043275897,1
0.306189162894273,0.0183868746989744,1
0.272232218946094,0.0180524706690308,1
0.272184288406934,0.0155734727862122,1
0.295344009748126,0.0175594905008139,1
0.271314862985731,0.0159453258159328,1
0.188648872613644,0.00969106587345962,1
0.146054364482589,0.00674317305436501,1
0.131206744628401,0.00718025410819036,1
0.144664766692902,0.00925197340972743,1
0.131988712949772,0.00807315021349091,1
0.11724294707312,0.00815014562433854,1
0.124130669015574,0.00966736021658743,1
0.167083792430941,0.024879837139718,1
0.146831659893768,0.0204946627419481,1
0.138277656021292,0.0223817388538219,1
0.131609751782107,0.0309464598785058,1
0.0820095384706045,0.0204701569858263,1
0.0581190334218237,0.0168254951855307,1
0.0750120980981324,0.0229664847439097,1
0.0768950228808333,0.0243059634732711,1
0.0463631216222741,0.0171350709500659,1
0.0452715807064697,0.0272713746522179,1
0.0532241374846589,0.0335438730670195,1
0.044091117251102,0.0338493122715975,1
0.0489691930704823,0.0369234598137747,1
0.0248130187553221,0.0207569164121926,1
0.0237374444981471,0.0212763168456405,1
0.0229263720415923,0.0249070085769379,1
0.0263935734822375,0.0298262189390346,1
0.0266923618684678,0.0286872442675195,1
0.0207495860017674,0.0198956986798594,1
0.0156886722765862,0.0174279674012169,1
0.0134319930201699,0.0148856535450144,1
0.0249915854822223,0.0127584207873606,1
0.0840208363464658,0.0445151653364566,1
0.113699409665594,0.0302983197142777,1
0.117673815781069,0.0389373783588908,1
0.11003929896033,0.027191853560607,1
0.0999501602030724,0.0252197529325782,1
0.0842367365098828,0.022268132689119,1
0.0711057091148114,0.019131884919221,1
0.0669428750449692,0.0153688957037557,1
0.06946963750996,0.015424951313945,1
0.0694654508634194,0.0156941785641705,1
0.0468468434767254,0.0100859499896801,1
0.0299361660737311,0.00776789110389283,1
0.0366896516099497,0.00779276516558601,1
0.0387063246206196,0.0100788687619037,1
0.0340252476183426,0.00821366505561056,1
0.0336102963917588,0.00779850931317822,1
0.0331856982870056,0.00822418764433288,1
0.0323267749154867,0.00949014123136166,1
0.0235745448574217,0.00668508766147136,1
0.0249431457446049,0.00746310002433235,1
0.0323728820198474,0.0129755144472968,1
0.0378036448057966,0.0168073733293387,1
0.0378025787734511,0.0217303708408574,1
0.0325706033466267,0.0233329852915322,1
0.0322934125670285,0.0218848490452116,1
0.0326152352186879,0.0194420273197128,1
0.035208526853485,0.0201361883768018,1
0.0302196412636256,0.0191602016529906,1
0.0151313867921902,0.00849785430987518,1
0.00905200410920067,0.0193880059070258,1
0.0100712405105031,0.0207498361346433,1
0.0106365799755114,0.0211964264958598,1
0.0118621733153556,0.0116958593547723,1
0.0167589056768517,0.0186426086932393,1
0.0135978494136587,0.0182303477545779,1
0.00899420316401544,0.0115436453650285,1
0.0104913118520748,0.0149976368588268,1
0.00986292618529505,0.0106540441237937,1
0.0143457257387092,0.0150146282007081,1
0.0182294920484106,0.0181425941914895,1
0.0194516068057952,0.0204684660847954,1
0.0144310987123737,0.0178212247740076,1
0.013755061125778,0.0355344374285541,1
0.0145781735357357,0.0382127394957845,1
0.0152364163767448,0.0368002908797626,1
0.0130934375530833,0.0469282614916492,1
0.00461355933135722,0.0200166946724018,1
0.00200420519739324,0.0179895683540854,1
0.00224941346855987,0.0304027775130605,1
0.00240353262981876,0.0227848283519359,1
0.00354359074739219,0.0277364396967437,1
0.0037056981279473,0.0189015231167397,1
0.00447910923692029,0.0224334396855763,1
0.00466832754568106,0.0217094312939338,1
0.00476551364100568,0.022760331280705,1
0.00409740941649193,0.0186163893138063,1
0.00447704035348836,0.0233975457048606,1
0.00460745213901031,0.0221993181949528,1
0.00439510474599011,0.0208842125413304,1
0.00475781817370366,0.0280915067206473,1
0.00326794450043977,0.0253539505423831,1
0.00285630689740336,0.0423449241187913,1
0.00281416278031952,0.0409570616999154,1
0.00305172855141397,0.0480576880290132,1
0.00243443739176835,0.0491564985313477,1
0.00145415395310912,0.0491228849682393,1
0.00146283423775741,0.0552667184282098,1
0.00136694870453116,0.0615174495523995,1
0.000579687637183829,0.0435201109406832,1
0.00053000874624199,0.0744011074621499,1
0.000597256605623087,0.0809110513588011,1
0.000646523406651601,0.0913619746664808,1
0.0004798617382512,0.0975712626882599,1
0.000453351749462042,0.137592061864515,1
0.000468963483940583,0.1394469627449,1
0.000475678371836879,0.158075985335922,1
0.00025442889620248,0.233754133161384,0
3.96138218822842e-05,0.291779389789689,0
4.52083549779108e-05,0.367120430369798,0
4.69058093126837e-05,0.351272676494023,0
4.90845323511037e-05,0.276877883946661,0
5.41252708910501e-05,0.240849079910375,0
5.73582838865476e-05,0.234961895220207,0
6.00926697327803e-05,0.23633316862972,0
6.08924236297278e-05,0.198071181415834,0
6.30477273779038e-05,0.187924871118338,0
6.33964400069274e-05,0.191640936413923,0
5.54229201387729e-05,0.203128463546449,0
4.74547493104577e-05,0.228007824050976,0
4.44798602305232e-05,0.226844301616458,0
4.1694944937337e-05,0.268746398791713,0
3.4952993101658e-05,0.275505044416886,0
3.22790700953763e-05,0.273733070053602,0
2.82172653925094e-05,0.247660418460502,0
2.1504038422343e-05,0.327423421085729,0
1.21461054752304e-05,0.283915864770844,0
1.33141225100035e-05,0.345144930786335,0
1.1260506732955e-05,0.298120128617477,0
1.16945808812798e-05,0.291066057153814,0
1.03636413944154e-05,0.295403900817943,0
1.11938736625412e-05,0.331598109468458,0
1.08458974682279e-05,0.358859143410873,0
5.87444768396776e-06,0.290478596656348,0
6.16180181311916e-06,0.313027369710341,0
7.50726672488015e-06,0.299094928185706,0
7.92483491270151e-06,0.274093401889953,0
8.282092966097e-06,0.278315122305888,0
6.87322483617416e-06,0.286199147005938,0
5.98900986094935e-06,0.300413421088451,0
5.17483383990173e-06,0.278532964172129,0
5.55586513002891e-06,0.294629501196658,0
6.38469754921297e-06,0.307860989047344,0
6.71190405351484e-06,0.316262138802204,0
6.59696561823252e-06,0.331519992697954,0
5.20283893212287e-06,0.356073278146098,0
6.67882389313185e-06,0.457312799644507,0
6.76520248338845e-06,0.442615326044717,0
7.18882325756768e-06,0.470132420804527,0
7.13522347333692e-06,0.473111600148961,0
6.73889555194624e-06,0.452358577331462,0
6.63361842144868e-06,0.466328453415513,0
6.54856694941876e-06,0.493680710906164,0
4.62484822943755e-06,0.442669394398108,0
3.42235161998534e-06,0.370775919863341,0
3.76504599966197e-06,0.384079175451862,0
3.1564755084666e-06,0.338673107312039,0
3.41155386155756e-06,0.317682524845587,0
1.33910901514029e-05,0.425342542170125,0
2.66633700435616e-05,0.393922755928072,0
2.60692128386704e-05,0.344362447365112,0
2.84769901082128e-05,0.355265508622318,0
2.95637004334893e-05,0.331327911997312,0
3.20573847026958e-05,0.326852208623521,0
3.11310364765298e-05,0.331515381185763,0
2.71276213535895e-05,0.293782587488526,0
2.49530969927033e-05,0.285848831491217,0
2.15223769940309e-05,0.279403735701586,0
1.82902889245988e-05,0.321356039469544,0
2.2173375570839e-05,0.316308254195878,0
3.73902080556732e-05,0.289380853183786,0
4.03894500448313e-05,0.276878883166475,0
4.30261466604448e-05,0.299030941194847,0
4.0022774378011e-05,0.296505402641116,0
3.71649985555968e-05,0.269142601411369,0
4.10578818263186e-05,0.277436824473285,0
4.18958683187469e-05,0.262875155302952,0
4.67489855193954e-05,0.275254245766541,0
4.96866325614164e-05,0.285274432973793,0
3.95784181059493e-05,0.329153362970536,0
2.96393196590223e-05,0.362956136521708,0
3.89788881005866e-05,0.302247668193708,0
3.99238745142147e-05,0.280037321060231,0
3.9746814196316e-05,0.287441764240993,0
3.86823125281063e-05,0.3007907344993,0
3.15787063425831e-05,0.29023178453604,0
3.22428878685794e-05,0.317099985815665,0
3.06769718130651e-05,0.286742221907831,0
2.88361556767363e-05,0.279464966500189,0
2.80593672999142e-05,0.284473582838498,0
2.10352851969595e-05,0.296702167876335,0
8.33153000350581e-06,0.338725569165796,0
5.17459855169211e-06,0.34704969906326,0
3.96447072267266e-06,0.30683880833229,0
3.93610067293918e-06,0.315513637292422,0
4.55416107362868e-06,0.332086320496936,0
3.62713711826957e-06,0.301122581374463,0
3.28866039565595e-06,0.341704431212304,0
2.99722986929646e-06,0.304803887213334,0
4.61735957366233e-06,0.358788844466942,0
6.44572977504079e-06,0.42594907137701,0
6.49932332934976e-06,0.386700995113195,0
6.72351546870693e-06,0.355503198384183,0
7.37878328053527e-06,0.354050722610338,0
7.05694378142876e-06,0.322837955960828,0
7.50553755937409e-06,0.33051220645722,0
7.79428472801781e-06,0.323668892121712,0
8.27169261872771e-06,0.351078407922773,0
7.21129980127221e-06,0.345926883824457,0
6.84814288121739e-06,0.360718550205755,0
5.71023042231413e-06,0.341305771221829,0
4.86891410912126e-06,0.353986734921282,0
2.7949928436768e-06,0.312043284388097,0
2.47352887846149e-06,0.325299259427189,0
2.25368667334428e-06,0.330923735123841,0
1.01651591281804e-06,0.241268281729898,0
9.92907696573264e-07,0.25183657405469,0
1.12494190658404e-06,0.267603261831692,0
9.22547684100188e-07,0.209731672056174,0
1.54768295785143e-06,0.250541710021692,0
1.67664943845916e-06,0.257269530079033,0
1.81303126459945e-06,0.263113236067725,0
1.89809432718157e-06,0.263303777208199,0
2.09577481696834e-06,0.258399476551538,0
2.41922772094084e-06,0.262543099351634,0
2.37976131117858e-06,0.266631307569532,0
2.5844995779626e-06,0.280113631153301,0
2.7115517339929e-06,0.267656528262185,0
3.01521275591377e-06,0.30095585923516,0
3.59475543353842e-06,0.313528519655122,0
4.33923166894255e-06,0.324778489021507,0
4.2501071319883e-06,0.324976744383968,0
4.07914547289248e-06,0.324520823414155,0
3.96644111654634e-06,0.337746619560125,0
3.9161891184361e-06,0.347612422855688,0
4.07134025016035e-06,0.35100975249686,0
4.73902907725182e-06,0.312116140991259,0
8.56396925539767e-06,0.342453564183956,0
7.99412859437236e-06,0.29605758704359,0
9.30469247000003e-06,0.316400137467731,0
8.09881489647163e-06,0.290437221366536,0
8.6296587099806e-06,0.298750144271915,0
8.67476406826916e-06,0.299107611881276,0
8.87983512878316e-06,0.305856858619909,0
7.92564291907162e-06,0.271908220572624,0
7.46364684073769e-06,0.24667705360368,0
7.51007236292161e-06,0.287187499318813,0
5.69320404601697e-06,0.309338575436187,0
5.95824056691087e-06,0.393621525938697,0
3.29447667963088e-06,0.329017580538493,0
3.07303208067227e-06,0.341484314143111,0
3.02265504948019e-06,0.342359489441687,0
3.12322047562732e-06,0.338108129855028,0
3.16746740864372e-06,0.335313084088192,0
2.64279078307746e-06,0.374327165047088,0
8.82340058524854e-07,0.271674341185327,0
1.08202788707044e-06,0.290992147770471,0
9.42022129903495e-07,0.274110934636688,0
1.35193128083233e-06,0.306371368348644,0
1.36086759657709e-06,0.272930949730681,0
4.58043902869039e-06,0.363800054166795,0
4.77730919399661e-06,0.317816731584943,0
4.82283224681001e-06,0.309931430351313,0
6.26184233213361e-06,0.324697706496744,0
6.75599972982504e-06,0.299342229991129,0
6.51618540956951e-06,0.255057376373318,0
6.82550363513638e-06,0.242044928882144,0
6.34928725319245e-06,0.232595263403066,0
6.93506622742731e-06,0.243235578853534,0
6.53070025808723e-06,0.24402826695535,0
5.32256470010873e-06,0.25549223336461,0
4.76984850042858e-06,0.270954091944408,0
4.21722603933931e-06,0.262662261552932,0
4.77172037460857e-06,0.292953358285823,0
5.47968043043057e-06,0.287306409448938,0
5.14073747785476e-06,0.313380517963589,0
5.62819597102138e-06,0.344151625077088,0
5.8465644374266e-06,0.314460946000473,0
5.77342631447354e-06,0.298569114936226,0
6.01571333415864e-06,0.30373642222385,0
5.99191213521977e-06,0.302405895636731,0
6.14506969196593e-06,0.295544472400243,0
8.95372823133004e-06,0.34712167069809,0
8.76631479756228e-06,0.367525541574559,0
4.19629060443143e-06,0.304175281735752,0
4.80397398373793e-06,0.341184896918525,0
5.33430839247779e-06,0.366407127053842,0
6.05292480199075e-06,0.45070914610864,0
6.22355873822317e-06,0.449195685049535,0
6.90043525116021e-06,0.462622921126896,0
8.43340298882278e-06,0.419176602006323,0
1.01159269537817e-05,0.433316865524781,0
7.3124422920369e-06,0.379112954520065,0
5.30830832090503e-06,0.320896067118801,0
5.00574579356874e-06,0.311045650641931,0
4.95572618603008e-06,0.3103902324675,0
5.03037571698978e-06,0.29976638538181,0
6.26998295646997e-06,0.304810351289773,0
6.43037012014973e-06,0.295731312693015,0
5.97229005475784e-06,0.2862090109276,0
6.09757059488465e-06,0.278469492530667,0
6.54475380262747e-06,0.280383173015044,0
8.03103914249303e-06,0.311110210300064,0
9.25214510790885e-06,0.290363708721182,0
1.09511107058065e-05,0.295977966594914,0
1.11855759862226e-05,0.292553085557143,0
1.13154295787192e-05,0.298392449242133,0
1.05537873008639e-05,0.285453036908985,0
1.07934770226833e-05,0.303553154961376,0
1.01516751143988e-05,0.284273377784347,0
9.52021313773017e-06,0.322282699874906,0
8.51234725401759e-06,0.312359220390011,0
1.04401238263234e-05,0.347656284136331,0
1.09087381099625e-05,0.417265909889014,0
9.70853860307402e-06,0.435702674207889,0
8.90319226469094e-06,0.435422475566557,0
7.60306336320726e-06,0.401602691321254,0
8.96129338474976e-06,0.396492364696527,0
1.04715574038847e-05,0.416560873696377,0
1.06977053040434e-05,0.421907636100894,0
1.0051614311918e-05,0.428310876408241,0
9.78638437368426e-06,0.451683465611969,0
8.6591358023309e-06,0.4371851814578,0
7.86448305228772e-06,0.368395252569443,0
1.79247043633861e-05,0.370020730424046,0
1.90281840444649e-05,0.295641721052334,0
1.78730807683051e-05,0.288672804546893,0
1.72278358864901e-05,0.307845578915967,0
1.81124319011184e-05,0.313363995893677,0
1.89067486700298e-05,0.31961299445325,0
1.65407647584853e-05,0.302291606858202,0
1.57933872629841e-05,0.285430921214135,0
1.6827497489157e-05,0.289509565856067,0
1.72389152953363e-05,0.297575035203164,0
8.5811465986372e-06,0.280463043955068,0
6.70614861993895e-06,0.304546341568614,0
6.71395833401006e-06,0.291121639502001,0
6.34110417845867e-06,0.297900373441015,0
6.58604456530572e-06,0.312372463078727,0
6.96681202548849e-06,0.31995502529226,0
7.91640510408781e-06,0.342319046944545,0
8.3887293786036e-06,0.367764365747548,0
9.36348554602507e-06,0.422875985338616,0
6.25848165152376e-06,0.397762269752251,0
5.50493276650464e-06,0.44100302309708,0
1.58866323861267e-06,0.305098421544177,0
1.44766590970517e-06,0.346667139597608,0
1.80751995702924e-06,0.376118554136885,0
1.58684641955561e-06,0.369222050573013,0
1.41624102505798e-06,0.375719011350869,0
2.62385993417225e-06,0.35415518617466,0
4.54248460646238e-06,0.350579909104632,0
4.37800959990424e-06,0.315630554271656,0
8.71496358045795e-06,0.336708458021394,0
1.01631791721011e-05,0.312987854838047,0
9.18800009440632e-06,0.295928438741083,0
9.2926222138228e-06,0.303074971161394,0
9.22657562535026e-06,0.305416220889461,0
9.4241199261487e-06,0.301967970216435,0
1.10763577782139e-05,0.323164318701041,0
1.08116983849121e-05,0.345850581550106,0
1.04458126142241e-05,0.38333153887857,0
6.51058355081025e-06,0.320337326264169,0
5.82112071235935e-06,0.416241352637676,0
7.63568902906217e-06,0.555942679584476,0
9.70896861256058e-06,0.565138680376079,0
1.02233747049421e-05,0.547703887523831,0
1.49406890275327e-05,0.650237372353449,0
1.71371912486151e-05,0.704153004028223,0
1.11355360952176e-05,0.601717792471323,0
7.55034996645584e-06,0.499561642440084,0
4.68028584060123e-06,0.400984145150892,0
4.59365109914105e-06,0.394366352747817,0
4.04024859388885e-06,0.358169224846838,0
4.14368036359458e-06,0.370724962046151,0
4.05079715544437e-06,0.392496776774768,0
3.7099016294689e-06,0.410193702714435,0
2.24888948867137e-06,0.35261523996622,0
1.3986871337539e-06,0.298856566434277,0
1.81619157353818e-06,0.322717109591599,0
2.21303933119493e-06,0.327278929095711,0
3.56342602606496e-06,0.324500683343762,0
3.65116071092874e-06,0.316514680725516,0
3.9063552593055e-06,0.335351118073287,0
4.31106880032961e-06,0.313907404468947,0
4.75313608321408e-06,0.304895994566263,0
5.66995339830751e-06,0.331456813219304,0
6.16571029220227e-06,0.306453661348829,0
7.54544020854471e-06,0.329556108682418,0
7.26236197898109e-06,0.312275181189073,0
7.00382297676758e-06,0.313416752048712,0
6.0204144621302e-06,0.341356401749817,0
5.33591078631918e-06,0.328668792671524,0
4.66969091683692e-06,0.303107824152226,0
4.35088118807499e-06,0.321348446245607,0
4.79423328367062e-06,0.347824653907311,0
3.83667908941211e-06,0.313775319406697,0
3.107378364001e-06,0.326835943585014,0
2.47216278700304e-06,0.317874358392019,0
2.25297168115556e-06,0.325052303483306,0
1.99192926454914e-06,0.312340092486087,0
4.24272163212765e-06,0.387663104802108,0
7.45522630456575e-06,0.527787590474974,0
1.29269162083109e-05,0.619449527069403,0
1.18054156815564e-05,0.431016109928105,0
1.56845415463466e-05,0.371349072413972,0
1.62337362465052e-05,0.317656425691091,0
1.49373277673952e-05,0.299145004788191,0
1.30493414159037e-05,0.280449265140997,0
1.24372397180993e-05,0.27263541808707,0
1.23885304224866e-05,0.264373952725023,0
1.22187021745139e-05,0.265287704821966,0
1.28849939054198e-05,0.275091025922444,0
8.829330456635e-06,0.23919989614868,0
8.91155267487336e-06,0.285703358318395,0
3.69005280882959e-06,0.254708933303553,0
2.52172746536793e-06,0.262585511634613,0
1.94114526009301e-06,0.239855480360975,0
1.92923234566186e-06,0.240144187849557,0
2.37648857388353e-06,0.25638537664961,0
2.37215501129855e-06,0.258307622007331,0
1.98406043866183e-06,0.231567934724092,0
3.51730504564004e-06,0.243399688591604,0
5.07120618986386e-06,0.269585374234228,0
5.37450660072946e-06,0.28103878136316,0
5.23345030488766e-06,0.279117837984829,0
4.92809141195167e-06,0.278492193821107,0
5.08741441805773e-06,0.285035082400433,0
5.07875048028963e-06,0.284014322203308,0
5.09038580099563e-06,0.285392923564153,0
5.08715725268084e-06,0.283422544928396,0
5.90809114518758e-06,0.339940225902083,0
4.81708333291973e-06,0.39021026704679,0
3.59208960653285e-06,0.371486981733998,0
3.18889355855527e-06,0.3600994615905,0
3.37505057646476e-06,0.366693129902675,0
3.48595477517262e-06,0.356049881195004,0
4.45989612677456e-06,0.373738801590079,0
6.62537826324532e-06,0.396280432617356,0
5.52750261415437e-06,0.355118461334002,0
7.92771183263899e-06,0.460826526801572,0
1.00198007091264e-05,0.540864560850062,0
9.6317291727122e-06,0.437728524638621,0
1.46971760171888e-05,0.464548681235946,0
1.53140734508471e-05,0.389445144557713,0
1.49007949263943e-05,0.381265155261457,0
1.54082679850966e-05,0.378334792773613,0
1.42260200703346e-05,0.371313392321258,0
1.11840274884489e-05,0.357267200923568,0
1.11820271040214e-05,0.368047282145294,0
9.89883228906302e-06,0.345633436479876,0
7.30667019704223e-06,0.291829237975674,0
6.50795032223273e-06,0.310925313071606,0
2.07595482782762e-06,0.218201597784777,0
2.28436802406797e-06,0.283930754754391,0
2.05988220909447e-06,0.276070521049526,0
2.16304348428827e-06,0.305216098835769,0
2.5321438946284e-06,0.332914123889951,0
2.54035000558468e-06,0.345847430765499,0
2.41025532960236e-06,0.347229970403281,0
2.33271105823117e-06,0.354015401635921,0
1.80925853985896e-06,0.359356352642987,0
1.82763608477861e-06,0.362492666408008,0
1.99241954490713e-06,0.347223541118264,0
1.89731906412142e-06,0.34576687278256,0
2.20416719813296e-06,0.381553080786303,0
3.10696646475226e-06,0.454681483285715,0
2.33940242889706e-06,0.416541003236874,0
3.06815260307875e-06,0.452127832285931,0
3.29795848151119e-06,0.420734780010517,0
3.32356534360063e-06,0.422001483463992,0
5.47130046119132e-06,0.462276416553782,0
5.93921989122611e-06,0.446997525729011,0
5.46321561638741e-06,0.449504232057655,0
7.85493765302495e-06,0.483355359594882,0
8.57433135394469e-06,0.483896153182129,0
7.46492064242427e-06,0.449707237229443,0
6.78820161611522e-06,0.401854636059806,0
4.73719545189408e-06,0.342443093748904,0
4.61031367698109e-06,0.335004892910914,0
6.94655753552225e-06,0.410086964778288,0
6.48888024181924e-06,0.435289159388948,0
6.35409950558322e-06,0.458567970922956,0
6.8948717861051e-06,0.493957743994155,0
4.82619133371893e-06,0.484490238576797,0
3.59343700822588e-06,0.428590498096373,0
4.06667867494816e-06,0.313829712915836,0
8.5926415287797e-06,0.377428536564236,0
9.8440008637793e-06,0.367548432550987,0
1.20060046755354e-05,0.392962030832369,0
1.07474393493523e-05,0.370710682672317,0
1.05446578575431e-05,0.366694100184866,0
1.02022068794627e-05,0.360181345560199,0
9.3701972001573e-06,0.345953271869006,0
8.36127947383276e-06,0.326942404279563,0
6.23796796783399e-06,0.282407483762908,0
5.29946472957785e-06,0.3579038942505,0
2.88654936824602e-06,0.336697907391184,0
2.27315300576105e-06,0.35858196970392,0
5.81429184876802e-07,0.24525923405675,0
5.82515654263474e-07,0.253908608506717,0
2.49326686444542e-07,0.20889206161473,0
1.36635354981437e-06,0.290872960135569,0
9.63341559805703e-06,0.61111473173498,0
1.12213351578643e-05,0.484058905996613,0
1.11085046093811e-05,0.47682563953357,0
1.13618041024734e-05,0.485680265068537,0
1.15172021129595e-05,0.489710054612792,0
1.2685695519428e-05,0.513633935513659,0
1.30792173681315e-05,0.518868590113966,0
1.3103264286777e-05,0.513191162698942,0
1.29015782470325e-05,0.507815824230171,0
1.28142108377915e-05,0.547409066001194,0
6.08287478887074e-06,0.45442477166674,0
2.68159725577394e-06,0.360881463959456,0
3.02406909684836e-06,0.389856952360677,0
3.11347166217347e-06,0.384132223561223,0
3.2789998152807e-06,0.357366675483998,0
3.9156860884707e-06,0.396100066629319,0
5.86229846715367e-06,0.493664810605379,0
5.82402066851932e-06,0.433702518196359,0
6.21930254257411e-06,0.42797871672372,0
1.11754222278513e-05,0.54796432031013,0
1.24342761587841e-05,0.47958037731126,0
1.22904221934055e-05,0.493556375886552,0
1.26542289087929e-05,0.497254103901483,0
1.27931554406683e-05,0.481048190780924,0
1.25589115397992e-05,0.486386040752186,0
1.08324802450034e-05,0.444253264562231,0
6.82564489499129e-06,0.354841607936305,0
5.05862826750035e-06,0.333238972059566,0
5.97090614282537e-06,0.355304426294009,0
4.58174890597068e-06,0.303043344226853,0
3.47222243381017e-06,0.273694803109603,0
4.80043929996321e-06,0.308604087445821,0
4.9162006644516e-06,0.315939075931547,0
5.18816601744954e-06,0.305438699546856,0
8.79950506819115e-06,0.390346161186825,0
9.03363233912876e-06,0.387068855186755,0
9.39573625751639e-06,0.353537569520667,0
1.09535390713739e-05,0.382422871581756,0
1.11708740951688e-05,0.40429755129923,0
1.04993863197124e-05,0.432855054914473,0
1.06442207009251e-05,0.442218091960684,0
1.11334441454277e-05,0.459741395455123,0
1.05903246332038e-05,0.430534907979271,0
1.05729343135676e-05,0.452104176834619,0
6.701617438439e-06,0.33258686805657,0
5.9554878107638e-06,0.30701493903931,0
8.07455007544484e-06,0.409265181792867,0
7.97848714418098e-06,0.387463015073023,0
8.2570324536618e-06,0.367552604934007,0
8.03940998417243e-06,0.353048557190193,0
7.64862046326774e-06,0.360600519588894,0
7.28762358749694e-06,0.353881454779245,0
7.39376175114093e-06,0.357826347677738,0
7.41073379672465e-06,0.389995795568338,0
6.04599944705237e-06,0.395729317026587,0
6.82749242901168e-06,0.448476713126547,0
5.53029057660372e-06,0.33086273534663,0
6.83458700601216e-06,0.378273953645428,0
6.3545551591665e-06,0.38976375203655,0
6.71424012931037e-06,0.396443507484619,0
1.0295615864037e-05,0.465269995008525,0
1.04347279896294e-05,0.389258795492944,0
1.09200099219751e-05,0.375027445413936,0
1.2364130136881e-05,0.365802253468165,0
1.13392865571905e-05,0.339811457041237,0
8.63760055634676e-06,0.296990364804935,0
8.22705001323566e-06,0.298598049055451,0
1.0977461826229e-05,0.31884886549388,0
1.19278692860021e-05,0.301584852433981,0
1.19872388471171e-05,0.285996140641228,0
1.37249025460482e-05,0.303154171855358,0
1.59663426419399e-05,0.373039055310151,0
1.56149178237019e-05,0.394593578769389,0
1.33399468398286e-05,0.387055598601616,0
1.55814518428126e-05,0.403201314710947,0
1.5454798256896e-05,0.400630757861849,0
1.4257211405355e-05,0.35010182767241,0
1.61139680281219e-05,0.400930783938208,0
1.78271652304179e-05,0.478125481740518,0
1.62832399295891e-05,0.464073170699778,0
1.54269589095713e-05,0.494817149076042,0
1.44127148898661e-05,0.471251664390022,0
1.43751244109771e-05,0.471086593108622,0
1.39661320727271e-05,0.493993234259211,0
8.64318720250626e-06,0.423556554701869,0
5.40486877662199e-06,0.304073211731837,0
9.20837845839919e-06,0.406550224479827,0
7.39970538630813e-06,0.341179425504125,0
5.60644122895499e-06,0.297313489973112,0
5.09506548644563e-06,0.306082616841955,0
4.870156471435e-06,0.312103864691987,0
4.07581420330883e-06,0.290295616337922,0
4.84844736716789e-06,0.250893106474871,0
9.70091781500375e-06,0.346698425324702,0
1.05261917897811e-05,0.313454173601366,0
1.14750159801239e-05,0.237735778077303,0
2.49312974821291e-05,0.34626712145188,0
3.35974149984584e-05,0.385015719179364,0
3.32977637280705e-05,0.317517800460239,0
3.51037166424425e-05,0.324878100543133,0
3.38270887445958e-05,0.318376750908797,0
3.08150187669106e-05,0.292769276574076,0
3.56664125973291e-05,0.349418667555414,0
3.87225815836083e-05,0.360940142576212,0
3.95393214348022e-05,0.390784945580601,0
3.91219010265213e-05,0.552746182833247,0
2.80994551081562e-05,0.563328810516413,0
9.95213332681088e-06,0.285232722535704,0
1.65520388886084e-05,0.409494384215827,0
1.70467479965845e-05,0.349817839578503,0
1.74536679441014e-05,0.361208205398975,0
1.72542356872318e-05,0.383603443466527,0
1.55681608117251e-05,0.371784520162477,0
1.40305664153889e-05,0.339165724344147,0
1.43900507240978e-05,0.327077028540278,0
1.4362331918516e-05,0.329547178173794,0
1.02539478288847e-05,0.283978192993634,0
9.28784212521438e-06,0.332947953472937,0
2.59661170500965e-06,0.212151351780664,0
4.27839459903736e-06,0.318870509257571,0
4.97918894084476e-06,0.351557112602143,0
5.55642727181052e-06,0.318649337255782,0
6.33460419678595e-06,0.276563031506748,0
6.80319182215497e-06,0.301964709777394,0
6.77427571253106e-06,0.31136703961707,0
6.96611731676612e-06,0.317344434112949,0
6.87052597609482e-06,0.305337728114872,0
7.29836788450271e-06,0.289829732116062,0
7.7334111478732e-06,0.318355039172148,0
6.56588569739511e-06,0.310197341360599,0
5.83934931868326e-06,0.26431534511441,0
7.9405524258917e-06,0.331080777176254,0
7.42204907330809e-06,0.372967138756863,0
5.75786194145428e-06,0.319542668793416,0
5.70382504852373e-06,0.293172334372818,0
6.20978669921944e-06,0.275320864698641,0
5.58845269194348e-06,0.268815758070236,0
5.86778094322529e-06,0.287723264744728,0
6.12507961147171e-06,0.292155056869148,0
6.1029612158301e-06,0.290675163691107,0
6.03740287936891e-06,0.309379673212228,0
4.89037981179221e-06,0.257324215418775,0
6.10936282269104e-06,0.284620206349462,0
5.75584272237945e-06,0.282702871630904,0
4.90081811821994e-06,0.227947994320667,0
1.62133141281778e-05,0.325076904234334,0
1.70201407249585e-05,0.239877416190778,0
1.79807175903483e-05,0.249032569417668,0
1.8552205268841e-05,0.252575247065725,0
2.00755109773093e-05,0.258565671961488,0
2.04007368011224e-05,0.242421573830545,0
2.04654055627024e-05,0.237818892911604,0
2.0430344142303e-05,0.242964989227952,0
2.05695398647532e-05,0.245731983549708,0
2.12406820968721e-05,0.278927252370479,0
9.78986849367502e-06,0.225252388328341,0
8.21816933214145e-06,0.296054011525966,0
8.3127811262701e-06,0.274890675047716,0
8.87566006699949e-06,0.241953283928465,0
1.37066879932688e-05,0.270584797693201,0
1.38633238747296e-05,0.245306614898724,0
1.34699289425727e-05,0.265081215259704,0
1.19542892253282e-05,0.250171698693459,0
1.30556559487413e-05,0.256835047224907,0
1.35458118531682e-05,0.276599651974642,0
1.24759934537833e-05,0.296772216770036,0
1.51383867582658e-05,0.340297157638951,0
1.70564920289356e-05,0.381293367183217,0
1.72977489382941e-05,0.48104034884115,0
6.1922816331165e-06,0.36786046240349,0
4.40551093775047e-06,0.410524175588871,0
8.99258802056663e-06,0.508936961370469,0
1.05916240789871e-05,0.531638653800009,0
1.48215055525078e-05,0.656653659371204,0
1.52392267356181e-05,0.596319911259174,0
1.55267797876216e-05,0.519029690587062,0
1.42910639311601e-05,0.430560708767541,0
1.15675897205305e-05,0.381544691456896,0
9.61839424240824e-06,0.343123699834929,0
9.72010495999445e-06,0.322739414580705,0
1.10561663118752e-05,0.367893481226378,0
9.14522733474764e-06,0.363629852797873,0
9.11387445640597e-06,0.346406905797807,0
6.69829370271428e-06,0.282869695548169,0
6.2243444327803e-06,0.290238770615531,0
6.3136648500667e-06,0.346147629237787,0
4.91787477483472e-06,0.345863153483444,0
5.69385717363333e-06,0.334285617577872,0
6.97444686710331e-06,0.3750151716224,0
1.19940640886609e-05,0.287889868973971,0
2.26924468604803e-05,0.354513852777486,0
2.41617949264187e-05,0.303350835980794,0
2.56680335467753e-05,0.270545150280792,0
2.6503154999582e-05,0.249712369293315,0
2.7574175194348e-05,0.254813901789321,0
2.7227482219045e-05,0.251193971285256,0
2.81387777950712e-05,0.249666938753603,0
2.76870707948054e-05,0.257767514524664,0
2.76034519150272e-05,0.244336659704526,0
2.42354969297362e-05,0.304700203342339,0
1.58222612119744e-05,0.249453368943827,0
1.44640275683843e-05,0.278728954767241,0
1.32657174663861e-05,0.343062880694539,0
1.44752275189734e-05,0.462000057923452,0
1.69964587638253e-05,0.518619899643543,0
1.85831323392713e-05,0.541787322461822,0
1.82380272696193e-05,0.586498319693237,0
1.68236466730711e-05,0.63835125023206,0
7.75844398786503e-06,0.463653838679555,0
7.15898222187837e-06,0.479013148802262,0
5.03003654845608e-06,0.42343592342757,0
3.57196782838928e-06,0.407075325919592,0
3.57609406497182e-06,0.408613979136926,0
3.50730471720348e-06,0.401703966849403,0
3.10208611786733e-06,0.382993316294924,0
2.86655566570423e-06,0.344306268077075,0
3.14835980381746e-06,0.326496125807818,0
3.76141830170586e-06,0.348838662093271,0
4.34039072416236e-06,0.359476075039513,0
4.2394138334122e-06,0.381108019290154,0
5.57516339943881e-06,0.427633483485853,0
5.7734302262849e-06,0.426942394610635,0
5.83443130250369e-06,0.419668303433554,0
5.49582331688642e-06,0.400036342466537,0
4.06221689187949e-06,0.340253093620131,0
3.76516422329439e-06,0.352029738660588,0
3.93570181306166e-06,0.398194364108162,0
3.87912948683779e-06,0.394639120108302,0
4.39416610525893e-06,0.433696544014083,0
5.151017573245e-06,0.423172479558878,0
6.31905677494927e-06,0.449234874080205,0
6.56807964404432e-06,0.458236973119377,0
6.50095658303638e-06,0.419768371037926,0
6.67247806580337e-06,0.433029984979054,0
7.24876046597659e-06,0.403372768913045,0
9.93160008406427e-06,0.414980806921067,0
1.0529047267197e-05,0.380116672311068,0
1.33557065136524e-05,0.419402467209025,0
1.36472993077427e-05,0.370578478834093,0
1.56930022148056e-05,0.417961494214667,0
1.46842305294387e-05,0.39361656685744,0
1.36215972582433e-05,0.376137473614567,0
1.62095177876872e-05,0.353357425960306,0
1.83265499671507e-05,0.26533886623691,0
2.22019345465733e-05,0.31504884368391,0
2.15852047412761e-05,0.323896922366345,0
2.11882018151018e-05,0.348737152678533,0
1.68342931747927e-05,0.313403189306706,0
1.6683445035572e-05,0.34746516212769,0
1.5380086861364e-05,0.302013651768562,0
2.02285584238096e-05,0.332647142668311,0
2.21187723345516e-05,0.33898151314029,0
1.75191776002434e-05,0.346636871240759,0
1.54939924335636e-05,0.473008148239952,0
1.30641316849181e-05,0.411396850350034,0
1.33246181896647e-05,0.391824532541222,0
1.31576817844654e-05,0.379573559125314,0
1.32072024187319e-05,0.387997156962966,0
1.10437280556657e-05,0.352059113173991,0
1.33532898835191e-05,0.468079596941827,0
1.28606363599754e-05,0.493808737117468,0
9.74060748777772e-06,0.429311705994619,0
9.64995604045328e-06,0.4475647128813,0
6.17041822962326e-06,0.387057467406925,0
5.63555828977764e-06,0.397772929925743,0
5.40983228571894e-06,0.439010044475072,0
5.64563120404732e-06,0.437045112194654,0
1.02532066130716e-05,0.583325150817348,0
1.45592843767428e-05,0.674764663030679,0
1.37866801892642e-05,0.611952352379046,0
9.62914230634348e-06,0.516884792977136,0
7.94446930812515e-06,0.489911782016815,0
6.45499062624711e-06,0.45878154733022,0
6.67728539220945e-06,0.468133902854924,0
6.57013117178338e-06,0.455658629847512,0
6.98336565213788e-06,0.425515322229684,0
8.82994577007482e-06,0.390631035179295,0
1.81726158434073e-05,0.518247045206917,0
1.89397048115042e-05,0.41101145662174,0
2.13614052318747e-05,0.453197540029586,0
2.40273087350904e-05,0.481709709392402,0
2.48230551986154e-05,0.490098783349686,0
2.52090118938992e-05,0.477780697293592,0
2.55156996436447e-05,0.47542213584546,0
2.43229564838672e-05,0.470874490521711,0
2.20524488767635e-05,0.47280502352336,0
2.08599921485072e-05,0.586038636065558,0
1.00397861533998e-05,0.449946522938564,0
6.63541959326027e-06,0.50380030008554,0
5.87171014042046e-06,0.52052264242478,0
5.57775041068943e-06,0.503751686493794,0
6.84684285590647e-06,0.56419876466079,0
5.84542030504274e-06,0.514356908508041,0
3.50112101272388e-06,0.395514392408993,0
3.1785120458333e-06,0.392757368954431,0
2.36062299138902e-06,0.315325276734801,0
3.51585274944961e-06,0.381374403985357,0
4.04836313948277e-06,0.41666178940955,0
4.19936210076393e-06,0.421013035525438,0
4.28751056834119e-06,0.405146582153694,0
4.34765973897342e-06,0.376542047618054,0
4.50010273817658e-06,0.309876597140388,0
4.26066684945031e-06,0.281908782281487,0
9.06514820961072e-06,0.3503184160325,0
1.20128233973936e-05,0.383822499231284,0
1.07575392116559e-05,0.342666926092762,0
1.09255768641959e-05,0.327323073678286,0
1.10743704331576e-05,0.331345567703653,0
1.39910437914485e-05,0.343357275213775,0
1.5597198767029e-05,0.345077635988306,0
1.37005578950931e-05,0.335975490427327,0
1.54719963182476e-05,0.405679333752002,0
1.60179937645824e-05,0.399990697762693,0
1.20490919738044e-05,0.384394996852891,0
6.67102069874636e-06,0.29478990268171,0
6.04753360151769e-06,0.299389857693803,0
4.08341876460603e-06,0.243918833162697,0
8.09695693095427e-06,0.29116363554824,0
9.73412011083053e-06,0.31412747868701,0
9.05859375234268e-06,0.320656289042279,0
9.11235725312324e-06,0.321974544701584,0
9.25491467035661e-06,0.33500539045105,0
1.03532282974387e-05,0.377359880237332,0
9.93696303256634e-06,0.40201878469825,0
8.46944554946572e-06,0.369505110856476,0
8.8233333600458e-06,0.351261675146555,0
1.02286659369025e-05,0.389264721477546,0
8.18521666783263e-06,0.426509992252486,0
6.39495518790832e-06,0.432396798037533,0
6.43169245727363e-06,0.426063643485731,0
7.15262596305291e-06,0.46137663848495,0
5.90541256857458e-06,0.414329565766553,0
5.10552248263878e-06,0.342414410005463,0
9.01663015810932e-06,0.341542534635206,0
9.17257480801343e-06,0.322412027675957,0
1.17514615161922e-05,0.359016408808635,0
9.86820324070613e-06,0.285156441054128,0
9.43590679332469e-06,0.276537948794705,0
1.06632571687373e-05,0.286029819088754,0
1.2846795502068e-05,0.317366261044494,0
1.08752969038785e-05,0.251870762076779,0
9.56356397617974e-06,0.235538303969368,0
9.76314748975554e-06,0.272715694826579,0
1.00995516767542e-05,0.341100361248784,0
1.02225506166808e-05,0.370452709631173,0
8.92791621646669e-06,0.390911655856359,0
8.89550845299309e-06,0.473423371569338,0
9.15759401929733e-06,0.482170282619122,0
9.12747524500097e-06,0.519289121067277,0
4.47859284652537e-06,0.318911532371466,0
2.450691289056e-06,0.265084806922065,0
3.05558018622753e-06,0.293995358025049,0
2.74587367716202e-06,0.281099803641646,0
2.77517241989037e-06,0.286476778257047,0
2.72828921577652e-06,0.281234039498219,0
2.71985288747721e-06,0.280643933814909,0
2.73701849528265e-06,0.284573499688166,0
3.60054708758993e-06,0.338662980229415,0
3.03637464123522e-06,0.313175915072498,0
3.60350267840045e-06,0.345875460440727,0
6.50844277581925e-06,0.534527280861076,0
4.87271001496615e-06,0.41497923740666,0
6.32485842585205e-06,0.302537090565709,0
1.62453076742922e-05,0.426055875230513,0
1.56800943963501e-05,0.340620334533639,0
1.42549860193329e-05,0.311047972817643,0
1.47442336591132e-05,0.287031490868739,0
1.78986414130677e-05,0.319501949106647,0
1.9579619777891e-05,0.329685380549346,0
2.39073428977921e-05,0.388214685818792,0
2.36345269431448e-05,0.367125946364399,0
2.36238136508661e-05,0.375514144085026,0
2.15031146553328e-05,0.483845079284067,0
7.95224729305962e-06,0.326138583953878,0
6.05309866027372e-06,0.358688002556903,0
5.35646663064256e-06,0.366888597135849,0
4.95496106470309e-06,0.409193434185505,0
5.25220425298995e-06,0.388256452070174,0
5.35709078187845e-06,0.384315971653216,0
4.16320696688277e-06,0.353061887513614,0
4.1180362668562e-06,0.345176600744833,0
4.06416758181443e-06,0.318953415860189,0
3.74143387160583e-06,0.267111199159959,0
8.72181359680705e-06,0.330307847194853,0
9.63865119536683e-06,0.27850438763799,0
1.00622980482885e-05,0.283647204147714,0
1.0497617601447e-05,0.295294029739976,0
9.78063082357311e-06,0.297991163783342,0
1.0846604491912e-05,0.305524739021311,0
1.41004174577386e-05,0.332166476155933,0
1.36794364318224e-05,0.332843972577588,0
1.23559308353741e-05,0.332128167253694,0
1.19153519242738e-05,0.366671728752791,0
3.93254918286376e-06,0.257629205854292,0
2.72810608505179e-06,0.299163566485899,0
2.75164359892816e-06,0.298319159901657,0
3.33876591816278e-06,0.32729953485967,0
3.25941627340484e-06,0.322680921132544,0
4.67758524193907e-06,0.254908388240213,0
8.25808148556487e-05,0.291808671977218,0
0.00029404441682507,0.519741859556228,0
0.000369892649067909,0.365598524042077,0
0.000388824462162186,0.258804278954437,0
0.00107441865825787,0.139031156647493,0
0.00167482091642155,0.103385021851692,1
0.00157295694159985,0.0962713841442691,1
0.00136766153044568,0.0879575105737033,1
0.00114321166864069,0.0761407148635134,1
0.000962002240204717,0.0638896199421994,1
0.000878665052136242,0.0561070277103875,1
0.000895972898618729,0.0551405963006925,1
0.00083851104619396,0.0549354444844594,1
0.000800375150545297,0.0488340752082486,1
0.000659535171497279,0.0517030168711651,1
0.000544605950703949,0.0606098452379863,1
0.000749190944025701,0.0752081903745793,1
0.000920559562621799,0.0846916834128131,1
0.000962299398781973,0.0895194892925022,1
0.000851593033414303,0.0850236167729175,1
0.00085486453631554,0.0930910294739936,1
0.000845587822279491,0.0971656956528228,1
0.000846552982628748,0.0933752465634075,1
0.000571469006837473,0.108522471910277,1
0.000430666149285627,0.210216044660399,1
0.000439080568688532,0.175748233979908,1
0.000535957667135642,0.129592497926445,1
0.000484333224785291,0.0881837352609009,1
0.00048686140717406,0.0987873158229934,1
0.000453502090514604,0.114005217383701,1
0.000387227429675594,0.114820381810331,1
0.000352605113144685,0.102704042567318,1
0.000351836031326019,0.108633200352478,1
0.000352579256940841,0.0979735564458534,1
0.00038362064976856,0.0884515240428189,1
0.000378447136672081,0.0979405871269304,1
0.000228227543824655,0.107350543529283,1
0.000179133376392391,0.126925499799437,1
0.000317639030977311,0.134186329089134,1
0.000329561619897496,0.0759661959643213,1
0.000314506659326078,0.0667740543357373,1
0.000350120504422731,0.0601711621283832,1
0.000364227455474744,0.0539194989271076,1
0.000347765032562503,0.0468142091922418,1
0.000366546122695522,0.0473489730505856,1
0.000389787062158462,0.0498061352712998,1
0.000408080906629829,0.0534526408490796,1
0.000372798482652021,0.0516587173772776,1
0.000312566388138502,0.0533799894812816,1
0.000288046576122401,0.07358996799617,1
0.000221487723926171,0.0661198268096643,1
0.000363603461870384,0.039685122666684,1
0.00235769069411124,0.0916997949405816,1
0.00324918542279372,0.0850076857603543,1
0.00493071290929666,0.0994140017366344,1
0.00576112015071654,0.100982801471287,1
0.00722771809793806,0.105113219771167,1
0.00756396731925387,0.101407777043298,1
0.00680661231233227,0.0740079949195263,1
0.00540713160012763,0.0585651498363234,1
0.00347086735569441,0.0450103817285183,1
0.00228160931269519,0.0188346348820917,1
0.0127830774991415,0.0400831528667939,1
0.0132944600051727,0.0192410307011342,1
0.0127358981158521,0.019181661976388,1
0.0120548695686609,0.0179541464999522,1
0.0123714414375037,0.0160688534412523,1
0.014514773983086,0.0187607315506721,1
0.0150451818255079,0.0190033201082388,1
0.0145319977140335,0.0171402828330384,1
0.0160736530086915,0.0165171185700092,1
0.0160209791292034,0.0182230079266011,1
0.00849655352439868,0.00838044356670454,1
0.0115493660866983,0.025025731560486,1
0.0120811646255824,0.0183862461665354,1
0.0123387490622256,0.016496895987994,1
0.0230596494013499,0.0224246606699555,1
0.0604095231039721,0.0223165430836745,1
0.155054418670797,0.037400804483458,1
0.158174076585198,0.019013265336262,1
0.154453579616444,0.0190518583567955,1
0.13953330974875,0.0178854378730088,1
0.125529335554655,0.0149527413202116,1
0.130052297913559,0.0151888611137407,1
0.112210119897402,0.0108697916632057,1
0.0988874855941726,0.00922670311252878,1
0.0942871139707946,0.00832517859904876,1
0.0939622934313572,0.0128813702686311,1
0.0488264892450156,0.00213437539099696,1
0.0537492474040395,0.00901180157283007,1
0.0519810863559946,0.00457656343666376,1
0.061530889125266,0.00634421706961331,1
0.0618798794332053,0.00668210717275829,1
0.0543069123673161,0.00536038467076511,1
0.0528852679473651,0.0073186317261163,1
0.0442555542139907,0.00557014486957604,1
0.0526945404907553,0.00598899822250811,1
0.0666790781544959,0.00990945010964485,1
0.071581800959894,0.0162535256251629,1
0.0500687858749491,0.0109047417537115,1
0.044692310825965,0.0134368406324988,1
0.0551697633578316,0.0156557139526431,1
0.0638728747235803,0.0225376131391747,1
0.0648145756676918,0.0201506711239678,1
0.0668366833568796,0.0164007598995784,1
0.0785815726776226,0.0195723839720331,1
0.0706957963089468,0.0218271088425236,1
0.0485991472605253,0.0133202838480104,1
0.0411355933095155,0.00851807142855419,1
0.0423343260162311,0.00565588740928963,1
0.0366504219337389,0.00342470990618062,1
0.0366928897703094,0.0025686294462451,1
0.0399757247532715,0.00134026125100809,1
0.0523911733733642,0.00420380742201171,1
0.0565660839182944,0.00582325324001275,1
0.0620427783727023,0.00673689610471499,1
0.0636470703198675,0.00750182818596217,1
0.0518575127275136,0.0049501091983433,1
0.0618480687823825,0.00828886894459332,1
0.0548968547113651,0.00986304459363111,1
0.0462462986228957,0.00964044536027762,1
0.0390427829517238,0.0126140351183643,1
0.0144403901636519,0.00166038446636039,1
0.0271295911304112,0.00880856255893837,1
0.0266925938836504,0.00791379293581341,1
0.0256561572608072,0.00816447557443551,1
0.0275023226387959,0.00946538065829441,1
0.0337535549765497,0.0152788308916749,1
0.0294064492014989,0.0115781318277817,1
0.0302140131059034,0.0115847866717321,1
0.0310244261498649,0.0116416694486308,1
0.0307379824325099,0.0123268071028081,1
0.0316204577168482,0.0205804337356828,1
0.0119510563753249,0.0111545398516408,1
0.0111446469312107,0.0134081174916834,1
0.00979518405188633,0.00953358228850814,1
0.0092281311898836,0.0118334341799402,1
0.00807300274092796,0.00915892682912631,1
0.00825236451871362,0.0164414548644619,1
0.00672556843019731,0.0186183242703335,1
0.00677017226138044,0.0233272443231593,1
0.00383759090728739,0.012897242182796,1
0.00750171025892487,0.0133509442179464,1
0.0122616638404694,0.0155053893480353,1
0.0116681238521867,0.0148537074017562,1
0.0146279758893844,0.0184006776582222,1
0.0181794238127102,0.0221438564594193,1
0.0223039162264951,0.0267202522220489,1
0.0189140070749942,0.0231442327591121,1
0.0176869229483294,0.0143332361843172,1
0.0175928213090235,0.01291056182908,1
0.0116989797856028,0.00563261401114458,1
0.0128059670899941,0.0105011480515769,1
0.0120608112479224,0.0127471215154476,1
0.0112069244191636,0.010217603588637,1
0.0162798331222036,0.0118730588384953,1
0.0166510490654853,0.00917866850401431,1
0.020052432137659,0.00946039783909273,1
0.020473755400128,0.00558368462988857,1
0.020820202446515,0.00799639312039185,1
0.0181863811467065,0.00711481439545482,1
0.0186856776148646,0.00875798744276316,1
0.0165596344092749,0.00709550267940144,1
0.0206677594386189,0.00655054404862749,1
0.0237300461013342,0.0038577915531596,1
0.0237015002797175,0.00486814685981607,1
0.0225523137660297,0.00508029609233606,1
0.0233802508192581,0.00689980166188531,1
0.0221522582698805,0.0095044402545049,1
0.0216438043682322,0.00890883580953197,1
0.0213566873759835,0.00834635845540226,1
0.0221265762563892,0.00903168775576275,1
0.0217336605325704,0.00800431582795325,1
0.0191897915484092,0.0110250349746973,1
0.0114250256168524,0.0121447904342197,1
0.0111099572451747,0.0129418176855457,1
0.0103590123504061,0.0128080608390614,1
0.0104431315085526,0.00949795731074105,1
0.0118801450727247,0.00747666661581746,1
0.0104296411953059,0.00306011474875629,1
0.0161282024143977,0.00532876275819752,1
0.0175135833838596,0.00405871909003807,1
0.0246146472760763,0.00879064414152127,1
0.026833672435091,0.00913437609494376,1
0.0281098697119046,0.00670719294293858,1
0.0352057058809981,0.00874293756404707,1
0.035017710812458,0.00894359447694592,1
0.0348257708578962,0.0105099825836845,1
0.0392315313505221,0.0127588580442504,1
0.0530983799853406,0.0211719009943594,1
0.0536910519396385,0.0236245942617675,1
0.0600633300754027,0.02657004226579,1
0.0772891873537948,0.0329286727110142,1
0.0900684591732134,0.0371970441618457,1
0.110941521001078,0.0481357337209073,1
0.10956364216619,0.0362222069225378,1
0.0886918625425821,0.0291333049384956,1
0.0772378291309261,0.0229854192007638,1
0.0616112818907454,0.0195323511324431,1
0.0633938284967266,0.0172207007408005,1
0.0565313266565863,0.0176626533651342,1
0.056923045689793,0.0233609557557741,1
0.0636431237658204,0.0242885015169065,1
0.0725710944354257,0.0248899681208206,1
0.0541433616510816,0.0208644095201669,1
0.0510582430654369,0.0228784326217072,1
0.0514502164181053,0.0247324593185488,1
0.0341027826045225,0.0219010673582802,1
0.0254494383443942,0.0153454088243018,1
0.028182795151702,0.0076942151236472,1
0.0335872126526372,0.00572235978900085,1
0.0389641475237466,0.00689932655153025,1
0.0448649242887019,0.0101629258135658,1
0.0605139672758139,0.0155738219084337,1
0.0691372662632774,0.0166763084541039,1
0.0646196822003606,0.0163263429005644,1
0.0634341825538612,0.0160810779701762,1
0.0659724291848488,0.0165153181986903,1
0.0633748329145874,0.0152898260826512,1
0.053978614246698,0.0292829157744178,1
0.0243173005818402,0.0245553326380607,1
0.0242497412896822,0.0163928451946601,1
0.0249630589808971,0.0128085688325636,1
0.0520566008608884,0.0141751113423116,1
0.0774923341393872,0.0113390574760072,1
0.0754879616920643,0.0120231288687047,1
0.0732100009837837,0.00773233093082229,1
0.07460105976301,0.00542806502043403,1
0.0757670349952418,0.00546270976034112,1
0.0757972797588406,0.0049730616677658,1
0.0751391052212454,0.00496841498149696,1
0.0691902182480687,0.00507187569004296,1
0.0686531384385794,0.00555710012537497,1
0.0702709405711379,0.00872223747759078,1
0.081262876952489,0.0177450294162001,1
0.0666361762501519,0.0139743555146182,1
0.0673529872681678,0.0253249975364121,1
0.0736465546896679,0.0474413977257649,1
0.0532054168883705,0.0273887028589029,1
0.0372357271576267,0.0185015881804781,1
0.0282139893808833,0.0102466488979919,1
0.0319249438671375,0.010147766307484,1
0.0380712247926712,0.00813496596624242,1
0.057923092152347,0.0145909189248061,1
0.0701741038651857,0.0158853125839336,1
0.0801425972564243,0.0164786091049041,1
0.0917523644302052,0.0152955563495293,1
0.0826313245565028,0.01238100532654,1
0.0897885286862567,0.0142570469891102,1
0.0935278528241089,0.0138594478826787,1
0.071967954239636,0.013533262929711,1
0.027836768314555,0.003288234033888,1
0.0242146658284879,0.00547176988994567,1
0.0371725164933085,0.00788142434768,1
0.052352502994034,0.0115085850931792,1
0.055566727350182,0.0138094438316619,1
0.0465079299924042,0.012809147285498,1
0.0454781005987581,0.0156427974394199,1
0.0329826440980449,0.0145096965542021,1
0.0270522427115548,0.0139331867861,1
0.0331538131844157,0.0163659904265211,1
0.0342511443673171,0.0148552238427393,1
0.0365926220447427,0.0160292186565433,1
0.0382057297977838,0.0281482653982105,1
0.0371512613438843,0.0234048256493446,1
0.054906509176565,0.0241405248746346,1
0.0724062439338047,0.025010524283969,1
0.0719361951175106,0.0186410969083633,1
0.0790523577724443,0.0204739501178304,1
0.0854869856239912,0.0174543410237543,1
0.0877905060642784,0.0159993302650521,1
0.142715893569334,0.0105542825027566,1
0.214827912296301,0.0172969853884742,1
0.270135888246387,0.0214545963422261,1
0.291701205354756,0.0212521798297707,1
0.234775265246913,0.0206825377296254,1
0.14825776198982,0.0143468925732707,1
0.141628013000043,0.0109235146282678,1
0.187938273733326,0.0158797882791963,1
0.199363543371145,0.0137349611489475,1
0.167064751478309,0.00926273421755221,1
0.203470489870099,0.0248183989423636,1
0.182705255452218,0.0177817313990575,1
0.134846244375107,0.0125629174048581,1
0.0972574448364394,0.0106765558872577,1
0.0925827492350689,0.00914283036408041,1
0.0695400014245374,0.00561725029611372,1
0.0685577436539695,0.00579406386920813,1
0.0743433582287566,0.00555659952869036,1
0.0672326747042817,0.00909691507458914,1
0.0577629803894599,0.00964317857159107,1
0.0752839989773798,0.0141203839180818,1
0.113979981408544,0.0252072626389996,1
0.124401691475267,0.0252236795048441,1
0.106982380568933,0.0210419395459445,1
0.104951564291838,0.0218355045950145,1
0.126135531480729,0.02500072512045,1
0.130324862597205,0.0414439676966824,1
0.0654127850107654,0.0330593025593576,1
0.0462944974566809,0.021262395233717,1
0.0294995186821379,0.0194156161299339,1
0.0283106908195859,0.0209276216862727,1
0.0310448442043998,0.0130847771093456,1
0.0583655089994763,0.0247471753998693,1
0.0608277202675967,0.0170495275623407,1
0.068737298152213,0.0193807657664694,1
0.0852905889647612,0.0206118941667344,1
0.0815790083097906,0.0191316241175257,1
0.0787460253774386,0.0196742811457631,1
0.0637593140550645,0.0159360065619778,1
0.0471513198279272,0.0113155538447968,1
0.0312806915503734,0.00556103430843161,1
0.0348645888340709,0.0103094006151794,1
0.0279404169579806,0.00723946497930417,1
0.0275864239600968,0.00938172863869953,1
0.0451602974746829,0.0225878718084793,1
0.0408351618564576,0.0108919329733342,1
0.0459542289319132,0.0132025824693584,1
0.0463486356508927,0.0129791599884448,1
0.0455852364527951,0.0131634392499489,1
0.0450569825029717,0.0126271907128166,1
0.0599176224248976,0.0125518754621325,1
0.0712054582086601,0.0153118030565103,1
0.0673140174748838,0.017161369137568,1
0.069502553171431,0.0216912882662558,1
0.0666775137197129,0.0205817007298776,1
0.0783418205515458,0.0574042032837017,1
0.108455670650493,0.0567310856194118,1
0.101592678600552,0.019738221779087,1
0.0852729309491519,0.0123318265401519,1
0.083126324270917,0.0106913789902026,1
0.0785205503617169,0.00908742093465238,1
0.117814392211388,0.013231814311488,1
0.143615317459248,0.0140870456112843,1
0.143777601933009,0.0103445954659743,1
0.152834030616129,0.00923989473081547,1
0.168994227057939,0.00997179106652003,1
0.143833503925442,0.00612180492266054,1
0.136769036150963,0.00690739578934254,1
0.135433400664946,0.00955374105326906,1
0.100437308634624,0.00577138124772934,1
0.0985696540431091,0.00611941072255403,1
0.0856997829686226,0.00683116939832119,1
0.0839058439977299,0.0063088694777825,1
0.0804021996129862,0.00960919802232634,1
0.0683061168340318,0.00816888485868419,1
0.0739734310520132,0.00841982966012762,1
0.069579522961284,0.0105466288550906,1
0.0630613566699848,0.0107164319975395,1
0.0618374137523326,0.00934975757861277,1
0.0616271749316927,0.00757884413867793,1
0.06064378622415,0.00911689987170589,1
0.0636719677782978,0.0100343863792296,1
0.0454278721259916,0.00705717141060355,1
0.0536849552809303,0.00768987824186796,1
0.0658656600894959,0.0153206865364953,1
0.0730575646362536,0.0177059789492014,1
0.0964144032743329,0.0149429118133428,1
0.095614055700609,0.0141430453696503,1
0.0973351072342273,0.00838434018044861,1
0.146610053912162,0.0120825718570847,1
0.211699677470344,0.0171750220543558,1
0.274553595660848,0.0208062768702413,1
0.471456681768222,0.029142221370496,1
0.699336730019356,0.0374691872409434,1
0.895626694145359,0.0466554592520212,1
0.909706379248573,0.0263792215307263,1
0.846194591063392,0.0320282000703523,1
0.593326695943491,0.0229045025801435,1
0.375390520136333,0.0188894017749918,1
0.495851432138729,0.0221420331481595,1
0.682530627493557,0.0263313943786166,1
0.739165033626608,0.027988964970066,1
0.752185357788369,0.0373643794643678,1
0.671230568063814,0.0340045834768731,1
0.440529646794739,0.0261214514088972,1
0.265339172237459,0.0215125208853376,1
0.197448543342121,0.0120279636222115,1
0.150443455384077,0.010118507493134,1
0.109421508378279,0.00560901079556694,1
0.0936556868237353,0.00915091311366412,1
0.0943590341375148,0.00970474892030435,1
0.102139194946781,0.0112947588014899,1
0.106161773504499,0.0119850602921747,1
0.109720753130477,0.0107388255368302,1
0.126571883839017,0.00798017177788841,1
0.124024878755539,0.0138997553235425,1
0.0728858032935286,0.0112922212938096,1
0.0851071591017871,0.0121401476135998,1
0.0945184389863934,0.013357347037072,1
0.0816231351936627,0.012910318480759,1
0.0652831534341371,0.0126998090337906,1
0.0685510128083458,0.0133909597913419,1
0.0710777380883822,0.00981045009795383,1
0.0383049347522966,0.00419933218305622,1
0.02998861932474,0.00955951738258457,1
0.0319123564439984,0.0101560996366256,1
0.0294976257170647,0.00781028651107508,1
0.0300998631550241,0.00847973164651549,1
0.0302421176530309,0.00796922661139731,1
0.0285300924620188,0.00700261871063165,1
0.027896603426281,0.00754904633275238,1
0.0214758007554054,0.00477535680027178,1
0.0513223936972452,0.0269832737159407,1
0.0687324623321729,0.0261451747336126,1
0.0763701451651266,0.0308605529066771,1
0.0997728152937976,0.0333366251104685,1
0.0898810309088994,0.0263607476829029,1
0.0917098119003108,0.023360905062132,1
0.0771312175434988,0.0172738170969337,1
0.0619153443195676,0.0123230340238437,1
0.0454944911405427,0.00656059337615043,1
0.0337256913393394,0.00185164316456005,1
0.0393836728910531,0.00412635027066215,1
0.037775911500434,0.00385865925034077,1
0.0371691017485679,0.00403563290237747,1
0.033280044512607,0.00325208584044043,1
0.0328245961720634,0.00382346224300419,1
0.0311832268822117,0.00443933911042314,1
0.0313030827215476,0.00440723397068459,1
0.0378154540084013,0.00896569545137693,1
0.0383789419271747,0.0104699464712614,1
0.0365509060357153,0.0159537509909476,1
0.0177525940770903,0.0112556014305906,1
0.0176938779787035,0.0112173241356421,1
0.0182311736346999,0.00823070774752252,1
0.0203139780140954,0.00802657391825243,1
0.022538852190543,0.0058228980008731,1
0.0352625585502261,0.00725656178810362,1
0.0418589660614931,0.00158814527168471,1
0.0667432836563376,0.00607332664471745,1
0.0694805906455353,0.00603141545773639,1
0.10004918013224,0.00602019275652627,1
0.147702364765603,0.00510739294817866,1
0.170233432967595,0.00647949274846304,1
0.181296660510452,0.00748682693967012,1
0.179484227070308,0.0054887859792854,1
0.26483710879314,0.0089397119418896,1
0.257554539538162,0.00542063638474338,1
0.245232083245618,0.00712523876408305,1
0.252182524239698,0.00805505292240403,1
0.255033036663069,0.0080437432199238,1
0.239143103646983,0.00961874916866952,1
0.203836551833262,0.0125910375915272,1
0.182158557241098,0.00652691264763929,1
0.319095423417389,0.0114906918480171,1
0.364243850053663,0.00843022750586153,1
0.340187172851573,0.00912277890826495,1
0.331270316933016,0.0118910304904152,1
0.299801405293239,0.0110830217493646,1
0.261560223403903,0.00894911169884287,1
0.249042800326831,0.00840644529331071,1
0.231090524127224,0.0073694428434815,1
0.210279968686519,0.00496952556861951,1
0.192297982572097,0.00284067724998866,1
0.165149438945976,0.00345612294355848,1
0.133294583785461,0.00523136802558651,1
0.109338541514148,0.00437490322709684,1
0.114081263287289,0.0055370411422928,1
0.10885783737862,0.00437624660595648,1
0.114010066704689,0.00469992940000841,1
0.161419556340246,0.00880903992601143,1
0.174180232059816,0.00648694055209379,1
0.159478102765815,0.00855344249378367,1
0.148964767615826,0.0127695643824698,1
0.164993487049658,0.0122684927857297,1
0.157564683578435,0.0113448210555848,1
0.149630105218705,0.00994367108021203,1
0.135715061929799,0.00784045937386103,1
0.124125157478511,0.00710218436341689,1
0.152511778322259,0.00866795345447335,1
0.17749674955025,0.0101465445568475,1
0.201211814490377,0.0207316054018339,1
0.160682775138658,0.0166389958962312,1
0.18533922673725,0.0271310579724322,1
0.186864079567693,0.04244926873863,1
0.134479328765311,0.0331874187431424,1
0.103805240989362,0.0253414946824725,1
0.0915412248521194,0.0214598136030176,1
0.0501826322912884,0.0128497361416524,1
0.0587744245590109,0.0232073830831115,1
0.0972854138943581,0.0271055744528485,1
0.0968595256268398,0.0280560792841522,1
0.0856227333252255,0.0240536617492426,1
0.0735853319974549,0.0207725087720656,1
0.068216855593034,0.012396306614081,1
0.0753084089074839,0.0130327951662537,1
0.0613204256905906,0.00834778524101748,1
0.0623042177168963,0.00881635971994764,1
0.0769979326410444,0.00749140397705153,1
0.0858269530621436,0.00977931240352693,1
0.112480165760638,0.0130690037262897,1
0.120257143245896,0.0133523207393434,1
0.117875218208839,0.0135374864828186,1
0.0985304447245442,0.0108852417504279,1
0.0736511220416592,0.00890918529955205,1
0.0761240423339822,0.0102526874613567,1
0.066792226299177,0.0104689312270999,1
0.0310790928581893,0.00149878142160174,1
0.0294076535838912,0.00244763897611864,1
0.0255608085847178,0.0012812779595986,1
0.0209443213344139,0.00230048271970535,1
0.0184311330553827,0.00382987629435266,1
0.0195186157785349,0.00332093108057445,1
0.0317485867689037,0.00606886135811124,1
0.0419810846872448,0.0104724535497141,1
0.0451497575974935,0.0113097177407559,1
0.063799951640287,0.0153760566005173,1
0.0758348290309984,0.0252202030541258,1
0.0793860242524689,0.0281167933475977,1
0.0785275589628988,0.0294559825458914,1
0.0657885951570014,0.0258807198987073,1
0.0560795480810387,0.01403789539719,1
0.0375387922159551,0.00790486329021105,1
0.0356938057582336,0.011234375248651,1
0.0359493614272152,0.00991975789551377,1
0.03677815890016,0.0105201393681702,1
0.0370195069380619,0.010521190554718,1
0.0360849706943712,0.00859969117686495,1
0.0362848983928717,0.00763046259476984,1
0.0452734508304763,0.0102674165799238,1
0.0488679194743455,0.00922088970140769,1
0.0543266736287225,0.0114895739829698,1
0.0713850099776183,0.018091806906608,1
0.0664698027992319,0.0137146078160753,1
0.0655596194224591,0.0149856789246441,1
0.0669005168132965,0.0132212304127508,1
0.0723933239984411,0.00941607531663064,1
0.186482753993445,0.0210934346727905,1
0.234125062000903,0.0181669816324604,1
0.266267661563731,0.0150435184867946,1
0.288899253326941,0.00800905277984134,1
0.306714704675745,0.00689285776975559,1
0.315723849564838,0.00629113080792327,1
0.333040239853801,0.00772901118202688,1
0.279209336708896,0.00475828936912745,1
0.272342530100434,0.00459807003830391,1
0.31822183877492,0.00772135377070973,1
0.28795811655006,0.00736062899020136,1
0.304555797514138,0.00438569241449341,1
0.317953874537335,0.00392964922139529,1
0.303968585460848,0.00700211173081271,1
0.289445067171395,0.00794731207866935,1
0.317080613642315,0.0102262912576604,1
0.302719089047486,0.00887498214345791,1
0.289514813514403,0.00916843773136301,1
0.307049401720591,0.009839659682945,1
0.327308296931188,0.010264755303892,1
0.322061999006275,0.00906371082109531,1
0.239580799618013,0.0213717090702795,1
0.0675931676331295,0.00957352370466715,1
0.057986715556229,0.011210955243324,1
0.0477549427232743,0.00932876904319045,1
0.0585216635332729,0.020620320732478,1
0.0717801541037555,0.0280594536016288,1
0.0659211857449571,0.0231152804362844,1
0.0572955502500948,0.0229960788052066,1
0.053325750643553,0.0291266639017141,1
0.031812755885684,0.018736332345973,1
0.0643040214955412,0.0249844972682284,1
0.10888265283201,0.0338553837701689,1
0.119181136667064,0.0376940538729107,1
0.119860160302558,0.0413662597643975,1
0.10178868885772,0.0375876057828558,1
0.0817775930040536,0.027810342181641,1
0.0664198399383123,0.0256863993752676,1
0.0679701555418814,0.0265182881331401,1
0.0526025198688855,0.0151859061769575,1
0.0571694395318857,0.0159847711200181,1
0.052450786368384,0.0183964813995798,1
0.0321823917609907,0.0117540406149072,1
0.0317593864212277,0.00840133759231846,1
0.0496553323709723,0.0127985122261142,1
0.0534954915497606,0.0101068988775106,1
0.0711585069668458,0.00606595915550162,1
0.0891152636756523,0.00640281783056856,1
0.0698100793389823,0.00387306100707014,1
0.0692403232292967,0.00516078849984167,1
0.0678924161621088,0.00494342493948475,1
0.0684181880900767,0.00420600918634569,1
0.0835249415423857,0.0063928907006533,1
0.0876648982104346,0.00574708950432554,1
0.105477417160109,0.00654152301543991,1
0.115332232723067,0.00795358746913169,1
0.105685421331558,0.0129536229193863,1
0.0903992171358615,0.0131895043406379,1
0.105161595238098,0.0144309547427603,1
0.105543293837606,0.00968873573190839,1
0.108055014506285,0.0078147792005795,1
0.100993111543237,0.00878941131122146,1
0.0727721976332419,0.00510059262381143,1
0.0595238728322749,0.00541482982847826,1
0.0529593248632429,0.00418794128737808,1
0.0722819566275036,0.00854319926646319,1
0.0929940736051707,0.0117801661889222,1
0.0864667967819854,0.0106675386198807,1
0.0874327548328868,0.0107577025416607,1
0.0703400620132913,0.0138625841659004,1
0.0731269559509409,0.0148634658999746,1
0.0814537084169189,0.012286899246645,1
0.0648790556597434,0.0101845090305111,1
0.0628277349105498,0.00930342496701425,1
0.0651514492919034,0.00787303242365776,1
0.0614487670081073,0.00629915348096766,1
0.0800087256319593,0.00292330214949629,1
0.271872644912167,0.0170822840784441,1
0.420847958924289,0.0292925082856558,1
0.444834301760755,0.0180129106444157,1
0.442322787193971,0.018242631338948,1
0.54230534086531,0.017249808870911,1
0.598141896660687,0.0168344743450754,1
0.454729930760214,0.0111288218031569,1
0.390884240697992,0.00929016372430221,1
0.303562593783271,0.00357066728602967,1
0.281785139351802,0.00467139110958065,1
0.284319196192892,0.00382500437737365,1
0.377020576605784,0.00598405249071852,1
0.459810619740075,0.0112227154921787,1
0.497589995736246,0.0115163331265323,1
0.454443752236287,0.0192079231375701,1
0.434803985634851,0.0100614314063918,1
0.555877157024659,0.0125835185805765,1
0.558843818547494,0.0142145360665634,1
0.549118632404162,0.0175035365564088,1
0.481379847488586,0.0159070150263776,1
0.473956485387251,0.0175546303778709,1
0.468099564269136,0.0165308346354361,1
0.432060322642399,0.0150069395271427,1
0.415757850498971,0.0167725802842637,1
0.509227129857159,0.0182743519606639,1
0.461914503543809,0.0309200595273489,1
0.237648688499664,0.0217566322083681,1
0.150592542540422,0.013630049667826,1
0.124233316728902,0.00547290475933036,1
0.169643342535117,0.00314842897073124,1
0.228112403994256,0.00683556161620551,1
0.308722424852974,0.0116939620212407,1
0.354696557387837,0.0140805462772684,1
0.358030821654329,0.0130138592742252,1
0.354288034730636,0.0137555215257958,1
0.353149546243166,0.014381179885526,1
0.35532772244281,0.0142600712391487,1
0.335399983964332,0.012208849889197,1
0.222894273953768,0.0146397812751621,1
0.0257203657905358,0.00468190887397163,1
0.046199543143045,0.0251418653256886,1
0.0439943304840581,0.0115867790078998,1
0.035732985491914,0.00665845304581384,1
0.0604409453110569,0.00947754491546161,1
0.0681069566892805,0.00649290685460415,1
0.0688778871836359,0.00651672437118475,1
0.0624239834919912,0.00491811022758923,1
0.0648382629998868,0.0053640803143168,1
0.0617341753906943,0.0032373062624686,1
0.0718835500238833,0.00575118524821152,1
0.0790990348422094,0.00582284108016245,1
0.0760504504049799,0.00766504694004547,1
0.0573010116794622,0.00498714370201294,1
0.0515761602674242,0.00541963592375456,1
0.0500856595122533,0.00877696615311233,1
0.0766430427358063,0.00672632806003654,1
0.12798380357632,0.0158426011726476,1
0.112455205323783,0.00939297212022465,1
0.106549004137659,0.00927566589304107,1
0.240370922799961,0.0133133491202793,1
0.33725085684075,0.0167727613011746,1
0.321011248344129,0.0167823734261179,1
0.303410524151685,0.0134350637467403,1
0.255678127280284,0.0130704582618369,1
0.19096593548627,0.00798878497471811,1
0.202045389371035,0.00980264047491433,1
0.211932972418368,0.00930933925880373,1
0.207816029709245,0.00975938337936461,1
0.184860891432707,0.0090266070008844,1
0.146854836738781,0.013875055365519,1
0.0903116534595985,0.0087857083479368,1
0.079170581630881,0.00657969247218247,1
0.101708479778153,0.00317702143707013,1
0.174602029711996,0.00650349247127059,1
0.16375447460356,0.00496269629569265,1
0.140820995865451,0.00487216638875309,1
0.130972985144664,0.00458818722277155,1
0.133984487832769,0.00530176694355537,1
0.129863067069471,0.00587693580894816,1
0.115624324124168,0.0050724060299518,1
0.119876796019728,0.00573422022125993,1
0.0914311048845166,0.00318446394654315,1
0.083351344233446,0.0126395326806858,1
0.0906712390616203,0.0205837820048129,1
0.093357388748578,0.0131901496954916,1
0.11128465756148,0.0131249293352738,1
0.185489701901773,0.016838219439296,1
0.306931320273965,0.00366383117683992,1
0.523661891554346,0.00874150181538831,1
0.54073685429248,0.00778127994255416,1
0.547896790236571,0.00819321662464239,1
0.564659974996211,0.00696418999667377,1
0.590997418922474,0.00684059415974699,1
0.586604811651878,0.00704947807004485,1
0.581131195343882,0.0083446679529148,1
0.486847265387169,0.00577331947303113,1
0.295738288196927,0.000954266433633223,1
0.277903253631652,0.00653803291369954,1
0.201880567579357,0.000510974834037877,1
0.341275145128356,0.00528076909294976,1
0.351694658666055,0.00162058623861713,1
0.350886359949763,0.00148551886479519,1
0.461457506881378,0.00352439640871221,1
0.54239032350728,0.00368392945516996,1
0.539907053942805,0.00307198031070386,1
0.526302832799976,0.00306567310418033,1
0.522868880696863,0.00264051280216566,1
0.420850781457734,0.0010687535064246,1
0.364900326516104,0.00137639926668865,1
0.419146123819192,0.00222138160858128,1
0.481896001754979,0.0102806349074041,1
0.455087282290254,0.012114499157502,1
0.523391330535833,0.0173345337967657,1
0.567388532709013,0.0274448305948814,1
0.49289321698451,0.0366197873949916,1
0.36830775675982,0.0313373223416725,1
0.3020100216687,0.018817078409642,1
0.189155313182335,0.0152764595321309,1
0.062389838156384,0.0108200188371083,1
0.0640195965798562,0.0136073284487262,1
0.0724637010914763,0.010595785918933,1
0.0789187558412944,0.00503905076403141,1
0.104848325846168,0.00839237272978116,1
0.142014824158369,0.00352951173433976,1
0.185640035220104,0.00284085788842856,1
0.188230747166562,0.00233555574639693,1
0.215140943028619,0.00556884736999322,1
0.22773047913978,0.00602391753865294,1
0.237847862572347,0.00638754605000599,1
0.24596306770809,0.00669751111433402,1
0.22800655638837,0.00644436050788463,1
0.215886747152297,0.00834549722215847,1
0.216795531844979,0.00749063483268993,1
0.139427754666379,0.0170625203358863,1
0.00912602063432216,0.00275017915689653,1
0.00842795146184364,0.0175285402310239,1
0.0110108233937737,0.0219431460716846,1
0.010300100063958,0.0164961867559521,1
0.00870635243765511,0.0172611430097385,1
0.0087550678509061,0.0151227436300226,1
0.00931249722172109,0.0144207423718525,1
0.00974915967074547,0.0187534509365704,1
0.00906860632851573,0.0185567985022663,1
0.014044650741683,0.0160766287572627,1
0.0207263927468504,0.0226722119770972,1
0.0269623706933696,0.0180909480762068,1
0.0265119859463412,0.0175209317345601,1
0.026997713670304,0.0162899539313238,1
0.0314434275934971,0.0183369187894633,1
0.0334032436318016,0.0192764755175144,1
0.039718490250322,0.02267150134562,1
0.0434086321628256,0.018726166278491,1
0.0463638993964274,0.0167188031638468,1
0.0444626661460349,0.014522154814388,1
0.0415859404806982,0.0139863219023607,1
0.0283496821510136,0.0101264661404372,1
0.0260556489752566,0.00845115801510818,1
0.022662617453592,0.00901519969108345,1
0.0239904005769416,0.0100331374939718,1
0.0239626707788801,0.00888696623455222,1
0.0272141360443116,0.0100051020607412,1
0.0281923590525287,0.0136128533086222,1
0.0141684454292322,0.00733079253735208,1
0.0118462143175017,0.0184514879553905,1
0.0110381640597633,0.0161877132359612,1
0.0108133883720336,0.0160692818399323,1
0.0115767386401805,0.0176917704647433,1
0.0111940166901002,0.0171809191516149,1
0.0108334805167573,0.0163380643153744,1
0.0102468296732239,0.0184408595917446,1
0.00615828902983769,0.021786714677032,1
0.00335578380438045,0.0227570005355358,1
0.00420916791423538,0.0218012970773276,1
0.00408867324524347,0.0250954374239119,1
0.0042034679091431,0.0275441184260219,1
0.00406186050326239,0.0308937089850295,1
0.00337724100610577,0.0261482976491473,1
0.00303874136317518,0.024281763117629,1
0.00265180748741511,0.0128344845572934,1
0.0031339636316881,0.0122364484200793,1
0.00310609773779729,0.0117122317079579,1
0.00319363548657451,0.0126030540275834,1
0.00284505403594352,0.0131719799616092,1
0.00282394873511837,0.0137825627274116,1
0.00290761717725685,0.0169879204999598,1
0.00330855490929454,0.0222434073147746,1
0.00328918556589415,0.0183453174120458,1
0.00272016101375936,0.0132693489448171,1
0.00247133924480165,0.01797722381304,1
0.00228889316993275,0.0277926690311157,1
0.00200922549787785,0.0289668518697092,1
0.00227847895374335,0.036347527292089,1
0.00144586471891406,0.0235566583247447,1
0.00117558146508734,0.0225659550014029,1
0.00160538989902211,0.025202092009219,1
0.00209709309001,0.0229424544668178,1
0.00185759743039975,0.0227633746795711,1
0.00385199357374803,0.02437023797807,1
0.00671804332112126,0.0427670787164863,1
0.00696582035942982,0.0392664373474295,1
0.00653079854031948,0.0325305521670316,1
0.0125571991887072,0.0228345670294645,1
0.0268224571158643,0.0329742289725002,1
0.0735288057987311,0.0494467551220147,1
0.0790016310637097,0.0220557336646888,1
0.0735980365429791,0.0219442378311904,1
0.0616528440060711,0.0185181906755073,1
0.0575718120885155,0.0177410146321607,1
0.0551502362897623,0.016346210202011,1
0.0482401668546953,0.0135322046133291,1
0.0364898899287236,0.00812800382503949,1
0.0362262107734858,0.00981123763892828,1
0.035471338538908,0.0112795432154238,1
0.0121069135043898,0.00184800560434717,1
0.0148338655181592,0.00496663144492978,1
0.025851958564659,0.00707723151528364,1
0.0245711874284833,0.00681902289596897,1
0.0277022282838079,0.00599019569953621,1
0.0376953394921357,0.0102582911241473,1
0.0370945714303494,0.00798790280976361,1
0.0370483739128721,0.00781158835896651,1
0.0434254965726015,0.0105826890860324,1
0.051005349604676,0.0128478130138765,1
0.0531606026801169,0.010466919457047,1
0.0557392727749286,0.0149892000210474,1
0.0495504773270944,0.0147041515976873,1
0.0493092804256467,0.0141924893831416,1
0.0474063222447911,0.0186144158200857,1
0.0359137909119491,0.013092348470501,1
0.0370199103570831,0.0189495249829376,1
0.0464375216508056,0.0215975743872212,1
0.0551988342281305,0.0183421637638942,1
0.0389929922826556,0.0114644521010894,1
0.0262452168133456,0.00864729321488858,1
0.0263633574643672,0.0101723140240065,1
0.0274130491365877,0.00793457271693109,1
0.0397669841077048,0.0130498149463778,1
0.0404425632763705,0.0119755832985805,1
0.0422203704435484,0.0124176654060759,1
0.0429286238036544,0.0126204789042093,1
0.041034502237338,0.0173939036142292,1
0.0389652260792492,0.02027724192532,1
0.0426362294004545,0.0144891353072537,1
0.0833378182792513,0.00848204647718406,1
0.197890634261039,0.0225007395925626,1
0.25255127993615,0.0254205489054127,1
0.212058211133987,0.0229894766444458,1
0.180179870813685,0.0200905720054623,1
0.168422251613079,0.0191034953815513,1
0.19336888696754,0.0163837481007365,1
0.249142587650232,0.0197017847268427,1
0.235584266641447,0.0136302715220274,1
0.148720301264454,0.00850374242623004,1
0.113945023599568,0.0176048105497253,1
0.114321082549901,0.0121907696850456,1
0.142150811276947,0.0154019826009711,1
0.136265299492355,0.0150802396621977,1
0.127212693132846,0.014414146335375,1
0.12049524136236,0.0114285956823895,1
0.147007864795447,0.0161485490325434,1
0.113878410117187,0.00600082969187796,1
0.116175276813218,0.00693085221610616,1
0.122694076950526,0.00574406493781767,1
0.17131289937856,0.009144023409973,1
0.187236551252408,0.00992911019904817,1
0.15272799362062,0.00791166007586051,1
0.150741325792778,0.00731640608202089,1
0.161368274381328,0.00482577410188139,1
0.188244694107578,0.00495460505825566,1
0.18117763888358,0.00612173581503622,1
0.176756342462164,0.00947841971549939,1
0.165316984301981,0.00712962042007505,1
0.277182247601614,0.0155164028858155,1
0.403343021107752,0.023531743133785,1
0.488951904513576,0.02889313855849,1
0.568334557586858,0.0321693784751965,1
0.613541216677912,0.0336566802167188,1
0.564390351029365,0.0514440181293876,1
0.347031498512645,0.0540458325136167,1
0.293622599879257,0.0347317474914849,1
0.188916246673641,0.0290825761003245,1
0.0475889843634963,0.0111576954508278,1
0.0596581437557544,0.0318329618087478,1
0.0764905058089414,0.0469255349405065,1
0.0893478800242274,0.041118774188658,1
0.0874307022307036,0.0296820120773761,1
0.0821818995752908,0.0304574592841574,1
0.0709252309848774,0.0271628240632786,1
0.0551231309392201,0.0190531633575062,1
0.0442987427406654,0.0164410577623807,1
0.0547848784003426,0.0182012925213316,1
0.0662333938798484,0.0239573279674982,1
0.0595548835227441,0.0260690044039345,1
0.0463613161011078,0.014220171191005,1
0.0264900374340027,0.00701445732827111,1
0.025675650020842,0.00942431665943039,1
0.0271357741735049,0.0101139973857762,1
0.0891182913505699,0.0145986014914292,1
0.147344380256238,0.0148813785832216,1
0.155427441671718,0.0166824108536906,1
0.174351041083075,0.0203712259460953,1
0.159933994552192,0.0186131012844963,1
0.149039935621597,0.0171548911288125,1
0.138126089485737,0.0165882472198397,1
0.188927747514386,0.0177486047897835,1
0.318693794556805,0.0263528084731099,1
0.293365558986051,0.0190042983628149,1
0.291006554427654,0.0239553297857115,1
0.279332872349342,0.0229229835407524,1
0.300792996675139,0.0207910082435043,1
0.348336450792725,0.0227134621539823,1
0.340146301175445,0.0150963285797705,1
0.349396707747611,0.0164621629393951,1
0.438873896976382,0.0132000025487357,1
0.734177141763608,0.0238049999948505,1
0.729049595843389,0.0142016632514056,1
0.730089658424881,0.0154244559179745,1
0.730627819254314,0.0149290077129056,1
0.724285096884092,0.0170919716725663,1
0.57870894778005,0.0143191873162402,1
0.447455753923888,0.0107504322011679,1
0.359286047911501,0.0114514125681107,1
0.362712418970548,0.0118111981870075,1
0.338244902821839,0.0183475721249965,1
0.101696724291673,0.00331003262651275,1
0.0545647630348865,0.00580070374284553,1
0.0690645205865698,0.00706790028467935,1
0.143012148061062,0.00756924514539761,1
0.190257144110986,0.00280037770525202,1
0.249932614032525,0.00555464816401452,1
0.254602248683026,0.0046357095444699,1
0.254337630778251,0.00444178223105664,1
0.24089680523689,0.0038199389941871,1
0.235740572920202,0.00366919622403518,1
0.2841295959524,0.00498903535231501,1
0.292266491100452,0.00372632841459055,1
0.276912974667681,0.00267084316038161,1
0.258674119234562,0.00414968404500795,1
0.296313433676213,0.0142737027451731,1
0.590708313145043,0.0207918079467877,1
0.987047305439991,0.0270344863177067,1
1,0.0219094613330949,1
0.901294359287447,0.0192890475362719,1
0.724596031986474,0.0157431543618684,1
0.771225492250815,0.0164102985122802,1
0.648069350505049,0.0136018302059581,1
0.400475451791609,0.00726481676131312,1
0.338863537690862,0.0054008850520196,1
0.3030983375022,0.00202176392924089,1
0.331215660803244,0.00887223958801915,1
0.182489596465156,0.00290920551461464,1
0.224699495842306,0.00521765987025644,1
0.372445234953012,0.0108887538869189,1
0.615028887230314,0.0208223875889613,1
0.65460437766463,0.0268711884248025,1
0.764904822196902,0.0361357238753303,1
0.800017760407272,0.0451626731391273,1
0.629386633419874,0.0421241789365643,1
0.428468827633367,0.0394398737454467,1
0.360283436803,0.0378393851173517,1
0.167880591836007,0.019264193178798,1
0.0766883305062054,0.0106283240464634,1
0.0554064640964596,0.0100299619415445,1
0.0619740937872991,0.0120353825046889,1
0.0774339558856032,0.0141991688931,1
0.113667767833047,0.0204813312622059,1
0.121046991913294,0.0101065591551496,1
0.14259603508489,0.0132658174285668,1
0.136024662685508,0.0143670985176992,1
0.10380331632833,0.0104412122037227,1
0.11180387893385,0.00682527270205686,1
0.145018996832035,0.0101518690808668,1
0.146422597008028,0.0096812274852894,1
0.157948510672744,0.00969005320069742,1
0.172831903826878,0.00974339522241425,1
0.1613131403402,0.00837376375303019,1
0.15684066161355,0.0129835086462593,1
0.113500149253149,0.00592866251827821,1
0.143318170485294,0.00788223973689194,1
0.124640500230074,0.00442434800179219,1
0.127336358711641,0.0108061972434613,1
0.121422494215043,0.0104178606749977,1
0.141395606334989,0.0114906015870364,1
0.165559966086458,0.0150392738421013,1
0.119369959362316,0.0100145229813616,1
0.126085979251776,0.00915399474672448,1
0.137384628936998,0.0119527683521041,1
0.0881133214039934,0.00409179350077134,1
0.101511528378723,0.00634017122662663,1
0.13878164642389,0.0125891000913673,1
0.193106741817104,0.0220917973503123,1
0.217999669282109,0.017908568553358,1
0.223582578891563,0.0195597460031004,1
0.236912235264775,0.0208233030092863,1
0.239060754048576,0.0197528553691924,1
0.234464558355984,0.0203139963357753,1
0.140469331335034,0.0122508512899752,1
0.0716668330720797,0.00632367563656377,1
0.0551957593147583,0.00478596622120813,1
0.0626504426564292,0.00391117756197737,1
0.0748797174428944,0.00371003688768132,1
0.0736596267358165,0.00442834467341499,1
0.0691001357235784,0.00598235126321018,1
0.0774698657090692,0.00675721491432044,1
0.115711685168602,0.0117368473023303,1
0.112191188729756,0.0139084933583165,1
0.117919030226523,0.0087566761260641,1
0.13113476595127,0.00842102507125489,1
0.144271070452026,0.00661513791704067,1
0.240425926926791,0.0153534886008065,1
0.190131130351223,0.00373860969987839,1
0.227323181054699,0.00599696377909842,1
0.240889900448952,0.00566571560169644,1
0.246336828022865,0.0055659129996511,1
0.310826886960355,0.00784114649083644,1
0.382706643562394,0.0106569536571515,1
0.427992563566733,0.0157530825849193,1
0.439943515637954,0.0146610483835664,1
0.427558187815578,0.0197912343032504,1
0.191985287388294,0.00622319177834202,1
0.0846649133132429,0.0142705366823243,1
0.083458439831322,0.0138366422086201,1
0.0554443314238012,0.0208014105634802,1
0.00624579936043928,0.00229601119287988,1
0.00361921339604988,0.0425039588483402,1
0.0033501820696401,0.0405189158119685,1
0.00330230610763756,0.0402348839756102,1
0.00292148141620568,0.0354255754860822,1
0.0015433210181175,0.0203920056616887,1
0.00148222889999466,0.031521746181465,1
0.00166480551910808,0.0321692622309294,1
0.00222205040440767,0.044736303689869,1
0.00237606640888271,0.0546928588732335,1
0.00276781349137063,0.0657058147830685,1
0.00285454706271666,0.0700032547861182,1
0.00295112442904928,0.07212416819943,1
0.00228002707265084,0.0999442635641306,1
0.000509539777164014,0.073785018872696,1
0.000375201039536853,0.125645335288068,1
0.00021513152421253,0.147353554095379,1
4.52742791411758e-05,0.202032639719881,0
5.18562941061279e-05,0.264111925702395,0
5.46940331960752e-05,0.265226024319999,0
5.59311658526611e-05,0.306746981163573,0
4.58510213965074e-05,0.335970777426547,0
4.4232966400985e-05,0.347047684449043,0
4.80359795724825e-05,0.311101618795358,0
3.90760198256449e-05,0.347052240689399,0
1.89101678829282e-05,0.312435297380745,0
1.81241350265548e-05,0.377393583739015,0
1.59889488549472e-05,0.316303887496969,0
1.51486501922373e-05,0.282241952480987,0
1.45662966608227e-05,0.278474723892348,0
1.39653029135992e-05,0.268979033562851,0
1.39732417174454e-05,0.26910931778099,0
1.47271336828096e-05,0.289594659670931,0
1.26554480900023e-05,0.405337387653453,0
5.43100590647449e-06,0.363884076952489,0
5.18425464072838e-06,0.369358615364658,0
5.47444961422355e-06,0.381436564346111,0
4.84582790237111e-06,0.392509233962483,0
7.06827528478527e-06,0.549754160233025,0
1.086750109847e-05,0.728488523777164,0
1.26540722914564e-05,0.618681979684926,0
1.26106656734743e-05,0.621050933447532,0
1.28694869056339e-05,0.592613218031777,0
1.36083491121989e-05,0.600706404780632,0
1.31249618004919e-05,0.58169757690018,0
1.66065062256712e-05,0.455314122595323,0
2.58459380915197e-05,0.418563473692281,0
2.57321763870493e-05,0.349543680570039,0
2.62812063564847e-05,0.341760724131963,0
2.48320429474355e-05,0.327851617991147,0
2.42201394480737e-05,0.347518568825792,0
2.82860218520858e-05,0.30487607480587,0
5.30794936150345e-05,0.400427899758673,0
6.28805278671696e-05,0.422286130785826,0
5.85329586793852e-05,0.289964707336138,0
6.19952639469709e-05,0.348114187082068,0
6.47548770647086e-05,0.404949929083888,0
6.28061582480455e-05,0.436309086738932,0
5.72711265560651e-05,0.389227396836954,0
5.68076862949273e-05,0.365161918023242,0
5.61209866441205e-05,0.320631708440712,0
5.74680482993286e-05,0.388178455485892,0
3.86723781209354e-05,0.34382336651692,0
1.83576788580712e-05,0.221664731425795,0
1.53623705574472e-05,0.261530955123482,0
1.68818926750324e-05,0.270592123064835,0
1.88494671468933e-05,0.287218339846146,0
2.12872199025305e-05,0.322872785277407,0
2.14421664610084e-05,0.372244445286456,0
2.06073830176801e-05,0.409748221263906,0
1.64107151407747e-05,0.476817261431591,0
2.63702826477654e-05,0.414122454226901,0
4.57210340780149e-05,0.39557927442116,0
4.4791097996416e-05,0.391721766431698,0
5.07824687079662e-05,0.469524515093845,0
4.8556729318964e-05,0.406439654474874,0
4.5041175605761e-05,0.361814317139694,0
5.57295806507207e-05,0.334808523310533,0
8.11721357966086e-05,0.296776030547637,0
7.03819054324779e-05,0.196537958087405,0
6.92161779664095e-05,0.163153891847037,0
6.77672536124995e-05,0.170722252057597,0
6.6427984430416e-05,0.184852761555507,0
7.31802337473135e-05,0.194021242373518,0
7.68946964039543e-05,0.16712873407645,0
7.37885847424266e-05,0.148388480118367,0
7.74794720710145e-05,0.158790505080152,0
6.7509730667068e-05,0.166659563829883,0
2.86880059629492e-05,0.127607504063744,0
2.53222011699729e-05,0.152757489354767,0
2.52125596170451e-05,0.193946239456487,0
2.19371659123171e-05,0.192863576245753,0
2.47653186014232e-05,0.187955886022085,0
2.96750879582239e-05,0.22069634546647,0
3.06054986729353e-05,0.359535759212326,0
2.4209943239305e-05,0.384196168100171,0
2.57078460794025e-05,0.355924045516521,0
2.72953076675161e-05,0.39387324364885,0
1.90589326203913e-05,0.288645954053275,0
1.66783259233118e-05,0.304926419947141,0
1.72392282402457e-05,0.332244694903735,0
1.55498049990909e-05,0.32726543674971,0
1.69081561419038e-05,0.375834858969685,0
1.63895878822279e-05,0.36233644008433,0
1.47773729313124e-05,0.288607830866196,0
1.65238702247194e-05,0.317321113333047,0
1.54708374079097e-05,0.340563371382152,0
1.07814064767423e-05,0.262275202251914,0
1.03900811825622e-05,0.258706001180203,0
1.384083704441e-05,0.293695731104464,0
1.41236686849756e-05,0.280804528321083,0
1.41972269654459e-05,0.286221682276942,0
1.33104251238523e-05,0.273917388091619,0
1.26632496906868e-05,0.233431747999197,0
1.34404935762103e-05,0.28463286114941,0
2.23580558075165e-05,0.338502397999227,0
2.69822456935892e-05,0.277598389618306,0
2.58713955803677e-05,0.285801221716866,0
2.47875463829012e-05,0.305408344255185,0
1.93565769866661e-05,0.26643310462182,0
2.12096565067482e-05,0.293833709274351,0
2.07691378665193e-05,0.283044413057446,0
2.1022595860413e-05,0.319894363465967,0
1.95803720047286e-05,0.337672137584858,0
1.95047465492738e-05,0.335654706512956,0
1.11327168382773e-05,0.322135592112284,0
7.94850745651098e-06,0.429467193131045,0
8.48979334337716e-06,0.37197957067374,0
