Activity,Complexity,Tag
2.33063166710516e-05,0.312813960945802,0
2.92952156905032e-05,0.339096964668074,0
2.60942610141403e-05,0.296865316220085,0
2.12168346212766e-05,0.274244307646964,0
2.4304642482394e-05,0.333647334431066,0
2.18245157307779e-05,0.311062154261141,0
2.06319473088882e-05,0.308270198541447,0
2.07096953222179e-05,0.344724337024975,0
1.91779897124181e-05,0.385553433841467,0
2.19310939857019e-05,0.472576571892923,0
2.44703488877879e-05,0.576735079856985,0
1.41462570611593e-05,0.429964188548972,0
1.04562108035629e-05,0.408172645276662,0
1.02812947493028e-05,0.407668841218565,0
1.2860662886475e-05,0.460598155379897,0
1.20252311676253e-05,0.460931444277055,0
1.14300823397301e-05,0.472857159652551,0
1.12195790738891e-05,0.474092030490351,0
1.14433879602292e-05,0.433263915036941,0
9.52610102735694e-06,0.350193678521922,0
9.33932501430078e-06,0.256488216334787,0
2.8844301063046e-05,0.427838813315398,0
3.0406573678507e-05,0.326886080663033,0
3.15296857889544e-05,0.335146682058097,0
3.21042518564092e-05,0.314623474160348,0
3.26657241856471e-05,0.289797486233839,0
3.53911213401355e-05,0.303831792132572,0
3.76661353542759e-05,0.313024810989676,0
3.8811963508793e-05,0.329648309045288,0
3.9502464183893e-05,0.346428354630366,0
3.99620613742228e-05,0.464708717282793,0
1.55810846845079e-05,0.316848501723146,0
1.14688850902368e-05,0.406767749935006,0
1.1418552255031e-05,0.405736507148623,0
9.26594793754379e-06,0.448532096335709,0
5.78954608490198e-06,0.475658478217246,0
5.63174303533341e-06,0.49459094059156,0
5.4748363463192e-06,0.48311326293578,0
5.66605182760607e-06,0.492053293107075,0
6.18329084877715e-06,0.508270007904131,0
5.67377578557442e-06,0.471246962195697,0
6.29929587427278e-06,0.499391748720335,0
6.04344435106663e-06,0.386899603733169,0
1.0037687339416e-05,0.47067245053941,0
1.0077579261258e-05,0.399126193616272,0
1.06116515019113e-05,0.329267520301403,0
1.48108221713021e-05,0.350519099059046,0
1.53417746496893e-05,0.334504027010707,0
1.5921935373445e-05,0.330948612100655,0
1.66783473661186e-05,0.337039705472252,0
1.48543521391724e-05,0.318438876872458,0
1.1258576940523e-05,0.275761148167313,0
1.05570602729473e-05,0.282757067026654,0
1.4647959096196e-05,0.314172805569628,0
7.53154506924165e-05,0.519169309627523,0
9.8103128158789e-05,0.333855282389264,0
9.94138036628403e-05,0.349341099785874,0
9.64074277584298e-05,0.35290274811889,0
8.99609133081534e-05,0.342345031581521,0
8.89279117353238e-05,0.343249556700616,0
8.76175562552535e-05,0.344790858556901,0
8.81989612372769e-05,0.340983875253693,0
8.72875960222075e-05,0.319413339168121,0
9.09580342616919e-05,0.335080816679775,0
5.05399644925877e-05,0.322333989168514,0
2.72294227505107e-05,0.387664615622403,0
2.88573809691853e-05,0.360040274317987,0
2.89430610503806e-05,0.318686800828788,0
3.43611697404524e-05,0.349606850687617,0
3.82469660954952e-05,0.362227618216734,0
4.01462864168165e-05,0.36734187645431,0
4.0476463771568e-05,0.383980753300706,0
3.44348898946532e-05,0.411352142401808,0
1.55156438671552e-05,0.285070913632017,0
2.08323917201193e-05,0.313148668184395,0
6.90751982995315e-05,0.511757407053828,0
0.000153685008645945,0.643391223524053,0
0.000172417414320268,0.706000245885067,0
0.000166201614106789,0.655613064631826,0
0.000147858136070472,0.589225113738159,0
0.000134900462116192,0.554705435802175,0
0.000128841083001967,0.485397240457665,0
0.000121857004759287,0.350865585910525,0
0.000107645253019502,0.233599978747879,0
0.000119602437071001,0.274516991586993,0
0.000121608319928977,0.311729453354205,0
8.09924992314201e-05,0.19607129167735,0
0.000111663229547945,0.197108007677713,0
0.000112154300792914,0.189002263471688,0
0.000114219602903723,0.180808813947553,0
0.000107978500676363,0.169327661011613,0
9.31962042313675e-05,0.15337584112848,0
0.000154915071010378,0.149072705243707,0
0.000245262982172113,0.218597592642734,0
0.000515228288074079,0.164643327523698,0
0.00107878199816523,0.126823665700511,0
0.00101244046608777,0.0972909435533088,0
0.00102088469723072,0.0968732514586073,0
0.00101735701504554,0.0925288931787404,0
0.000946863121726449,0.089044076958318,1
0.000852655484113445,0.0816516874327105,1
0.000747273633497956,0.0749397227227087,1
0.000716167117493814,0.0814482442255336,1
0.000715627167667997,0.0813771643880156,1
0.000654940418675878,0.113690453527353,1
0.000207352841630926,0.0516635731416825,1
0.000630921742455324,0.122564141436999,1
0.00181371589677111,0.0997802432889044,1
0.00301799512322828,0.0754832161938504,1
0.00303416462512951,0.0727154962805537,1
0.00291800919779379,0.0701275652112887,1
0.00275338295025026,0.0672062838513318,1
0.0026125094972615,0.0644226975177922,1
0.00243027694094881,0.0620373871757525,1
0.00159520799809836,0.0439084386954678,1
0.000991101163088297,0.0364788757961591,1
0.00101411077833813,0.0386919013490402,1
0.000752110407623854,0.0590679363488653,1
0.000488352909928498,0.0625458736086082,1
0.000540859086251309,0.0470229606738044,1
0.000850156015925579,0.0353960188116533,1
0.00127416148457872,0.0331586709783282,1
0.00144302326187508,0.033576136439116,1
0.00148165239884817,0.0328382743824947,1
0.00150080434401562,0.0335041832155987,1
0.00147618026122405,0.0318762855006897,1
0.00136870445388163,0.0288214568915719,1
0.00132265035292351,0.0291555569851367,1
0.00123871299448649,0.031870825735874,1
0.00120553715836253,0.0314795189662171,1
0.000970202540026623,0.0423884864224263,1
0.00057618338943447,0.0348853127031018,1
0.000841832020747305,0.0441305597120411,1
0.0013790222464543,0.0322313942242393,1
0.00273989774914303,0.0364798115246005,1
0.00306099335061088,0.0372638818243129,1
0.00411513289950019,0.0461494344817291,1
0.0057324927209471,0.0424686031030202,1
0.0177421587019751,0.0594597914594526,1
0.0276397362848702,0.0808280660476016,1
0.0434260624321514,0.10284783524716,1
0.0444169594469753,0.0655002620016091,1
0.0404871892971171,0.0598346567537366,1
0.0351604919182857,0.0560619321528534,1
0.0353845064056776,0.0394265429125455,1
0.0421197475595654,0.0243409492864852,1
0.0312696954884453,0.0163607008623229,1
0.0222304869836,0.0120743151379444,1
0.0279779196135362,0.0150839103117535,1
0.0404819276719802,0.0223024233938095,1
0.0631090744074507,0.0294091296507906,1
0.0621723678467783,0.0204539188998349,1
0.0522364832122898,0.0158700179105142,1
0.0396287239429859,0.0115912403196816,1
0.0337897579687224,0.0119723461017574,1
0.035707631286963,0.016831607553872,1
0.0260974583544529,0.0128411421402783,1
0.0261305924988083,0.00922241009230421,1
0.0286921816110861,0.00850614895336651,1
0.0293411983875514,0.0083870790788299,1
0.0177451339548663,0.00377540409860833,1
0.0152401567874276,0.00840999587050185,1
0.0147099581572784,0.0092122420734669,1
0.0169584227539401,0.00834341151503258,1
0.0183533274883586,0.00802315483474726,1
0.019785664366321,0.00774172860314235,1
0.0351595769053841,0.0164782030060859,1
0.039985105144645,0.0187265991191195,1
0.03715855797571,0.0266862230288034,1
0.0379550039414727,0.0211851995052113,1
0.0465481895576818,0.0154023398818892,1
0.0745998856052092,0.0147213296788793,1
0.0883809754510985,0.01220843276471,1
0.0920815078588211,0.0123085176894498,1
0.0864379434639429,0.00865821516728428,1
0.103600838948474,0.0117491415577286,1
0.103850290584535,0.0125318866528086,1
0.102570366218136,0.0127917561496792,1
0.0992105022351092,0.0115460814750561,1
0.09594702141188,0.0104677129964803,1
0.0717488579849399,0.00519370484051017,1
0.0644459855906313,0.00799997363728974,1
0.0600346640376067,0.0103566788330526,1
0.0472034922887727,0.00877636609009429,1
0.04298248867782,0.00960884025050534,1
0.0629771197346426,0.0132399757752031,1
0.0650925154408308,0.0105169029240845,1
0.0721664146019407,0.012091173766332,1
0.0688128695121183,0.00934610225287766,1
0.0697059410339429,0.0132582026377707,1
0.0630290238016683,0.0171488784117669,1
0.0633061729134711,0.0167890840974382,1
0.0761990329337855,0.0192530587747116,1
0.0768419708987439,0.0167723258084791,1
0.0802384808001639,0.018218261899971,1
0.0643960541598072,0.0127694282823869,1
0.0677664330651486,0.0169438207516598,1
0.0662583249689028,0.0173659620209809,1
0.0658694855225479,0.0209141168748444,1
0.0489264164790832,0.0168931646796291,1
0.0567431808048232,0.021000411032635,1
0.0648619804252172,0.0251065902666009,1
0.0596842019860862,0.0177468845568074,1
0.0641286869540289,0.0191964219293809,1
0.0696529648761022,0.0220079753365256,1
0.0781374866358641,0.0294125914622709,1
0.078110381006018,0.0294219289030221,1
0.0883956937140352,0.0320971487238819,1
0.0915088880873099,0.0327299133393481,1
0.0910944272450278,0.0315654199628067,1
0.0896420376897783,0.0307536661626724,1
0.074297498277889,0.0247460919858522,1
0.0657002915591019,0.0112915916824035,1
0.108888966969219,0.0194412451442095,1
0.105812315480029,0.0216655705781758,1
0.0895200410357332,0.0187504027755937,1
0.0860331017235013,0.0180954730083919,1
0.0728062096857821,0.0150558697391391,1
0.0707508225606753,0.00922605098447346,1
0.172920865839853,0.0193743524622561,1
0.190649864496612,0.0110628442245948,1
0.187547990269371,0.0111522596395054,1
0.21895489365005,0.0148172161932677,1
0.223859936687346,0.0140558231849573,1
0.262424063603118,0.0158009556073968,1
0.263809516208155,0.0144829449374971,1
0.266300992962764,0.014153696855784,1
0.269726204782868,0.0139169114364885,1
0.264622241521798,0.0165673104562624,1
0.129191367919271,0.00174587455913989,1
0.249353802786488,0.0144790566898401,1
0.261495564178572,0.0119685930550902,1
0.256367847583286,0.0151391534885368,1
0.247708795063257,0.0141521152402062,1
0.261542737353093,0.0145588308891717,1
0.317427911628684,0.0171133133762813,1
0.290504197621011,0.00983939254098159,1
0.261462527182138,0.00834765376359995,1
0.222915343274403,0.00806982771212863,1
0.201805893402224,0.0123368947136291,1
0.193539901209295,0.00788503647626571,1
0.20804488019667,0.00830301965133382,1
0.222143191881161,0.00882849604976364,1
0.230976149132934,0.00949543889244453,1
0.218222675369529,0.0098472934732655,1
0.265559865986067,0.0132689159659718,1
0.274298830153358,0.00954081821949514,1
0.292195987678945,0.0101410139794738,1
0.286651041815982,0.00687849221270628,1
0.317259777228592,0.00747549756604669,1
0.29201781749573,0.00926081290328482,1
0.254010012444504,0.00881176504378443,1
0.260276455851272,0.0100661929580316,1
0.311837951911829,0.0129730891483935,1
0.316695023317497,0.0113547808746557,1
0.275839236839009,0.00939494521131044,1
0.343388677765014,0.0189052178894288,1
0.290435754951053,0.0144410979343239,1
0.3088114866483,0.0189204311437155,1
0.309499903546034,0.0203701152901219,1
0.308932519544363,0.0197063459181874,1
0.302811373688232,0.0180346523766098,1
0.265422396727922,0.013687023098376,1
0.119665480987328,0.00351532053385716,1
0.126011223966888,0.0043602824481776,1
0.142755177246686,0.00270164715395062,1
0.13244924084429,0.00294098295555942,1
0.163976350312356,0.00718694978428034,1
0.164788199763745,0.00799697858888852,1
0.17699629562684,0.00903252879482076,1
0.21027015339021,0.0139130702648262,1
0.238763204847029,0.0123642232420566,1
0.224721140823682,0.0124460836762681,1
0.221308379873975,0.0105008105237598,1
0.141783465519882,0.00741331431579377,1
0.0736121635432704,0.00543130687353257,1
0.0741841892733583,0.00486301226250649,1
0.0761051196610205,0.00459125946676823,1
0.0714090853452997,0.00304808887567667,1
0.0730239657471075,0.00547865410368476,1
0.0579781344746715,0.00336218572383142,1
0.0493734273100414,0.00237307659448845,1
0.117438238401,0.0110505377700372,1
0.112442633928015,0.008708741829327,1
0.109587548913987,0.00891149689199108,1
0.109061068651484,0.00877929548148501,1
0.113552386045323,0.00885255891457358,1
0.130022575164808,0.011537623043416,1
0.118300536962346,0.0120702691171366,1
0.122853420296979,0.011908372738097,1
0.130217242695737,0.0121634895730871,1
0.134014086687284,0.0169516745475559,1
0.0691685603220824,0.0101703605622993,1
0.0670101066710308,0.0159155236399261,1
0.0619074390644564,0.0146676658575625,1
0.0665558043413867,0.0125298500057272,1
0.0687042725283181,0.0114095962239381,1
0.0536932427249686,0.00865446756773549,1
0.0498520439864183,0.00863994822010894,1
0.0503126177205997,0.00792118463971134,1
0.0422493854213832,0.00600841693134358,1
0.0370955415896191,0.00754736354178908,1
0.0290242709309833,0.00697929129420458,1
0.045655293469357,0.0126661185058704,1
0.0777234857110058,0.0233992310797942,1
0.0855198620307029,0.0315588704801128,1
0.110378330916566,0.0529685914577473,1
0.11216991696916,0.0318573737569398,1
0.117260460186174,0.0256763700637843,1
0.120346006058484,0.0313337574350361,1
0.133032109343343,0.0369301004525717,1
0.139799899891756,0.0337503385266918,1
0.110623868294257,0.0203961324472979,1
0.111386166345919,0.0176136584416078,1
0.109325797469955,0.016221936308372,1
0.100775695937254,0.0137413657785008,1
0.137715834929822,0.0184848906638001,1
0.135217602553435,0.00469826397427699,1
0.294634400670458,0.0160635486610552,1
0.35369162968999,0.00558712614653779,1
0.503939416700514,0.00809212523455914,1
0.504848575036917,0.00429673364359243,1
0.52305142134754,0.00451834542290945,1
0.551984864145496,0.00522954079043918,1
0.580301577495194,0.00613074818401713,1
0.588230024195963,0.00619206435699829,1
0.570266417576708,0.00627625291663569,1
0.568378441946443,0.00949279032197115,1
0.414916405081228,0.00579517766544939,1
0.371588532687743,0.0118749868454803,1
0.205509247924133,0.00806212069346903,1
0.201798034644371,0.0164261347518965,1
0.194774797367879,0.0146138809047718,1
0.154452896533429,0.012893948723552,1
0.14547637920073,0.0112130570123827,1
0.182542533782476,0.0148896078989342,1
0.1830441217035,0.0140955361375352,1
0.197439056435192,0.0207497903818397,1
0.200360390974089,0.024282708663316,1
0.221478108956708,0.0300406458660518,1
0.203162476544392,0.0259317564493842,1
0.0903432991322562,0.0153622204509099,1
0.0790152212762413,0.0187724189395474,1
0.059334358850466,0.0168676386574924,1
0.0701334426088722,0.0266296145466515,1
0.0732004745776965,0.0234523259909484,1
0.0503047549556352,0.0146279162503286,1
0.0434916865297739,0.014381809102477,1
0.0415927432801137,0.0129531560560236,1
0.0416876575204074,0.0126442167976503,1
0.0409626893043739,0.0115287440637167,1
0.0392310052382593,0.0092759060699465,1
0.0353581093462301,0.0112374778687378,1
0.0482630929236656,0.0137544159051963,1
0.0426445316176353,0.00710758711360806,1
0.0406469520178293,0.00877573363391071,1
0.0390920846332179,0.0103144067458599,1
0.0402085396152925,0.00968990847926524,1
0.0428825526430134,0.00862115758503151,1
0.0444454442219487,0.00814824160957051,1
0.0450429611361369,0.00788129359352264,1
0.0356583482477777,0.00540796767694531,1
0.0325755037274414,0.00543499090713455,1
0.0216391751101549,0.00234233403578511,1
0.0228425821587212,0.00780463116951715,1
0.0293180963775849,0.0123419986495799,1
0.0480520886289507,0.0195104837984598,1
0.0431230345859499,0.0191692307899415,1
0.0385115697359675,0.0180900024323885,1
0.0417073614459551,0.0190365277934441,1
0.0358679441628499,0.0215071984354645,1
0.0394549776029924,0.0192004209217069,1
0.0463349423747916,0.0198320876939256,1
0.0467081646703672,0.0165152419354261,1
0.0518654855517863,0.0182923200337768,1
0.0558181561329693,0.0141113639444973,1
0.0728145648004108,0.0202904923874234,1
0.147674888147857,0.0322132755062644,1
0.180557145395208,0.0392586912592021,1
0.210997206494366,0.0397860134905044,1
0.19764324112471,0.0358019987381195,1
0.178710915563491,0.0369859179614588,1
0.193524752073154,0.0403494277306513,1
0.154610005336135,0.0383880969045472,1
0.0837003382968103,0.0176317227886143,1
0.132206974473623,0.0197556394617152,1
0.1208908156968,0.014461143653527,1
0.123827605397127,0.0144497908470941,1
0.121114108543528,0.0150932125719193,1
0.125709623509376,0.0144619089769924,1
0.121236117323695,0.013781870459112,1
0.118764067217641,0.0105704134218353,1
0.173824996254552,0.0171774404289449,1
0.277489304496612,0.0252991375282955,1
0.322799351406462,0.0244234887214259,1
0.32770849762337,0.0315467299179543,1
0.320445296790816,0.0322843304426709,1
0.326985507271226,0.0334907365754602,1
0.320845701550705,0.0307651197833529,1
0.29103151449557,0.0280049763311421,1
0.286878726815175,0.0289263689898024,1
0.342279640524484,0.0426751882341221,1
0.406712295136436,0.0484124019640357,1
0.293735655127434,0.0217009377270899,1
0.226816926937626,0.0253666150316525,1
0.180774295328808,0.0216548507371174,1
0.173672315080238,0.0192527485690581,1
0.252129567731939,0.017873974920209,1
0.403585930393766,0.0303504125928752,1
0.517121705726392,0.0321810599841584,1
0.5428969961268,0.033694291765846,1
0.564475775701193,0.0353944088018249,1
0.618391839319462,0.0359209175973047,1
0.614892917032012,0.0655148396955187,1
0.431334080025886,0.0455081289538801,1
0.290614272665641,0.0302005756456826,1
0.0776276715488169,0.0075930019282053,1
0.0598051761706378,0.0159955824135136,1
0.0800726266591677,0.0207399575065864,1
0.0829558623309773,0.0404160241712306,1
0.0601380276223014,0.0297072572627319,1
0.0295617902846934,0.0170142741928841,1
0.023367124606859,0.0165608172453005,1
0.0191205990186668,0.0112111339515024,1
0.0196141642325248,0.00830533909459221,1
0.0253081645861975,0.0107425219098036,1
0.0181169922975466,0.00705944001114666,1
0.0150377967155807,0.0171143924985875,1
0.0156062563702462,0.0191506276065317,1
0.0211660536730677,0.0181598951114616,1
0.0345658021915122,0.0172274314450975,1
0.0368283945680941,0.012788864594791,1
0.0446956596630386,0.012287637070837,1
0.0479947032875847,0.00836409414947958,1
0.0478983075164955,0.00669190056664576,1
0.0380574955846793,0.00398873983826057,1
0.0386512696524254,0.00309648567556331,1
0.0449528855936758,0.00358482772782041,1
0.0484079026223694,0.00252221960585681,1
0.0805842892211842,0.00560324892366729,1
0.079709428933092,0.00419298163288597,1
0.0719856738563819,0.00327298264521876,1
0.0705708268057949,0.00357969195780671,1
0.0623234949796114,0.0026070631606119,1
0.0603685637972947,0.00218605638049069,1
0.0684313093691674,0.00273521336682011,1
0.0675640153529379,0.00221613775601668,1
0.0801035348435057,0.000421399180552968,1
0.153975930143178,0.008150556913603,1
0.184620985336842,0.0140999055235228,1
0.271802236782409,0.0255622918733669,1
0.278166629793218,0.0175550283501447,1
0.265777392709028,0.0149982542398425,1
0.298759092075562,0.018534305818407,1
0.216060887710321,0.0113724746631585,1
0.200229247078369,0.0115922908960004,1
0.140689018956042,0.00853539163141935,1
0.0909208259978714,0.00723428087713295,1
0.100468270916915,0.00484592859163838,1
0.146195431006215,0.00704926497426218,1
0.11913048184133,0.00367615418365188,1
0.111188394747942,0.00621343935095212,1
0.10610208470818,0.00751155343146715,1
0.0783557768693983,0.00479534353576911,1
0.0724251415668128,0.00670068521095492,1
0.0708458825998708,0.00685510433837205,1
0.090730727377015,0.00409005711159017,1
0.186939322040766,0.010487304122574,1
0.182091999315635,0.0152607920815495,1
0.142822239921263,0.0138644524122331,1
0.165165949820638,0.0191879767818127,1
0.145273738609945,0.0162650332049514,1
0.177219750471719,0.00932070915704953,1
0.338709908758574,0.0174236813411047,1
0.311790688730092,0.0129351516741069,1
0.273009026225207,0.0106732544056191,1
0.285043287110468,0.0151114042942766,1
0.300889382814659,0.0190700187603372,1
0.312016337721838,0.0205771048502698,1
0.341487755223827,0.0215373185237993,1
0.355399422511883,0.0225110546171412,1
0.426127401149672,0.0249880580576602,1
0.436356411988004,0.0569832350567408,1
0.145149988420649,0.0298433550590508,1
0.0983266453972366,0.0287905230851543,1
0.104202705651874,0.026552532812515,1
0.183994692045266,0.0332947440143423,1
0.178931705180544,0.0248908531737502,1
0.162105362713959,0.0222263884839975,1
0.153763841872121,0.0221018251694065,1
0.116891242152622,0.0172727253159192,1
0.146393592337444,0.022118183933698,1
0.156835928530864,0.0259912251004516,1
0.099615010104193,0.0188126540964339,1
0.0814019817990974,0.0149957643390674,1
0.0600641252728106,0.00883899003442085,1
0.0634565278345159,0.0113349661952108,1
0.0552379385847328,0.0109347868327528,1
0.0600362675411311,0.0108404416724539,1
0.0601712070914416,0.00995964565339903,1
0.0648393436783535,0.00922890785849062,1
0.0625872391970451,0.0115388539803825,1
0.0542531482266458,0.0102404461215463,1
0.0532414894435472,0.00733796627673216,1
0.0768832238232665,0.0129368132218223,1
0.0743601967148107,0.0200011931949887,1
0.0557845373383871,0.0163675080046535,1
0.0667869003429015,0.0209711107845219,1
0.0669412028389713,0.023434790642985,1
0.0510271634006516,0.0197722894172657,1
0.0583166346432161,0.0266464525536197,1
0.0668658961479661,0.0233830035712015,1
0.065078864335268,0.0244299008324195,1
0.0803022748860248,0.0239769823228704,1
0.0843899388305881,0.0155146146089646,1
0.0826162320638656,0.0141923849720318,1
0.0789384420364887,0.0133647255784489,1
0.104538227784346,0.0134193396968036,1
0.142865231667898,0.0190945619176245,1
0.132660672683708,0.0166247146686056,1
0.111863599448707,0.00998968750491563,1
0.113020783980709,0.00801126557024036,1
0.108730484809691,0.00471935358624067,1
0.180969696321378,0.0104316525485211,1
0.174309868675878,0.0120420238359787,1
0.161609822235595,0.0113288669659086,1
0.152918039500156,0.00987996728342407,1
0.26244304374885,0.0190672846307101,1
0.37832536066786,0.0236799957843986,1
0.345526754990406,0.0162388852973913,1
0.278479002807439,0.0132226187343782,1
0.265781560408577,0.0138586266329674,1
0.214096119081367,0.0137359434808597,1
0.21878261730448,0.0150145892054465,1
0.218693720156124,0.0142037704070787,1
0.214881645763302,0.0126138017109301,1
0.237620939595987,0.0120784265565242,1
0.212904207618621,0.00725370874475186,1
0.146065407031377,0.00221573076362512,1
0.14153412290197,0.00261530421432101,1
0.154804551879136,0.00319210043745093,1
0.159053223554432,0.00208132836594843,1
0.17072764215898,0.00111925487682198,1
0.191488082707018,0.00197196330915928,1
0.181395515048213,0.00227630846663142,1
0.19183858806363,0.00168665113164119,1
0.270496435949023,0.00711544803723404,1
0.225890727408697,0.0069406920022452,1
0.249224272557307,0.00853434730793892,1
0.212234907302671,0.00688926838936254,1
0.241616798186947,0.011456847492461,1
0.245161522926059,0.0156109680039743,1
0.24244608931059,0.0153670705960418,1
0.24347637440586,0.0176127142885022,1
0.23047833768581,0.0150650729402698,1
0.253404058285629,0.0191854852215834,1
0.211421239167992,0.0134943833414612,1
0.186999681792524,0.011746052653373,1
0.154484559040697,0.0105235608074161,1
0.251208409225578,0.0178455300588018,1
0.338711784459574,0.0201101081723582,1
0.355997318138929,0.019876830031491,1
0.403922575841009,0.0301194802680872,1
0.414284996611848,0.029221123395017,1
0.419041490888328,0.0331685102947085,1
0.212992909305258,0.0200503062932452,1
0.181300221483306,0.0220572879715541,1
0.112937750575379,0.0141237131630143,1
0.0583543391286346,0.00506805639326919,1
0.0683205098759609,0.00920528215118696,1
0.0789379664445962,0.0182158846221467,1
0.0494135834212154,0.0128951856233109,1
0.0487668267725145,0.0136227669624208,1
0.0534083422917849,0.0140793399089831,1
0.0626589118267083,0.017184955354154,1
0.0344821517623431,0.00987433153497831,1
0.0295687163700639,0.010264182577199,1
0.0514512923411373,0.014010409652178,1
0.0439815031298422,0.0061121595064182,1
0.0431172310602451,0.00687588890066621,1
0.0426145317975802,0.00654865651857611,1
0.0443186256052084,0.00618792728292142,1
0.0607922708451574,0.00734922155386624,1
0.0660744962044389,0.00648671721681336,1
0.0606219740981446,0.00514366295192219,1
0.0600087679468845,0.00503362578263825,1
0.0589595643552442,0.00664498858620161,1
0.0391913397181895,0.00501646989596786,1
0.058336288013777,0.0117410136017749,1
0.0786487906855145,0.00929358305641673,1
0.079481010385283,0.0081562430347522,1
0.0853245862576277,0.00887418469947425,1
0.11337466255355,0.00513607191502619,1
0.327336575785585,0.0183502289263038,1
0.309068520287488,0.0129026120947027,1
0.273492573954104,0.0112572283332145,1
0.252697892946772,0.00876448579477736,1
0.231747084161761,0.00751218387646647,1
0.233723492728099,0.00885142900675443,1
0.22371443634273,0.0099450180715203,1
0.178808774522573,0.00787204952280776,1
0.214154492083384,0.00852502420045848,1
0.214402075560699,0.0118448077902715,1
0.104103274525211,0.00667570923864731,1
0.107347933195425,0.012390858932158,1
0.127131375044239,0.0160697263669914,1
0.125365077588619,0.0121559475950673,1
0.132242776223455,0.0114689471514988,1
0.132920236178063,0.0104074602767849,1
0.164226804240262,0.0124762717111255,1
0.239702747561865,0.0164657614114263,1
0.173752500278005,0.0130760653748368,1
0.143628369941579,0.0131528564737689,1
0.134585422607462,0.0115957112244494,1
0.138340171578641,0.0110808671942153,1
0.144521842500606,0.00650267132438218,1
0.199679855909676,0.0140596897174283,1
0.202950124774978,0.0149248183505572,1
0.211041501377813,0.0168085568974863,1
0.204114146255507,0.0160974366423858,1
0.152059850799526,0.0141634063400603,1
0.178770032745332,0.0169649724579692,1
0.185317286601893,0.0164255217720039,1
0.301949167422893,0.0215366597245963,1
0.444246742648743,0.0221588306295471,1
0.439657445007362,0.0234166147210653,1
0.343137006655341,0.0192745502101711,1
0.270670680444381,0.0150236892151105,1
0.236620204902106,0.0111114116324966,1
0.231237136784931,0.0116080058043556,1
0.273205148525423,0.00681599454396226,1
0.325979277784663,0.00906551906981095,1
0.354387351282003,0.0110081474589146,1
0.28676642316378,0.0093648063126997,1
0.209948760000245,0.00835381094765968,1
0.239450847943753,0.0112107242774095,1
0.254420924141198,0.0118564844813716,1
0.278302546827124,0.0131522545926283,1
0.276679183470642,0.0133537869879155,1
0.28073310758659,0.012366419605037,1
0.291985069573793,0.0219424163679642,1
0.330508889489284,0.025444586042812,1
0.389539802201248,0.0279683609310941,1
0.370353393764667,0.0322224809784753,1
0.274791504177344,0.0276570497777073,1
0.149281111032703,0.0180831477399049,1
0.133239601931503,0.0161123250158496,1
0.123371691521444,0.0149865160429654,1
0.0433301556111789,0.0040529506746419,1
0.0482702097479394,0.0107336168835953,1
0.0464902176766989,0.0109993909936779,1
0.0566266227057941,0.0165506314966069,1
0.0601801415138159,0.0168864146865511,1
0.0397690948686256,0.0115152835456354,1
0.0425317755242161,0.0155466686560858,1
0.0487785662465781,0.018431425548393,1
0.042635311535191,0.0176931530581073,1
0.035617201059849,0.0127561194516708,1
0.020332190338097,0.00987163088657986,1
0.0202566253535781,0.0110636810191285,1
0.0225308197056162,0.0120968419802003,1
0.0204143414957829,0.00862536843042496,1
0.0226190499441154,0.0185954590877025,1
0.0212763863738885,0.012200972506423,1
0.0231142425195265,0.012907455567064,1
0.0195719685100191,0.00990772262202907,1
0.0368385224261197,0.015360601078372,1
0.048401731812875,0.0149708142929156,1
0.0467114269969247,0.0163762039880474,1
0.0702662763873464,0.00736418233695349,1
0.1365201366975,0.0146992881554755,1
0.126831444456561,0.0128807909867852,1
0.104046427471516,0.00787081076213898,1
0.107865652612201,0.0101247884479466,1
0.118761904316809,0.0124502530150109,1
0.0986572034684017,0.00822098770918069,1
0.102838119489779,0.00883867401057475,1
0.10521527689376,0.0115924426292918,1
0.0848644584520289,0.00858449825900718,1
0.099034251464146,0.0188793575159585,1
0.092799254446185,0.0213103515331944,1
0.0752378202142334,0.0132455939181749,1
0.0729055238295342,0.0151808469947862,1
0.0822804499813842,0.0171604674544846,1
0.0975607782243707,0.0151464258628919,1
0.0876655637706454,0.0127598457456223,1
0.117863388976025,0.0173719372140981,1
0.132554797515602,0.0179460397134864,1
0.136386741748487,0.0170516697464077,1
0.1421119920916,0.0078155604861367,1
0.264392032979057,0.0146223959705119,1
0.265903796344154,0.0151040454583541,1
0.201899376498838,0.011273530708554,1
0.162397562487778,0.00722959718086338,1
0.153365636913904,0.00726647077930282,1
0.138903053859977,0.00704665473278653,1
0.148584819486154,0.00614781758565501,1
0.190282716551699,0.00927307370220633,1
0.173077278661656,0.00431900702493612,1
0.214210459997042,0.0103735962805097,1
0.181494474014597,0.00574743285861427,1
0.185436038555011,0.00632347760549252,1
0.187987687495678,0.00690536298400206,1
0.185012331329427,0.00786819716095378,1
0.245180932454903,0.00839197232458638,1
0.357444226690821,0.0144113491888767,1
0.338496214650353,0.00782095003468511,1
0.421156176807105,0.0103426147971487,1
0.413940723624601,0.0114386078476225,1
0.304970029120586,0.00901643843263232,1
0.303784140200665,0.0104361858430226,1
0.313433869872127,0.0118503207233609,1
0.335440164341111,0.0127725715812928,1
0.335406105088742,0.0107247317066807,1
0.296726639471984,0.0137555987446867,1
0.174710431781202,0.00629538803565941,1
0.143359297045496,0.0143575984516213,1
0.0813708015780286,0.0111825273794891,1
0.0821302012984509,0.0180445977831435,1
0.0986089852024432,0.0142581416237505,1
0.191006230226464,0.0304757544527377,1
0.204584576703991,0.0249724105102781,1
0.228131885868981,0.0268276329235564,1
0.223364374271307,0.0187622162901133,1
0.23770540190944,0.0156817952753455,1
0.25013916441506,0.0135746206260331,1
0.334543228901087,0.0184897812256252,1
0.323323700660503,0.0175328249778045,1
0.292921530818794,0.0143443839325379,1
0.333637724463111,0.0196394672384665,1
0.41310348538505,0.0241964050365748,1
0.466413159575364,0.0311469624803151,1
0.489727997764712,0.0320733310470584,1
0.401932755356751,0.0500007674879086,1
0.134287575051894,0.0279524468209033,1
0.0593709024322324,0.0162065373806905,1
0.0536350226084883,0.0155347253424571,1
0.0278874607613565,0.00847429302774514,1
0.0270942068283704,0.0102784666581675,1
0.0206831961581447,0.00804591655994741,1
0.0201804779935264,0.00737821008050177,1
0.0183089029119972,0.00657363270009562,1
0.0188939386987466,0.00719467765869002,1
0.0181385229562344,0.00511889144887975,1
0.0192625464696206,0.00657428190189276,1
0.0235260097245718,0.0160173162665556,1
0.032033586155481,0.0313222817887434,1
0.0370723051251503,0.0194586122322281,1
0.0383760179602908,0.0197897918374248,1
0.0356498986925423,0.0166911754550386,1
0.0373671068947095,0.0164423664713359,1
0.0476919584270419,0.0115611716906393,1
0.0448126349209765,0.0080543505597492,1
0.046641553852885,0.00655105790435746,1
0.0649479452803911,0.0110514268585166,1
0.0730716771185528,0.014225077467626,1
0.154319411170202,0.0137384959812524,1
0.231561389282345,0.0155372171651135,1
0.220484183836205,0.01536007391839,1
0.208663814123309,0.0129080638661302,1
0.169361851832361,0.00835240330189116,1
0.173552446060466,0.00950690324927617,1
0.171812104959417,0.0104281753871352,1
0.158870333988048,0.00935379632187464,1
0.160769012693982,0.00930294257194879,1
0.155234034481728,0.00734534396985095,1
0.150195330880754,0.0145668388693436,1
0.109285157257646,0.00925476964484014,1
0.129800241026097,0.0108370849439309,1
0.191773119000546,0.0236694583445184,1
0.181505771084952,0.0208211622281331,1
0.207054917635314,0.0237317776249499,1
0.20692420216473,0.020778464744783,1
0.202404688868802,0.0211986413250737,1
0.256540956342667,0.0207503162976719,1
0.256770099770151,0.0188143354886236,1
0.160155191255017,0.0124240449204675,1
0.0913552901937184,0.00740302152156811,1
0.108176129513676,0.00903117096219369,1
0.115914188713579,0.0107272583067221,1
0.135865966187571,0.0148591881487982,1
0.135160351604536,0.0150790268195097,1
0.114395909814479,0.0133939211923042,1
0.103050032256709,0.0141751993664398,1
0.12404169047699,0.0300713069614671,1
0.13170075706159,0.0333997090372678,1
0.131049863293759,0.0318770770122349,1
0.136487898709151,0.0301473007453711,1
0.135380028407251,0.0236649493374567,1
0.123334710347647,0.0223781529864092,1
0.0964472761888661,0.0202312892846471,1
0.129751342634988,0.0241169379770654,1
0.161042838026449,0.0327837170654389,1
0.164118426515852,0.0308027855535924,1
0.145170932132931,0.0198285895608983,1
0.154177977127412,0.0113305125749347,1
0.219746038742574,0.0138104333484253,1
0.220856489001104,0.0148498734970748,1
0.247652390286057,0.0151314450689844,1
0.267853352069202,0.0101152567053458,1
0.291932864017771,0.0109560461640203,1
0.294598030990813,0.0106613997142703,1
0.286727435175764,0.00951769556692372,1
0.260286872844572,0.0090253714910788,1
0.178253438511915,0.00521313008816643,1
0.187938140067015,0.0101010819663193,1
0.175584748530463,0.0109644220971311,1
0.240206032719279,0.0102101511259136,1
0.381210438238426,0.0190840983959311,1
0.412355226361038,0.0325428334490184,1
0.252834864240058,0.0232271213098493,1
0.226532373016642,0.0242472080075012,1
0.233132685333583,0.0222246605462424,1
0.233109346070579,0.0185417523684601,1
0.185792763211981,0.0152462067187209,1
0.162197389051142,0.0134506555074659,1
0.0771373327752386,0.00353871087646758,1
0.0609044024917315,0.00988985794934052,1
0.0626314908256988,0.00894823216663498,1
0.0554761872119207,0.011154991821649,1
0.0527408660213598,0.00722593292999645,1
0.0587135206501549,0.00544908176211105,1
0.054306857046173,0.00850791727375448,1
0.0628375600614115,0.00819690828434218,1
0.117547947694896,0.0189145239965617,1
0.13776524247594,0.0206654850831882,1
0.112784318550406,0.0183836927694774,1
0.128510060575377,0.0199734885922957,1
0.131670653289698,0.0157014884076393,1
0.101496745701074,0.0117439663350545,1
0.0999320875423994,0.013462287138639,1
0.0915137347566108,0.0149843633916421,1
0.0779203996294155,0.0119769286603935,1
0.0774658340711401,0.0104756605560608,1
0.0750460431036442,0.00811162583237932,1
0.0718093226142358,0.00699614671851675,1
0.0742636771625533,0.00749828633999061,1
0.0472253459109675,0.00586864793029998,1
0.0834405224179634,0.0116509841704636,1
0.114547933587442,0.00827758319994274,1
0.114998673942246,0.00866337232671881,1
0.121571741257534,0.0081853360563694,1
0.110201663233995,0.00733980642249927,1
0.103303739648793,0.00954443218378899,1
0.10991262621736,0.0106483424517534,1
0.104789671140056,0.00890542302317955,1
0.147634892654561,0.0100577420386956,1
0.15399738222309,0.00699418219006017,1
0.132160770158187,0.00681931765036327,1
0.0913579565471819,0.00471942942333607,1
0.118327418002841,0.00650798753324953,1
0.141552097791181,0.00826866792011701,1
0.144854025984469,0.00786601184835213,1
0.165779972409659,0.00672482794633719,1
0.163857787747628,0.00745085800364446,1
0.163037954517989,0.00787363004129746,1
0.120544750167843,0.0050814644013773,1
0.118365031989166,0.00696784291757993,1
0.113109911362532,0.00748502107751087,1
0.120196026972806,0.00895804333850361,1
0.175103827116823,0.0160726187115668,1
0.232084759164922,0.0226802084384937,1
0.295938870611501,0.0267753007712085,1
0.301562084073448,0.0358237471874597,1
0.276680563020882,0.0281426388495518,1
0.220229742375125,0.0223291338199536,1
0.244434621498808,0.0278438553866001,1
0.115191267298204,0.00941417642080665,1
0.0852638487333834,0.00546583245357154,1
0.118638121372314,0.0071737906250341,1
0.134186004508751,0.00749928796138402,1
0.14127516582267,0.00610520720054066,1
0.198707012355714,0.0111109621595982,1
0.227300093345689,0.0143232610075208,1
0.219867421858673,0.0150317705184993,1
0.271103860513931,0.0165277218380198,1
0.262566675016858,0.00843222936342951,1
0.292310231699029,0.012501028955677,1
0.306837414562796,0.0152130248967932,1
0.377940273042451,0.0163066898548009,1
0.492502760419994,0.015746318771483,1
0.501483359225374,0.0200009187073459,1
0.450890143695513,0.014842299309841,1
0.413009980905092,0.0137825871974268,1
0.396578308452488,0.0141774593276235,1
0.349583665942352,0.0109444311353369,1
0.356152960715195,0.0169621762479474,1
0.367551942781798,0.0150418242849692,1
0.367327663050693,0.0149124856393479,1
0.278581927130613,0.0161616029324137,1
0.159512113257666,0.0121642654218188,1
0.166955876476586,0.00786337752619854,1
0.24393043333809,0.0119583426448041,1
0.289772447652937,0.00936317133214948,1
0.282487845942841,0.00675654247878176,1
0.322192793248745,0.0105033156627347,1
0.316781262010296,0.0103189107844955,1
0.310423044250964,0.0117100241914084,1
0.292132977813841,0.0101422241957823,1
0.32525052712996,0.0118532406347914,1
0.316223342324485,0.0115383790556471,1
0.27478665489399,0.0133455373908593,1
0.27345260167795,0.0119477341450363,1
0.29837819608213,0.0199468422415446,1
0.305537155438403,0.0265198787857981,1
0.276010786517631,0.0239456650593528,1
0.270163511015495,0.0221180775902016,1
0.320694848607377,0.022459531690528,1
0.313357176658676,0.0214912210540117,1
0.231450086878264,0.0155927836027593,1
0.202959287078738,0.0133655430559796,1
0.203604592546318,0.0122203303408142,1
0.283165045801993,0.0274597883881022,1
0.391484428523985,0.037246884105426,1
0.479105206682806,0.0397832495151646,1
0.445568999277232,0.0535348112939855,1
0.285451794059786,0.0390666108932209,1
0.24006723915789,0.0472849888049995,1
0.15843269138947,0.0504508955946113,1
0.0687521573479408,0.0341666717081438,1
0.0212362551177008,0.0125325473556532,1
0.0152802437660865,0.0197102185752069,1
0.0163015817023625,0.0173748579926793,1
0.015443758197926,0.0153514698014559,1
0.0150480786298394,0.00925190821327861,1
0.0212135823812378,0.0148924435357304,1
0.0319992136560114,0.0184325136310306,1
0.0825060202950146,0.031673458242844,1
0.0911537532832798,0.0244743812655533,1
0.123831388375876,0.0198274617566558,1
0.152980689348971,0.0155369788637788,1
0.1240845210248,0.0129389656304202,1
0.111784571953095,0.0109669126096557,1
0.104201131269484,0.00987799667877941,1
0.0961378501859965,0.00805088157621946,1
0.0882450082492951,0.00545003453910997,1
0.101640981677676,0.00256094571651644,1
0.16719645711517,0.00785089953066256,1
0.15162859161325,0.00726690717224569,1
0.151413191753319,0.00858581945241655,1
0.170384530134906,0.0121692320382646,1
0.151444644246474,0.0108208935091058,1
0.146007929911241,0.0068691233165684,1
0.195768078703244,0.0100317605332176,1
0.196087167052269,0.00986635823661163,1
0.188669743687305,0.00841519683630922,1
0.199351667274899,0.0121775109195155,1
0.179517404058658,0.0106786890794613,1
0.192162117101462,0.0105215142049021,1
0.175486611070458,0.0117058064953641,1
0.111347937378291,0.00599712229821423,1
0.0854735142772489,0.00254523130136134,1
0.0952642371969238,0.00423691735897832,1
0.146405286553578,0.00585052835494815,1
0.14343741036379,0.00220946858925614,1
0.157626885483029,0.00460531379169593,1
0.162417173143416,0.00440522887838381,1
0.167048002784692,0.0040128865417353,1
0.19810241366627,0.00659586802768812,1
0.238346613198526,0.00938030335480788,1
0.289839235322336,0.0115361062262669,1
0.28686904802247,0.0103094140065367,1
0.284804159245162,0.0122106459674163,1
0.129057221908345,0.00674222475725593,1
0.103017285947676,0.00981479300896172,1
0.109759146161544,0.00704795559269083,1
0.107772254536759,0.00850720025489345,1
0.0750206834768546,0.00746684635379249,1
0.0767828754496111,0.00673637527366257,1
0.0878881402054441,0.00879297406004879,1
0.0809607893073706,0.00580920586886629,1
0.0803079575505969,0.00805330928596089,1
0.0605082518196328,0.00525891289968392,1
0.0614447498378412,0.00543232635915013,1
0.0587353593565496,0.00737359338711826,1
0.0616188777554,0.0109615538691381,1
0.0589695914579005,0.0118735387901643,1
0.0576134628007129,0.0108643773070596,1
0.0579918836815213,0.0112544547294433,1
0.0582732917068331,0.00995061515422865,1
0.0654248886840338,0.016051428043563,1
0.0488665289768849,0.0119419607397835,1
0.0451514045895326,0.00924493409279075,1
0.0622057562257709,0.00960191875428982,1
0.147344692226056,0.0261157932268741,1
0.210023173275461,0.0409774944925937,1
0.526475980719644,0.045324155223111,1
0.666627551192512,0.0240671670102901,1
0.625749195221238,0.0219374347311133,1
0.652454277049439,0.0225998421575304,1
0.61873578716423,0.0211885580291424,1
0.511283800585099,0.0175260408839465,1
0.452484052864653,0.0140345755820842,1
0.506803780082428,0.0141317172744724,1
0.506085927969095,0.00567021444800569,1
0.603731772410403,0.0075929536911478,1
0.589583358975475,0.00818409299359762,1
0.555093599074295,0.0113551122351906,1
0.550209301825451,0.00854437991410553,1
0.631878439042564,0.0113639738131691,1
0.628729187009672,0.0110018393806005,1
0.730128178597974,0.00966765411502242,1
0.882394751351777,0.0151202606115693,1
0.68613630583377,0.00963319959778646,1
0.654463582655266,0.0155353313355159,1
0.63385159209611,0.0135287188614559,1
0.706901797095004,0.0112658862624263,1
0.832510318574879,0.0128233361077408,1
0.841422132208355,0.018982814486181,1
0.646151948839386,0.0109064324015163,1
0.460356769313267,0.00384824122563858,1
0.494233610625798,0.0118751998560018,1
0.449269537490236,0.00777526986578802,1
0.437220304551494,0.00909823759544064,1
0.416292035367101,0.0139471319589482,1
0.267844930332371,0.00852264926929267,1
0.241021671961505,0.0181521904982647,1
0.194529297695383,0.0109617347311342,1
0.240111250654129,0.0117150573189257,1
0.178803459873633,0.00380226113736548,1
0.176437879259619,0.00504723410079558,1
0.164886422706199,0.00420390770690839,1
0.163275147917341,0.00468771164432756,1
0.20237042242113,0.00878218214999577,1
0.331630995920285,0.0156203138295891,1
0.33025235444662,0.012268208197957,1
0.331504247389425,0.012243572384697,1
0.324625289622856,0.0142320161731426,1
0.288050648425721,0.0166543430093307,1
0.282590088999928,0.0278377807560191,1
0.284785584448049,0.0321349638927119,1
0.286030187323788,0.0333354622897425,1
0.2807547716148,0.0390209548521818,1
0.267789868336604,0.0374988688395668,1
0.10753281313262,0.0201167406070327,1
0.148023084042295,0.0108169708829082,1
0.308319531317069,0.0260948081823853,1
0.432606151979793,0.0253343052496624,1
0.443210515853905,0.0183937009640473,1
0.465598593513333,0.0181553543228679,1
0.46787887678687,0.0169304093863309,1
0.46173546427872,0.0162851325746985,1
0.528163883212394,0.0144640981554303,1
0.616104777583405,0.0178495446984065,1
0.643024282445176,0.0176074706443778,1
0.676411974429643,0.036710934196833,1
0.562649134638994,0.0300689529017211,1
0.264216121510848,0.0184269331819621,1
0.2575310590433,0.0298682805234376,1
0.269766698016987,0.0291548768037627,1
0.224201299527615,0.0262242213820294,1
0.113173909586388,0.0117251719311211,1
0.0653726750048094,0.0170542131123618,1
0.0722852874604116,0.0179793417131239,1
0.0376031229813737,0.00723535858260525,1
0.0265304754207199,0.010409281029453,1
0.0273308138373245,0.0101624814489973,1
0.0191721509419504,0.00537435304860293,1
0.0165840325737045,0.00571422752556024,1
0.0136181596864634,0.00390130788638394,1
0.0248823453465283,0.0109808720539623,1
0.0281752783101606,0.0106314131579407,1
0.0399141334253433,0.0165200906162148,1
0.0369018102227255,0.0141347265483973,1
0.0365577619507858,0.0136932270132799,1
0.0369177349764896,0.0148865275675142,1
0.037347690890986,0.0158011403799549,1
0.0407457360520215,0.017912599453656,1
0.0404050818756228,0.0142999864278249,1
0.0383958170863711,0.0145461599832784,1
0.0300566124842169,0.0168967987072906,1
0.0291896123533234,0.0107792043435131,1
0.0444335903737873,0.0145650610570323,1
0.0447607197547563,0.00984638336891641,1
0.0487788055094581,0.00851085450915834,1
0.0607813204251134,0.0112514270170837,1
0.0609816855569525,0.0111541085658556,1
0.0696384224555497,0.0126022045693882,1
0.0880599468784124,0.0160079014406873,1
0.143160709807827,0.027156443831972,1
0.133963950131776,0.0166717780332539,1
0.11606888470313,0.0159528951898239,1
0.124023831520919,0.0164213182497129,1
0.0932224630796461,0.0156229129973669,1
0.0765383891430065,0.0145248746435374,1
0.0797726408242849,0.0169316879587936,1
0.0644214893958775,0.00912600101749718,1
0.0776053818313894,0.00841727525445194,1
0.1219294732144,0.00915530790854877,1
0.12884958275004,0.00469048920316569,1
0.157042201774424,0.00276664519336752,1
0.184427622739848,0.00373603383738386,1
0.197566640680281,0.00380942713388788,1
0.254192540898091,0.00602865605186894,1
0.257321685995484,0.00459924518629623,1
0.323912930648643,0.00642298559475037,1
0.37679366283064,0.00802196592783071,1
0.337960066929904,0.0070265501637804,1
0.316210728479518,0.00753018285251618,1
0.297057224889586,0.00893848580176572,1
0.315231834775162,0.0193882747120681,1
0.263484252384664,0.0165164032835413,1
0.255205732425463,0.0218177115610652,1
0.0992048412384868,0.00722849108041189,1
0.0794092053115891,0.0080473048030144,1
0.0764526970050596,0.0101020278571167,1
0.079798747393962,0.0132495188623344,1
0.0808748378556896,0.00257837285811669,1
0.112467118776274,0.00415700324868035,1
0.106930534404946,0.00368654186570948,1
0.113229439066144,0.00398324353991651,1
0.200750904782768,0.0100725407862083,1
0.259685755032287,0.0121720008348599,1
0.286374573615871,0.0141533318358282,1
0.282009091212687,0.0114632887108024,1
0.252408066135263,0.0108760479938409,1
0.211930574205445,0.00841606058045126,1
0.186889167632448,0.0124649360567955,1
0.177090848058751,0.0141145845863719,1
0.185200981363305,0.0147253318642859,1
0.21863665886073,0.020092848073453,1
0.185799890066816,0.0226297593922198,1
0.152714651866096,0.0201643687649602,1
0.119163473935486,0.0161408110245087,1
0.0685474888381213,0.0157872382408525,1
0.0669182791433492,0.01407109756512,1
0.0636498630498641,0.0122805639654983,1
0.0640227911184933,0.0105715192367129,1
0.0344892136709628,0.00431346889065049,1
0.0456368533346474,0.00878679042194518,1
0.0498369724706582,0.00983937958589934,1
0.0469311319701331,0.00932079303433884,1
0.0521757294774792,0.00882530316709356,1
0.0556028340237762,0.00808020739704686,1
0.0596452099601519,0.00825089736737651,1
0.0645381202021755,0.00915981391850123,1
0.041157426432659,0.00634843825552628,1
0.040635039195347,0.0118398301375508,1
0.0496096501996811,0.0150490604658335,1
0.05562299839572,0.0184056674234001,1
0.0564763276931546,0.0178538520616309,1
0.0569576720129316,0.0164849914833999,1
0.0389761956812794,0.0209304018544277,1
0.0154258437129793,0.0121276458784651,1
0.013470696874319,0.0161484618574468,1
0.0121164625964668,0.0186142372593036,1
0.0138103784508944,0.0224099972052092,1
0.0137529641367746,0.0170689249312772,1
0.0111985923214206,0.011146221986626,1
0.0098588745356815,0.00771201042335653,1
0.00988423099199121,0.00941765356467977,1
0.00865025043081906,0.0105015890777197,1
0.00752944460452213,0.0108851857281157,1
0.00897596713560847,0.0132087525401084,1
0.0117826072094556,0.0187291050059906,1
0.0169156711715755,0.0252651956232216,1
0.0162989975365901,0.02927803285932,1
0.015712449160372,0.0408051865295291,1
0.0158969590169736,0.068209596187586,1
0.0122347330161857,0.0887222063786019,1
0.0142742340385452,0.11982006198163,1
0.0138172551178139,0.141489129802106,1
0.00997497107357487,0.130636359238217,1
0.00823429540243807,0.126844969557048,1
0.00691257004729014,0.117165532398027,1
0.00648747537900885,0.131923060255804,1
0.00542768693446946,0.175333414966111,1
0.00183270375891611,0.105554856562604,1
7.26889847496192e-05,0.0899345228832156,1
0.000112335534543903,0.406480863040691,1
0.000261797350183347,0.0556931227504447,1
0.00487366419345873,0.0641110766369433,1
0.00637813685668144,0.0350834682885987,1
0.00615148937125283,0.033212853627571,1
0.00588000392335808,0.0322650141810717,1
0.00557354964661894,0.0295992944986507,1
0.00548697670228919,0.028925826942166,1
0.00549524436591162,0.029763888033845,1
0.00541630528053933,0.0293447097976379,1
0.00568390254667436,0.0300882225332954,1
0.0059745708395504,0.0365578935294723,1
0.00245345329141721,0.0490367800611334,1
0.000552729081267675,0.130936627200697,1
0.000486984352418437,0.13170482591522,0
0.000399396716833575,0.180093416482958,0
5.40057852248956e-05,0.13296077331489,0
5.89329624578146e-05,0.194308909103979,0
5.95062526208844e-05,0.195957942587845,0
6.42766730122982e-05,0.187686543461656,0
9.54426761722002e-05,0.188270490183034,0
9.20612003064298e-05,0.178687567379903,0
8.57502877921834e-05,0.168663257490228,0
9.76511830415387e-05,0.172254481539058,0
0.00011593248358297,0.179598266243919,0
0.000108238585653672,0.173422023716671,0
0.000106221194506999,0.220610366096578,0
0.000108191575032052,0.25308796422706,0
0.000111874294479974,0.252755948506674,0
0.000105005397835008,0.26524863538914,0
7.38457295571444e-05,0.259338834917579,0
7.16444405174744e-05,0.274657588397108,0
6.63494123798273e-05,0.271201663469528,0
8.90319775819416e-05,0.184783694412534,0
0.00023659847498123,0.235805328579666,0
0.000246739267257013,0.181520469718775,0
0.00023779764214252,0.171632096269362,0
0.000213519368211033,0.151589454274831,0
0.000230148105782374,0.143170341595106,0
0.000236514592231836,0.131350847385217,0
0.000251890518491096,0.142289838472194,0
0.000231199363811656,0.127142425766327,0
0.000190614493645554,0.104412285538782,0
0.000191114404845674,0.133369060037937,0
0.000110866978865971,0.115071840111716,0
0.000252542642276023,0.143172122761135,0
0.000418964727546873,0.101739504948068,0
0.000437439353799757,0.086727782182054,0
0.000577387564227063,0.0977143198735442,0
0.00132220639184921,0.114756021801006,0
0.00128819368987142,0.0636520048898075,0
0.00137421400769525,0.065270705805007,0
0.00138845334793328,0.0672845356493416,0
0.00134031015327145,0.0654107043567025,0
0.00133404967356061,0.0637895273895345,0
0.00144605276627097,0.0755986401776525,0
0.00149405108878017,0.0902678368675204,0
0.00152764570551918,0.10457432625408,0
0.00143503735117977,0.107828218407336,0
0.000415873649866403,0.0914678642868248,0
5.22811194058186e-05,0.13450575434586,0
5.59803562407799e-05,0.180745071752071,0
8.22319370200748e-05,0.228757054516479,0
0.000105647649498375,0.284540049446766,0
8.68921551521911e-05,0.341348853926945,0
9.82962505806147e-05,0.545587586670928,0
0.000111741191120172,0.684743018892514,0
0.000111752436180238,0.714951726254538,0
9.37458769599667e-05,0.953267611020539,0
5.58287432555866e-05,0.844825370509829,0
1.74602990329177e-05,0.613286539835472,0
3.24914500655413e-06,0.395649949464439,0
1.59331955230508e-06,0.329256681827021,0
8.43022385886869e-07,0.241821104394042,0
6.36379527202994e-07,0.224793900583344,0
4.18641875115604e-07,0.191376134144461,0
3.47834002014395e-07,0.178669499782591,0
2.79917661896209e-07,0.157155134193387,0
2.58554227370043e-07,0.151352923186199,0
6.83718975035014e-07,0.2347111354701,0
1.21534189003982e-06,0.326179861380717,0
1.10299859276621e-06,0.292365785428701,0
1.02029429448211e-06,0.277080933178532,0
1.04499251721048e-06,0.282082745592651,0
9.93917989228906e-07,0.202727126545211,0
7.56897733329217e-05,0.188213929291997,0
0.000313856870482036,0.399261010100816,0
0.000775857736412147,0.352645414709738,0
0.0014501623629197,0.238783932591164,0
0.00141208789226485,0.140053298075199,0
0.00139386141013378,0.142531838707793,0
0.00136704304341162,0.146150010560066,0
0.00130238604987649,0.144944449096336,0
0.00127942130400073,0.147841110493268,0
0.00124554123928364,0.150451127401452,0
0.00131539190724493,0.185975858731953,0
0.00133533397254983,0.1872635998586,0
0.00102550133404862,0.229515211480753,0
0.000144496217086041,0.136399282187375,0
2.1869064242556e-05,0.330619913353266,0
2.12406486389129e-05,0.38051770301944,0
1.99084877265588e-05,0.486956978087277,0
6.42866687842504e-06,0.38473724095442,0
5.2519342993802e-06,0.393532381280115,0
2.83848424030709e-06,0.298160996448923,0
2.00746558299423e-06,0.327548742585942,0
1.70900602085833e-06,0.304881526307315,0
1.46775781853766e-06,0.276286696325838,0
5.44069626347984e-06,0.395854908861832,0
1.22022534700901e-05,0.587985373156013,0
2.95198955785884e-05,0.686584615405548,0
3.22130312978898e-05,0.45775148679289,0
3.27335745090305e-05,0.465628611601568,0
3.21990485343112e-05,0.459691687157839,0
3.06382115208603e-05,0.446625287791113,0
3.11728288711236e-05,0.448807014662837,0
3.12479330714085e-05,0.450686114806668,0
3.15410102786795e-05,0.454714988033243,0
3.32589711028501e-05,0.553790170793949,0
2.93460188163529e-05,0.531372628445726,0
8.36041629648198e-06,0.362788787182182,0
1.36735642464201e-06,0.290216571345558,0
1.10977714917724e-06,0.282007595154289,0
4.97485347088677e-07,0.194454660319136,0
1.13941635774368e-06,0.280736477041112,0
1.3817032233581e-06,0.298448597353149,0
1.69457140940615e-06,0.322409710392358,0
1.63003093456958e-06,0.318405292035343,0
1.95337545248364e-06,0.342556570956824,0
2.27627734390933e-06,0.361745613135319,0
2.10711941595993e-06,0.348909828344534,0
1.84391656257725e-06,0.312178603573797,0
1.55495020690159e-06,0.279520864035784,0
1.20663836947361e-06,0.23758904899454,0
1.92359603694717e-06,0.316856271165157,0
2.58245730120567e-06,0.377740446568365,0
2.74695842964193e-06,0.400135920325151,0
2.62370728159153e-06,0.418135513734933,0
2.1759545413646e-06,0.400400671931527,0
1.98242009128326e-06,0.38943793567233,0
1.43637660648098e-06,0.331389337337286,0
1.1194543641871e-06,0.289164377140973,0
8.29609461996639e-07,0.258537700838698,0
4.97058019716612e-07,0.212300405905781,0
4.98546854268427e-07,0.202177363407166,0
4.46928054984615e-07,0.18449173526591,0
5.72755322729682e-07,0.21688405978287,0
4.5882930043703e-07,0.194274066990342,0
3.95535598791451e-07,0.186011501639803,0
4.16454520636817e-07,0.18517575398093,0
6.19316611399133e-07,0.228324216971187,0
7.30524839988528e-07,0.241937049886209,0
6.669391976714e-07,0.217428998430699,0
6.40780642854476e-07,0.222408363582757,0
6.59814629739393e-07,0.2246429456398,0
1.77836425029471e-06,0.337090844399959,0
2.11927906977417e-06,0.338958651816934,0
2.93206034213503e-06,0.383666791983317,0
3.65491613331238e-06,0.413602847878402,0
5.14596046433896e-06,0.471041393116571,0
4.1365356680544e-06,0.395604729358444,0
4.34410066525573e-06,0.408786309967082,0
4.21511528266532e-06,0.387964718770283,0
4.25524172109843e-06,0.382057964469565,0
4.52043031594768e-06,0.39976007682636,0
4.71460523314478e-06,0.385019806757006,0
8.3521170498249e-06,0.494564221007635,0
9.73633247191225e-06,0.495443153233669,0
1.02464092013029e-05,0.502997290749,0
1.05145555554469e-05,0.529088330056395,0
1.09949090359198e-05,0.559692895088947,0
1.12904973940354e-05,0.576483059923081,0
1.19265958785676e-05,0.604794134314075,0
1.16124719075203e-05,0.598594671341387,0
1.17402719229619e-05,0.59803925861695,0
1.17126423476327e-05,0.689178621397714,0
5.39002056040705e-06,0.525875180023966,0
9.29899570539382e-07,0.24785718889463,0
5.97285883909429e-07,0.221950752530196,0
5.97008613623386e-07,0.222994461293939,0
5.91466351556555e-07,0.216067068580762,0
5.79560914565424e-07,0.232773350184964,0
5.04824102649056e-07,0.23319977044582,0
5.12667100316932e-07,0.24255366532783,0
4.30026094267438e-07,0.219827097320624,0
5.41991314748887e-07,0.249939955765065,0
5.64582870118751e-07,0.26586722918724,0
5.36411328833614e-07,0.235616389829663,0
5.47374088767585e-07,0.232563955837186,0
9.63816034788255e-07,0.289410373812417,0
1.0120095086336e-06,0.277238292554652,0
9.82595595273129e-07,0.26634281063744,0
9.7604002872178e-07,0.267815978434922,0
9.22757188567836e-07,0.26705316015409,0
9.61509011879139e-07,0.277847029324728,0
8.86157720387044e-07,0.266915969670905,0
6.96528107773249e-07,0.230956151517156,0
5.91355904511396e-07,0.213104793077567,0
6.38740201807674e-07,0.223187732077501,0
4.14715241646739e-07,0.188188838758018,0
5.15098192772037e-07,0.208323382250153,0
1.30430729928049e-06,0.323130104017226,0
2.56706115077211e-06,0.411535812517661,0
2.66467370438327e-06,0.399263541896434,0
3.81382071925543e-06,0.438801126081912,0
4.88208989883887e-06,0.456623278544632,0
6.58421488016457e-06,0.463413036248764,0
1.05981463641693e-05,0.593436136080275,0
1.11124146322757e-05,0.596168408539357,0
9.16402836832531e-06,0.518097737001305,0
7.43551639332268e-06,0.421341433315113,0
7.76206576173877e-06,0.38390841675586,0
2.75982041768337e-05,0.299270286720506,0
8.85704793192274e-05,0.425765972067212,0
9.17805139163331e-05,0.354712323840506,0
0.000189933630156269,0.256344703371475,0
0.000238828199000394,0.17562690782647,0
0.000262392545118168,0.157222945124656,0
0.000321049318706928,0.174470376488202,0
0.000303488659357194,0.167834275755455,0
0.00034785024338861,0.139735550038472,0
0.00105385797703667,0.168514185115908,0
0.00224263196658858,0.244933041350697,0
0.00327479867376659,0.276833907750462,0
0.0069779570547167,0.0220838028124366,0
0.0320033059784908,0.0454513328927458,0
0.0430600536150079,0.0555721679390083,0
0.0417110286449734,0.0296391397610273,0
0.0399419855294629,0.0283237375574197,0
0.0374838489821689,0.0268487840461835,0
0.0369578314739233,0.0261747975894599,0
0.0403454009986787,0.0284633672821195,0
0.0442337047634082,0.0304427098727056,0
0.048143860382132,0.032147531811072,0
0.0497341841461498,0.0649427572839372,0
0.0285184244988382,0.0721698762664901,0
0.00912891335370007,0.0311326000314553,0
0.00134731971606952,0.175939093017032,0
0.00106906305701618,0.227362888243115,0
0.000462041457838919,0.164549646193199,0
9.44549249843067e-05,0.237195677278383,0
9.05439127515042e-05,0.257578399918099,0
8.54003096085389e-05,0.232707187998477,0
9.59255760124428e-05,0.265363930011077,0
9.32002666706907e-05,0.283163536162491,0
8.38788713824001e-05,0.292635639624709,0
5.08163627290013e-05,0.229106805558501,0
6.04579196902821e-05,0.214499421137458,0
6.62863831642747e-05,0.213670683104155,0
7.13386224995461e-05,0.222858759459708,0
7.11879192878311e-05,0.229688284319713,0
5.48546504061752e-05,0.226353544565945,0
3.95515051868667e-05,0.214998934578339,0
3.98111743635351e-05,0.22548962914485,0
4.27091985729909e-05,0.236645996330767,0
4.10987632914941e-05,0.239484342723663,0
3.09509589905934e-05,0.33819570626013,0
6.06344239185616e-06,0.262517506514907,0
6.13469100525332e-06,0.29920051099836,0
6.85995810482304e-05,0.0668897112266033,0
0.00168982249663819,0.114984732241396,0
0.0022880906225866,0.0714118819073945,0
0.00222059538268099,0.0693860255142788,0
0.00217942370191496,0.0678093526552189,0
0.00208122646218527,0.064403770779303,0
0.00345399469249101,0.0237630706257006,0
0.0136242615105657,0.0457755518505215,0
0.0195553175656757,0.0572291093684647,0
0.0222047097288685,0.0436468225426371,0
0.0202685299675606,0.0404235175724494,0
0.0205229165815179,0.0405832910862668,0
0.0216464143149942,0.0451091974967598,0
0.0220293248583382,0.0456415422884305,0
0.0219305144954147,0.0454244407988307,0
0.0213604386322518,0.0447927934389919,0
0.022546779526841,0.0841085608750775,0
0.0173810471971416,0.123497872473364,0
0.0108566717738724,0.124742605497448,0
0.00308464989716747,0.213350683689796,0
0.00109917685674525,0.144639539001969,0
0.000308230364145597,0.174286459871656,0
0.000275514373351056,0.211297151440158,0
0.000287738554436784,0.215700868851456,0
0.000284834522285309,0.36029325709831,0
7.43930638262944e-05,0.430265292699752,0
1.4133405803457e-05,0.636464909675948,0
7.09039012531863e-06,0.573523581634168,0
4.42551878988491e-06,0.463392558762487,0
4.3252733212295e-06,0.517822413155197,0
4.54847275784038e-06,0.557132839111706,0
3.56828226748231e-06,0.506723155231537,0
1.94007046071534e-06,0.377691435604831,0
1.13811111258761e-06,0.278514319231052,0
7.33233621883547e-07,0.221121927917218,0
7.78239849689474e-07,0.226443560678074,0
3.07074997516002e-06,0.459273138411028,0
1.17464613586064e-05,0.600188082463962,0
3.02044788489066e-05,0.831033439664372,0
4.0419029841047e-05,0.93698863083855,0
5.12670185289427e-05,1,0
4.93755977910619e-05,0.768502233584707,0
4.53412292025871e-05,0.655173402643799,0
3.78298021569308e-05,0.549589858653843,0
2.91841751234624e-05,0.459684677679524,0
2.85493028735816e-05,0.45854587241761,0
3.84216602077803e-05,0.54007237732324,0
4.74628310135406e-05,0.750613988407955,0
4.55125153843194e-05,0.752816741653755,0
4.14345382366236e-05,0.779754608825606,0
2.56610445301794e-05,0.602089751425202,0
1.91064998759678e-05,0.622440597299928,0
1.71571483006512e-05,0.796518836424905,0
4.61619125733117e-06,0.540423391575166,0
1.65730758233892e-06,0.263015178609369,0
1.5023333184188e-05,0.547042338036701,0
3.81257566459532e-05,0.765840062944983,0
3.95105152914581e-05,0.540137098424697,0
3.8161944924186e-05,0.53779279995063,0
6.38489474440548e-05,0.270134419133253,0
0.000143381280991013,0.326297004191732,0
0.000157128914337232,0.278345649147351,0
0.000322155999776033,0.290498746492291,0
0.000337200633312089,0.196266057660567,0
0.000299011236743392,0.177911823121162,0
0.000310925530455829,0.190300230626934,0
0.000328777204775786,0.197455402640758,0
0.000312718881762379,0.197652340975787,0
0.000274129738146366,0.177861733303912,0
0.000276495268858226,0.22059345834757,0
0.000265223743416303,0.226399088115988,0
0.000264174962795978,0.25401920649689,0
0.0001164803923025,0.245273860483981,0
4.85003179519498e-05,0.300323490253512,0
4.88508982501308e-05,0.341827767955575,0
4.70525170971223e-05,0.340574503446901,0
5.51320541927267e-05,0.376873127022418,0
6.9457231904235e-05,0.433735441463382,0
7.38296835086329e-05,0.471493802422659,0
8.28883403660305e-05,0.533328280810651,0
9.01434665555304e-05,0.61821509539925,0
5.97338026651052e-05,0.712813143336405,0
1.71890459102777e-05,0.628322072692316,0
1.32905806294667e-05,0.743708777402073,0
7.15147027536845e-06,0.653636130592571,0
1.6626744285105e-06,0.335292631251419,0
6.90372623592312e-07,0.246961851478522,0
6.56862738598864e-07,0.238063627422705,0
6.45852614277406e-07,0.243054515829377,0
6.64759597539238e-07,0.242528394068073,0
6.59353560480667e-07,0.231996119266102,0
6.8548528944981e-07,0.243845896646652,0
6.17459131017273e-07,0.23401241179675,0
3.86593998826189e-07,0.183972825523533,0
4.11498445259377e-07,0.193609740609111,0
3.87508802150891e-07,0.185242867768867,0
3.83733692806598e-07,0.191393486556769,0
3.40634824693249e-07,0.182824010035452,0
2.45538661350059e-07,0.15519177770528,0
3.8382758327383e-07,0.19437813904227,0
5.10177535896744e-07,0.216109818702289,0
4.80353899626815e-07,0.208927072120489,0
4.68872227199841e-07,0.208513615360721,0
5.34285380397013e-07,0.216480585438185,0
4.62757820098318e-07,0.200793068186615,0
4.67109475592955e-07,0.205958439739221,0
4.39380560796196e-07,0.202140758389975,0
4.52304122541369e-07,0.207195043773206,0
5.0559010634935e-07,0.222421713468881,0
3.2321730471404e-07,0.192418675768065,0
1.05844735648787e-07,0.127208001830396,0
1.38032609331305e-07,0.139283164255405,0
1.49277459820843e-07,0.14171318800481,0
1.2264798562921e-07,0.139043698547779,0
1.65711644817348e-07,0.148413076228668,0
2.15026983999949e-07,0.170628955454707,0
1.99928013661328e-07,0.165321224225287,0
2.10212373054163e-07,0.165284290404699,0
2.19108494824359e-07,0.169586153964507,0
2.2280564154854e-07,0.173592021256377,0
2.37161661649803e-07,0.161166796204587,0
3.87155874591029e-07,0.196614804017875,0
4.04649470997927e-07,0.200977552229265,0
3.77577370317918e-07,0.18189586437182,0
3.57122661385315e-07,0.18506023576055,0
3.81618013639851e-07,0.191022880185002,0
4.47454512247307e-07,0.195748627341478,0
4.48938945683471e-07,0.193907722193914,0
4.39003322311782e-07,0.185504625378853,0
5.40261047567046e-07,0.195963869127813,0
5.26247685755792e-07,0.195213111484025,0
5.55377203214401e-07,0.206396016246419,0
5.40961034532568e-07,0.208340163917878,0
5.22827390163782e-07,0.215308641752974,0
5.38652963738769e-07,0.218484946910261,0
5.17722096008064e-07,0.216502450365671,0
4.58909777980371e-07,0.222929198721469,0
4.2944326080902e-07,0.222379560060539,0
4.11003843690924e-07,0.230104635490719,0
2.70781784111475e-07,0.208487966716772,0
2.48482798143965e-07,0.225270798918572,0
8.35373666038462e-08,0.156459531963535,0
1.53194452750663e-08,0.105076707230984,0
0,0.0844190009053414,0
5.53838489351871e-08,0.127877693437651,0
6.00429537946204e-08,0.121678802701464,0
1.17297067304751e-07,0.148884183821926,0
9.43341416046753e-08,0.139804177203028,0
1.06820525861802e-07,0.145044740527539,0
1.01634754162741e-07,0.141136711072034,0
1.59633913679587e-07,0.15045278135801,0
3.13743379331886e-07,0.178927929569605,0
3.66816642550044e-07,0.191750444243239,0
3.5524799569472e-07,0.18446478753104,0
3.62499357672876e-07,0.185144094182216,0
3.67705248757772e-07,0.189875956249436,0
4.95246436683688e-07,0.216929104581909,0
5.3654231441848e-07,0.215810341492823,0
5.11836546920417e-07,0.203107508551352,0
4.86989105413763e-07,0.201899403545608,0
4.5090393903339e-07,0.209458633229769,0
3.80288247982295e-07,0.204492881711058,0
3.04773486480294e-07,0.1786660809796,0
2.87894998379923e-07,0.184121411786452,0
3.09858661250176e-07,0.191008669207985,0
2.94627657442012e-07,0.192602306279266,0
2.3602072481139e-07,0.177052547558215,0
2.48793181585863e-07,0.193863220057562,0
2.45468453076571e-07,0.20704925943102,0
2.35496782471928e-07,0.199417103486557,0
2.2930902344288e-07,0.190060230107559,0
2.27064035306752e-07,0.189438309164925,0
1.55336748188254e-07,0.172993345231901,0
1.79360342760338e-07,0.173874156298207,0
1.56004250728729e-07,0.160021703481807,0
1.6435023304249e-07,0.157102106243464,0
1.85044907566566e-07,0.155609269115223,0
3.72242170263643e-07,0.205175011958026,0
3.76962890742197e-07,0.201268265889087,0
3.32087229367263e-07,0.187086815963491,0
3.46241217302429e-07,0.195588722048552,0
3.80637193580377e-07,0.202201343514569,0
4.11054142155513e-07,0.207332537978702,0
4.10050897363911e-07,0.204434204976018,0
4.08758226823989e-07,0.209215076600691,0
2.81320360327416e-07,0.174135980845889,0
2.78972260338883e-07,0.179227977525235,0
3.9162216866954e-07,0.200882924375726,0
5.43956098521869e-07,0.217272149391638,0
5.48176139700834e-07,0.213789103335243,0
7.16810125310766e-07,0.233118339622179,0
7.42998859206443e-07,0.242548752292299,0
7.25915824016746e-07,0.232566181107565,0
7.6729469421811e-07,0.23911688621116,0
7.61870843119998e-07,0.230411967276862,0
7.24491748738088e-07,0.229061761361934,0
7.22721871515386e-07,0.233368839932755,0
1.06852716879138e-06,0.287466760713234,0
1.05628787574155e-06,0.300666998307105,0
9.74961336233295e-07,0.286286362791883,0
1.04697197136898e-06,0.29113778964489,0
1.04521886030113e-06,0.292277712578279,0
1.04330437499273e-06,0.292672426011648,0
7.07749695222914e-07,0.240093006375021,0
6.12859965161474e-07,0.202589332710101,0
1.47963831587343e-06,0.300628437321944,0
1.45911486570589e-06,0.288755382962857,0
1.30375820770873e-06,0.278210823687363,0
1.59977976135065e-06,0.302471199853534,0
1.57175157068959e-06,0.295878942458482,0
1.48995620757599e-06,0.293921721882003,0
1.47184142513142e-06,0.287922595899291,0
1.45384295788622e-06,0.290102336471437,0
1.40745498934266e-06,0.287365040638286,0
1.2474270710238e-06,0.29440180463106,0
5.28727400059999e-07,0.202790811361911,0
5.38839068057746e-07,0.212187073202434,0
8.42698799098018e-07,0.24947126714986,0
6.54680833120408e-07,0.231212515206566,0
6.24490018058983e-07,0.233053483670511,0
6.22384189008217e-07,0.234584762566837,0
7.09941031663482e-07,0.244637586430453,0
8.230264408667e-07,0.259790984911771,0
7.20677448506804e-07,0.232698270367303,0
7.8206253299819e-07,0.235341434619208,0
7.06869472092618e-07,0.220023864167562,0
9.78799737812193e-07,0.271792648475799,0
8.23821785338003e-07,0.246127389829891,0
9.24547813907181e-07,0.236056944982419,0
1.24610610759755e-06,0.260901249963125,0
1.41454204300316e-06,0.267072888777148,0
1.4760000602682e-06,0.28644445556992,0
1.14787320625647e-06,0.243931717301339,0
1.37767934619103e-06,0.264777731214461,0
1.34717668064916e-06,0.261522859305765,0
1.47721392988027e-06,0.273077333179886,0
1.42412557712273e-06,0.256940914158797,0
1.48265119390227e-06,0.259064360797748,0
1.57280469479191e-06,0.277473034166958,0
1.20823639360897e-06,0.256904337621591,0
1.08892089083567e-06,0.248686665107943,0
8.33756779978885e-07,0.208987292757195,0
6.96172036559352e-07,0.200803043755089,0
6.24958422510462e-07,0.200302561624269,0
6.05191125927233e-07,0.201825166174263,0
7.11696448077616e-07,0.22138423167758,0
7.01000689159833e-07,0.232799583078369,0
5.97545759309802e-07,0.222696752201849,0
5.96476078629556e-07,0.2196723776734,0
6.30341406106096e-07,0.213112363824541,0
6.89347163645517e-07,0.226566318851441,0
6.76992184127129e-07,0.23099147091661,0
7.25346822636091e-07,0.219336918834417,0
1.19492825818663e-06,0.266932355744066,0
1.31632590781695e-06,0.257431844738643,0
1.3937033891242e-06,0.250679289622362,0
1.42938197624915e-06,0.247863320839769,0
1.43972166395304e-06,0.246994988996423,0
2.61510938780096e-06,0.319827678852178,0
2.82547265624888e-06,0.309765751458752,0
2.60145335466522e-06,0.2969159757647,0
2.48256287391769e-06,0.287509956313132,0
2.37235223154263e-06,0.290574657893966,0
2.07162609484622e-06,0.280382723041328,0
1.661383644163e-06,0.270699078050151,0
1.51258066652477e-06,0.263806337921198,0
2.12382584139602e-06,0.317318903550489,0
2.73226813432809e-06,0.365896422282869,0
1.52484427049916e-06,0.289477602451012,0
1.26054763508861e-06,0.307159629146163,0
1.2653511384568e-06,0.316356310705305,0
1.31991491284226e-06,0.31167138774356,0
1.44849015336934e-06,0.316079593240623,0
1.43767095363638e-06,0.30167000470236,0
1.09350643419064e-06,0.268336129288486,0
1.01329610144238e-06,0.274965001961677,0
1.05746150658194e-06,0.28341598464485,0
8.9755430457809e-07,0.258723418316523,0
8.60212095736879e-07,0.267772974715309,0
7.83930282649904e-07,0.263100450784788,0
7.99683761758983e-07,0.255493785718391,0
8.4642612490095e-07,0.287848283049843,0
4.25438035989236e-07,0.205885016875172,0
3.37276354297297e-07,0.203779407955657,0
3.83576090950889e-07,0.216545150921483,0
4.41769737864143e-07,0.235272193500825,0
3.5458573257764e-07,0.219629285681223,0
2.99306252956473e-07,0.207559347803947,0
3.20681423791043e-07,0.20174051142025,0
3.65193050028519e-07,0.211750021610788,0
3.74983436583709e-07,0.217586396860557,0
2.32278519046016e-07,0.162597791682882,0
3.34426317547558e-07,0.20342225766132,0
4.3763960519063e-07,0.230619385537393,0
4.48459433654395e-07,0.236547419464166,0
4.32903166441893e-07,0.22620866081788,0
3.81479692862232e-07,0.209013383001311,0
4.38557552169368e-07,0.213598343941576,0
6.26407018290607e-07,0.254829875662833,0
6.43895165697175e-07,0.249171319088653,0
6.78420660521438e-07,0.2644558435222,0
7.36937894223545e-07,0.268670338079809,0
9.14977692711501e-07,0.293957294848104,0
1.01111482469473e-06,0.288966143549294,0
1.51178427416879e-06,0.349954026643397,0
1.7539644651229e-06,0.380223625984181,0
2.11044812643101e-06,0.414501500325874,0
1.79065153646284e-06,0.389135169527271,0
1.20790086093477e-06,0.303086617579242,0
1.77159575357661e-06,0.385968726024925,0
1.91638826697165e-06,0.386515740187062,0
1.96011272223832e-06,0.406281365057372,0
2.05729208032321e-06,0.420176470563596,0
2.44289582812781e-06,0.477188434462276,0
2.00324030239187e-06,0.424619263126394,0
1.56296631511843e-06,0.369802299489616,0
8.42431588504892e-07,0.273137420241211,0
5.47097447212349e-07,0.222672808460472,0
6.55715304875441e-07,0.2404746275962,0
6.96344727954438e-07,0.241157896406248,0
8.69073637312672e-07,0.258050767995563,0
1.98126092125143e-06,0.366634301676714,0
2.00883516826958e-06,0.354689720707694,0
1.4804106068818e-06,0.30588371538173,0
1.59255522522028e-06,0.308299420837225,0
1.92484783998461e-06,0.334746460057285,0
1.9571333765192e-06,0.333112083494832,0
2.02353258919924e-06,0.339741979288654,0
1.96493487795379e-06,0.34324095410987,0
1.92120371622518e-06,0.341350836068331,0
2.14079319011717e-06,0.362414530846622,0
1.1642501767495e-06,0.276696294690643,0
1.00174254412643e-06,0.2691707000887,0
1.11635765538395e-06,0.284099416706794,0
1.02987782860168e-06,0.275783325338097,0
1.04576376033417e-06,0.268241794198271,0
1.10908219205818e-06,0.268062499171838,0
8.56457105778423e-07,0.243342835166081,0
7.6326243397361e-07,0.234526438224778,0
6.00374209635154e-07,0.211484585745875,0
6.51809629100154e-07,0.23124047994927,0
6.98246638646686e-07,0.241033948343614,0
7.04324369784447e-07,0.239745636318072,0
6.74536990324408e-07,0.219464287171847,0
7.47942569544672e-07,0.233984898518488,0
5.76650310081244e-07,0.211679781056957,0
5.76795966051614e-07,0.213543144913781,0
5.0711247321089e-07,0.191983831852682,0
4.23930549090134e-07,0.179792812588043,0
4.55660497167964e-07,0.183022093765824,0
4.68971357090467e-07,0.184070288532724,0
4.41927549296789e-07,0.177903255737001,0
4.97389989582894e-07,0.193007358832895,0
4.0973967561427e-07,0.189833666360192,0
3.73360472792991e-07,0.183295266668989,0
4.38874432496275e-07,0.197772761384781,0
3.85329202018728e-07,0.198540073237601,0
4.82785830389663e-07,0.224689181073309,0
6.3651554263432e-07,0.247579494991273,0
8.23246915803146e-07,0.26978802246807,0
9.87039674196447e-07,0.301662114096647,0
9.96863593061363e-07,0.303164852973195,0
8.56353365195208e-07,0.280807520883567,0
8.49779355873509e-07,0.276770767584424,0
8.21965981571628e-07,0.278141676615538,0
7.62125898250848e-07,0.28025158059183,0
7.45698210139352e-07,0.272319440541089,0
7.84035071117795e-07,0.280815156207287,0
7.42611770606048e-07,0.278224736483633,0
6.32637321437619e-07,0.276414898606991,0
4.46293246446123e-07,0.236158084522639,0
4.71540770323189e-07,0.236171054793676,0
6.26948565092675e-07,0.264077095572188,0
6.2933438892965e-07,0.26811216120309,0
6.75324161295217e-07,0.255115575040605,0
7.32134390855355e-07,0.251806133779179,0
7.13819043283244e-07,0.251097637952823,0
5.38758590514405e-07,0.226052059841811,0
4.070721803756e-07,0.199038141148615,0
3.86702978832798e-07,0.185943092525713,0
4.56480571717689e-07,0.193636939390978,0
4.89580105070871e-07,0.207005321642553,0
4.37889420898085e-07,0.195788090819369,0
4.33089899491676e-07,0.198460222865592,0
3.26135244390973e-07,0.186585760266735,0
2.10893078941592e-07,0.158273641958961,0
3.71184225891801e-07,0.187251405235233,0
3.76599693912482e-07,0.186503088741842,0
4.85657034409915e-07,0.212412798945532,0
5.79707618420474e-07,0.233934205884619,0
9.39813607486686e-07,0.31994065452308,0
1.07185189730067e-06,0.336352832498439,0
9.71172185234303e-07,0.328094857264627,0
9.67195882031657e-07,0.327166879078056,0
9.15389511390316e-07,0.322480692127326,0
7.45337737809801e-07,0.289695452646971,0
5.10647826540646e-07,0.249090033362878,0
1.20231605474998e-06,0.360805944060881,0
1.20739787628889e-06,0.344592739268542,0
1.13404615834113e-06,0.346905711231869,0
8.59500372462954e-07,0.287879925805224,0
7.50582400627816e-07,0.268703972305175,0
8.3454206475727e-07,0.268819307776001,0
7.64876385956088e-07,0.253615504575155,0
7.54963187316529e-07,0.2508429738382,0
1.17142127076125e-06,0.289713456698452,0
2.75031522342239e-06,0.460702524873834,0
3.08668934901114e-06,0.462960208240141,0
3.25378189625837e-06,0.474758726752025,0
6.14743998941099e-06,0.405819059671224,0
4.06536904115451e-05,0.614378162310544,0
4.59920173537023e-05,0.339864146944716,0
4.39397655986847e-05,0.337416399377635,0
4.14488850353396e-05,0.330488268661277,0
3.88095871159181e-05,0.320003295061066,0
4.73868440752023e-05,0.208380054119689,0
0.000116292506369992,0.260524807431371,0
0.000114840088954423,0.213366058884374,0
0.00010649567993472,0.194108338103977,0
0.000129048742099212,0.195932766030441,0
0.000139929128028149,0.213677804008539,0
0.00014673056290537,0.269540333081462,0
0.000122165894965517,0.233093082768768,0
0.000104013556334059,0.197974246523551,0
9.39771147199496e-05,0.195089028894753,0
9.95598555240425e-05,0.260252709114477,0
7.65348187649696e-05,0.252824206094088,0
7.73323535248291e-05,0.27449523936808,0
8.11700425421472e-05,0.30951121306403,0
8.2498875372761e-05,0.419830997138506,0
7.72379181575645e-05,0.429509110797505,0
5.9242728695636e-05,0.378640364147987,0
3.94289489959354e-05,0.231615311548611,0
6.0977264540504e-05,0.269109985081949,0
6.40429343707406e-05,0.219152719249147,0
7.69824784530371e-05,0.265480845400777,0
6.40187282346574e-05,0.277271364675573,0
6.13515605647383e-05,0.302997198711853,0
6.04762803064723e-05,0.305947036639667,0
6.19970575269557e-05,0.314069903357817,0
6.28497120688112e-05,0.3196395224232,0
6.27889230211253e-05,0.321884280186079,0
5.89823027366525e-05,0.442973094396486,0
1.1043579506871e-05,0.290262904962798,0
4.35660151032142e-06,0.377681974353717,0
2.1988025141154e-05,0.416956179513597,0
3.89132981487836e-05,0.382846671308585,0
3.71679984324938e-05,0.355350117834192,0
3.71041696809312e-05,0.346635783488692,0
3.45987411250117e-05,0.334836025736824,0
3.30564688556865e-05,0.321156358115323,0
3.37425304817097e-05,0.269654472398114,0
7.04912394463564e-05,0.267756292252839,0
7.02240403799621e-05,0.187726368579184,0
6.95389853519615e-05,0.188662476745374,0
6.36420771943956e-05,0.216066539032318,0
5.77885340676516e-05,0.228373713883121,0
6.31311883543789e-05,0.180139913401268,0
8.90235525891231e-05,0.189372501371448,0
8.7636496980402e-05,0.179866727194647,0
8.31697235994386e-05,0.176376782761296,0
8.73061268148696e-05,0.184062946692919,0
6.65133683986536e-05,0.191871661782947,0
6.38169098370353e-05,0.258093522487517,0
5.66619144776069e-05,0.236297728049994,0
5.65918000945862e-05,0.225163642627786,0
5.61052781361623e-05,0.210005041131369,0
5.54105490368059e-05,0.25477756757366,0
3.96198893027055e-05,0.22148442099514,0
4.7419135689468e-05,0.256605499507494,0
5.47870251684208e-05,0.284599957707116,0
3.67909695250169e-05,0.255113567044399,0
5.62748478827906e-05,0.248203776509711,0
0.000122836754090195,0.322977338033592,0
0.000126507435438925,0.244840589155239,0
0.000135664991861896,0.262092977294866,0
0.000141467935781149,0.27708496993789,0
0.000142740691482324,0.323034479718913,0
0.000146922589658975,0.352048035480962,0
0.000150972928848264,0.338353138565453,0
0.000152518634197375,0.329186493604238,0
0.000156423714145433,0.314874059336992,0
0.000131126191079643,0.46927635484517,0
2.2447386557431e-05,0.243056514183863,0
5.3746109970496e-07,0.224541553624886,0
4.22088996555394e-07,0.198664641954637,0
5.21269185646222e-07,0.210658980197056,0
4.91541116459011e-07,0.208862978569612,0
4.96421744139568e-07,0.205670291236704,0
5.40037848130434e-07,0.218724550040645,0
6.00233583511244e-07,0.241203273369769,0
6.17522632828815e-07,0.252755240703936,0
6.32504240083394e-07,0.246851666525466,0
6.10137141611758e-07,0.248454129486997,0
3.08850386612117e-07,0.181025985106998,0
4.67572850197975e-07,0.194965235933749,0
4.3278643208866e-06,0.465955659780228,0
4.67329426587061e-06,0.387969260936008,0
4.7252959622161e-06,0.396207650934891,0
4.57818406087273e-06,0.387873469205017,0
4.38504550162308e-06,0.37128957929576,0
4.46898106440491e-06,0.373206551262633,0
4.4654090351114e-06,0.370938328883332,0
4.42216073864285e-06,0.361655490490124,0
4.5575616903915e-06,0.358888929427466,0
4.44157594597394e-06,0.385718268336417,0
1.04891684533306e-06,0.225884245698394,0
6.4190166988399e-07,0.224688037950715,0
4.42814374100562e-06,0.190380525829748,0
5.66085528365251e-05,0.375231304652837,0
6.25051675863809e-05,0.293638090777972,0
6.09857098622853e-05,0.296860302894282,0
5.8723139897861e-05,0.282939885981247,0
5.94356400734874e-05,0.277001366991795,0
5.88914291294115e-05,0.27153925619469,0
5.93867468222534e-05,0.279889157733057,0
5.83154859319116e-05,0.277652940053402,0
5.773578522953e-05,0.277331597509183,0
5.79369352863039e-05,0.37083285358115,0
1.66033691215722e-05,0.360047647392755,0
7.60515131837792e-06,0.487761006581756,0
3.4797383174595e-06,0.362050871786978,0
1.80370547601977e-05,0.376413781202088,0
7.15719134847689e-05,0.403749700830718,0
7.01630017261456e-05,0.31021084347816,0
6.76459240458274e-05,0.296644632017646,0
9.38971099821753e-05,0.209742598641241,0
0.0001288123233878,0.180905729749984,0
0.000119948570984913,0.17662883063808,0
0.000112044557926259,0.169439319481352,0
0.000110280629544878,0.15982851507492,0
0.000112782592536588,0.164615366373819,0
0.000117414402095904,0.186610169947678,0
8.86854211609278e-05,0.179182878706863,0
0.000105757182788094,0.184919088745023,0
0.000113900977010518,0.164749919639698,0
9.57079385381309e-05,0.244103558119033,0
5.23331548440507e-05,0.279667921116661,0
5.78250346155187e-05,0.238697607166761,0
9.67851407250252e-05,0.244166382813944,0
9.30452059353268e-05,0.205175083147818,0
9.36494772280829e-05,0.206733223460769,0
9.15020949391047e-05,0.209446696121236,0
9.07580783742981e-05,0.221473685426235,0
8.65962729672113e-05,0.279693635727402,0
8.07505634071732e-05,0.223631604518871,0
0.000110725598055513,0.215652279715131,0
0.000111920253025376,0.19995868795416,0
0.000117478502249599,0.176951756744482,0
0.000176633998318099,0.225799597663379,0
0.000197016588683444,0.208632434184562,0
0.000188532846210369,0.199988559858122,0
0.000176151795321168,0.186176850701531,0
0.000165838070008091,0.164848537498838,0
0.000139871958164567,0.142540646423566,0
0.000139906008548478,0.179067139245701,0
0.000143401204422413,0.207184836983561,0
0.000153698438545567,0.221987084568194,0
0.000158604203512534,0.32082225531908,0
7.31164452030387e-05,0.268149196946004,0
4.72899625259432e-05,0.332268621892477,0
5.06331421886607e-05,0.363663866107704,0
5.12139354156086e-05,0.468148696285125,0
1.79466223124065e-05,0.420126623287528,0
1.09346766245752e-05,0.46211771158731,0
8.06131333315322e-06,0.398151658494924,0
8.95730146929019e-06,0.422292274635985,0
9.26364426786567e-06,0.423077635938936,0
7.955345994997e-06,0.454356766721489,0
2.3086324599866e-06,0.281224289828232,0
2.24072114971487e-06,0.308049693522346,0
2.05274006927796e-06,0.314614492149309,0
8.70409061547492e-06,0.226948052020945,0
7.29817972612204e-05,0.374891835026069,0
7.70234471811751e-05,0.26965644090813,0
7.55443992435298e-05,0.266072381317893,0
7.12080225362424e-05,0.264342394515179,0
6.75837063121701e-05,0.257194710078573,0
6.5058253937498e-05,0.249245781214643,0
7.31810887897277e-05,0.240821302029147,0
7.25981038071854e-05,0.215160656226533,0
6.58647422432079e-05,0.205412496173543,0
6.59386809861528e-05,0.263466330711019,0
3.93956061437597e-05,0.30051936254497,0
4.33167610619465e-05,0.462187937663715,0
4.64425962389083e-05,0.477353674003411,0
5.01147379197267e-05,0.49368191815044,0
5.32232794366783e-05,0.50168750782674,0
5.50005002352113e-05,0.541008822080142,0
3.10593481998195e-05,0.710045201936283,0
1.05460834713586e-05,0.672907214744644,0
2.4197669174946e-06,0.345171466079912,0
1.05263620721243e-06,0.282950487966127,0
9.82258805137323e-07,0.294990643184956,0
8.16474227546321e-07,0.280946265987848,0
8.51864227230696e-07,0.283049112921178,0
8.09175920334549e-07,0.273110772333872,0
1.11474810451712e-06,0.29362602234786,0
1.26522371567984e-06,0.28637770773698,0
1.43640678555973e-06,0.26599106034777,0
4.4797740670209e-06,0.431610988532237,0
4.84523265102706e-06,0.426551255143295,0
4.02120296536876e-06,0.383707787189692,0
3.74652745136734e-06,0.373632577136125,0
3.79902312055047e-06,0.360637616271183,0
3.88161990586652e-06,0.348393471705189,0
4.08892670428296e-06,0.354205564734201,0
4.54331045875812e-06,0.391450390653426,0
4.87030329197032e-06,0.421246088497207,0
5.2497381426701e-06,0.493419735507678,0
2.8300162842167e-06,0.414826100876389,0
2.29372839619826e-06,0.419421560728715,0
2.33134158801744e-06,0.428216074860411,0
2.31276636504495e-06,0.411007844189522,0
1.91894510558823e-06,0.413382094408908,0
6.96197814522453e-07,0.273028793774191,0
8.5970491955228e-07,0.298572558991465,0
1.00119030890064e-06,0.286139945359723,0
1.03881523702823e-06,0.280921010196983,0
1.0434552703865e-06,0.279146083222294,0
1.0384882970084e-06,0.269168190628554,0
8.82842003685993e-07,0.246229393750259,0
7.1948285997283e-07,0.221898283294029,0
7.03855127025224e-07,0.229002410417559,0
5.09904247572481e-07,0.200724792021748,0
5.32848520925273e-07,0.206982201929027,0
4.41137863402752e-07,0.200194999963997,0
2.63109591646262e-07,0.181544534164356,0
2.53688689228862e-07,0.189415273263709,0
2.56932940194811e-07,0.185352293432646,0
3.78709085771156e-07,0.204170224304265,0
4.1489862146555e-07,0.210593429869284,0
4.53418862262808e-07,0.214716206981889,0
4.77617453576272e-07,0.220034131257387,0
4.84190834167164e-07,0.220199438630913,0
4.19816134686807e-07,0.214659601984258,0
3.14120617816298e-07,0.189389718816727,0
2.82954222118795e-07,0.176040185848459,0
3.01711357871541e-07,0.176733773048035,0
5.63493908360413e-07,0.240731116003947,0
6.70879244064155e-07,0.291906913993066,0
6.34052384908039e-07,0.279806463609066,0
5.93287155974653e-07,0.283082107380004,0
5.5351280679366e-07,0.273552201566035,0
5.80690953403176e-07,0.275899268586354,0
5.95931388173452e-07,0.279406492317963,0
6.90682797457275e-07,0.277255352358092,0
9.06862873757911e-07,0.29528239437362,0
8.57273617520239e-07,0.287100673452631,0
7.16485071483363e-07,0.252929136910304,0
6.58230856835668e-07,0.22801688935853,0
5.57218336595272e-07,0.20768957868547,0
5.10747375585143e-07,0.193513579122243,0
4.74038927397745e-07,0.184943097492655,0
5.24906393366769e-07,0.188171845823444,0
5.47230738143508e-07,0.188905629594974,0
5.1575731223508e-07,0.194530546643249,0
4.03319286186502e-07,0.179591221460636,0
3.31927322165259e-07,0.167742517764064,0
2.54058592520522e-07,0.163456517052803,0
7.82727939769309e-08,0.110636815026679,0
8.14617166318335e-08,0.115579909658613,0
6.61743366279421e-08,0.109476342876511,0
6.86961758962416e-08,0.108209297503999,0
8.43840574244176e-08,0.118038368953039,0
2.1048251772439e-07,0.164419292508503,0
2.89878434500191e-07,0.187569833402409,0
3.04138049210994e-07,0.19141845963281,0
3.15659960409638e-07,0.184095867223041,0
4.65783901474115e-07,0.217738529556734,0
5.3024473707508e-07,0.214771534278756,0
5.27814692504655e-07,0.21414748561109,0
5.22202012587401e-07,0.213025939474662,0
5.86514677294766e-07,0.22326553066666,0
4.847011540058e-07,0.203375944871422,0
6.20094560984767e-07,0.234506000113225,0
8.78704116665857e-07,0.271777247637882,0
8.88966889634305e-07,0.266808975546395,0
9.65964617533922e-07,0.289842127743455,0
1.0676681129316e-06,0.301032968378671,0
1.10386519339568e-06,0.304813742023609,0
2.4823585364053e-06,0.431217062113387,0
3.10872196269326e-06,0.422170516834052,0
3.28230699383418e-06,0.42613340880793,0
3.30521794445418e-06,0.435612304669506,0
2.89951304400764e-06,0.417122169799812,0
2.22994156002278e-06,0.368723498495498,0
2.04864807960676e-06,0.365534266717121,0
2.05791976324588e-06,0.363685006746233,0
2.05182358933778e-06,0.362240008035253,0
2.15165870635293e-06,0.38727882396211,0
9.9139950319158e-07,0.289256488412474,0
2.36786728511684e-07,0.171919336759122,0
2.15171801662576e-07,0.16656238167408,0
4.62037713746961e-07,0.224805100035849,0
5.02632766208489e-07,0.218502680785908,0
6.62534938365881e-07,0.244747369845335,0
7.02498745096825e-07,0.254549213033147,0
6.74335796466055e-07,0.244095313900817,0
9.03621347292127e-07,0.277980125725933,0
1.36514895077739e-06,0.331935759207898,0
1.34659992492188e-06,0.31905982394271,0
1.3175045685038e-06,0.306212488484441,0
1.69359058934667e-06,0.323412741297196,0
3.71039638763803e-06,0.476741918802521,0
5.56659311076759e-06,0.52896946301801,0
5.03201704716064e-06,0.460522193460629,0
5.33141928635371e-06,0.473413435859059,0
5.29721737831829e-06,0.463165658900808,0
5.6767853103723e-06,0.43907933461245,0
7.54152040744267e-06,0.459230840184721,0
7.48215333926595e-06,0.444584583353354,0
7.28814189207876e-06,0.441176212517622,0
1.32117115891074e-05,0.270560525982713,0
5.12373692606834e-05,0.385575529828996,0
5.57614009466956e-05,0.359374937309607,0
5.49433175874363e-05,0.33001544999462,0
5.08159301622058e-05,0.261375149949325,0
7.05799187830797e-05,0.24738288424659,0
6.84005250841989e-05,0.206686733566717,0
7.27592768538814e-05,0.214569693600933,0
7.31174847046402e-05,0.212323962128688,0
7.33694397734563e-05,0.17382033885125,0
8.40194189149609e-05,0.184504508707921,0
7.61480275542469e-05,0.188379938267677,0
8.11471074901795e-05,0.153686173850097,0
0.000141594054151258,0.177131180099251,0
0.000142216251188062,0.168277864892167,0
0.000147731667497304,0.18357866395333,0
0.000291192582484492,0.19711989380291,0
0.00046730011117486,0.171504465470522,0
0.00040157288262849,0.149783281962712,0
0.000379116821891264,0.154086718636674,0
0.000368600050059721,0.157609354974476,0
0.000298467879196599,0.115127253512416,0
0.000293577617683457,0.0980847435843791,0
0.000310315721721276,0.0908177557522018,0
0.000289338144531007,0.076250190649036,0
0.000289138569444906,0.0749205509932219,0
0.000268519139537661,0.0857769185045007,0
0.000205904961765593,0.0891065527839426,0
0.000271921756895983,0.0662303736840354,0
0.000947564949825351,0.0810712679107239,0
0.000940434305629246,0.0470485418245704,0
0.000907452455593661,0.048190434537507,0
0.000922633637096035,0.0507662931311275,0
0.00102168313400971,0.0563453894003518,0
0.0012793624726112,0.0728095627505589,0
0.00148233457030711,0.0784005228871233,0
0.00163275405257489,0.0826692973948626,0
0.00176698780560889,0.0907405374201731,0
0.00174147621479274,0.121176160169153,0
0.000541318702932294,0.108753293580396,0
0.000325139438742283,0.365213758279091,0
0.000186107568467348,0.513458238142984,0
2.14437747966143e-05,0.262576034689717,0
7.18022519501204e-05,0.342812010064414,0
0.000141544581629373,0.253213667827502,0
0.000138613058013771,0.232592643442659,0
0.000140651877773397,0.230104198042041,0
0.000140764532082843,0.219985196533305,0
0.000137459196775305,0.211237741713225,0
0.000135254849798565,0.206387385796518,0
0.000136072602235843,0.215020208876539,0
0.000140324059835789,0.219552244407933,0
0.000141077997144005,0.226192219038637,1
8.70402338319392e-05,0.298936478177133,1
0.000193614114675747,0.145217937855241,1
0.0017534895302541,0.18661033737492,1
0.00316025121226734,0.153773468602763,1
0.00318336420511313,0.130967576703309,1
0.00302786532087216,0.123770803266339,1
0.00295994667373106,0.104442294711143,1
0.00318525285210026,0.107564784969479,1
0.00302102647588317,0.104037181739336,1
0.00327073311426192,0.0980303219190706,1
0.00295038880440305,0.0745515445243671,1
0.00242382061159148,0.0725142273687707,1
0.00274441358322719,0.0998992231749879,1
0.00282398550669563,0.098804839297377,1
0.00249348826733189,0.103757469232802,1
0.00148430303739474,0.0800316585480447,1
0.00108998676559876,0.0813254925519057,1
0.00129936356379303,0.0932263813305547,1
0.00147974011933702,0.104247358354095,1
0.00167676399354349,0.1435061092133,1
0.00140847875590782,0.0805943909567262,1
0.00137777666219328,0.0722135663526185,1
0.000837588233034478,0.0457835522680334,1
0.000912287947108713,0.0464439763734146,1
0.000953001864901756,0.0267972869515951,1
0.00222077620419414,0.029047307028473,1
0.00252893900492718,0.0192021357501183,1
0.00318877642573919,0.0232583289463044,1
0.00323655221421855,0.0206143408713262,1
0.0029602642179977,0.0189976678642157,1
0.00290237591629681,0.0189045529380066,1
0.00326066479788207,0.0207368708357787,1
0.00327524502569458,0.0204816021514353,1
0.00309030335237335,0.0209017357696516,1
0.00302219598392608,0.0259147232692135,1
0.00187502814803789,0.0269542433337712,1
0.00172369495811362,0.0531231615303732,1
0.00110979426260108,0.0360064969077715,1
0.00106781666106368,0.0350779114278193,1
0.0013416857031064,0.0423061121325399,1
0.00128820083393001,0.0506975622143224,1
0.000789687821516443,0.0297564491879786,1
0.00146918972046698,0.053196231171653,1
0.00157808029556676,0.0488573375619808,1
0.00140112622213095,0.0446544275816148,1
0.00138004186507274,0.0477286130135338,1
0.00166463299560283,0.034803942456598,1
0.00222307871009157,0.0392054962025047,1
0.00199915076393251,0.0434602886091555,1
0.00196098803288524,0.0390213939140985,1
0.00226329645868068,0.0393474434820633,1
0.00218619473702891,0.0430093154340675,1
0.00175592512463136,0.036210547980059,1
0.00158680724913974,0.0297660177994614,1
0.0016703636721552,0.02602832128623,1
0.00157590598850969,0.02473507490892,1
0.0016775592525074,0.0299351068024952,1
0.00146697843481705,0.0227578812503482,1
0.0015534523353923,0.0235499978847841,1
0.00163369989235759,0.0253226538850104,1
0.00144171346470796,0.0244395909143215,1
0.00156251348663439,0.0290175231145807,1
0.00149994236413843,0.028217287060795,1
0.00184701997721362,0.0267797845002275,1
0.0023069831465069,0.031050443929619,1
0.0021096761774522,0.0290388208532335,1
0.00239452504381172,0.0332264048341168,1
0.00255541655994172,0.0320689107075613,1
0.00255756546124433,0.0275608755473319,1
0.00340915237732148,0.0241470545535634,1
0.00357177375049125,0.0174333363675803,1
0.00310431884180966,0.0137705725687446,1
0.00242405209958632,0.0097575579378638,1
0.00238049625399434,0.012819398570776,1
0.00218242791184173,0.013156311866857,1
0.00223923246710634,0.0137164898840895,1
0.00198274840445117,0.0129098926008056,1
0.00176408109925572,0.0155516636065844,1
0.00190840377909416,0.0177100547102495,1
0.00108820100244433,0.0160069931087022,1
0.00091485603246197,0.0274479421033316,1
0.00094732113891626,0.0402096658506444,1
0.000811030429125038,0.0433958036174288,1
0.00104432047125162,0.049228558453513,1
0.00103839683868151,0.0423931000910075,1
0.00101702828943023,0.0414796455859686,1
0.000968147461288319,0.0445508180876558,1
0.000627755081062541,0.0349470547239584,1
0.00179289470651905,0.0209916636039675,1
0.00473691723488788,0.0266339858397272,1
0.00485770751798368,0.0234051638834067,1
0.00490313449915235,0.0236620052764744,1
0.00485293079582338,0.0226363412068621,1
0.00441527560083323,0.0211652734454374,1
0.00419202255339429,0.0205190897086702,1
0.00423684738083557,0.0190288356430133,1
0.00448808598889106,0.018990838026691,1
0.00444548267801699,0.0173730706420831,1
0.00478562861840059,0.0310943875052237,1
0.00285106232222796,0.0290641645695746,1
0.00252544553408101,0.0355701080948193,1
0.00204708320215957,0.0295296864541476,1
0.00197288688601693,0.0300341617142178,1
0.00198786940514076,0.028507034534341,1
0.00177082349442393,0.0233784899255861,1
0.00204617749447388,0.0227743276312889,1
0.00274436983425143,0.0298457806366968,1
0.00265111398547202,0.0301091851733833,1
0.00313918119069069,0.0353248553854607,1
0.00288758504815514,0.0396569960792725,1
0.00238283688801411,0.03304033001765,1
0.00318686817052436,0.0301149230240596,1
0.00632364618252161,0.0370131407545997,1
0.0234183055100155,0.0585830251575619,1
0.0372515500754786,0.0567077485236308,1
0.0368821597789065,0.0505720671787067,1
0.0391342255819531,0.0318322541298137,1
0.0607287566067502,0.0371303302718405,1
0.0759558683431979,0.044855565689874,1
0.0783362301908926,0.041422130487013,1
0.100060716043971,0.0344435045657041,1
0.0963883187346189,0.0151002015809389,1
0.0808990798137105,0.0101510913651681,1
0.082739993005507,0.00882980948839094,1
0.0828552478308703,0.00750184810080577,1
0.0679535680489156,0.00416883639119059,1
0.054305782157925,0.00115849735230787,1
0.0642132645379395,0.00121101710415175,1
0.0730002219660376,0.00169496805245884,1
0.0741043117672269,0.00136411780798146,1
0.0684140563000181,0.00145507721626431,1
0.0598298873326462,0.00277132852469553,1
0.0510652607319586,0.00225951832476999,1
0.0504639451865587,0.00228174834482711,1
0.0611640415410866,0.00566490326327485,1
0.112454990743427,0.00298052354151866,1
0.179060917702408,0.00453298494322473,1
0.190282168150683,0.00571447182121615,1
0.196042947509425,0.00474302218449742,1
0.203420277332828,0.00548716385972176,1
0.205204267558601,0.00518260906142528,1
0.200727556607506,0.00542666161529801,1
0.203962632415923,0.00593929809145462,1
0.203000606676181,0.00422828560566894,1
0.17165151444376,0.00259444252156362,1
0.176061125875395,0.00918146935680788,1
0.152594890180524,0.0104325397212789,1
0.136249721466802,0.013270126749713,1
0.103621595215773,0.0122891152350732,1
0.115668559489843,0.0112248788436082,1
0.116259647632155,0.0115863218287246,1
0.119658667924284,0.012092632421282,1
0.138710253303266,0.0142259525266061,1
0.13443213376629,0.0164909401858863,1
0.123075484530986,0.0151626343090572,1
0.105142358399003,0.0127357445060537,1
0.0796405648441548,0.00891075259999467,1
0.0723755697102811,0.00679290789939482,1
0.0891902336681041,0.0107234495053338,1
0.0916212049317826,0.0130132976209087,1
0.128019829602306,0.0183017470793953,1
0.165014289035137,0.0185276291526104,1
0.127096983137107,0.0105065781942711,1
0.125793545801747,0.0110840205933873,1
0.131455520062137,0.0105167320114169,1
0.116350526393312,0.0121019223693229,1
0.0883507319117194,0.00751735893581702,1
0.0725494955973503,0.00468857154568873,1
0.0884888118653188,0.00610686467466367,1
0.0920268583475591,0.00167497377506833,1
0.110878171216599,0.00479494069961667,1
0.105870697561966,0.00362470854490855,1
0.0949466530098602,0.0040296378997009,1
0.0870065350426789,0.00458584097527446,1
0.0884338961450318,0.00551935956967664,1
0.0773930222596357,0.00491988763200086,1
0.0763423713101862,0.00541681914195318,1
0.0756167427857598,0.00449413483696107,1
0.0735082624176272,0.00574100369408945,1
0.0658763171398571,0.0200722779128069,1
0.0215386604451649,0.00750903743485523,1
0.0187652644970383,0.0143445783449379,1
0.0193735142290052,0.00982529793774379,1
0.0218385119209029,0.00859044495169406,1
0.023870302377889,0.00923771138727716,1
0.0248067835391957,0.0070985754606288,1
0.0258111177068898,0.00436103190029293,1
0.0250711328993431,0.00482043429508362,1
0.0200682629990433,0.00205999103933681,1
0.0252593346810595,0.0044748132730764,1
0.0292544645654688,0.00621784508540466,1
0.0425608849401029,0.0120330925243364,1
0.0551520046511687,0.0130117188756041,1
0.0471650983681682,0.0115427625352505,1
0.0483860751583103,0.0121665142302583,1
0.0373217424875553,0.0100262956329728,1
0.0357523280853212,0.0132965593336968,1
0.0410687046557678,0.0165229654565164,1
0.0414485350653294,0.0185943023744285,1
0.0447722777400137,0.0159580760706318,1
0.0442815951158621,0.0174599643542662,1
0.0341734155681255,0.014234093900691,1
0.0215651642040028,0.0149455198497164,1
0.0210359546696872,0.0162990708992341,1
0.0194908860488401,0.0154975478253825,1
0.0280098656983079,0.020141948292094,1
0.0413000218498105,0.028885465062123,1
0.0434605473780301,0.0271513856514994,1
0.0430745032480966,0.0269672219526247,1
0.0426120380275797,0.0359214101415622,1
0.0431362357899802,0.0337199493271848,1
0.0427358470811694,0.0323598110727026,1
0.0289127943265531,0.0218142720809505,1
0.0200943924092532,0.0173842896155646,1
0.0205949773055412,0.0169283595608222,1
0.0254020454625599,0.0246213028081054,1
0.0204874445347685,0.0159742295360718,1
0.0229835656247213,0.0240966926268284,1
0.0258097305001761,0.0272696406433783,1
0.0260653556266399,0.019532177362458,1
0.0280822957354542,0.0219902953767695,1
0.026252703875268,0.0196055685621957,1
0.0327646821175592,0.0146702421530251,1
0.0524425355282277,0.0259300910156202,1
0.0612832644075011,0.0337336246736937,1
0.0608632847307099,0.030818370599701,1
0.0620957552867065,0.0324274169277256,1
0.0560882835711516,0.0277188977627774,1
0.0400263406166483,0.0189672067418088,1
0.0495411810490484,0.0254454312265506,1
0.0599577719920206,0.0324982220203802,1
0.0567335999283488,0.0299557085741501,1
0.0544351661776433,0.0421384102450574,1
0.0618324334575452,0.0253689944814781,1
0.0756040301606856,0.0291675630184908,1
0.0775428948542428,0.0339992280061722,1
0.0511490962601062,0.0203720274302292,1
0.0304583503730543,0.0117829823965988,1
0.0401813102218827,0.0157164079302881,1
0.040619116457713,0.0157960209569063,1
0.0388840654926468,0.0130595847904198,1
0.0447018511475073,0.0111296606651996,1
0.049408545371077,0.00999706414294218,1
0.0464827475147232,0.0144044078125312,1
0.0408565842523749,0.0122934081822811,1
0.0338940819602638,0.0100377708468702,1
0.0385888345721867,0.0144336844429396,1
0.0493051736334203,0.0204573512690267,1
0.0514860833640711,0.0207134539349893,1
0.0553349393604246,0.0227137037401436,1
0.0643894079503928,0.00701989334560789,1
0.0699511455692992,0.00627376617533866,1
0.0718254124297466,0.00750867520020165,1
0.0733856531565763,0.00695022445352392,1
0.0751266120954624,0.00722029195356173,1
0.089716401245172,0.00860281695421399,1
0.0912205016544882,0.00618368757319963,1
0.0790961879782285,0.00433316258733969,1
0.0738501745079077,0.0041255121551425,1
0.0648369894872209,0.00271416051567646,1
0.0527460203831348,0.00798258053771742,1
0.0316626602080133,0.00891551406186846,1
0.0313992481421491,0.00484752629243968,1
0.0383374204141067,0.00503122726166862,1
0.0392445131266985,0.00465750793782577,1
0.0309424150620255,0.00354840114327999,1
0.0287026037656376,0.00743379608209967,1
0.0304363948931155,0.00591035056017951,1
0.0344505863051244,0.00344696797487319,1
0.0470474292701563,0.00737447096885432,1
0.0415418923044963,0.00546816352406157,1
0.0353733590361274,0.00268913940755873,1
0.0351456816410145,0.00292628436870352,1
0.0408830954013148,0.00735590134088542,1
0.0326865277431436,0.00523110495573217,1
0.0338594338780217,0.00551127793600839,1
0.0371149556134693,0.00416110229067644,1
0.04045209769999,0.00552672870182626,1
0.031117638545531,0.00601900754084537,1
0.0955146769825787,0.00183322642043977,1
0.277526125122111,0.0172033072147554,1
0.3444632348376,0.0229181636317959,1
0.444847772884695,0.0365817009489339,1
0.422779915914913,0.0298045497545251,1
0.395347175817207,0.02898428137737,1
0.326931714271979,0.0262166151373321,1
0.2693780840182,0.023009700478162,1
0.212933829934239,0.0195169685328379,1
0.0829108549272352,0.00635335482389872,1
0.0684681439879095,0.0215815934425879,1
0.0651978203911717,0.00893364189748421,1
0.0864255514119412,0.00733438106331795,1
0.0981563106377879,0.00682220728468105,1
0.128434668137016,0.00929627424871399,1
0.145702460775409,0.00746140442195653,1
0.151801557171016,0.00589362856436474,1
0.150061135430001,0.00615852771347993,1
0.151115194370361,0.00470978826791548,1
0.257055053257317,0.00931318475037991,1
0.260497623353983,0.00696557430465409,1
0.248430505009304,0.0112644909924641,1
0.252860595126521,0.0153651635656587,1
0.213147251513642,0.0140133363717336,1
0.132509967248591,0.00874772071811892,1
0.147643005797947,0.00754494432951123,1
0.190997205784927,0.0112986891144313,1
0.173935874853202,0.010087633935179,1
0.177352536831106,0.0130134328659136,1
0.1377576026935,0.0123162381527171,1
0.127275776114863,0.0137220657796824,1
0.138210248921677,0.0119126869755053,1
0.111842290791933,0.00914567258081537,1
0.103537851536604,0.00939644097812538,1
0.159114387679445,0.0114767413846676,1
0.230124229409731,0.0311907441323963,1
0.215432897821774,0.0294328846306417,1
0.211019970901458,0.0283735114793907,1
0.205669416046069,0.0298797744272976,1
0.166080004600235,0.0259576879739343,1
0.142408025943216,0.0264536450110153,1
0.0715922644765909,0.0182995470655162,1
0.0631251021898652,0.0136855167330522,1
0.0595825410056753,0.0132725451043621,1
0.0509602561357554,0.0193441371079592,1
0.0808531217082103,0.0140401050183435,1
0.0986716912480555,0.00689609401452456,1
0.13444085860104,0.0110579983182535,1
0.16715667521095,0.0138851473709429,1
0.174348214039602,0.0144644018334039,1
0.179863989969452,0.0127998329359851,1
0.19985975030372,0.0102789553121187,1
0.191082274738101,0.00851156490890704,1
0.229899662325383,0.010376659762905,1
0.247692804032883,0.0124619642054168,1
0.0951068741541319,0.00259271757493623,1
0.0726702112243214,0.00485968650543737,1
0.0874216630496635,0.0065346716993104,1
0.105191739091609,0.00860579252628705,1
0.0937308668127346,0.00730934766440564,1
0.0856408544119816,0.00801934924468248,1
0.0808961723300365,0.0122324136311378,1
0.0531353044612102,0.0114518071589745,1
0.0539998028816523,0.0111766830322761,1
0.0534256271200134,0.0106751655633852,1
0.030249023943952,0.00756076272431442,1
0.0887969688867583,0.000789954757170092,1
0.325198727742213,0.0149262740255372,1
0.306312909154028,0.012052046962607,1
0.370849210599562,0.0141056266303141,1
0.370435925421855,0.00931942217236097,1
0.389187085909818,0.00654377591979287,1
0.423101131889199,0.00583193988023372,1
0.369367139472493,0.00429971297327638,1
0.328310811876641,0.00300554752832599,1
0.326741519843864,0.00234461676855104,1
0.394905215870669,0.0100373609318811,1
0.362729569635912,0.0097248506846863,1
0.399294645265959,0.010695305292917,1
0.317793189778895,0.00838798443640687,1
0.321378585625309,0.0118784608642626,1
0.274528635752584,0.0221756566077364,1
0.114789183871909,0.01443224011548,1
0.124809512741743,0.0151760858111361,1
0.0593385776846914,0.00500742263505801,1
0.0508262113328856,0.00698007902992346,1
0.0556897691160032,0.00601778303881188,1
0.0584922654765913,0.00494593488090888,1
0.0559331292301356,0.00694780885768534,1
0.0420335731859276,0.00422717303016789,1
0.0410622736617471,0.00498786475297259,1
0.0402339487755908,0.00576079157904252,1
0.0389402599920856,0.0121567140982706,1
0.0305642199597074,0.00913034698027338,1
0.0361039658909061,0.0138519895267576,1
0.0300528040586367,0.0138338773845443,1
0.0432231601193836,0.0281984762958077,1
0.0489823547778436,0.0405472749647728,1
0.044553317097526,0.0423734372789118,1
0.0447282569444269,0.0328094921212735,1
0.0480109688922473,0.025558652406719,1
0.0428524285555717,0.0242019526067232,1
0.0365970873683563,0.0199745131886571,1
0.0952527503689042,0.0347563800280471,1
0.200310418321158,0.0570062482543515,1
0.305152320439757,0.0895524808307915,1
0.365399780715028,0.0654872333573499,1
0.320654575256979,0.057501491082853,1
0.281437118597778,0.0400529243184425,1
0.255094957655838,0.0239685701554587,1
0.257046703060621,0.0261634383026795,1
0.175400106877423,0.0185818749566799,1
0.120548762014246,0.00706421040579287,1
0.130295579357027,0.0102740788790406,1
0.13254894717544,0.0105682119831229,1
0.124572852146901,0.0100664332945012,1
0.103314452156261,0.00881431216464856,1
0.104342034606677,0.00787861664047037,1
0.0960823124296278,0.00865361185182484,1
0.0751303631351052,0.0155738252467301,1
0.0755063093681319,0.0130964731205894,1
0.0887969662131853,0.0156234876929509,1
0.161491987221182,0.0590255669168736,1
0.14368138695288,0.0261564706852627,1
0.137374414966215,0.019122506671888,1
0.161037208163738,0.0160880365929719,1
0.15837052732176,0.0169379893724934,1
0.153267339607056,0.0193487645740573,1
0.128813679915594,0.0165854339018127,1
0.123830476929764,0.0169955225084538,1
0.126002736292751,0.0163682761709162,1
0.139351545377555,0.0183765326563735,1
0.0972394846934148,0.00949516000432441,1
0.167322830933576,0.0196698727508778,1
0.186322504116043,0.0201211988943657,1
0.177937797283702,0.021897882500117,1
0.180471933172726,0.0204765786437639,1
0.197374544773831,0.0114986966166577,1
0.36170916402024,0.0206898233686064,1
0.409365674837203,0.0203551824328783,1
0.422642379316555,0.0214384507340784,1
0.42065896816675,0.0160727915596065,1
0.507166505313948,0.0203662800133072,1
0.500416965646194,0.0189969047444398,1
0.48602072665268,0.0214538980679063,1
0.528455744988914,0.0253699173510057,1
0.621676860081655,0.0246410629654362,1
0.746810545217993,0.0452281386770425,1
0.504525406697758,0.0336480829385322,1
0.358967266818269,0.0253787055178923,1
0.240465073510523,0.00891545117990736,1
0.179733324950324,0.00261322506645876,1
0.198267751796995,0.0044784962419145,1
0.227074778995077,0.0071055268821896,1
0.230587951510077,0.00724029030078392,1
0.22118409889064,0.00634193378709737,1
0.219788742216134,0.00803861403743907,1
0.220649481725852,0.0085877085142945,1
0.214185495443943,0.00874201827837896,1
0.218009862010896,0.00782882242004304,1
0.135802571240146,0.00582099081725817,1
0.106518453880705,0.0182191945723312,1
0.135965720161636,0.0193190644379005,1
0.166072379138187,0.0210177429201091,1
0.217485123741824,0.022710030195162,1
0.208167748562717,0.0211045551033822,1
0.186312413279992,0.0187029716147277,1
0.167604114357226,0.0145551855750855,1
0.119458855871428,0.00910273808297136,1
0.0687547664567218,0.0028423674219115,1
0.0743320184308067,0.00546006011416092,1
0.0844844207792608,0.00948437918795832,1
0.0827185303436369,0.0104591682442961,1
0.0964740083014758,0.0112675779062094,1
0.106132329341969,0.012659483387516,1
0.106425027089869,0.0134251909094237,1
0.104494676933391,0.0116647388025886,1
0.104811170565493,0.0123035717586992,1
0.106744825625759,0.0144152273539483,1
0.106482898606973,0.0142943258191343,1
0.142633514893631,0.0184357534836428,1
0.145113632340031,0.00909421136577744,1
0.153083934155308,0.00901335185073602,1
0.138554043635284,0.00996800783476931,1
0.107738372962878,0.0062128007631507,1
0.108830228485146,0.00500874985907894,1
0.121705877191372,0.0054187855232742,1
0.127664630399265,0.00638642608167154,1
0.167057244470327,0.00841233469612991,1
0.229137219948145,0.0141109563761532,1
0.169478585807726,0.00818964718614677,1
0.165100976772299,0.0118639697747327,1
0.164670206016808,0.0109535557812624,1
0.175776440770147,0.0122367027733783,1
0.168538781643776,0.00799287668793802,1
0.237272718528636,0.0151818667516359,1
0.180680868898445,0.0111953306173115,1
0.1786543789121,0.0114078619414437,1
0.206031242901534,0.0158384323056747,1
0.204877342941633,0.0138445815175406,1
0.190675220767447,0.0137647383194092,1
0.229670293987476,0.0207210805430598,1
0.231670004064467,0.0171870122862999,1
0.184997075676856,0.0132100729934985,1
0.168182465851079,0.0212824679609808,1
0.18047142058275,0.013026428750439,1
0.227922100930602,0.013601329272659,1
0.241382150379475,0.0134240051523939,1
0.257798285274218,0.00969909265216978,1
0.296956658181403,0.0125875352118982,1
0.339236511361194,0.0141146997482946,1
0.240478445479098,0.00503194642002012,1
0.275316411838022,0.00868657680708502,1
0.295276412423562,0.0101817919649204,1
0.290337087642202,0.00906572809999687,1
0.374306175029508,0.015791970958742,1
0.362144246796035,0.015256539916932,1
0.356192736249952,0.0132686587319675,1
0.415335352239521,0.0184815595236209,1
0.385345330472262,0.0121342573436549,1
0.264567071392715,0.00805325838373515,1
0.260461601018768,0.0101449977990319,1
0.264142649280084,0.0108002860484591,1
0.263988904818024,0.0100157343110379,1
0.273146984253442,0.0113165512214655,1
0.243482827107021,0.011759472641521,1
0.294430702362064,0.0158249545985013,1
0.384612478490607,0.0256554979568405,1
0.222101805177812,0.01579388703213,1
0.195356753103838,0.0308016306078151,1
0.212655160032431,0.0291473394427603,1
0.222046918758895,0.0492549470367385,1
0.154063293484287,0.0357960364698795,1
0.146156906996386,0.032359627400814,1
0.161307357829231,0.0283985360494807,1
0.145070514651281,0.0205899454923731,1
0.145299795908923,0.0206246963303278,1
0.15686757032229,0.0257627897071067,1
0.136499568765047,0.0372146404318007,1
0.0636661329642668,0.0093118293753374,1
0.0432708198244557,0.00632251076055044,1
0.0423572375025274,0.00482524183667906,1
0.0592702195949547,0.00803271180001671,1
0.0980310736166566,0.00690287621156942,1
0.298598038268083,0.0227560792540011,1
0.336244079116449,0.0203672491349977,1
0.457906622661355,0.0230695283837796,1
0.527859144438561,0.0217867349628727,1
0.436218640179565,0.0181080836193552,1
0.370173918767605,0.0169800874366192,1
0.369648757235905,0.0123804931991169,1
0.328257821548884,0.00572840697259238,1
0.274752342579148,0.00420857637833283,1
0.215286494650946,0.00321753216153381,1
0.239399905503102,0.00464753105895841,1
0.242474156625283,0.00575618253550808,1
0.245347208312478,0.00870060949825388,1
0.219273644449222,0.00734234978581833,1
0.264134015734951,0.00818106583462625,1
0.277484515732999,0.00689932609554634,1
0.274706049258692,0.00823951766782792,1
0.152268162284623,0,1
0.443102183093807,0.00769518358807242,1
0.486807737819608,0.00335971322931718,1
0.491689214984856,0.00306290709560519,1
0.492829041711216,0.00295423789168692,1
0.497514128733781,0.00302169921329431,1
0.495427823493114,0.00318254171215978,1
0.506853157526801,0.00291407783177725,1
0.57027008991099,0.00445421949367627,1
0.559009741497107,0.00364826753668692,1
0.576722594080151,0.00568188150942224,1
0.301865505865188,0.00109667776249829,1
0.246630560564927,0.00543739295631607,1
0.248777699329697,0.0069453364498539,1
0.24144045086368,0.00596280531305855,1
0.259887293797271,0.00697161757765084,1
0.258382392500174,0.0069648223451373,1
0.261596159047817,0.0117225882729604,1
0.22585962480738,0.0104455042648038,1
0.195395579607795,0.0179181080736213,1
0.147561306770644,0.0244039198393844,1
0.128152009889505,0.0277384800786932,1
0.109017685647345,0.0227066803625279,1
0.0613934132349493,0.0101653895980473,1
0.0578549195775628,0.0109328622515644,1
0.0669690519559909,0.0128630935540391,1
0.0667367503415666,0.0109225510547416,1
0.0916707392174571,0.0142390988441633,1
0.103860386296183,0.0132290686574608,1
0.101142441709268,0.0147828080984518,1
0.162226482137423,0.012855595949337,1
0.235171337649411,0.0126407016753539,1
0.221336896897599,0.0116263348350772,1
0.231814679519083,0.0135225562839569,1
0.240054155633614,0.0150380185487544,1
0.242602798459091,0.0129182166704195,1
0.250421555722541,0.01535446306408,1
0.260487650643877,0.00952092582750952,1
0.239381175072272,0.00533126102108711,1
0.232875169189188,0.00381678545865317,1
0.248047984983868,0.00743246592091236,1
0.216827111541845,0.00760734379844926,1
0.242331517589513,0.00842337754536727,1
0.25680541337066,0.00688820388772515,1
0.268430909792087,0.00699236084847982,1
0.273214118384743,0.00832455426932406,1
0.268493793051555,0.00643940861025008,1
0.241892741683954,0.0124870680403782,1
0.153816224883851,0.00547552280352833,1
0.183819680209316,0.00954859841260593,1
0.16736946662604,0.00773386978886808,1
0.166583879339485,0.00808322148811108,1
0.143530287781383,0.00686148766383498,1
0.205016340362699,0.0139470146053703,1
0.208566437158275,0.00634861275980374,1
0.245459205013301,0.00834352892505989,1
0.218365500931287,0.00643959524254895,1
0.221636672080836,0.00861573539347279,1
0.209979958230679,0.0110518448567954,1
0.168372788721352,0.0092113883301557,1
0.177605303690524,0.0114564238082024,1
0.185987716535013,0.0119602180681627,1
0.193661992485859,0.011826829197519,1
0.142718418361713,0.00914887334493875,1
0.163055543446124,0.018993901010791,1
0.139324634337588,0.0149560157610861,1
0.13110118167708,0.0204688563208731,1
0.135409679437843,0.0191606416884385,1
0.137814237648629,0.0169855985168195,1
0.13797350930606,0.0190545945271984,1
0.138477876413626,0.0144567338013825,1
0.130348625884306,0.0120172144410234,1
0.126769646449549,0.013851831323625,1
0.192760316816259,0.0171291322795432,1
0.182850289590458,0.0180576438380458,1
0.114114739900212,0.0132326269019595,1
0.166892264146533,0.0100673568976499,1
0.278305370364965,0.0165962117647152,1
0.311891060070655,0.0216228380574104,1
0.277494082361805,0.0176795563938348,1
0.265770453471447,0.0178231444378978,1
0.260744540798521,0.0206197744235649,1
0.160382302946652,0.0104640525434248,1
0.145280066619746,0.0117754608626859,1
0.13095392222037,0.0149357440424949,1
0.0484152387951036,0.00151080801832929,1
0.0245622948995806,0.00702861911161941,1
0.0228116404816835,0.00675985276000318,1
0.0261973087580097,0.00538121930867461,1
0.0566153929593047,0.0155397139100226,1
0.071968499759804,0.0192267242942996,1
0.0663176267968273,0.0202077649023452,1
0.0984779982896982,0.0266750899343969,1
0.102587387616748,0.0252119610563901,1
0.0984940228810942,0.0104338988449574,1
0.199977907707818,0.0205230611801036,1
0.22288151354336,0.0188241705946442,1
0.192533773579637,0.0164433893700437,1
0.157394867359134,0.0131728238102604,1
0.157451195741978,0.0100051564103154,1
0.171078379468848,0.0123931848745467,1
0.134123215005621,0.00885252158588241,1
0.138336384920769,0.0091080191425372,1
0.105324457926565,0.0077648920908487,1
0.0729205382785425,0.00947313351838948,1
0.0528163987928558,0.0043850897083631,1
0.117478811836648,0.0149904546126755,1
0.124533142203018,0.0100194805948638,1
0.116943320297394,0.00872126760517623,1
0.104419801707645,0.00902065793456663,1
0.108533904115466,0.00614335916478085,1
0.122218173898616,0.00730571383444163,1
0.125426339198763,0.00623991586399492,1
0.179540688847377,0.00966013799956673,1
0.182084946644537,0.007754622979176,1
0.186129958974725,0.00755899243005388,1
0.175105367267335,0.00473538327011469,1
0.17524778007654,0.00472697876046127,1
0.174544667922596,0.00513850111684467,1
0.196170670053285,0.00679347455143897,1
0.203472503564034,0.00978503042628964,1
0.148286163067354,0.00620067011201337,1
0.151966148337686,0.00742432940838375,1
0.138610934100746,0.00606406661362252,1
0.126530561030907,0.00731133690459285,1
0.12410959124135,0.0106406724906224,1
0.0337796869634704,0.00332864610433982,1
0.0297970171540776,0.00892326450107916,1
0.0473059610920753,0.0130825441287432,1
0.048034107637907,0.0095296214797377,1
0.0625250851632496,0.0096902992050038,1
0.0612171243075709,0.00848093665129111,1
0.0808448915978407,0.0129121375486067,1
0.0781452892187156,0.0143886699887331,1
0.0608968947668624,0.0105723329219503,1
0.04829092942101,0.00627378867674729,1
0.0904549514753303,0.00783494125159085,1
0.153897686004237,0.0170759971989031,1
0.167436905809774,0.010450525426184,1
0.188567013353782,0.0127372362440975,1
0.197026477350056,0.00979931335541238,1
0.202951588327636,0.0100740388663106,1
0.187331573496879,0.0102146851609318,1
0.184111282505489,0.0102533384077001,1
0.223718059652356,0.0124579770252292,1
0.271870432518762,0.0162280341758655,1
0.25165025541606,0.0208538301753257,1
0.152909518613315,0.0116431273566881,1
0.0927480310798073,0.01216954407849,1
0.114160109486012,0.0121193417279014,1
0.121465920792571,0.0148740216562287,1
0.0896613352590604,0.011496954529045,1
0.0933835695028821,0.00887116208809264,1
0.112241869124786,0.0147985556383753,1
0.170922747416697,0.0108960577386784,1
0.400456441508044,0.0227339036139761,1
0.37488380172521,0.0150517147205604,1
0.357797665024046,0.0145911786855774,1
0.312812504326575,0.0126916646895244,1
0.370015562931204,0.0164653009073367,1
0.43885782495762,0.0251318929286907,1
0.355943034406275,0.0168670948690005,1
0.268151345192928,0.0132699709784319,1
0.217769720758951,0.00934640065211026,1
0.177722569719485,0.0138140432925837,1
0.147134896301864,0.0157289014698521,1
0.125609745187028,0.0223956532665555,1
0.098919911827729,0.0185497915806265,1
0.0878679631289465,0.0173848514605724,1
0.0835979999023369,0.0198532688864109,1
0.0896846489914017,0.00935583662451167,1
0.165171491049071,0.00914365622836323,1
0.225719465516093,0.00919107760726323,1
0.235022871322749,0.00681219761841638,1
0.237161279889696,0.00708803271670334,1
0.228697642188866,0.00574746650784999,1
0.237555709912937,0.0048756421482985,1
0.308473007031498,0.00858581643993363,1
0.339256792565363,0.0091486534171711,1
0.353845356473187,0.00926680516036648,1
0.318033295842034,0.0097700118823995,1
0.168999320148913,0.00791015922944898,1
0.156294914755038,0.0139360721490902,1
0.177926295609252,0.0240768076852588,1
0.212926356086434,0.027818018963143,1
0.219405196361267,0.0186801767363861,1
0.226387651003042,0.0235826183244987,1
0.199200248745246,0.0184231971632467,1
0.201577133499694,0.0185779741080304,1
0.205393380445867,0.0206572833464701,1
0.251361615750589,0.0278838970701613,1
0.313876977732529,0.0350347007288714,1
0.315421599511247,0.0235532938295386,1
0.366004805866082,0.0240588940109775,1
0.362963046375041,0.0220815238176483,1
0.39044875069581,0.0285091928617126,1
0.380081771657007,0.0133068244011483,1
0.456406568261788,0.0117852904776411,1
0.476624543432467,0.0109620056487452,1
0.508443808499097,0.0117707158460694,1
0.456596660229624,0.0112417946461902,1
0.387292237663754,0.00852913738282842,1
0.373093904487156,0.0100502237919467,1
0.368113338177858,0.0111612252163047,1
0.386516906855944,0.0141321141708786,1
0.321781987084097,0.00765814034953676,1
0.30633415579028,0.017740650474721,1
0.198890825159847,0.0173355269379714,1
0.237842892133661,0.0240116828435862,1
0.271082576122603,0.026470090795358,1
0.290679602319196,0.0269237425458363,1
0.29308128310488,0.0256748541996859,1
0.29277965054123,0.0204851259485485,1
0.30793414440867,0.0210646235397246,1
0.265171025018183,0.0185592951403416,1
0.252009560661953,0.0276268556074125,1
0.316696904283908,0.0332017688523611,1
0.356037222996069,0.037510523923221,1
0.376037935036454,0.0422207971536686,1
0.392048246626069,0.0414449660937744,1
0.346111158190132,0.0382576250917602,1
0.179095030828833,0.0268775457675136,1
0.0406233662504338,0.0284559315631263,1
0.0204107462923102,0.0105908033533032,1
0.01766772772128,0.00941833582554931,1
0.0216706075296113,0.00568082260994102,1
0.0957201552633075,0.0296067294405132,1
0.133884478711347,0.0195975050714491,1
0.130797996012529,0.020552092219155,1
0.133513781110525,0.0208371282239189,1
0.128797507869428,0.0148009703041293,1
0.130844504529936,0.00880793426124937,1
0.12629803989114,0.00647718187633461,1
0.114045964668752,0.00462582947438705,1
0.235760166451129,0.00894454099997783,1
0.323493651971283,0.0116864608230165,1
0.370140196218188,0.0131315537591663,1
0.484969877919818,0.0236034886864961,1
0.619612113688403,0.0285275012640794,1
0.645146911445715,0.0220860251742043,1
0.496419507666963,0.0194776496982298,1
0.394182620328777,0.0138627260154041,1
0.35469288596868,0.0128342694843372,1
0.198004004690124,0.00462277501124213,1
0.198201611369915,0.00664356010196977,1
0.221256535561525,0.0087996824648537,1
0.23298069969964,0.0112890747665657,1
0.246994996412648,0.00891412113530881,1
0.223314266862292,0.0032626598230551,1
0.248970581864523,0.00563045474404377,1
0.283621137025662,0.00773749600763258,1
0.271499452974088,0.0089170121791466,1
0.284286274124914,0.0100149909679478,1
0.255547382465982,0.0105656460805856,1
0.222231507977672,0.0106282893275291,1
0.217523147308756,0.0103214645938812,1
0.217633472046491,0.010064473784047,1
0.0831553128160457,0.00106828082060596,1
0.0297848039053631,0.00849833228651619,1
0.030257073606065,0.0100367317589274,1
0.0408921177166932,0.0121269090862317,1
0.0660194222445536,0.0170034852590473,1
0.0681304712345565,0.017056122582451,1
