Activity,Complexity,Tag
1.79091916045034e-07,0.155077950681939,0
1.80616140952726e-07,0.152256592705532,0
1.85060353538694e-07,0.150605511423553,0
1.95996414657292e-07,0.151994219502307,0
1.9082906127705e-07,0.150401314536992,0
2.01090876600188e-07,0.151607445865862,0
1.62439470249542e-07,0.138656579065056,0
1.3496246558367e-07,0.137593083326941,0
1.31519247290773e-07,0.136305971998908,0
9.58455644103614e-08,0.119228204001288,0
1.12243431448188e-07,0.12918476987304,0
1.06684015955681e-07,0.125197499617357,0
1.05043056493624e-07,0.127226139342766,0
1.07406615476906e-07,0.130996067185916,0
8.48975952846716e-08,0.118208627367809,0
1.14358365677352e-08,0.0863919881674407,0
3.81489245362606e-09,0.0858811659257784,0
4.48354509424004e-08,0.108352298784259,0
7.91238356645196e-08,0.120022724077756,0
5.03266660306579e-08,0.116969131872576,0
5.56969968045029e-08,0.122010546215545,0
5.83707052452091e-08,0.121199516786054,0
1.34406758586074e-07,0.153728248231555,0
4.52778334058439e-07,0.252583557945943,0
5.66727316885937e-07,0.289814052407673,0
6.31453289430926e-07,0.304211322148285,0
6.93721521482e-07,0.324676379247588,0
5.55354087567606e-07,0.267700652846768,0
5.08775015708074e-07,0.253010017380077,0
4.52564711628193e-07,0.226766220408418,0
4.14492467440626e-07,0.211910343621486,0
3.95047774406565e-07,0.199571016954885,0
4.5171834100296e-07,0.212032807695028,0
3.37705307531258e-07,0.199009836215044,0
2.91570801269801e-07,0.186431996838817,0
2.66757942554093e-07,0.177127218513632,0
2.29978799682034e-07,0.160550517513265,0
2.73174734557177e-07,0.183885637233779,0
2.0851551902164e-07,0.169484044314039,0
2.14618192231603e-07,0.171453173452301,0
2.06282587267663e-07,0.170020090028614,0
3.07901911298177e-07,0.202549918391215,0
1.82864679412966e-06,0.396116865193972,0
3.30229677188533e-06,0.439305011905691,0
3.28036276409613e-06,0.416732988950346,0
3.28824514309319e-06,0.404306138883411,0
3.42930035854758e-06,0.398879932920271,0
6.09656313935449e-06,0.478268992397502,0
9.24689371365146e-06,0.521773576333529,0
8.42098591605722e-06,0.470912502387942,0
7.83550168375892e-06,0.429945389117943,0
4.29074904670073e-05,0.234774828269901,0
0.000283049108074802,0.401850058513085,0
0.000398645265441938,0.316315741519819,0
0.000401962679789674,0.187666814098776,0
0.00182961682183071,0.085509035317473,1
0.00292863288204315,0.0585273497942013,1
0.00398596947530406,0.0383183183758922,1
0.00708268175059926,0.0511534924481748,1
0.00741885222427106,0.04460743175798,1
0.00651591902146533,0.0339668098631723,1
0.00586906776086621,0.0306103198158549,1
0.00561762262142893,0.0282149119223367,1
0.00522479584099923,0.0241060517877858,1
0.00430545402814861,0.0201498890945628,1
0.00414898470130496,0.0247106884253248,1
0.0044987205357887,0.029120301818052,1
0.00424611512037507,0.0432222344594768,1
0.00207014901972559,0.0272965092192614,1
0.00107801522069258,0.0187086696790126,1
0.00108858474775976,0.0260015470774197,1
0.00108050836044394,0.0288637985295779,1
0.00110827797876382,0.0328053686117992,1
0.000988554838841331,0.0477185289303509,1
0.000703138152470005,0.0457094972932077,1
0.000735981477617698,0.0531454979133855,1
0.000879781731738241,0.0845004832005299,1
0.000857515398173924,0.101204515191055,1
0.000753417411641887,0.0691734193609085,1
0.000868446170152706,0.0563601594098399,1
0.000960789693601929,0.0583190504966809,1
0.00103753997549588,0.0632449597518351,1
0.0011238931144531,0.0674041443692259,1
0.00112152564477204,0.0692696618614496,1
0.00126652883223712,0.043758801127806,1
0.00222263504729042,0.0521598187642302,1
0.00211927494727392,0.0438102676406299,1
0.00217457554402351,0.0443381659788415,1
0.0019983616135898,0.0441278472000845,1
0.00254892800318944,0.0650030531943469,1
0.00268478828830383,0.0639880571583435,1
0.00286763002946707,0.06063635931967,1
0.00234220143922878,0.0331554107752197,1
0.00163593220601921,0.0236224934105689,1
0.00132578901419112,0.0251205299891856,1
0.00127389273371864,0.0240157668442275,1
0.00147773968806841,0.0260683955086858,1
0.00194557044115211,0.0260365644142049,1
0.00274811553190192,0.0310471357605172,1
0.00478164329629978,0.0369079599424592,1
0.0051177566965174,0.0319918441634307,1
0.00523589399535375,0.0333417645522455,1
0.00469800342743046,0.0371683010309239,1
0.00422170300488922,0.0313547488049725,1
0.00365579972931098,0.0234615851434843,1
0.00273062610620776,0.0197663568383569,1
0.00278242457972271,0.0205592463007127,1
0.00353947084195622,0.0194153821878751,1
0.00645916911452405,0.0282540484639678,1
0.00629356108380433,0.023500182024483,1
0.00962297456591939,0.0195994323829505,1
0.022278264548089,0.0313346246281436,1
0.0231293993576686,0.0237637208881156,1
0.0234299122919287,0.0255352119370368,1
0.0221568515461278,0.022597862597516,1
0.0183163563433795,0.0162534880080839,1
0.0183543954681517,0.0127418012481649,1
0.0195010361115188,0.00816239095740771,1
0.0257313321533805,0.0108795782695386,1
0.0269707137448815,0.012006385172672,1
0.0269483768616075,0.0145809807273149,1
0.0205848766688383,0.0126905239357225,1
0.0210393938182113,0.014510209614747,1
0.0215616987900611,0.0128610358053451,1
0.022088364003922,0.0116761360670433,1
0.0264537560870712,0.0151452396872761,1
0.0289679597528576,0.0199893151339495,1
0.0349646966253706,0.0415879921090008,1
0.0280505865894209,0.0332927348780736,1
0.0202068854272615,0.0231725974236805,1
0.0184907874291837,0.0166508561406798,1
0.0189298028316327,0.0137720299056308,1
0.0190839595331066,0.0136963341583453,1
0.0183265983796833,0.0143216592453135,1
0.0151522670657177,0.0144107558092013,1
0.0208015748783159,0.018669848913966,1
0.0203499966431354,0.0169055693026378,1
0.015840998291451,0.0128297526276575,1
0.0198672920655126,0.0160261982046226,1
0.0191801985609851,0.0131381264781328,1
0.0197754185332412,0.0152410657170656,1
0.0290107911850791,0.0237657712658464,1
0.0321098163358122,0.0266467073354606,1
0.0430883466279161,0.0282157826442249,1
0.0582669868973099,0.0398488706986699,1
0.0815283513952493,0.049086949576844,1
0.0921187388816391,0.0385268973465928,1
0.0798295343863725,0.0391790523333941,1
0.0683790284803807,0.0194430008046272,1
0.0788704088771766,0.0205677032017505,1
0.0754479594089116,0.0208899632536058,1
0.0755296159490419,0.0202569386146493,1
0.0682677104008582,0.0198367710967831,1
0.0582089080955685,0.0173145927187962,1
0.0559834962417553,0.0139301697336774,1
0.067075248844988,0.0177049597548682,1
0.0651790419230089,0.017394648369281,1
0.0514638314375996,0.0143912612343955,1
0.0470720952202043,0.0228213955320209,1
0.0399882654278429,0.0184495575139242,1
0.0426826104175941,0.0127910057713495,1
0.0858609926514023,0.0225989793022165,1
0.12714855986103,0.0277690013771813,1
0.14086541569743,0.0310874534049489,1
0.163684747533243,0.0374698627332082,1
0.137215534099334,0.0302499785183234,1
0.128753957964287,0.0302207521400608,1
0.141618596149113,0.0327073664269046,1
0.110884392290913,0.0205273062864749,1
0.0821605684554143,0.0169401563936925,1
0.0371359062042972,0.011345736668105,1
0.0359732180049079,0.0121413623138241,1
0.0380722493311054,0.0140883497806145,1
0.0706591281145872,0.0177168533026586,1
0.15013290917936,0.0349203005473387,1
0.306551515814488,0.0520329109592744,1
0.446499261500268,0.0638659122575784,1
0.451252532640306,0.0655244061050774,1
0.432757140214099,0.0801570007361642,1
0.456064350614396,0.103779146187014,1
0.371195359657303,0.0912891895996541,1
0.248963552181808,0.0646141401890445,1
0.114724132031107,0.0312691927318714,1
0.0370952560773866,0.0217761140714791,1
0.013166347534059,0.0110228108643192,1
0.0116980128627024,0.0154674710366814,1
0.0191008653185053,0.0203141218961983,1
0.0185073083429218,0.013539061389623,1
0.0176426947215496,0.0139028242112744,1
0.0175449833745033,0.0113437460329173,1
0.0344640832557831,0.0173747799878467,1
0.0345843919385758,0.0100367616690606,1
0.0350410917814447,0.00956103306134475,1
0.0575398025777481,0.0104994676423196,1
0.0674085367004728,0.0100713628481447,1
0.0588503527196844,0.0100904462295845,1
0.0640309629349205,0.0095116224289089,1
0.0745697832501881,0.0113325868034721,1
0.0655698604120887,0.0102002756992972,1
0.0572724208757401,0.00920399736494113,1
0.0575512832100734,0.00992839364868969,1
0.0556498954934608,0.0115834672967317,1
0.049201902777017,0.0104467220625747,1
0.0673031641633157,0.0181189061823594,1
0.123810398790645,0.0319691788491094,1
0.111417936715545,0.0230874876491953,1
0.144876184011034,0.0229534544243978,1
0.167459198468757,0.0177970634524554,1
0.152310085761046,0.0173444509269213,1
0.153424517786508,0.0138242235491075,1
0.128480470157398,0.00858240135653518,1
0.108456203779118,0.00704604936289728,1
0.103939833641047,0.00667351249045902,1
0.101494433231572,0.00703911848069583,1
0.0990310137082198,0.00729226006980856,1
0.0945323089831973,0.00709474363391693,1
0.0928728140594772,0.00892531621530585,1
0.0933257205054691,0.0104891212165003,1
0.0923989819510185,0.00747455335088823,1
0.0842786466916382,0.00994026963504536,1
0.0690701546923126,0.0118001144975241,1
0.0702394265825434,0.0109566106517383,1
0.162492806408162,0.0186481913087172,1
0.214122200414597,0.0132939208316148,1
0.203523027807162,0.0130361760359431,1
0.193351399761841,0.0125368397603027,1
0.1714047131395,0.0100059605023304,1
0.158978304297667,0.0131055943521624,1
0.183106796401516,0.0146227108683309,1
0.179953762393506,0.0141280929715346,1
0.239364410650764,0.0150533068921673,1
0.398138876473304,0.0256554992126132,1
0.425615501032522,0.032963659230971,1
0.42892033474253,0.04354161244826,1
0.499297092208288,0.0516257344600203,1
0.453637731657323,0.0576219429278942,1
0.290178603363756,0.0507047336861914,1
0.1730603467216,0.0277340532367501,1
0.114372948479579,0.0272047512668994,1
0.0470576134077998,0.0168116387963213,1
0.0057930149583721,0.014040014227452,1
0.00664728275595707,0.0237143601200505,1
0.00547717453300972,0.0197845567008791,1
0.00539647695389215,0.0211088915078981,1
0.00627316368651316,0.0119004866671599,1
0.0238578864998099,0.0227456256158476,1
0.0366427929410589,0.0242211018365246,1
0.0429753518611213,0.0272974432476039,1
0.082917670385055,0.0339448252714488,1
0.110954616384288,0.0324083052756655,1
0.105648168530727,0.0298724019156394,1
0.0938084953275237,0.0241779274776663,1
0.103826651281282,0.0232112641761234,1
0.0750291781563433,0.0162583165829707,1
0.051298766743984,0.01168030626256,1
0.05733074293407,0.010094413798297,1
0.0845364509163349,0.0110521879567408,1
0.128454531614745,0.012941093153658,1
0.126990629061769,0.0127046172006181,1
0.131192512382543,0.0140136947049678,1
0.135362642976606,0.0115335739796624,1
0.142031133329006,0.0120741827864278,1
0.140187911001585,0.0120168101499306,1
0.139415377289974,0.0126555721782855,1
0.118177652055688,0.0111983946237564,1
0.08836244723204,0.00966528528675178,1
0.084595211937726,0.012853591197233,1
0.0672047718411869,0.0111947866153706,1
0.0640623927045699,0.0107999964694898,1
0.0395553566139928,0.00564041510359657,1
0.0467437485886535,0.0116037330023964,1
0.0535572599385668,0.00789697387462098,1
0.0634330410787964,0.0087804507722044,1
0.0717101972373825,0.00980142465397502,1
0.0750447980682259,0.00923467969808567,1
0.0738373044536771,0.0087933423137662,1
0.0707583596813011,0.00855648839353552,1
0.0672126898787112,0.00907325040622908,1
0.068663956524207,0.00867273249286536,1
0.0800393532802526,0.0107870740299186,1
0.078199577575912,0.00727268119822337,1
0.0975112494317298,0.0109209868132981,1
0.0892433447341194,0.0102530597486722,1
0.079545064909976,0.00901145828843704,1
0.0977238592259807,0.0132098193137405,1
0.0974355867550339,0.0126393364992885,1
0.103704263603348,0.0114684924632675,1
0.119519173345717,0.0129463303577628,1
0.161636679116091,0.0195014312886954,1
0.198718753966932,0.0226122264330271,1
0.251227441944113,0.0324857656970195,1
0.278508005180653,0.0433790223371199,1
0.311355392291919,0.0485636532887616,1
0.340411736044005,0.0599055587329037,1
0.235520718580769,0.0604581081210175,1
0.155783225252301,0.0552420571306206,1
0.0434051777422739,0.0387171131168564,1
0.0217392479205847,0.0194450022924342,1
0.0222674629565166,0.0191436391530328,1
0.0224168056503635,0.0214641575542243,1
0.031383621863927,0.0253993383252355,1
0.0327191470249329,0.0228950991046672,1
0.0439640306549191,0.0138644076129467,1
0.0666066258494861,0.0146875987523991,1
0.0643274844490018,0.0121422567413064,1
0.0658934256401357,0.00632870736107709,1
0.0889724238542259,0.00871041342218075,1
0.0869519326432891,0.00842252343048166,1
0.10142781468554,0.0100143418006691,1
0.0942822997680887,0.00735639190821668,1
0.0986631012147604,0.00659631784566307,1
0.0944863712231941,0.0063184357376728,1
0.133992462518296,0.0110553178596571,1
0.209559634370415,0.0185549867157717,1
0.199966380355641,0.0159840735845591,1
0.172711781551385,0.0166620673893778,1
0.240362041216001,0.020821522985869,1
0.205466559273458,0.0168819840580086,1
0.193802955720387,0.0166161110371306,1
0.154681113925582,0.0153386467729686,1
0.132686449427378,0.00946519218347398,1
0.146628398705941,0.0109977023970893,1
0.149278410147583,0.0107758479867877,1
0.164869430223174,0.0112005057160217,1
0.195447892003587,0.014608785340713,1
0.196084500260627,0.015035326212504,1
0.156346672840434,0.0114070004812448,1
0.170884254199232,0.013832418721372,1
0.187712506846147,0.00952614987383497,1
0.22537690365047,0.0131518172816557,1
0.281441509366421,0.0243737458971001,1
0.258350217171006,0.0151175058334275,1
0.253094345704488,0.0146732029703634,1
0.246369582561283,0.0155943595195488,1
0.216219650130479,0.014207351315616,1
0.252394319545666,0.0170605534659484,1
0.269991039647781,0.0231385594310087,1
0.186737600757004,0.0106650393453834,1
0.200583681586313,0.0179416021894254,1
0.257310820908247,0.0208505726187874,1
0.262485124999446,0.0197733918978145,1
0.352414820895096,0.0316997283716371,1
0.455969956042093,0.0409167954899366,1
0.5659876291463,0.0513156114249644,1
0.636871124922106,0.0534417316737123,1
0.568938400183578,0.0608864562528989,1
0.367477329865794,0.0468836432535605,1
0.184599258380945,0.0519483815569251,1
0.12524351781899,0.0353334021775476,1
0.0858073894176533,0.0300976185434985,1
0.0289429776811807,0.0120987511310594,1
0.0285376138659952,0.0223470670572542,1
0.0422555729657204,0.0308088846731933,1
0.0492294401191939,0.0328770503269624,1
0.0471915119773885,0.0277046150935143,1
0.0606346648575379,0.0304183338461418,1
0.0622318240654482,0.0282678051612192,1
0.0498084128345404,0.0247856090403391,1
0.0629471087086522,0.026200739242865,1
0.0637560506209555,0.0220063802420275,1
0.0472980364679076,0.0104743814566259,1
0.137130404968549,0.0211345240147974,1
0.202384384659842,0.0274896055215084,1
0.239350991355732,0.0339327499794008,1
0.194946602524781,0.0264179662194208,1
0.180202161998966,0.0246408429849712,1
0.17353087571849,0.0172622521812076,1
0.151348596418622,0.00920184255218149,1
0.182424640751137,0.0109254737814751,1
0.169006040117195,0.00980707323021983,1
0.139167131199475,0.00883866683490114,1
0.153675542751915,0.0113301453582804,1
0.167667656632141,0.0134146344600364,1
0.184987448276331,0.0157030006699381,1
0.194572492430366,0.0167160387558232,1
0.180292517891999,0.0154804267163884,1
0.170174183308958,0.0192847357483327,1
0.158943150905387,0.03326787200632,1
0.0880144414492993,0.0184912697051095,1
0.176812646413175,0.032600047462777,1
0.210151653926478,0.0306063769855254,1
0.214138819489646,0.026253909366019,1
0.247282400810067,0.0270418014647982,1
0.270208001513526,0.0256421649841856,1
0.272629289487308,0.0243366435301918,1
0.277683509099672,0.0231833233272221,1
0.264810703469707,0.0230951487280471,1
0.264615989515839,0.0236440334758709,1
0.273818786544092,0.0227031991386808,1
0.20150465576339,0.0173142641119264,1
0.0983813340231349,0.0102594641704053,1
0.0952358641529931,0.0102797189719671,1
0.0937131128857166,0.00984012388376188,1
0.118402599652911,0.0108363196985251,1
0.18316492809213,0.0172642528167827,1
0.228911616002454,0.0230615459197816,1
0.257517192111836,0.0258383627426716,1
0.255172625946639,0.0258583223319928,1
0.256640727517855,0.0364320129136191,1
0.274787911623803,0.0490875359799932,1
0.235610371512569,0.0470163387337736,1
0.210506615391226,0.0605680515444001,1
0.0834103141830524,0.0304455709917661,1
0.0368674712838072,0.0337574787446533,1
0.0283442791458624,0.0296178502275222,1
0.0241177724911472,0.0224266944800429,1
0.0289147425985299,0.0217816899832861,1
0.078999710579302,0.0279988886917257,1
0.133019085379195,0.0352322575968451,1
0.139160899689747,0.0272396983231697,1
0.129035196658351,0.0234363582076705,1
0.142328780851247,0.0201779278382423,1
0.127770359401823,0.0163357072067695,1
0.106577566719256,0.0134304594802192,1
0.0801118876036839,0.0100295321676624,1
0.0709796948943603,0.0092055257059452,1
0.0589625196658226,0.00731135090465085,1
0.0751429108726217,0.0129530276456214,1
0.0762192183474336,0.0132262403680637,1
0.0874111828704059,0.0177665907982542,1
0.0622918581881156,0.0135205346072298,1
0.0699587395750819,0.0144488348010643,1
0.114435413665918,0.0259324926637164,1
0.112570570838583,0.0232677698188533,1
0.0824746078661521,0.0190128803092081,1
0.0720626981903191,0.0172858189618695,1
0.0604368155028499,0.0144514349473786,1
0.0616491336776852,0.0153252845313739,1
0.0809429319923067,0.00904689172902502,1
0.131297184764607,0.0136392871323274,1
0.160847433334932,0.0164427254945677,1
0.186601392925516,0.017812598752223,1
0.181056546470483,0.0170004472125574,1
0.179306423333846,0.0160118768388374,1
0.166117702288385,0.0150775548279801,1
0.14819269493526,0.0120393468841014,1
0.158699688690746,0.0127124262217939,1
0.130978513836811,0.00965583751186494,1
0.119304855209283,0.0131605452844244,1
0.120020329286507,0.0134123521549702,1
0.108754290659911,0.0140551710140025,1
0.179405291356861,0.0138032790715311,1
0.280445424992396,0.01208673096897,1
0.263035318691338,0.0126536874920974,1
0.207188654136149,0.0103477656684653,1
0.194370542088844,0.0106053067743131,1
0.204203010181835,0.00928471946363848,1
0.230565331538216,0.0108935973836109,1
0.390955801562375,0.0172754679003597,1
0.650649689066502,0.0242693374328625,1
0.854286448253539,0.028437533647685,1
0.811530277727915,0.0430769073660824,1
0.67564223572793,0.0550727162772235,1
0.700919385097049,0.0563719466638319,1
0.604219274964697,0.045903160197556,1
0.347499279351986,0.0330146499697573,1
0.138043243914893,0.0245884832378394,1
0.0384235502100626,0.00724532082508736,1
0.0170114278795746,0.00981699936272862,1
0.0170439659021846,0.0106759371213579,1
0.0177916735247421,0.0104685231772352,1
0.0150122876165568,0.0100891274633732,1
0.016793195721219,0.00864456517948153,1
0.0437237997916696,0.0221095023958233,1
0.111724800196482,0.0402013430541641,1
0.157479071748005,0.0494252047809244,1
0.164609624200419,0.0512976954081605,1
0.203550408170772,0.0357499417143678,1
0.257571096781809,0.028337813601685,1
0.200720623541025,0.0234315433273828,1
0.16786678219393,0.0210577766959406,1
0.136718292166212,0.0199381813877508,1
0.0857641589495576,0.00988728687020309,1
0.0867811057677035,0.0090566738567279,1
0.11821947830687,0.00837441883101792,1
0.186528292977522,0.013412880031388,1
0.209812878751447,0.015575525974331,1
0.215415667131815,0.0204968250239582,1
0.265424439990103,0.0270867873959212,1
0.250060824481275,0.0142623465004971,1
0.253264820740323,0.0119906507372274,1
0.310797123920248,0.0125501161792521,1
0.274755126409369,0.00761292050081074,1
0.282656155792097,0.00856334658064359,1
0.325910048447544,0.0104369397852109,1
0.310182395596917,0.00945306755170916,1
0.34102314801244,0.00979679264898575,1
0.364349858881073,0.00995599106785243,1
0.306057139418419,0.00775334994504849,1
0.265064907094296,0.0094006954562582,1
0.259370977269153,0.0102852727543757,1
0.245171872064141,0.00784334165450886,1
0.284045539873234,0.00986413384161948,1
0.273908914479619,0.00892907707710942,1
0.288612023581023,0.0118153235274839,1
0.288744421848529,0.010358828343564,1
0.284642668967499,0.0118216962862784,1
0.318208964949728,0.0125726271638954,1
0.377682054015649,0.0142658410555308,1
0.376881517014354,0.0139422815529329,1
0.389575828358854,0.0153315303308457,1
0.324235186692816,0.0155405000813658,1
0.281428550550596,0.0220640740962711,1
0.288082418372047,0.0197288809552596,1
0.421121317659795,0.0249652042935186,1
0.592078427007985,0.0379967173649674,1
0.716362319065468,0.0415336808328088,1
0.676404422639297,0.0573890472340354,1
0.472687517593844,0.0498554715512664,1
0.386793040842381,0.0415261557774428,1
0.345836223780786,0.0380270701347353,1
0.226741659588094,0.0382919251396947,1
0.0716342571337109,0.014763996646082,1
0.0262122645279824,0.0143813913392124,1
0.0255003804190002,0.0172998980303946,1
0.0235797198666141,0.0154459318018533,1
0.0231014787508707,0.0132436617963111,1
0.038289573529721,0.0202689289213698,1
0.0523693665816328,0.0261249686540836,1
0.0760507286213975,0.03764216967879,1
0.113532647104304,0.052199226219788,1
0.122263530658258,0.0608431443615521,1
0.104390166312939,0.0444735844802379,1
0.0985730345915772,0.0466109079474915,1
0.0795493741198617,0.0261682657568778,1
0.119821894978035,0.0339141982349255,1
0.151985998635359,0.029083639481013,1
0.138865321699751,0.025185462668349,1
0.161352492701503,0.0230744893549418,1
0.20859362383916,0.0277950982669102,1
0.255637130904484,0.0308745586842227,1
0.34839394232172,0.0309653378806752,1
0.310022391329454,0.0213362069363862,1
0.250511589366192,0.0123389498678787,1
0.2272687325673,0.0080710550834187,1
0.233967352903312,0.00762440230792868,1
0.277654319886871,0.00948680311531221,1
0.220761637653876,0.00562892364680146,1
0.274811207554874,0.00792673671582962,1
0.287717099113439,0.00659999457166576,1
0.313356016725639,0.00764371388916257,1
0.346852285627419,0.00942088987685406,1
0.31095863023558,0.00681185317020053,1
0.319718132305863,0.00988257122531018,1
0.298076539440468,0.0122325553133552,1
0.298799417767111,0.0143061053506444,1
0.278343969774756,0.0115000242816668,1
0.279685295376174,0.0159784751176322,1
0.23843736729734,0.0131561931159693,1
0.234697384438375,0.0175896024437858,1
0.19875870252332,0.0144217971499708,1
0.143942962291514,0.0104864783013486,1
0.135258738276515,0.0125014923028452,1
0.155426924376358,0.0142525318063563,1
0.164482602242949,0.0131480994405774,1
0.161081451083619,0.0129200394139896,1
0.147063839610995,0.015966811709953,1
0.126953869532468,0.0144463836565445,1
0.128603160805345,0.0158183794231253,1
0.275271938114345,0.023979999714681,1
0.467033272738827,0.0373133587288226,1
0.496016986679698,0.0345165101002106,1
0.521914910421341,0.0429331261075584,1
0.63067335921786,0.0518655019160041,1
0.601656315869517,0.066121952317908,1
0.486185684653944,0.053849432678835,1
0.341756259891292,0.0433324350340391,1
0.176277114954249,0.0256097420366895,1
0.0390336076051627,0.00567555505204445,1
0.0223341303210473,0.0102819900615225,1
0.0240666200147481,0.00934569406021536,1
0.116893737908922,0.0114301080210055,1
0.211331959561194,0.0163269133918279,1
0.210791428544976,0.0190809479470656,1
0.20207837099762,0.0187471627357371,1
0.19379920317447,0.0181080320815094,1
0.200092725386209,0.0179826370683651,1
0.208359198524136,0.0169073024891338,1
0.181053097450464,0.0157278588333662,1
0.144512136492941,0.0124145270580992,1
0.084516188589764,0.005978555500229,1
0.0720591311505839,0.0136932862563829,1
0.0544094819753553,0.0112861153967656,1
0.185107228968374,0.019094153853682,1
0.196557151436145,0.0118690822334176,1
0.196132985234823,0.0116905823165495,1
0.231913558883963,0.0113469711041419,1
0.246076055513871,0.0113917801704255,1
0.228843757837214,0.010609017375661,1
0.189086071722454,0.00880768718655427,1
0.164381359169904,0.00842181628553185,1
0.164147830774635,0.00851030267077289,1
0.159077707243697,0.00922740660141673,1
0.127869654050483,0.00777040597490785,1
0.130328321573546,0.012640035572622,1
0.0854836201619624,0.00646009484776344,1
0.176951716460103,0.0144211882757029,1
0.187465669453581,0.0137871501240873,1
0.178443215099801,0.012314375648773,1
0.172608685498616,0.0112670817629694,1
0.179678919819867,0.0115122975441494,1
0.200496084849971,0.0131319339792243,1
0.213056270207748,0.0151230747629739,1
0.216746853761452,0.0125368293291969,1
0.244153275069194,0.0147909895194162,1
0.239982099320174,0.0153074468755185,1
0.170329702296547,0.0145332410765874,1
0.159951433755453,0.0182912154139801,1
0.239390155875402,0.0217009607657626,1
0.309214250258954,0.0292180862046266,1
0.321152683893081,0.0205550958338203,1
0.306468983064252,0.018431441646731,1
0.258756147192262,0.0117901361824051,1
0.247872120176328,0.0134794503220029,1
0.295437457219517,0.0106622435120522,1
0.394412778243255,0.0148206397576181,1
0.486409116755911,0.0175263887630976,1
0.594710534769084,0.0183860779367754,1
0.788510052070286,0.0264851218287953,1
0.824777542022757,0.0270146885434111,1
0.810948277546646,0.0285507714231203,1
0.870768663466901,0.0299075162851768,1
0.782391490204206,0.0416989818399123,1
0.347341961918835,0.0235941021467278,1
0.198927134574728,0.0313175345957358,1
0.149309463618434,0.0242885840129551,1
0.0839668652669209,0.0160237354770095,1
0.0155835042024994,0.00971376665287843,1
0.0159645388844095,0.0132021921795395,1
0.0143171375565972,0.0108656689613033,1
0.0151844470475721,0.0117693222798672,1
0.0276798644803534,0.0189473727069991,1
0.0381296856162971,0.0245806461347132,1
0.0661551228494553,0.0340544276334613,1
0.10990020599685,0.0431638558339063,1
0.100075981043869,0.0326968439902436,1
0.100850825452293,0.0312940063825893,1
0.109726135984735,0.0380316132784655,1
0.102606389853898,0.0338848529808288,1
0.0865201719087293,0.0228282660712208,1
0.161112245620089,0.0279391487970012,1
0.158363443229827,0.0211339488937384,1
0.137704133652873,0.0185613032792196,1
0.13494272010863,0.0173355680092727,1
0.146880103482874,0.0202252742529242,1
0.102665268369971,0.0162767881650139,1
0.0707986810548386,0.0114817129728844,1
0.0780551146042099,0.0111919070574277,1
0.120973194149608,0.0142413358495247,1
0.105429472251841,0.014830565198632,1
0.0954247964850693,0.0147831832261227,1
0.115424111570443,0.0184995713242847,1
0.110296998261819,0.0157392858862862,1
0.106934639619445,0.014821031239611,1
0.134487496897612,0.0175537154639142,1
0.172186265976403,0.0219055196321742,1
0.190586895702928,0.0180330387917845,1
0.220227420459139,0.0160799665659572,1
0.256075628133613,0.0209722687016229,1
0.440395951943547,0.0234964609757849,1
0.707945086750811,0.0327720676638274,1
0.71009669669152,0.0294476233869003,1
0.701434964498122,0.0282460590429717,1
0.721025539071573,0.029840715858206,1
0.653924796899238,0.0257202384179607,1
0.539403889934569,0.0214297407219158,1
0.480097217180427,0.0231515828060421,1
0.489768042924443,0.0205207069543774,1
0.514505076929579,0.0225018300352992,1
0.450934412181609,0.0263352911666577,1
0.275712553594083,0.0184383384990779,1
0.221069879913157,0.0168604307394224,1
0.224785035342335,0.0191125000507433,1
0.172153467250891,0.0183361628121371,1
0.159861069738995,0.0203746138119539,1
0.16531561857355,0.0175301270707391,1
0.215532329520951,0.0206910315059357,1
0.289067094569461,0.045510482024232,1
0.429992978483146,0.0521529885936186,1
0.556466746054186,0.0626635728023279,1
0.656878576861671,0.0716582499277788,1
0.674599548478119,0.0754207295353654,1
0.605785006381672,0.0729672956330635,1
0.501709854712594,0.0643639191052972,1
0.23083882975108,0.0349998945934413,1
0.0958454762404098,0.0297406193019371,1
0.0618551229945543,0.0220321275373149,1
0.0259273134327803,0.0153567522183437,1
0.0323151540422029,0.0200404370664968,1
0.0728116986206418,0.0337296844246522,1
0.0850761187572034,0.02697164645679,1
0.0821055603909473,0.0259078651790225,1
0.0720112174363261,0.019804480391704,1
0.062264011951513,0.0144128650077276,1
0.101649805338584,0.0141186885382727,1
0.115641529299778,0.00942394275714856,1
0.112864595795135,0.00964425524385398,1
0.0952624695593794,0.00821732987365047,1
0.115102770191227,0.0100484867825571,1
0.123396641228568,0.00710462034986187,1
0.133981223400562,0.00530865248458784,1
0.194260224037081,0.00746244221187665,1
0.178950815821643,0.00657657142672162,1
0.165357828067882,0.00575149289395671,1
0.169037580619582,0.00699179159574792,1
0.179392836606434,0.0100340430389028,1
0.169989791210405,0.00669350931008644,1
0.164531297724007,0.00612582126327343,1
0.159155770786622,0.00650316290952106,1
0.153126218262087,0.0084634762655371,1
0.13266884734905,0.0113375851096814,1
0.123147808344858,0.0133891873254816,1
0.144948216785986,0.0180205968116162,1
0.133137589576179,0.00997138307651486,1
0.165078575063591,0.0115161778939552,1
0.130412479117042,0.00705360077909447,1
0.127321312879316,0.00702365492438524,1
0.177206231344481,0.0102648550765602,1
0.18633197126137,0.00843599110244621,1
0.197444647831803,0.00861054458283586,1
0.196303928985152,0.00851935926954545,1
0.183030658697097,0.00864555081224211,1
0.162679801815559,0.00700903215590988,1
0.165898756187449,0.0105727813007117,1
0.133468259763748,0.00931659930284073,1
0.14934748248498,0.0131088994612729,1
0.144416115294267,0.0137128730270004,1
0.120833587227113,0.0135169966554889,1
0.111142653487005,0.017913118469973,1
0.115073057536354,0.0206571076359636,1
0.127385395399991,0.0119219480916977,1
0.163153161015198,0.013795492859039,1
0.160147447629956,0.0129168120526412,1
0.171783917822876,0.013486897842492,1
0.171490726025557,0.0126762989478216,1
0.156782789166206,0.0111274873744038,1
0.143867027334808,0.0109321092164955,1
0.148227508185782,0.0109948580390757,1
0.141586181260528,0.0109480391355891,1
0.106126737321808,0.00769810074103024,1
0.100749737220508,0.0153606680226868,1
0.0826557964531519,0.0122075484546645,1
0.107748921450915,0.0166290201172092,1
0.121844882882902,0.0183612955249344,1
0.135199061089143,0.0201092493171535,1
0.13257361391809,0.0224848485187072,1
0.120258145020082,0.0333522679175778,1
0.0892551141363384,0.0262550999828337,1
0.0704646898772722,0.0195504447468613,1
0.0408337117191061,0.0127816224796141,1
0.0295863983418247,0.00909181163976769,1
0.0304154398498434,0.0137653292195142,1
0.0288385773014536,0.0146411867019991,1
0.026545654104731,0.0154540510858188,1
0.0258904584855198,0.0180912379487774,1
0.0201568881361657,0.0159444218827284,1
0.0186979624135087,0.010300160025821,1
0.0218539010283822,0.0139893211197931,1
0.0281856997809652,0.0182091114772964,1
0.0470044074794751,0.0256249547282606,1
0.0604084551454385,0.0277117602044573,1
0.0809545873004817,0.0343248831175098,1
0.093951102007452,0.0484829341976518,1
0.097406536737814,0.0501790502440832,1
0.093818425309991,0.0678950807667422,1
0.0543028486324804,0.0529031279134743,1
0.0263112360885937,0.0633030619785804,1
0.0150994446717484,0.0478387573609038,1
0.0045288198104544,0.0614316723967104,1
0.00340758246575102,0.10642196665789,1
0.000460997439019668,0.0842828685542601,1
7.40583670125261e-05,0.627086257569791,1
2.17078718477478e-05,0.381753798648615,1
5.36334257792616e-05,0.049355788488699,1
0.001599643753689,0.0912570791606093,1
0.00217239770809241,0.0670865027595284,1
0.00215830343185542,0.0617387069306449,1
0.00281983951978085,0.0290139407128271,1
0.00578138392286533,0.0289746095016213,1
0.00555299147342695,0.0228379930351202,1
0.00536395925373964,0.0220926634212799,1
0.00491218932743038,0.0201273770555703,1
0.00475658650314135,0.0180012424465033,1
0.00451227686509897,0.0151410626256686,1
0.00445854398869636,0.0173907014593618,1
0.00441043442669359,0.0184607616623291,1
0.0041990627485355,0.0188533273795198,1
0.00404160729021544,0.0303651329509085,1
0.00245302734872979,0.0323323772570899,1
0.00234037585134907,0.0372243663226952,1
0.00168762204567226,0.0246277852004159,1
0.00181801683013758,0.0254637711010877,1
0.0024725633240356,0.0417426201478661,1
0.00279042713721413,0.062915725150973,1
0.00298459698122029,0.0658247638697331,1
0.00335702793820043,0.0795099679586247,1
0.00331857521388088,0.0779013847780474,1
0.00267055428802224,0.0713185558898713,1
0.0023039373135647,0.0879736391973712,0
0.00131966950378082,0.158934383631237,0
0.00025603052198859,0.163809188555997,0
8.48809094603714e-05,0.341544687363471,0
9.12382003996588e-05,0.401032732313882,0
8.72542113585459e-05,0.560089477279825,0
3.12866756388127e-05,0.572356889090396,0
1.31323694359168e-05,0.589797161103367,0
6.44606188451492e-06,0.419307190470126,0
3.2629265549248e-06,0.324781076935092,0
2.03562762363131e-06,0.264343580487004,0
2.45533074629615e-06,0.288682815702763,0
2.43367603540054e-06,0.302621295481714,0
2.75812809188784e-06,0.365358544189693,0
3.00260759656883e-06,0.421032693338402,0
1.49313111650841e-06,0.316832721127134,0
1.35105632305291e-06,0.322162039425459,0
1.15535814984595e-06,0.293940675799342,0
1.09616236404879e-06,0.289244427001015,0
1.05673531341806e-06,0.29041863029474,0
7.91909174378009e-07,0.253590866538574,0
1.09542388718478e-06,0.291065310044063,0
1.06931287527176e-06,0.261306284943027,0
9.70649623789499e-07,0.251404859730456,0
7.99486094950751e-07,0.220482869680376,0
7.51709185832439e-07,0.210118929284777,0
6.67660847962599e-07,0.200669665075257,0
7.59330851643947e-07,0.205584664744113,0
8.89503411587299e-07,0.209031028548117,0
9.2989699546028e-07,0.201352387277716,0
8.81720807255708e-07,0.193836207964077,0
7.28446713555152e-07,0.187930903500235,0
6.74949991697299e-07,0.192164119146223,0
8.66546217309991e-07,0.206814847442136,0
8.30445469993441e-07,0.204262534298016,0
1.03971606491928e-06,0.223942574645905,0
1.30197097654935e-06,0.243459023978399,0
8.6077119471939e-07,0.202406416912442,0
7.45250715804535e-07,0.204680923605591,0
6.2425363617376e-07,0.203690819794103,0
5.65628171746536e-07,0.200144319481659,0
5.45894619328333e-07,0.189204276511554,0
4.88109751947149e-07,0.173956019140063,0
4.73238455333562e-07,0.174917480908949,0
5.19666872860954e-07,0.187414415509136,0
5.03653670537047e-07,0.196670165793234,0
2.94731114182103e-07,0.160253776742731,0
2.69354609797404e-07,0.153376017787527,0
5.75445421471599e-07,0.204502030415967,0
5.83756308299605e-07,0.200337845526638,0
5.91983117380574e-07,0.200803127057641,0
6.94197661341305e-07,0.232522722855677,0
6.83834086684841e-07,0.235340016174163,0
6.18389123105625e-07,0.226513560267162,0
3.64980922537805e-06,0.214769592095981,0
2.15378839639728e-05,0.381713080986591,0
2.47735817781371e-05,0.391396270162753,0
2.62217975157161e-05,0.368681685072777,0
2.61162702002675e-05,0.361804170102198,0
2.69119372530046e-05,0.333316995783586,0
2.53048800675611e-05,0.225009355660224,0
0.000125635883306139,0.208535697817393,0
0.000173884746438838,0.135298944154486,0
0.000162170900485666,0.130468557782227,0
0.000158734749053705,0.135610000027915,0
0.000162160134203861,0.136323975682909,0
0.000160602805938577,0.134290332174205,0
0.000202659038265136,0.129510451545315,0
0.000203020221832467,0.109173121930045,0
0.000211805040125736,0.109284126908287,0
0.000229937039383711,0.118366885487078,0
0.000183907427509085,0.153255562144056,0
0.000135888716383444,0.218101538737332,0
0.000136181968198381,0.229318513979398,0
0.000142075985699603,0.229585208173254,0
0.000149338638629133,0.244419726451025,0
0.000154608327257227,0.247769213773827,0
7.53586761003887e-05,0.331069188582803,0
6.46381924902901e-06,0.245036267297414,0
3.863340000053e-06,0.370959094924192,0
3.79921267550087e-06,0.359827443186858,0
4.05028199913646e-06,0.372251914615283,0
3.77265854138457e-06,0.421344199533014,0
7.16351065139948e-07,0.225965596370227,0
5.13364830744387e-07,0.224840749409901,0
5.16495012790261e-07,0.226782774297359,0
5.21877431995547e-07,0.226466602645887,0
5.10394324248147e-07,0.229808415232847,0
5.33861036889484e-07,0.234546441258065,0
4.51109228397802e-07,0.214642110126941,0
3.44567206405468e-07,0.192488132369499,0
3.45137166926703e-07,0.195119720635405,0
3.27073261442188e-07,0.188146985854217,0
2.31936043029412e-07,0.16173061292696,0
2.67370844070598e-07,0.172663239878755,0
2.66021269933578e-07,0.163886043636976,0
4.76670848165467e-07,0.199139520737391,0
1.32273421073225e-06,0.313996368011802,0
1.67706742634742e-06,0.343334088261256,0
1.67783368856131e-06,0.335880366666459,0
1.65747171813252e-06,0.344458057496633,0
1.74656183403509e-06,0.347368791965609,0
2.07740596438954e-06,0.369027844464016,0
2.20412141336505e-06,0.376640466440965,0
2.38107241407454e-06,0.393321523773132,0
2.57908669466077e-06,0.418507491666231,0
2.4873098797643e-06,0.429133299894203,0
1.41948496410591e-06,0.341815458984027,0
4.53013066137618e-07,0.202122470797463,0
2.22698316316128e-07,0.154184732370794,0
1.56009326844567e-07,0.135756612871378,0
1.78623714857124e-07,0.14136600327148,0
3.58259249468313e-07,0.193994210766819,0
4.3847230693299e-07,0.217223708343559,0
4.20362573663607e-07,0.22399707032192,0
3.93587600143076e-07,0.225276728640841,0
3.90441901603113e-07,0.22802201128439,0
4.38031169397561e-07,0.232808234256085,0
3.96695409569566e-07,0.213316213577616,0
3.97607454658153e-07,0.207859583741553,0
6.03350392695359e-07,0.237925910473835,0
7.56884297459725e-07,0.268028905604324,0
7.17866629678845e-07,0.257105248197782,0
6.97719544650744e-07,0.247697484393332,0
7.21796272018987e-07,0.243884144845469,0
7.27208280817652e-07,0.242085991601475,0
7.09599585967857e-07,0.239512498302481,0
4.50380314024333e-07,0.202725110477236,0
3.74441870256745e-07,0.192567974999414,0
6.10834575152267e-07,0.23885843339489,0
5.44092721346195e-07,0.229203003579208,0
3.00451287770345e-07,0.175254143691642,0
2.88961865170698e-07,0.178593042344723,0
3.08463391874969e-07,0.176745033852217,0
3.82740488228962e-07,0.194459927112152,0
3.97521753091965e-07,0.193201848166967,0
4.0883435982874e-07,0.188091731953954,0
3.69316916598723e-07,0.178780748629533,0
3.42355745149126e-07,0.180775048270333,0
3.76120538407926e-07,0.191621166757062,0
3.20599455344545e-07,0.179732485640025,0
3.18990250568065e-07,0.179304471095254,0
2.4853797000694e-07,0.155808396263559,0
1.98245765027107e-07,0.152682754999998,0
1.70265556849451e-07,0.143899635621713,0
1.40107446344529e-07,0.137491501189734,0
2.33457381147505e-07,0.172727939965284,0
2.6359781006614e-07,0.186636221659234,0
2.804314019089e-07,0.191750830200806,0
2.51154844777437e-07,0.18329908817491,0
2.45879236787273e-07,0.181487117006268,0
2.28269278967027e-07,0.173166179975037,0
2.30676139794277e-07,0.172620657921565,0
1.99365839391093e-07,0.164043658378276,0
2.56084940137603e-07,0.179049349029722,0
3.01830992773791e-07,0.186849814417367,0
5.0180756858919e-07,0.23218825763588,0
5.45426959413475e-07,0.218200006795865,0
5.41241114496518e-07,0.217457517859465,0
4.09131699157324e-07,0.196154288193512,0
2.57761443196584e-07,0.16576720153714,0
2.12168931682134e-07,0.156881691773456,0
2.04478343768975e-07,0.158756541555488,0
2.17018016509208e-07,0.16488649873469,0
2.04251189512491e-07,0.161034222414175,0
2.01591554171074e-07,0.167223498887287,0
1.03079859142701e-07,0.140154216885881,0
9.18213797108875e-08,0.140001074141717,0
9.78504397861036e-08,0.129228831163093,0
3.04657340214486e-07,0.190611829104722,0
3.65282628135656e-07,0.197622425631152,0
3.41141850123209e-07,0.191753182262263,0
3.58019465507337e-07,0.189835197897994,0
3.75842504484778e-07,0.186154374743419,0
4.04988434386936e-07,0.192565980185432,0
3.96490447508115e-07,0.190668137187236,0
4.56711584885579e-07,0.201359744204698,0
4.25512786730614e-07,0.203946801384836,0
4.10857818912519e-07,0.214004135748279,0
2.28763461261318e-07,0.172687822705091,0
1.4046378443552e-07,0.149297690949099,0
2.09087103362025e-07,0.168621217839891,0
2.21767326670805e-07,0.173817644414919,0
2.30926568791895e-07,0.179334998560096,0
1.85406768290442e-07,0.161823855740953,0
1.88136227855258e-07,0.162746266631045,0
1.53934988094125e-07,0.148861293733567,0
1.5814970090706e-07,0.152400722955407,0
1.25419280446059e-07,0.140132026377625,0
1.11507300100724e-07,0.130844449007261,0
1.18776777581288e-07,0.124729553615416,0
1.75790872139834e-07,0.144267599761144,0
1.69836868594163e-07,0.147733356484973,0
2.23708692675393e-07,0.17006338912079,0
2.95159802437392e-07,0.202154912853538,0
3.25417507183441e-07,0.204085295195709,0
3.71563741027639e-07,0.216295501902016,0
4.22501143482603e-07,0.232593102040104,0
5.4727540687788e-07,0.261907178373752,0
5.86944767410487e-07,0.274515052707541,0
6.90361117965694e-07,0.303826183985997,0
6.22944477091112e-07,0.301947482611574,0
5.89973009698686e-07,0.294410829071415,0
4.59576903985846e-07,0.272858641756952,0
2.61507052699861e-07,0.202564881159259,0
1.53993626007832e-07,0.164495680724872,0
2.44421408040333e-07,0.203408616204851,0
2.66133854727896e-07,0.190362098073264,0
2.61691626809776e-07,0.183263735969751,0
2.842838226273e-07,0.195975283872491,0
2.95965938432606e-07,0.2054173598111,0
3.10796819991822e-07,0.200358875218141,0
3.32357529801146e-07,0.200306531468729,0
3.13877565765832e-07,0.19256307011252,0
3.34668224449916e-07,0.192716651480792,0
3.32228887239689e-07,0.203654183957951,0
1.88817510200362e-07,0.163214507807646,0
1.73052932630575e-07,0.168104143121027,0
1.93137590833621e-07,0.178481410904142,0
1.87119536643747e-07,0.176298471392688,0
1.55805086480515e-07,0.164454107954789,0
1.475741276395e-07,0.161403343778121,0
1.11261020863153e-07,0.137805514697349,0
5.27775503992758e-08,0.107254954880962,0
1.15993912408912e-07,0.145708839863789,0
1.36841765611903e-07,0.142353571411077,0
1.76320598031049e-07,0.147777020277954,0
1.84187099685329e-07,0.14654003900007,0
2.07880425310102e-07,0.151689833379005,0
2.23788079389335e-07,0.151000640206755,0
2.4303665115509e-07,0.152460233107392,0
3.36212656884792e-07,0.170662977407726,0
2.89915768708455e-07,0.164307804355039,0
2.81089409512872e-07,0.166789812009619,0
2.58400145395119e-07,0.158199570957964,0
2.65789424643997e-07,0.161960849355419,0
2.15126267200833e-07,0.153799383829862,0
2.4058775145432e-07,0.172281811387467,0
2.83167898023361e-07,0.189592865299734,0
3.14097142199623e-07,0.208361727442928,0
2.8772180861405e-07,0.190882923442071,0
3.19791334681482e-07,0.204504834696019,0
3.00286560338914e-07,0.20669213490325,0
2.96374960433758e-07,0.202199037378413,0
2.50028455561206e-07,0.186731676435389,0
3.12107963742319e-07,0.200529029256332,0
3.42866706907954e-07,0.212181357187834,0
3.78409040861662e-07,0.215647006248212,0
3.00215833993766e-07,0.189116732702849,0
1.33790970279972e-07,0.136438108727071,0
1.01164474244494e-07,0.132601230550608,0
9.1998917271158e-08,0.137542443828177,0
5.29805277928784e-08,0.118483597344885,0
3.30795415779978e-08,0.111529434613979,0
2.64191767025905e-08,0.102517307893138,0
1.87884535887191e-07,0.174936329804406,0
3.28676873063822e-07,0.199064537500989,0
2.93413294730662e-07,0.187561643813319,0
2.72618125437832e-07,0.1865718292493,0
2.77843395034382e-07,0.19100017409468,0
2.94142209104132e-07,0.205039055767032,0
2.97545734040056e-07,0.206047139416947,0
2.796763260047e-07,0.204212676587539,0
1.98801472024703e-07,0.171673368123916,0
7.58770994886302e-08,0.125502991264461,0
4.66460092933338e-08,0.119505513898532,0
4.05635436105565e-08,0.119554706970568,0
8.34020578486089e-08,0.138974303008478,0
2.04014472765463e-07,0.193121821764626,0
3.76985853589896e-07,0.241024289648172,0
3.67203786613059e-07,0.21866822485509,0
3.51587157010164e-07,0.211397310458223,0
3.28759146567362e-07,0.205586719328366,0
3.38074636175438e-07,0.207502413602616,0
3.00503069558757e-07,0.203501664950793,0
2.63091719764758e-07,0.191319268585467,0
5.81291170407348e-08,0.119109318198684,0
1.41149396965021e-07,0.153649803383145,0
2.32656297034087e-07,0.180602859362626,0
2.32191523908826e-07,0.169480727062521,0
2.44717303974118e-07,0.175704342603814,0
2.50685741467778e-07,0.174926565065132,0
2.13925543152457e-07,0.161727398091914,0
2.05222594212184e-07,0.158986807173841,0
2.14041014736373e-07,0.155450168509958,0
1.91773041475564e-07,0.147075398084251,0
1.21601501202834e-07,0.127458748045038,0
9.9110523445587e-08,0.124025241610053,0
7.51121002451865e-08,0.113967316930084,0
1.49040436330884e-07,0.145057769136453,0
1.51300251312991e-07,0.145455667861127,0
1.61830538068734e-07,0.141211443622963,0
3.79354464454974e-07,0.193876416682665,0
4.18642047063259e-07,0.1954006309085,0
4.09553892136017e-07,0.200341684517051,0
4.05113107612696e-07,0.20059698537239,0
4.92002587719918e-07,0.211486725239466,0
5.5223978286452e-07,0.209408672904626,0
5.59836550115748e-07,0.218502933197984,0
5.64218516301012e-07,0.21701692202191,0
6.7730128182479e-07,0.2442355087771,0
7.08335713397024e-07,0.260019299653451,0
5.70556462863203e-07,0.24639154149565,0
5.51096072910703e-07,0.249539148369681,0
6.06391625536748e-07,0.240126763750215,0
6.38687584163265e-07,0.240271512349203,0
4.5339628745674e-07,0.216015717840262,0
2.8651080037773e-07,0.183751233896076,0
3.20690389216879e-07,0.184345879449208,0
2.99578033916979e-07,0.191774917680711,0
2.33480475464288e-07,0.16997986228369,0
2.70992862894213e-07,0.175009412758807,0
2.65746122800028e-07,0.165755914300756,0
2.30495535020059e-07,0.151722289805049,0
2.20197815251296e-07,0.154291284422238,0
2.35401092668642e-07,0.153944193839373,0
2.50902250687621e-07,0.156255805970814,0
1.85210647022135e-07,0.13680141287665,0
1.97800658155981e-07,0.138689167640407,0
2.01577300647436e-07,0.134607281245862,0
2.69298317400245e-07,0.152750843022369,0
2.85867948419148e-07,0.156496454500723,0
2.93771076216451e-07,0.16376189940355,0
2.13567400817967e-07,0.153531342573088,0
1.98520010038908e-07,0.153781387231069,0
1.82312129841492e-07,0.163303947006709,0
1.65759458711478e-07,0.159976387923513,0
1.49049998821427e-07,0.161850082273806,0
1.44856034808726e-07,0.17285334713389,0
1.28423887144424e-07,0.162432854828377,0
1.10499810531056e-07,0.154587076240626,0
8.59938536344746e-08,0.142714341349521,0
7.23600876366379e-08,0.133246968847076,0
8.78576371686178e-09,0.093222023145725,0
5.81652019107085e-08,0.123390780344855,0
8.92826286838833e-08,0.131625304839613,0
1.64227295132392e-07,0.152210016841584,0
2.30738927468032e-07,0.176812593812876,0
2.85566278906167e-07,0.190139158681922,0
2.79654133809666e-07,0.194182094214951,0
2.8011656141838e-07,0.189931468622033,0
3.45786694586231e-07,0.206661183767142,0
3.44942489053196e-07,0.203401560308439,0
3.98132309091921e-07,0.208333350450678,0
2.95908202640648e-07,0.175033937048235,0
2.16070427823697e-07,0.162308228564252,0
1.82035178464444e-07,0.15842376819192,0
1.79415416904348e-07,0.155545903055106,0
1.47825097910168e-07,0.140199407892503,0
1.51902688217203e-07,0.143624108160601,0
1.6751588975745e-07,0.148980881583848,0
1.2003974803037e-07,0.132039086490174,0
1.29992135593483e-07,0.137717072350997,0
9.37881855488074e-08,0.129331018936584,0
1.02925415899214e-07,0.142487164106903,0
9.63364990663545e-08,0.137094361595629,0
9.58527813843562e-08,0.134583584578828,0
8.0830108741229e-08,0.130215960696321,0
1.02579181571815e-07,0.14774347056832,0
1.33652584803622e-07,0.164605234511774,0
1.95132362445771e-07,0.183477278096135,0
2.69903099821006e-07,0.197980058824294,0
2.0777361409498e-07,0.171900314707245,0
2.09777226500273e-07,0.175370816859192,0
2.24719069034659e-07,0.162834424013047,0
3.45447677232828e-07,0.187949163885968,0
3.37983161030055e-07,0.18847170742806,0
4.07193941639732e-07,0.197887540821102,0
5.7023115776039e-07,0.225734323348022,0
6.09105388183125e-07,0.23256403992997,0
5.53628509085462e-07,0.236799561157643,0
2.35306369884961e-07,0.174195074146621,0
2.19761007900263e-07,0.184686112082964,0
1.11510186890322e-07,0.146430557199537,0
4.87001405165905e-08,0.122920342472967,0
4.61308977744585e-08,0.126633338836027,0
3.01395267968855e-08,0.111013635654398,0
3.07522478890402e-08,0.117218890700201,0
7.28337015550422e-09,0.103543517565401,0
3.03452105557362e-08,0.116957761217153,0
2.49786686932381e-08,0.108705595920772,0
2.78833203017762e-08,0.110535870430727,0
4.35075277273661e-08,0.113369107228709,0
4.88183184657545e-08,0.116126309303738,0
5.30952776793947e-08,0.118440814860718,0
5.11214352918299e-08,0.121885748515269,0
4.4719077236735e-08,0.123296218345564,0
1.77827682625503e-07,0.176596166003989,0
2.31234553157121e-07,0.182300930082156,0
2.14388872882919e-07,0.176902601312531,0
2.31803431132258e-07,0.188613290528098,0
2.44400659240098e-07,0.196143557727883,0
2.29496705819185e-07,0.196375039693694,0
2.50923901609605e-07,0.205617094472101,0
2.60945572123068e-07,0.19196521742263,0
3.34045580018518e-07,0.213552051338571,0
3.36351222785492e-07,0.199731253559986,0
2.61581928805056e-07,0.190510967543241,0
2.26804774519142e-07,0.175322958537798,0
2.65942424492685e-07,0.184853738841353,0
3.8098405718299e-07,0.207170132563131,0
3.62631292314334e-07,0.190839373640357,0
3.61664037374687e-07,0.196672184933256,0
3.52777055597549e-07,0.188526988633872,0
3.65385289590731e-07,0.195478169563007,0
3.11104804357048e-07,0.179626803999374,0
2.92682215264993e-07,0.184127013724002,0
2.47567467428996e-07,0.182037443556045,0
1.96359248024878e-07,0.182731567847674,0
1.97583246814388e-07,0.183228691045287,0
8.21044459243521e-08,0.135444990502691,0
6.75391490081428e-08,0.13584898542444,0
9.56348287697152e-08,0.139603622043802,0
1.46314043980017e-07,0.15529563451204,0
1.36576722241946e-07,0.151527538629452,0
8.84611566189306e-08,0.133533763862763,0
1.35256016000906e-07,0.144110559275624,0
1.7381630805487e-07,0.143200335158355,0
2.15768577886366e-07,0.146989377500084,0
3.00735456121387e-07,0.165658387799862,0
4.08578698524976e-07,0.185108560454902,0
4.53765074827871e-07,0.184825130774417,0
4.84352595285482e-07,0.192257317532225,0
5.52709788295929e-07,0.2106618173006,0
5.76438296668926e-07,0.212578414731093,0
5.7183964083947e-07,0.213901029123302,0
5.58898343496431e-07,0.22363033190115,0
5.58222834730521e-07,0.2268270291669,0
5.40511658849999e-07,0.228768786129658,0
4.5142966204317e-07,0.217516418987244,0
2.56077723163608e-07,0.178965096118796,0
2.7167125844972e-07,0.192015384567864,0
2.92629350930482e-07,0.208961895041936,0
1.42976193507443e-07,0.157154042750618,0
1.32489028171318e-07,0.145409229614575,0
1.06126594926761e-06,0.305204078576821,0
1.6465605555742e-06,0.337227908537888,0
1.64692429106354e-06,0.331417495984658,0
1.65023110854793e-06,0.334600913183961,0
1.58937036685018e-06,0.325588744862073,0
1.610594585247e-06,0.330599054441116,0
1.62947996279647e-06,0.329674826337851,0
1.61209950474926e-06,0.319823214345503,0
1.55707007803927e-06,0.315730119591652,0
1.49855413119241e-06,0.326401401575793,0
7.57923000441922e-07,0.265340191159331,0
6.01359770843257e-08,0.110628619706425,0
2.39284185526518e-08,0.10012225022476,0
2.04290882869459e-08,0.101698018421522,0
2.70374909495912e-08,0.105838863904566,0
3.43094943710539e-08,0.106204948519736,0
4.6178349378474e-08,0.116847831645052,0
3.84498723518432e-08,0.117048367226103,0
6.50732894184857e-08,0.137780691449295,0
6.62388307186384e-08,0.138712057564287,0
1.16607355198466e-07,0.17540377982465,0
1.55325157709864e-07,0.204326901159293,0
1.28337283456487e-07,0.165571282241578,0
1.54497912065716e-07,0.18061246493733,0
1.28267098384388e-07,0.167232790102714,0
1.39342266676735e-07,0.181873151316918,0
1.40482548567907e-07,0.174519879337013,0
1.54242611610651e-07,0.180503221400155,0
1.87355351269025e-07,0.183392829901556,0
3.76805429240028e-07,0.229587135322424,0
3.11191408044985e-07,0.19467064940355,0
1.92317923012167e-07,0.150925024293607,0
1.83863779250364e-07,0.146319848240571,0
2.05367655389479e-07,0.147378500972173,0
2.30325214433782e-07,0.15434757321227,0
2.28515197355898e-07,0.154024051562456,0
1.88495633160196e-07,0.144224029217806,0
1.87999105349357e-07,0.138956525352329,0
2.08293236222601e-07,0.143918618342929,0
1.29200974819309e-07,0.123683513319921,0
1.31972292833294e-07,0.134582409102909,0
1.33308876417122e-07,0.139142531494216,0
9.19009468491797e-08,0.124720356949496,0
1.38338566018415e-07,0.138814469919742,0
1.16232072550739e-07,0.128838706496049,0
1.2364390484335e-07,0.131600954464826,0
7.30538192618835e-08,0.111510261393811,0
7.24394743505797e-08,0.109754901654984,0
1.14899277878258e-07,0.121961062694878,0
9.78374492329133e-08,0.112549984903094,0
1.05216263869498e-07,0.113885195077615,0
1.02652073009162e-07,0.114447766217747,0
7.96001559481734e-08,0.10971908016797,0
6.82247615376444e-08,0.109367391030637,0
4.72897633736661e-08,0.0998371514979653,0
4.69622931786541e-08,0.0996815312032462,0
7.81973566279433e-08,0.113803632195426,0
1.74647162186015e-07,0.154645466689712,0
1.79201072776705e-07,0.167901300350505,0
1.57031069937874e-07,0.167942657943151,0
1.71124376754827e-07,0.176667710945497,0
1.50375576519913e-07,0.159615384203969,0
1.28158843774467e-07,0.15068295733277,0
1.61888093436343e-07,0.16536663928586,0
1.64099374268335e-07,0.17730650100461,0
1.70486396253691e-07,0.183535737540602,0
1.66043627062521e-07,0.174675967402903,0
1.38288588473502e-07,0.154859826390282,0
1.07804090319667e-07,0.140892022182217,0
1.18932664219575e-07,0.139892021515095,0
3.29164018808468e-07,0.196608153701887,0
5.1014173015833e-07,0.246116236718962,0
4.99063675076385e-07,0.251341150404851,0
4.5996932694681e-07,0.229255853177676,0
4.23906107895031e-07,0.203480986277986,0
3.89335539489717e-07,0.195800661918292,0
4.90713636164455e-07,0.229045606990723,0
5.47828768358929e-07,0.240520462264336,0
5.31226841381399e-07,0.237168075496725,0
5.24948074005965e-07,0.249203062642796,0
4.10559036189137e-07,0.23757805058359,0
2.77407489805099e-07,0.210526261875871,0
2.51463731264413e-07,0.198633557898345,0
1.50918292964318e-07,0.164395117175716,0
7.02253067289899e-08,0.146586969755555,0
5.47723220114256e-08,0.141041932702612,0
1.47845125013001e-08,0.109010897837641,0
8.18224426654917e-10,0.0996149700101579,0
7.01760508814739e-09,0.114012127632852,0
7.49392537180101e-09,0.111343283488779,0
5.52933875338467e-08,0.141885225520184,0
6.95036093295146e-08,0.131663743156557,0
1.15965946634682e-07,0.153946110768554,0
1.09172609013421e-07,0.160125288981751,0
1.07023213733434e-07,0.152688185952906,0
1.07617351117552e-07,0.150051534889942,0
9.56682072744404e-08,0.141875985143943,0
9.06682876908759e-08,0.139460159713929,0
1.00970518068385e-07,0.134613228006363,0
1.06401290999436e-07,0.136914900940211,0
6.10094113620407e-08,0.116399843094028,0
3.85473015007725e-08,0.114758447543654,0
6.94417237775083e-09,0.0903924864648818,0
2.19666645965275e-09,0.0879306796134209,0
1.54858219492396e-09,0.087454793508391,0
2.14037406249373e-09,0.0825771203387381,0
0,0.0833891619738207,0
3.86339051887096e-08,0.105066200218135,0
3.85545184747674e-08,0.103245998388628,0
4.12635900880476e-08,0.10456246209235,0
4.04201062524107e-08,0.102477794046032,0
3.93077901354697e-08,0.0981244718921302,0
3.43001123048605e-08,0.1008660615866,0
3.68296616900213e-08,0.103925403291162,0
4.4280285217854e-08,0.106237568438244,0
1.09214287038241e-07,0.140466271328152,0
1.40730992897676e-07,0.153116440108645,0
1.47750041380622e-07,0.159848605010169,0
1.47595056864085e-07,0.161273788839808,0
1.38870457001829e-07,0.156365353345194,0
1.7001891676318e-07,0.16995148398008,0
1.74337373577291e-07,0.174754056495877,0
1.52742743990192e-07,0.159143327278455,0
1.42723599417627e-07,0.151391726859628,0
1.56674731846883e-07,0.159267694124764,0
1.34924035197148e-07,0.148380042345498,0
1.35052677758604e-07,0.137876351616383,0
1.08757633008723e-07,0.124324916068329,0
1.14103065222287e-07,0.12990004354964,0
1.45712148348854e-07,0.136667610713134,0
1.54047753312793e-07,0.136807330197484,0
1.73586808281836e-07,0.140477669674947,0
1.6363766835702e-07,0.133324354112311,0
1.85263330932296e-07,0.138158482958894,0
1.8098276323166e-07,0.135375471699469,0
1.26106336370359e-07,0.12113677007578,0
1.30017936275515e-07,0.128854237537708,0
1.94306921045121e-07,0.147721364979179,0
1.70202949600047e-07,0.142139239512949,0
1.24079268799583e-07,0.129934812224503,0
1.18453637570673e-07,0.135329740383184,0
1.22649405826873e-07,0.139466733143788,0
1.32367241735157e-07,0.147457032403835,0
1.07962863747551e-07,0.135330556804029,0
1.09615731216699e-07,0.133942278409976,0
1.13390028191605e-07,0.137516473053844,0
1.10445683226096e-07,0.140835467121838,0
6.25464463985728e-08,0.121207373794186,0
6.65729766145953e-08,0.118038844170138,0
6.41255203086248e-08,0.115970678423243,0
6.61044145779862e-08,0.1168779736071,0
4.37563329058347e-08,0.107672026429453,0
1.34334949694826e-08,0.0913288757474184,0
8.23310589077877e-08,0.123319599627497,0
1.66803754848518e-07,0.153106769569434,0
1.70818557481799e-07,0.146022448721635,0
1.66982735803588e-07,0.14289617290923,0
1.61768472092379e-07,0.144972233539053,0
1.89611377339785e-07,0.160955171062025,0
1.78357228092368e-07,0.159418327446563,0
1.79598547619465e-07,0.157489190135515,0
2.09530225565302e-07,0.160313460223905,0
2.05881323513555e-07,0.161545371261684,0
2.51491336189943e-07,0.180378281088324,0
1.90777640337337e-07,0.163714089484414,0
2.42125869036952e-07,0.183259496358176,0
2.7145186244028e-07,0.183395449303608,0
2.59002582299331e-07,0.182473998782376,0
2.32376458867441e-07,0.168307304642628,0
2.65434529947805e-07,0.181673602749061,0
2.63184999153641e-07,0.176125822255756,0
2.04767203153115e-07,0.163363911482111,0
2.1962839600311e-07,0.165648226927772,0
1.46566457645482e-07,0.150767003358854,0
1.891099780715e-07,0.158756589340275,0
2.68447616590614e-07,0.173092584535099,0
2.61047872729444e-07,0.160037324013613,0
9.11922219604599e-07,0.259517499369234,0
1.24692404867742e-06,0.287394707666878,0
1.45314042020868e-06,0.308269942944193,0
1.47908273535457e-06,0.306887648579248,0
1.32098914642032e-06,0.282905026129116,0
1.09602433942114e-06,0.251835255083246,0
9.35208507896066e-07,0.226754335906209,0
9.2971657111041e-07,0.231066905732331,0
8.94663547993549e-07,0.225856836450174,0
9.24487151753813e-07,0.240655512706398,0
9.11816851784276e-07,0.265543093894459,0
8.49717136075977e-07,0.276987098770647,0
5.35531044671871e-07,0.220608926903091,0
3.70107896948549e-07,0.189249096471944,0
3.74816250782724e-07,0.188077388982374,0
3.48892880193573e-07,0.196766351829264,0
1.72099570365868e-07,0.150485706455675,0
2.04648123082203e-07,0.176405672729503,0
2.04452362662594e-07,0.189470138162744,0
2.1975234753147e-07,0.198911112151792,0
1.77202692677558e-07,0.169722652079986,0
1.42647640766332e-07,0.151362666726885,0
1.3570509220773e-07,0.151305124273865,0
2.79676326004699e-07,0.2013382776852,0
3.56901014962501e-07,0.230343425226255,0
3.57045174018045e-07,0.220958924063846,0
3.61428764022458e-07,0.225765495626608,0
3.81708460947712e-07,0.205143500287065,0
4.83630897886006e-07,0.223668400670768,0
3.50506776003149e-07,0.198312569121802,0
3.18444466909712e-07,0.202472011333731,0
2.94066972150236e-07,0.188373908180538,0
3.84289250848236e-07,0.210453770897099,0
3.97838397825985e-07,0.223606145735025,0
3.87200578157719e-07,0.227178882812206,0
3.84680591263102e-07,0.230423562816,0
3.16120601283402e-07,0.215159079373111,0
2.80707812012899e-07,0.226326812749835,0
2.36733887341123e-07,0.208681395784657,0
3.01201853065799e-07,0.198829778133944,0
3.52065642386016e-07,0.197051152243005,0
3.30554549272907e-07,0.199649948579351,0
2.89458212557187e-07,0.188458947445942,0
2.83067762509184e-07,0.177973456441519,0
8.38335065964504e-07,0.263970009023405,0
9.81200839769827e-07,0.250506289723632,0
1.0258017390574e-06,0.251924167343552,0
1.10371330351515e-06,0.257016000197147,0
9.14436613344371e-07,0.233672882968643,0
9.11318880578638e-07,0.24875711756774,0
9.20591429191445e-07,0.253549106265197,0
9.31227625040561e-07,0.250537075019085,0
9.83266337727126e-07,0.253988902843057,0
9.80812566568909e-07,0.256930366783499,0
3.8251044718288e-07,0.179281676041562,0
1.55196515148408e-07,0.136386868374361,0
1.56566477236961e-07,0.140000579121434,0
4.53865390766398e-07,0.21130479820192,0
1.02495735310001e-06,0.317319499844599,0
1.05657293150317e-06,0.299268068624703,0
9.49058061416348e-07,0.283951999463044,0
8.90132190446591e-07,0.275445133383558,0
8.19985368309796e-07,0.264650180103524,0
9.1108216383161e-07,0.26974418107023,0
8.54275918124114e-07,0.272936808199394,0
8.27415784310443e-07,0.274825286226325,0
8.19224699250747e-07,0.276767673501136,0
7.20192660397353e-07,0.267097025434408,0
2.84428883804594e-07,0.16744319676686,0
1.59405454382148e-07,0.142250468452737,0
1.59660935261562e-07,0.144323923937452,0
1.59754936347844e-07,0.148490745300071,0
1.80694084271869e-07,0.162702395027398,0
1.7041855669814e-07,0.164495178431251,0
2.09401943852546e-07,0.170019519934024,0
1.48074805210386e-07,0.148745073271645,0
6.05395863549822e-08,0.109378490428319,0
6.99178636368131e-08,0.122640831864312,0
6.78013055885021e-08,0.127170349467023,0
1.36500041893251e-08,0.103402734337278,0
2.43789381542742e-08,0.115524529237714,0
7.96434577921418e-08,0.14543604504095,0
1.59377488607918e-07,0.172869845913998,0
2.9208176302863e-07,0.228366712515566,0
2.70992862894213e-07,0.216335990647477,0
2.91207607053515e-07,0.214787371397053,0
2.96686733710332e-07,0.211742458217761,0
2.64042916937267e-07,0.192863008046682,0
2.49401120096713e-07,0.177089812258257,0
3.0447330737762e-07,0.18480897953553,0
3.30231228837942e-07,0.191596315363584,0
3.83095022076455e-07,0.207410818558583,0
3.58471248079408e-07,0.204293778087292,0
2.40705568554785e-07,0.172007969183054,0
2.2900901880149e-07,0.172151038299308,0
2.11806459163247e-07,0.181878137459889,0
1.90589457740424e-07,0.191706703760593,0
1.07525695547819e-07,0.157623696710423,0
8.57679623484387e-08,0.159247943169498,0
5.09415522150105e-08,0.138754767514328,0
8.05369191726923e-08,0.156109255468063,0
6.58657131631095e-08,0.1328380008411,0
7.6196631012248e-08,0.13506095761066,0
8.28723319573942e-08,0.135750617487849,0
7.81136397296042e-08,0.133439323111155,0
9.06118148693668e-08,0.136942261349829,0
1.08551227552473e-07,0.137744147425687,0
1.42628876633946e-07,0.149097908013175,0
1.806522258227e-07,0.165303469940145,0
1.88548497494708e-07,0.16578094193229,0
1.23706872941454e-07,0.144020880900877,0
1.09758446877445e-07,0.151022420241721,0
1.06638729443864e-07,0.152509744433032,0
1.21314265637843e-07,0.159187715870181,0
1.22534114667306e-07,0.156650584464262,0
1.29209093915054e-07,0.156593632262985,0
1.48061273384146e-07,0.153660222153685,0
1.74589967667107e-07,0.171669706924985,0
1.3344906613697e-07,0.145780448627602,0
1.65509570986909e-07,0.162560689806916,0
2.14048231710367e-07,0.168717123525788,0
2.44255417638454e-07,0.173167678385727,0
2.56801585655282e-07,0.174247233375885,0
2.40586488483871e-07,0.171972863703504,0
2.48711357807164e-07,0.184930803669965,0
2.53103427756021e-07,0.184960463521891,0
2.39708724021759e-07,0.198170870570602,0
1.76190692499144e-07,0.166414741565005,0
1.51040981522229e-07,0.165853554019956,0
1.20822970133151e-07,0.148146400389997,0
4.67926942897773e-08,0.11306211889785,0
7.58718671824842e-08,0.125500533341535,0
9.48481786042866e-08,0.131973883581114,0
1.57000758647096e-07,0.151987986333221,0
1.5291107990862e-07,0.14097503881771,0
1.2583064796376e-07,0.131426271546284,0
1.16240732919532e-07,0.130628376347361,0
1.37197382005495e-07,0.132883336409674,0
2.54015833693307e-07,0.167058678881986,0
1.82759040956117e-07,0.144153386464673,0
2.91497729408105e-07,0.177657660349726,0
4.06017574878588e-07,0.201961033884911,0
3.91506405267339e-07,0.198923893573872,0
3.73896808295792e-07,0.192628286628809,0
3.83297638621358e-07,0.192155673550171,0
3.93296214818038e-07,0.183984723847483,0
4.3397523001251e-07,0.184608459457859,0
4.51151628120022e-07,0.192638524353918,0
2.53787596890723e-07,0.1521304216217,0
2.13968844996425e-07,0.144680815028198,0
2.59175970099555e-07,0.153272433531304,0
2.95424665382999e-07,0.160362820178091,0
2.8803737080197e-07,0.158674640316884,0
5.31592020265534e-07,0.200387667591252,0
5.52224807643482e-07,0.196980547760299,0
8.80957070982714e-07,0.225433167209036,0
1.17681462850835e-05,0.354162310604987,0
4.7266965674514e-05,0.553964490103914,0
5.20826162457384e-05,0.446369949322508,0
5.00497759978882e-05,0.445658998862955,0
4.76221302855334e-05,0.432148385949015,0
7.65473642208103e-05,0.25658670190741,0
0.000304746126134935,0.376752987259492,0
0.000620256252248489,0.558667900887591,0
0.000860756484361297,0.598438951945587,0
0.00108061571166914,0.323278592811465,0
0.000997219465649691,0.200297390771001,0
0.001003819322513,0.182951721520176,0
0.00089029683109391,0.162083040438261,0
0.000706342663033173,0.114475260736146,0
0.000657664877815229,0.107843705895906,0
0.00061948182853913,0.110418789940993,0
0.000640558866133391,0.120517376925134,0
0.000693661927860512,0.123264038547043,0
0.000592713450430707,0.108425175385769,0
0.000359931686303721,0.0935305405878394,0
0.0004214690409644,0.134334154440672,0
0.000304698625455496,0.133800747343196,0
0.000134946124189454,0.0869231880278196,0
0.000143090399053696,0.12331152075853,1
0.000157528918454954,0.132794670175405,1
0.000164504195990622,0.152959496272559,1
0.000141726420017008,0.159588617340907,1
0.000153509363985571,0.191090607284339,1
0.000108203191687942,0.124289674244938,1
0.000323488736241869,0.157661522858168,1
0.000365781017745361,0.100009682295609,1
0.000379034183809456,0.103280416993798,1
0.000380430591597092,0.104321629430979,1
0.00064461029761606,0.0720119466750321,1
0.00114474047780398,0.0934900191337095,1
0.0013055016744904,0.0860773653946136,1
0.00118244887734549,0.0711855971246659,1
0.0015132571691092,0.0620094759425731,1
0.00149805563008046,0.0410707478514104,1
0.00154363236528976,0.0380982294753704,1
0.00230080472826648,0.0408085945352875,1
0.00207972060221247,0.031694491598233,1
0.00153394338284351,0.0256060241727495,1
0.00148569262020325,0.0290797929794453,1
0.00150126777096981,0.0287138414331295,1
0.00168127769043716,0.0312392952978005,1
0.00154019774096949,0.0265762737416139,1
0.00160746089358667,0.0316299263747042,1
0.00148727429944091,0.0375893918938377,1
0.00182454248640447,0.0390664515868929,1
0.0029942280212887,0.0720009237943594,1
0.0034729143561272,0.0890756291276267,1
0.003352403576953,0.0796850260268986,1
0.00346021680342047,0.0731090336620564,1
0.00334529473343621,0.0666133892913758,1
0.0027050568590007,0.0614312011878164,1
0.00238856117930994,0.0703567416275745,1
0.00271858523462517,0.0774775181449692,1
0.00323194353418852,0.0914733217386371,1
0.00344261740313105,0.10541646704271,1
0.00218068319766723,0.0616702340695018,1
0.00143022477765915,0.0448695642470892,1
0.00132963545203807,0.0429231810039264,1
0.000998823755666881,0.0330211733555688,1
0.00103334880661721,0.0291554873792441,1
0.00125465858435372,0.0319327787203298,1
0.00128184256886952,0.0301892519186679,1
0.00133327113493898,0.0296359267472999,1
0.00188144252101921,0.0196436957205068,1
0.00276577629000212,0.0222766440550972,1
0.00267952326761452,0.0231499738279565,1
0.00271637693169707,0.0229370217394542,1
0.0026494735612913,0.023555607651478,1
0.00251438994869537,0.0250549601126674,1
0.00239696613488336,0.0280118865710235,1
0.00202210891478266,0.0249293534515162,1
0.00234361922441508,0.0273546207382424,1
0.00256688641004598,0.0299313855659818,1
0.00244421357792152,0.0565099834269829,1
0.00383132044936539,0.0941379627493167,1
0.0107654029264286,0.112800928075925,1
0.0179939408763581,0.183819435459126,1
0.0234139336374397,0.120923872492732,1
0.0247912690737724,0.0386709296521473,1
0.0547344583457251,0.0412330230693199,1
0.0780486906370912,0.0456637814086248,1
0.102630608636574,0.0422604536217004,1
0.0919578992571942,0.0364682353506052,1
0.0875683345915498,0.0325809261523287,1
0.0718086900905156,0.0248698090291358,1
0.059810183587231,0.0180097620979249,1
0.0567320927111603,0.0131926294051189,1
0.049885050618785,0.0110563589725525,1
0.0340525865334989,0.00862805656785128,1
0.0342900176084937,0.00957196824127378,1
0.0334893139667282,0.010430615516604,1
0.028650175747323,0.00978351945966837,1
0.029063343798998,0.0106678679821144,1
0.053009783849293,0.0126399080477588,1
0.0958403083978991,0.0208475360490321,1
0.102036918884546,0.0232763021139688,1
0.103301434325378,0.02513365729879,1
0.0907971819962626,0.0245609059588569,1
0.0879129703700337,0.023847703570464,1
0.0876062043238386,0.0227627440710046,1
0.0948738489477676,0.0204597108630946,1
0.125421829863773,0.0251962746816663,1
0.147446075227147,0.0279293772491503,1
0.13700148302143,0.0459474930532879,1
0.0901437015560544,0.0354537919950101,1
0.0607893145236222,0.0284524475506796,1
0.0534576225976705,0.0261818472757313,1
0.0476877584519974,0.0241950035024695,1
0.0419871141496491,0.0215299905030123,1
0.0252215039597859,0.0174419241827558,1
0.0146380460795748,0.0208116346446718,1
0.015734505367074,0.014462786949674,1
0.0161330102668824,0.0158224369509768,1
0.0184468034368332,0.0176533318523515,1
0.0169140564866449,0.0180818933135325,1
0.0129561914277907,0.0149244884154541,1
0.0124349652122266,0.0208757561120217,1
0.016141044490471,0.0109671546864839,1
0.0341798020615778,0.0173478713424793,1
0.0340207609736289,0.0174692282853648,1
0.0257111845703811,0.0138877155405009,1
0.0213419254600799,0.0142837503146881,1
0.0218138781248926,0.0144574016982942,1
0.0224768912962712,0.0154609210744204,1
0.0263622014894797,0.0148548411155376,1
0.0334867401579871,0.0150286457693639,1
0.0333818613517025,0.0159707920974594,1
0.0302083747275289,0.0252674206021007,1
0.0132218953567327,0.0172300951265097,1
0.0136619727148932,0.0131451270139933,1
0.0324242907859228,0.0260224954739375,1
0.0985842026028119,0.0242719363947902,1
0.179852973818239,0.0249345551908532,1
0.189840882880624,0.0275221749697966,1
0.179311762405018,0.0273066348701069,1
0.142011040530056,0.0238376398261671,1
0.123597567463438,0.0213101784565531,1
0.120584823697801,0.0206586811369945,1
0.108530885741759,0.0197163142734642,1
0.0882171059683149,0.0170050889293576,1
0.0941531813282078,0.0184309551755052,1
0.092196781702105,0.0289921222271784,1
0.0840786980050971,0.0475478700786841,1
0.0795256979150644,0.0392298082184494,1
0.0725403367538672,0.0311256030431592,1
0.0550479922384676,0.026049670818546,1
0.0441448939411462,0.021040554116747,1
0.0447825826291712,0.0232692193289998,1
0.0548798902840527,0.0218393575798901,1
0.0930879140511191,0.041236157280717,1
0.110462114053054,0.0331835963713118,1
0.0944958833753436,0.0247939427737427,1
0.0952921996410801,0.021349838467594,1
0.0968505247162556,0.0174771088827377,1
0.116182872511904,0.0236370888503261,1
0.110436348962252,0.0219874172996531,1
0.161462324358266,0.0201950030313592,1
0.304066513101896,0.0323498462641642,1
0.344625947332097,0.0330683344638528,1
0.297182808118929,0.0262282883090782,1
0.221706266766426,0.0202143788845454,1
0.213185296985924,0.0163338300197618,1
0.320285354865938,0.0203975354719213,1
0.472643180972747,0.0300636046560709,1
0.661306947784127,0.0373958731051056,1
0.822876121838602,0.0417530856525708,1
0.856165501023733,0.0577697217334252,1
0.674331556425795,0.0506815231701478,1
0.505365598401561,0.0422332364504588,1
0.325333837538781,0.0353778640982341,1
0.218750184099977,0.0345100245959886,1
0.0230676418757386,0.00932960410042273,1
0.0123431408302546,0.0275799395834964,1
0.0150686969431285,0.0409259704075317,1
0.0177229983563681,0.0774746178714414,1
0.018533199120213,0.0795460193884805,1
0.0252360080459371,0.0806918537416139,1
0.032451202056147,0.0574606355191509,1
0.0278620311203293,0.0350870986037431,1
0.0495170111702731,0.0309195405510178,1
0.0456511689659494,0.0159006198393907,1
0.0390125128010022,0.0107500788942587,1
0.0353594146639936,0.0094259975153119,1
0.0366195543713995,0.00878043898343133,1
0.0396855230194811,0.00763365259283981,1
0.0418028594774363,0.00817853421683568,1
0.0448939283691899,0.00920873252975802,1
0.0691650107596108,0.0121923684618279,1
0.0947658009287788,0.0166853273365561,1
0.117905957302921,0.0222058966100154,1
0.114510164734874,0.0282034623602947,1
0.125358861981998,0.0287961560641508,1
0.154429100870012,0.0365030540144246,1
0.142219794180352,0.0382625294465555,1
0.141477033218094,0.0308179205668658,1
0.151081888986225,0.0202530539980314,1
0.139392337053586,0.0166600149531451,1
0.130522739938923,0.013568540694469,1
0.119844908937601,0.0127729954403887,1
0.122454813117266,0.0131408842708013,1
0.126226627547479,0.0134415697307566,1
0.15831035159672,0.0172052568799564,1
0.162513912672155,0.0160911422931875,1
0.201859386165169,0.0173463586156214,1
0.170488433753397,0.0115883885027695,1
0.175630778784961,0.0156959248387541,1
0.147546953152883,0.0160136469958904,1
0.161710657676542,0.0196392159969315,1
0.184199912796223,0.0199374779207434,1
0.183279757837892,0.0195597078353493,1
0.200859974630994,0.0217419849594094,1
0.228253220618923,0.028251547397137,1
0.221499378859975,0.0234919699430391,1
0.170718511957514,0.0173565433152537,1
0.221566253059913,0.0314155202906178,1
0.272506627962739,0.0348971182565458,1
0.403818157197127,0.0436050454664852,1
0.5000589988528,0.0581168523105605,1
0.577330482611705,0.0636403934176832,1
0.600913537084942,0.0637739218563354,1
0.539777250049887,0.0736855018521946,1
0.283480184342888,0.0370573223230188,1
0.101119548000952,0.0198659882335803,1
0.0623273578854499,0.0173540615366559,1
0.0453890459589531,0.0131247594544746,1
0.0208428876701241,0.00551761278001141,1
0.0323813513257044,0.0111325457351853,1
0.0346413161502339,0.0102465237644446,1
0.0289333433682146,0.00868778826826462,1
0.0307289685196618,0.00908320343987855,1
0.0335808448460955,0.0113884671774043,1
0.0252570561477959,0.00991157197430491,1
0.0260662071161695,0.0128820309071336,1
0.024482412021045,0.0136968470694396,1
0.0353286279175254,0.0176628954537529,1
0.0474457076609605,0.0129592490117596,1
0.0561538961837125,0.0147787737394509,1
0.0842155947893103,0.0241295195604913,1
0.18133250638235,0.0201621522096735,1
0.344604836968682,0.0248135411485947,1
0.364437344274842,0.0263847178223679,1
0.351544792418009,0.0271116178226127,1
0.332557540748341,0.0250817390788841,1
0.325197507591042,0.0260332262705397,1
0.210936375964538,0.0157103943115158,1
0.170283555488232,0.0144180216478206,1
0.137353762684443,0.0121503793996774,1
0.138103222333166,0.0120533716763808,1
0.158608063003795,0.0281539404057808,1
0.115669644551071,0.026688321016702,1
0.122787035258078,0.0260680921006909,1
0.126125834680999,0.0224462490292818,1
0.137758618133274,0.0244416307422776,1
0.120377211544554,0.0221417998014447,1
0.0952335560129727,0.0188725121341091,1
0.103034741493462,0.0212675764709601,1
0.106861241299373,0.0179772770650184,1
0.113709804158282,0.0179136934071506,1
0.0917298314689241,0.0152560029723642,1
0.0854136445596469,0.0154701167865089,1
0.0854626694995368,0.0178607909261106,1
0.0749404548214931,0.0152584617931467,1
0.0719926773846674,0.0115876193348128,1
0.0873032577658662,0.0137146636358179,1
0.0935348477173445,0.0195080035897896,1
0.0677352752106954,0.01192141781256,1
0.0794857748562449,0.0157489995676025,1
0.0972124956058327,0.0192480265642519,1
0.102148077441699,0.0202333385582792,1
0.146588360804858,0.0194157431568905,1
0.248985635754347,0.0282873384323559,1
0.335465176686948,0.0359820909899738,1
0.419670080615439,0.0573124520841667,1
0.408006229402163,0.0614348183428256,1
0.347800658624795,0.0536334030758246,1
0.238543769180853,0.0457377669180813,1
0.216913409953885,0.0429693116719386,1
0.16948873941109,0.0368404691800603,1
0.070752610480863,0.0186254980295462,1
0.0123961412886233,0.0365382434515319,1
0.0132425335342881,0.0433321131256259,1
0.0123371745419758,0.0453644578957965,1
0.0169837737120898,0.0490343258012907,1
0.020300952050884,0.0649397132962079,1
0.0243089011578826,0.071507566358676,1
0.0231400645576341,0.0725947025150148,1
0.0327575924438705,0.0286817098764639,1
0.0491143593479515,0.0297590408904514,1
0.0452019003991641,0.024688948525912,1
0.0417284632528381,0.0209869327458747,1
0.044205269664122,0.0191474957228708,1
0.0442043993813164,0.022997318961446,1
0.0903676899923541,0.0350985968755545,1
0.0959876581510801,0.0206688526364959,1
0.0962746994899803,0.0187940848846898,1
0.101894689044508,0.019950206143385,1
0.101552696126953,0.0222329295962731,1
0.10636183399259,0.0220105458484604,1
0.0981812637500678,0.0186214984832595,1
0.0800279687439207,0.0107821224780241,1
0.12922974330508,0.0119898330157031,1
0.148949407343885,0.0119589734571291,1
0.165223666856191,0.011947697189692,1
0.155595426346351,0.0131527490611365,1
0.151751190386612,0.0137436621152962,1
0.155041769593818,0.0130441621732274,1
0.157548313314783,0.0134431516057175,1
0.156344570999419,0.0146055542386272,1
0.126494750179401,0.0133508072636627,1
0.07699079992583,0.0124249618153701,1
0.0595539744003908,0.0194824639833166,1
0.0499469585693905,0.0173346072129221,1
0.0782328511665847,0.0237535709629133,1
0.0752185190703656,0.0150874017351902,1
0.0681944725191698,0.0113031201650436,1
0.0723557146092159,0.0127422650423972,1
0.0709684647848532,0.0136626313082738,1
0.0882714615586123,0.0114633993637881,1
0.136255572164504,0.0162814258262164,1
0.141561319967437,0.015611240608179,1
0.14222681953232,0.014497817709815,1
0.14255462197787,0.0146823837410376,1
0.0899847516471745,0.0110576111090519,1
0.0829883417512957,0.0162474942603181,1
0.079994969316708,0.0200716180471623,1
0.0756481748822631,0.0099528445841535,1
0.13908586352127,0.015504083901622,1
0.184299006736326,0.0242699674534081,1
0.220598951443224,0.0300445129095218,1
0.242314055474739,0.0352947011994628,1
0.276466395021891,0.0382465175882385,1
0.275262489385865,0.0386666827839312,1
0.232235763797573,0.0338715884269109,1
0.179974940216142,0.0267629565715681,1
0.068911299701616,0.00929470016279278,1
0.0176333998948598,0.0115979447320023,1
0.0290525651103122,0.024408424453861,1
0.0409423525177858,0.033847474143685,1
0.0496882552865499,0.0377653500811078,1
0.0714068488859301,0.0508446087264064,1
0.0782247770253716,0.0431615684090887,1
0.0664096327109997,0.0365644615032985,1
0.0617284026097098,0.035505837946716,1
0.0477529776686301,0.0258911339073825,1
0.0271644951511397,0.00697736381822806,1
0.0575810472254445,0.0159045116498327,1
0.115622192858468,0.0252872933977094,1
0.170870405367409,0.0311074501374027,1
0.186501031473143,0.031025789399732,1
0.205231679685104,0.0317429764142335,1
0.221890208959,0.0291877954697462,1
0.211132575392674,0.0239114189656531,1
0.209079582640028,0.0214930889845068,1
0.152267544968636,0.0140037473516411,1
0.12048542097279,0.00960181333146364,1
0.127903833798095,0.00875519729523231,1
0.13339788455235,0.00923283118317307,1
0.132792862831166,0.00882735799405393,1
0.134714970600461,0.00969360110748719,1
0.166911825357583,0.0115528732997835,1
0.173655157929501,0.00919280209289414,1
0.18024735349932,0.011146672164732,1
0.181367177266694,0.0111751960319547,1
0.183416104215433,0.014715113053775,1
0.130320382173057,0.0129525296445322,1
0.123579796965475,0.0102163219961905,1
0.277896285152075,0.0179937175335712,1
0.318304831807098,0.0181650873602309,1
0.368460629678012,0.018066583340388,1
0.373132530968964,0.0155836068073228,1
0.381096598283582,0.018550190693491,1
0.340743945011675,0.016872913606388,1
0.330834967304469,0.0172368888730601,1
0.279623660430704,0.0150570768321374,1
0.275204026350263,0.0136945871379764,1
0.254924860423793,0.0143418250278292,1
0.184059823883068,0.0126442794917491,1
0.181770685334626,0.0113242934762981,1
0.188031807175987,0.0126793204275774,1
0.176430955858442,0.0157467965535001,1
0.202575488876913,0.0153870086099263,1
0.262573390908772,0.0130710598633697,1
0.252058403753774,0.00983912749533081,1
0.395557830676023,0.012261060832319,1
0.447079077262643,0.0146891130133842,1
0.434585515166649,0.0143189416147302,1
0.410998665164641,0.0136378505176211,1
0.391729290493178,0.0142249535486237,1
0.398335293085446,0.0143550222687608,1
0.348210922888192,0.0124940602177241,1
0.317623948518797,0.0123692882938946,1
0.267990355753412,0.017087166284026,1
0.0315675609162162,0,1
0.0427694012582659,0.0144201297515561,1
0.0426404633340296,0.0169080692233438,1
0.0616785185637615,0.0190647425934646,1
0.0861295439066262,0.0257462553133358,1
0.0905226210641317,0.0225926448940467,1
0.174401075234432,0.0314214834822965,1
0.151889325835408,0.0211307954320817,1
0.115742749289874,0.0165564887753384,1
0.111016601192238,0.015390626645335,1
0.0949471874694366,0.0150903466289528,1
0.0953620485984926,0.0149557679902683,1
0.0884045239990031,0.0133466706935089,1
0.104720209405369,0.0166155416481399,1
0.107526127286689,0.0174386877403994,1
0.11288386126743,0.0189358085259633,1
0.163379745386218,0.0113528050829599,1
0.27022118512492,0.0142227944130903,1
0.267324889278355,0.0142447542299517,1
0.232184095517186,0.0131271278479326,1
0.19901631086563,0.0106115134508204,1
0.243424149447859,0.0118283023342601,1
0.286652058083974,0.0114538316321071,1
0.29674030051893,0.0103069036282779,1
0.293306033691474,0.00901799370964898,1
0.228711063398627,0.00693993384627526,1
0.26544133942258,0.0111907938464815,1
0.29088354188439,0.0131181865401455,1
0.266587809693579,0.0123579146363435,1
0.237364691814488,0.00602564066477311,1
0.368214026127672,0.0103654073598578,1
0.380509874054628,0.00973190633073798,1
0.386550007643285,0.010936033520646,1
0.333021077509431,0.0108230351900405,1
0.327729542417607,0.0114090741513289,1
0.42007409970467,0.0136210494152258,1
0.40429785704843,0.0127883965986552,1
0.382788201618426,0.0145122514382048,1
0.378012136963637,0.0137033016026583,1
0.355744499664514,0.0250764949879588,1
0.187569866334848,0.0200532683036906,1
0.152944013452257,0.0273884234890337,1
0.156323977761059,0.0299678480626333,1
0.194110383693003,0.0351122048429499,1
0.198435049782788,0.0429812361437404,1
0.0978680533343686,0.0202176569688547,1
0.0813295943256571,0.0269163537014725,1
0.197165656395908,0.0406415695214158,1
0.362602900313559,0.062884988575021,1
0.601060703760994,0.0883908979095543,1
0.748555141191867,0.0955552854517752,1
0.863982829376804,0.0944413514759612,1
0.866798787268953,0.103897575893674,1
0.702211324136037,0.0955404585828056,1
0.441514551331255,0.0553028488999428,1
0.208140972134308,0.0403030814554372,1
0.0718018799977871,0.0172553614558786,1
0.0244955440740166,0.0128101696162655,1
0.0200034468287862,0.00775598297655211,1
0.019093733425417,0.00774725610471122,1
0.0379410033825007,0.0136110694308013,1
0.0405936204043483,0.0125891348531316,1
0.104234827002744,0.0202165802436574,1
0.117501617688389,0.0149042596436373,1
0.117147658104178,0.0147349148985794,1
0.148270694529299,0.0066056250040098,1
0.253471008358888,0.0110959025196021,1
0.243598149557808,0.0103656318736425,1
0.247376857429582,0.0108792698991904,1
0.263278422907984,0.0119405080900928,1
0.260702734352772,0.00930656245541261,1
0.238696802710437,0.00865831658045096,1
0.234959940116133,0.00914438285918542,1
0.225312252338964,0.010443532207601,1
0.171963445207524,0.00764223732498697,1
0.146981234351279,0.0146815687546084,1
0.0992028237391821,0.0122091784746164,1
0.112872177884324,0.0144793523512728,1
0.165917342681237,0.0211907007916256,1
0.200204160985673,0.023224238363826,1
0.199481250975793,0.0393340778018327,1
0.223461829218004,0.0363323237116018,1
0.224489992734715,0.0300625040337763,1
0.211195461459223,0.0299987346894542,1
0.13218434147949,0.024206392430227,1
0.090085636806483,0.0210678363004314,1
0.0510995714344715,0.0148987379949067,1
0.0521491376453462,0.00941164428767781,1
0.138705427884286,0.0181683771749785,1
0.205016812715299,0.0265499007215353,1
0.237769379120454,0.031286553332878,1
0.244734481522431,0.0347035184572819,1
0.249160275619451,0.0387077720137271,1
0.231850679842416,0.0357705559579373,1
0.200910601627067,0.0304054643088523,1
0.225525927835077,0.0237344574572585,1
0.30669940450278,0.0236552838562735,1
0.287104568687242,0.0277121667265553,1
0.247410382928191,0.0313060067047655,1
0.211563126539478,0.0268056446982576,1
0.177357725795904,0.0228745926402068,1
0.161007955602869,0.017504365250547,1
0.158965758061811,0.0179647986476804,1
0.200501070350943,0.0197065298001121,1
0.190535019610317,0.0191917386674517,1
0.217077883770204,0.0219457927686469,1
0.194107535392069,0.0233020748913502,1
0.240236984049571,0.0248103714987437,1
0.305794938283349,0.0287285232416667,1
0.389200717490805,0.0318825830747592,1
0.488838136252463,0.0341832707587822,1
0.513348337601565,0.0406048268766908,1
0.468602419664342,0.0391914430027768,1
0.254875366881091,0.0252447160151575,1
0.144206463361652,0.0157665760861278,1
0.127243450067502,0.0152881074369287,1
0.0865955261131926,0.0127216097107921,1
0.0469574443072691,0.00742438407381549,1
0.0566617030423592,0.00861095226715895,1
0.0940363176340318,0.0196517043127353,1
0.103736700099011,0.0176995713320063,1
0.11516474446871,0.0106188593806413,1
0.299888194334822,0.0188506223356039,1
0.310667632065111,0.0106320594284793,1
0.280293920088449,0.00903837275802638,1
0.312318221161551,0.00908850938720893,1
0.305145022760364,0.00774838802238224,1
0.295016863144092,0.00698262356245349,1
0.319741077572467,0.00743694369724678,1
0.35097610237486,0.00819430359700772,1
0.387026858640112,0.00928901646594029,1
0.376613774830991,0.0107500207826569,1
0.243028256900485,0.00655421928166588,1
0.232045218835544,0.0117926378307132,1
0.21832678055617,0.0117993110613614,1
0.178697795495718,0.0139996157037014,1
0.142314676675667,0.0146475506117649,1
0.273352552615066,0.0199415681758196,1
0.497612387603424,0.0350689686340829,1
0.460478945317892,0.0203844963166792,1
0.348535667823738,0.0167282193028839,1
0.317734125295948,0.0144832229972228,1
0.328778089067261,0.0122598487484777,1
0.327796926643263,0.0141555230399939,1
0.284162928852878,0.0119865170655247,1
0.308272307416349,0.0130063604155886,1
0.308075241128599,0.0135041192245284,1
0.269973323103373,0.0169482986876093,1
0.115791862685147,0.0067567698932156,1
0.100511426503735,0.0128919429281295,1
0.203728497252196,0.0173949464183451,1
0.338519579867175,0.031379812338476,1
0.33841408575125,0.0299998712065534,1
0.339803940639625,0.0236768392769059,1
0.530481837483038,0.0294237371287087,1
0.561880729680355,0.0177090616919956,1
0.472616153265307,0.0129880278201352,1
0.531104763554139,0.0138413408842177,1
0.486750501562576,0.0117998663937578,1
0.564564559122938,0.0124354590598755,1
0.559594699786267,0.0127326504315796,1
0.510515686965481,0.0113939577795496,1
0.504442417197336,0.0125395318896818,1
0.605209280688835,0.0134252201061992,1
0.499777315802431,0.0081788180883901,1
0.442795334338824,0.00851897174684582,1
0.487487249025998,0.00768030066623215,1
0.468433999004928,0.00634447858943828,1
0.471183088441489,0.00756426068625721,1
0.504497762847129,0.00633209396596234,1
0.815112449639546,0.0122629343995491,1
0.954759540068369,0.0130003929627672,1
1,0.0134269191260487,1
0.865387208968962,0.0138414057182857,1
0.862223931195461,0.020175405332562,1
0.956937898453543,0.0219760358621843,1
0.755741525102692,0.0295292741275551,1
0.404896063561494,0.0213866152067977,1
0.197471085797716,0.00858499880827972,1
0.0896587255794845,0.0100078785000185,1
0.129591573632361,0.0150130847142163,1
0.170716176626281,0.0187448870257059,1
0.401132584924427,0.0319332994725404,1
0.404864412933316,0.0216819888989241,1
0.363555185846161,0.0203736791910864,1
0.315943462465093,0.018269303155955,1
0.263809221421237,0.014941402799737,1
0.276594272533044,0.0150519710829092,1
0.235938972100053,0.00973297268126598,1
0.214581846903744,0.00968165993580794,1
0.215684345573215,0.00896613205816536,1
0.217770339940357,0.0103372642089106,1
0.12998162520176,0.00681107825344473,1
0.128998046780427,0.00788310419697596,1
0.225429386236827,0.0108699719289056,1
0.221922696800186,0.00843472117722209,1
0.24089917510098,0.00989537851702644,1
0.213327131004528,0.00777510220816668,1
0.203631060006002,0.00949948928231632,1
0.197101554295402,0.00922562270005448,1
0.195823335913876,0.009769137689486,1
0.192081150023261,0.0105653171884643,1
0.187698471392758,0.00950415482556995,1
0.183113502037567,0.0129821555224589,1
0.0853004381740342,0.00943721624874167,1
0.0817986111709157,0.0140500880722737,1
0.0693454013556922,0.0123249723181724,1
0.0648883611541549,0.0177852897473356,1
0.0628295590484953,0.0148463879242089,1
0.0927040914346537,0.0110600604579446,1
0.132333361428456,0.00970236372551078,1
0.134810894717483,0.00932524047005517,1
0.133487045545613,0.0105400867320906,1
0.132440345081444,0.0100834532333682,1
0.182577542090476,0.0135280896478147,1
0.223358223665635,0.0155897748366796,1
0.188630134614142,0.0137102066702675,1
0.187792237924498,0.012716441380761,1
0.19909253184527,0.0109805034041924,1
0.309256014714254,0.0215527472463702,1
0.329009786620874,0.0244040490912897,1
0.311190706686462,0.0246378625333013,1
0.350167269876574,0.0250586234215176,1
0.342310261697455,0.0250255577747773,1
0.297413777093217,0.0208363541032725,1
0.220192783254969,0.0132190269507445,1
0.202025216112246,0.0122840077191339,1
0.146775734202351,0.01005983419926,1
0.172535445569472,0.0136617490074123,1
0.128116810574211,0.0077710271684767,1
0.11953250704004,0.0077288999325857,1
0.117448579096251,0.00795408874719674,1
0.103712876996316,0.0071215023984548,1
0.103711032562933,0.00714380649013634,1
0.100110243788306,0.00754357389215143,1
0.0820760653226074,0.00772773593050003,1
0.113578892692245,0.00886366051457219,1
0.151482594697382,0.0109755997073173,1
0.139851590359824,0.0114808528589332,1
0.133286971895724,0.0130908801306946,1
0.145040188697341,0.0147501841358655,1
0.147798329085509,0.0148482959952562,1
0.128663780458433,0.00965669981590588,1
0.153148557351409,0.0111824262449361,1
0.142872988869527,0.00994633689513215,1
0.107775566482097,0.00841172496720983,1
0.109591016647396,0.00756051092168547,1
0.145719359458155,0.0106713122095307,1
0.182166031921165,0.013823508586256,1
0.181227395167491,0.0149255087667431,1
0.195047858165465,0.0166684705755151,1
0.194883254274015,0.0167966981833093,1
0.191130073349681,0.0241252108700109,1
0.0976499878332632,0.0162345525028439,1
0.0885569494732693,0.0180197591833047,1
0.0508815270284007,0.0123244627002904,1
0.0429090929867008,0.0463198580115224,1
0.0590188822011434,0.0531921279215504,1
0.0688941146907718,0.0606938525221501,1
0.0732222392982925,0.067131904974178,1
0.0725002924832631,0.0676542222985136,1
0.0518593595420406,0.0621728850962778,1
0.0258456586344667,0.037385750512727,1
0.00847978516215103,0.0266932575344063,1
0.00637906900685215,0.0299996981224699,1
0.00344596118108479,0.0308674751247216,1
0.00356205886131089,0.0367223853915351,1
0.00357741191258955,0.0375440236378661,1
0.00363536588521859,0.0388560827206545,1
0.00354464487681099,0.040421015987036,1
0.00353506950541276,0.0397393108207517,1
0.00364013913967609,0.0539119476800118,1
0.0011700590876233,0.0521737927087456,1
0.000140734474185506,0.12070780114488,1
0.000156605041678776,0.198460919300898,1
0.00017175990619117,0.224967688759177,1
0.000167893207591844,0.266024988646223,1
0.00135990502148937,0.0311667805912694,1
0.00438555478498732,0.0346907568075927,1
0.00442751527729772,0.0306303677124554,1
0.00440941272419576,0.0310441915283343,1
0.00441448234242738,0.0310831196200619,1
0.00422107598643031,0.0289331529243157,1
0.00398649599685882,0.0284472174607094,1
0.00371474670848627,0.0262122946045802,1
0.00344567160631811,0.022402485755558,1
0.00339926871540816,0.0201574489267584,1
0.00304971309255398,0.0344696646916498,1
0.00115714001062149,0.0240393927170241,1
0.00155826846450977,0.0328202926819359,1
0.00142877696390702,0.0260042890839881,1
0.00168683471711127,0.0314277406230346,1
0.00190411869300486,0.0354785563963976,1
0.00202622592275826,0.0360477179661051,1
0.00210842901461336,0.0368053907914756,1
0.00217430103974192,0.052520655508722,1
0.00152189536663709,0.0543658183636433,1
0.00158696251711707,0.0693264085880254,0
0.00150599848461324,0.13948253213636,0
0.000300453926115613,0.10565364926473,0
8.47125475608375e-05,0.26380580342566,0
8.77811314706959e-05,0.318807470841978,0
8.71890680644797e-05,0.357445865371671,0
6.86587557122136e-05,0.345627020527545,0
2.24485590904711e-05,0.25081919267395,0
1.91068570993014e-05,0.380251577684588,0
8.22087366113072e-06,0.386277083045387,0
4.47591368551366e-06,0.425643292509651,0
3.9636673053141e-06,0.373040701357303,0
3.78243555647962e-06,0.36152769505486,0
3.98783550782773e-06,0.360247325290991,0
3.67310471531137e-06,0.335688258543248,0
2.16903050113472e-06,0.265887492253969,0
2.23078380209127e-06,0.288933647022206,0
2.23096422644114e-06,0.285890034470421,0
2.25203147565357e-06,0.283236066758473,0
2.47373024107142e-06,0.307136560985479,0
2.36471640548588e-06,0.308944793006219,0
2.48705854864493e-06,0.334186690577957,0
2.30647686874303e-06,0.333369335783068,0
2.48518087243585e-06,0.367907407353057,0
2.12815121491189e-06,0.36709927267672,0
1.52020920293672e-06,0.318504942693184,0
1.10765395174063e-06,0.283200606548152,0
8.88483111888792e-07,0.26528953464572,0
8.32918907405793e-07,0.245332182615925,0
3.42589448809511e-06,0.388441041525734,0
6.12329914121545e-06,0.482523947727781,0
7.25302999683038e-06,0.510197436820454,0
7.1653906731251e-06,0.470015020834159,0
8.27177353532091e-06,0.446132383275384,0
7.391152594902e-06,0.354542175945603,0
7.76247402602777e-06,0.361607128973678,0
8.14739764889015e-06,0.365416497261276,0
7.62275701797636e-06,0.354587974790052,0
6.58299891418355e-06,0.331082159709854,0
7.25214212860468e-06,0.395812837064244,0
6.42489648445616e-06,0.373546994977345,0
5.652986266715e-06,0.352644144952583,0
5.10065681294861e-06,0.355026423920828,0
2.16234974830777e-06,0.243470992724366,0
2.19795108102389e-06,0.252307304127451,0
2.5861954140456e-06,0.27460898521418,0
2.67809636089478e-06,0.284157093957534,0
2.5315223254266e-06,0.269912676423215,0
2.42217163757986e-06,0.259061851419448,0
2.79341909472218e-06,0.274107103317039,0
2.96389268084703e-06,0.277814010033432,0
3.11432184339886e-06,0.281249932924662,0
3.1270525855256e-06,0.284576054752071,0
2.08576015306151e-06,0.249766163860543,0
1.72918967550797e-06,0.274287633993607,0
1.59409748481674e-06,0.261430340703553,0
1.80411720164324e-06,0.280295652085667,0
1.81314184719933e-06,0.283486472704981,0
1.86604226658087e-06,0.295431567541932,0
1.53225739974791e-06,0.291006511978527,0
1.43079089514173e-06,0.277186837722434,0
1.83129055212828e-06,0.290944037008033,0
1.85094598080299e-06,0.278411384909635,0
1.84540460774547e-06,0.266797138287255,0
1.96346077047338e-06,0.266361398780237,0
2.44362409277926e-06,0.288438388254672,0
2.26462220848481e-06,0.256535851640847,0
2.10637128951748e-06,0.229565901376215,0
3.87255156523555e-06,0.300967312278871,0
6.6938543411082e-06,0.343785377640821,0
1.96723768360136e-05,0.502387828721845,0
2.35497755014084e-05,0.488715788600196,0
3.08436362503115e-05,0.515190015304906,0
3.20214068933225e-05,0.534303454189846,0
2.6173284294826e-05,0.441776169500985,0
2.96533378425674e-05,0.427352923784324,0
5.07013307249867e-05,0.49545773872697,0
5.56634104509264e-05,0.404418214264866,0
4.62755445170215e-05,0.357577952385775,0
3.70185407249251e-05,0.303229732618329,0
4.61746656545228e-05,0.304427019684071,0
3.86794522332879e-05,0.259356628693885,0
3.69096416392261e-05,0.246133024996038,0
3.6789525210847e-05,0.231736466667496,0
2.67226685015052e-05,0.193020471397844,0
2.42936053754577e-05,0.189433552511508,0
2.24674892132593e-05,0.180289897926272,0
3.29899469956133e-05,0.233304172832456,0
3.73361169898633e-05,0.219576597122904,0
3.65586101892135e-05,0.242288133459674,0
3.38546965472473e-05,0.243486032733126,0
6.1454083049635e-05,0.344142171668825,0
7.11227545855505e-05,0.348284445249437,0
5.73634863120665e-05,0.309576994131634,0
5.29574926552818e-05,0.277114920490821,0
5.16860206108343e-05,0.287665339256213,0
4.34695967554444e-05,0.27881506293377,0
4.32825147470654e-05,0.277350710265513,0
4.51659962900316e-05,0.318883948893496,0
4.3590202314236e-05,0.311746451863198,0
4.08547809876278e-05,0.342707810488668,0
4.26426455638349e-05,0.384826021020321,0
4.50594658151976e-05,0.484428112776707,0
2.55081273759909e-05,0.412029466700975,0
1.44866102487449e-05,0.395848145893311,0
1.45566264436524e-05,0.410886531069383,0
1.31653885353376e-05,0.462886466017782,0
6.4897583165366e-06,0.342502526164417,0
1.1609681743686e-05,0.588887502794904,0
1.18340078484866e-05,0.539091704276547,0
1.59092418135125e-05,0.569089309859892,0
1.74908921832805e-05,0.616289752299945,0
1.86601688087484e-05,0.552461533179621,0
3.42317067581244e-05,0.658614915235983,0
3.3931086773587e-05,0.467201153245159,0
2.67810141277657e-05,0.38892617650149,0
2.50093155733069e-05,0.365407470032457,0
2.44837327664381e-05,0.366690966507743,0
2.50794636584142e-05,0.369960588537118,0
2.43597740211043e-05,0.384039602436649,0
2.48142037792371e-05,0.380286232383567,0
2.48862739249434e-05,0.372635179301106,0
2.79045279211329e-05,0.412444865749037,0
1.99483553649678e-05,0.350114218132045,0
5.48221516083723e-05,0.385983726503601,0
0.000149427003258725,0.416010996051671,0
0.000141867899951382,0.299464822791856,0
0.000132052145042059,0.262643830244652,0
0.00012429966057101,0.251240329974506,0
0.000135068446846783,0.214383815148966,0
0.000124561444755512,0.15949087016964,0
0.00012690440018016,0.161960300938208,0
0.000147379252742602,0.174625948857325,0
0.000164134871496201,0.183787705900577,0
0.000176212604675586,0.237446780275548,0
0.000116442363445363,0.238293245824226,0
0.000113401019462575,0.284136343550499,0
0.000113612387310144,0.275262473362828,0
0.000108752029750114,0.253282870958193,0
4.47267813564745e-05,0.203748843866575,0
4.26532572219724e-05,0.132191525002248,0
0.000190159696862376,0.183588031476364,0
0.000198625541684541,0.137686719646439,0
0.000186839561354595,0.13478136045614,0
0.000171644132396468,0.126464763573143,0
0.000176403162919914,0.125939431795053,0
0.000180749376216008,0.118193973239482,0
0.000188279597193424,0.1166385731413,0
0.00019287060032408,0.117601668971136,0
0.000188203061184209,0.112065264851169,0
0.000195898537875552,0.155971257250714,0
8.93306791163161e-05,0.150758307957354,0
8.27646005780875e-05,0.220019615070556,0
8.33044365477473e-05,0.197272164846127,0
8.52847756553022e-05,0.190483324546261,0
8.32539799761847e-05,0.176428968107264,0
8.58167171575334e-05,0.175157159777829,0
6.43791868407768e-05,0.162587434582083,0
4.83727163297879e-05,0.0984867877216847,0
0.000189471613421403,0.163387111475627,0
0.000208153500991691,0.10926584312811,0
0.000223849181899662,0.113250481312834,0
0.000218811769234073,0.114828184831827,0
0.000228948706549815,0.124414937960183,0
0.000240783244665466,0.128512172180761,0
0.000248695463865335,0.139315644790986,0
0.000239842972006918,0.143092526367545,0
0.000234914784814677,0.147984999646687,0
0.000233880683375101,0.140647774160993,0
0.000413747070220249,0.121604182660634,0
0.000651258496297132,0.126015577211018,0
0.000629497053392694,0.112859126397024,0
0.000622720086755243,0.110950604109404,0
0.000611377394077703,0.107285244914644,0
0.000588121191727,0.0995548098965653,0
0.000551504218771212,0.0876108358685534,0
0.000551379238824058,0.0875739381894009,0
0.000580378162394006,0.0881827208082614,0
0.000620644651205178,0.102997225024432,0
0.000401345863064778,0.148686401848286,0
0.000112888495409301,0.151782981029623,0
0.000110146578445249,0.16828392640875,0
0.000129582921440399,0.178436184857839,0
0.000130349826867099,0.176767664081171,0
0.000152023150879909,0.163163090850698,0
0.000357290130384283,0.293170648408565,0
0.000424085697782282,0.252374763626818,0
0.000470387738878052,0.240372629867639,0
0.000405683577471871,0.204211000942347,0
0.000334877649307661,0.174075948758687,0
0.000299907803259482,0.162204593297316,0
0.000324364461006705,0.180842650761182,0
0.000385562373414636,0.197977269967976,0
0.000421374008752958,0.216663453147613,0
0.000452766088296964,0.389339375111478,0
0.000309666338570912,0.427346049943516,0
0.000242488716838487,0.53956658923516,0
9.89862282088411e-05,0.647441053656076,0
4.75563914106882e-05,0.663083393999822,0
9.3669854238946e-06,0.425854834058111,0
7.81650967541868e-06,0.452630763531089,0
1.5957056972593e-05,0.561116201950929,0
1.96455888719399e-05,0.500358793819904,0
5.60733473839572e-05,0.538676847705803,0
0.000101705502638682,0.552853259797602,0
9.94018263166978e-05,0.361595420500397,0
9.87450080700406e-05,0.365127094637576,0
9.87959108310204e-05,0.36728966238154,0
9.91242254119897e-05,0.367000560881947,0
9.9935207063968e-05,0.367360599863455,0
0.000106763126259519,0.378922444588148,0
0.000110312971734701,0.395729059239199,0
0.00011695287053483,0.451726204838411,0
8.57581644041193e-05,0.615171413820853,0
1.58259615421001e-05,0.311893034725898,0
2.6331589701947e-06,0.322785549912157,0
4.20031909957603e-06,0.444149809965785,0
4.71648014689468e-06,0.443354651747439,0
4.54054024424187e-06,0.437428362881653,0
4.70602690133634e-06,0.441238243249952,0
4.79523158670107e-06,0.431034721133558,0
4.79754390516899e-06,0.433185623665251,0
3.9432477795177e-06,0.404428769234955,0
2.84602091180468e-06,0.331991837726112,0
3.19125713169946e-06,0.365677378819985,0
2.51042855383473e-06,0.341713207604167,0
1.35570856491428e-06,0.249200627942421,0
8.16932588310015e-07,0.196969471476531,0
1.03560690035102e-06,0.214951236023714,0
1.00957527515195e-06,0.20765116897066,0
1.31961792136132e-06,0.233184986606983,0
1.58495574385759e-06,0.218612098291381,0
5.03591333924168e-06,0.359561855090248,0
6.99789697556269e-06,0.425569743327468,0
8.0996654850106e-06,0.451691195276546,0
8.18906123976185e-06,0.454013892249828,0
8.47298367241637e-06,0.446822734659145,0
8.54455350140058e-06,0.450190516389423,0
7.58105283162593e-06,0.427048527645839,0
7.74191773857416e-06,0.432044412518435,0
6.45147371288923e-06,0.407800296541043,0
5.87509387370967e-06,0.447102320144919,0
4.34376223130094e-06,0.439880800344421,0
3.18204394269776e-06,0.396534960011248,0
1.40960853519408e-06,0.250257072195148,0
1.55950129615375e-06,0.253467134496128,0
1.79043093215959e-06,0.287799988581578,0
2.06090056443918e-06,0.311764360237021,0
2.05350749627896e-06,0.301669098228863,0
2.00385922580381e-06,0.305200088072189,0
1.99782421172505e-06,0.313437694860498,0
1.85297395049552e-06,0.313087952247694,0
1.99097909231537e-06,0.326844219394171,0
2.05071452734299e-06,0.33398945667721,0
2.40425098902914e-06,0.399760078833115,0
1.75862193885337e-06,0.375608811044049,0
1.50314105943913e-06,0.353373792563982,0
7.92753560335395e-07,0.26407156790891,0
8.78530904750027e-07,0.30219829126095,0
9.50140607515561e-07,0.318332218805083,0
6.67155659782966e-07,0.272350491236022,0
5.02947309207311e-07,0.225098730123756,0
4.5294089639767e-07,0.205153384141874,0
3.43394989404371e-07,0.170426995695032,0
5.45499129153422e-07,0.189292579928801,0
6.5808771238291e-07,0.199138941080222,0
6.21644880499007e-07,0.202872604786074,0
6.37586273931667e-07,0.20806031868899,0
6.25750436580271e-07,0.209038231597555,0
7.6515801687166e-07,0.225106119111695,0
8.26549747431074e-07,0.228621443441023,0
8.08746374707768e-07,0.227160609306006,0
8.30575375525345e-07,0.237052187096993,0
8.01873469948215e-07,0.249814643569208,0
5.81724188847033e-07,0.228584705686122,0
7.85477948426936e-07,0.277482518190145,0
1.41958870810708e-06,0.336240083427826,0
1.35890568439395e-06,0.286844421735013,0
1.42977618859807e-06,0.301394068976205,0
1.40810523951098e-06,0.306856518553247,0
1.39992245397138e-06,0.30597612692557,0
1.44121509237975e-06,0.317337309247679,0
1.26992472522305e-06,0.277464254390533,0
1.19111464750295e-06,0.248919962507948,0
1.17959058342813e-06,0.251307121255688,0
1.12099813665693e-06,0.239187574665489,0
9.92140509375422e-07,0.234907869453631,0
9.81372784175252e-07,0.243825586495074,0
7.79870359633013e-07,0.213768667233302,0
7.26364616557666e-07,0.200780879231963,0
7.68897852795741e-07,0.197937767829965,0
9.29004977474529e-07,0.214774212010231,0
8.25611721236105e-07,0.210989117558021,0
8.07681871043541e-07,0.213178742516723,0
8.7873424299233e-07,0.221446871214043,0
1.15747687298646e-06,0.25158947075379,0
1.00800558330809e-06,0.228728801912152,0
9.7918964954184e-07,0.226999509949923,0
1.03551001247514e-06,0.238159459887231,0
9.81421679174066e-07,0.234682560543397,0
9.36817893096898e-07,0.247107384656139,0
8.38773857983385e-07,0.230519979112292,0
8.4736205703714e-07,0.229879745043176,0
8.10018546798693e-07,0.225162635185259,0
7.18539973352556e-07,0.218305963852607,0
3.76946701505976e-07,0.177728207702208,0
2.12939524080423e-07,0.142966072427171,0
1.96844409101675e-07,0.141663841740634,0
1.53861374959379e-07,0.125800405363106,0
1.74536742483896e-07,0.133457335190404,0
1.82514205113346e-07,0.132864002312229,0
1.46237363631322e-07,0.124920640199092,0
1.17624948531726e-07,0.124210938632731,0
1.36376090364892e-07,0.138862212895089,0
1.29743149990665e-07,0.135684791427228,0
1.22098209438023e-07,0.132843799006394,0
4.59703742303803e-07,0.207154327563509,0
5.24078609063947e-07,0.207558223724046,0
5.38804664075889e-07,0.212403304914554,0
5.98392331560964e-07,0.20660418877543,0
7.30105174179147e-07,0.214518164012863,0
7.48867141473304e-07,0.219885467752617,0
7.60539153515019e-07,0.216159863088813,0
6.50403619746347e-07,0.199116142078185,0
6.02599286126853e-07,0.185537709509507,0
6.28321122717204e-07,0.183305975329589,0
4.55105988596096e-07,0.160408869612895,0
4.22066681648119e-07,0.166754682591651,0
4.03486401674279e-07,0.156156318493024,0
4.49307149991313e-07,0.174911481318044,0
3.52647330489993e-07,0.164989060765542,0
3.73100054366772e-07,0.165993789488297,0
3.88623945853835e-07,0.165661780162661,0
5.81431901400246e-07,0.205397642727623,0
6.82106523534846e-07,0.222207321300581,0
6.7003974301562e-07,0.220069857585264,0
7.16281601765247e-07,0.237951002571602,0
6.15778021914323e-07,0.217168631480754,0
5.24323084058019e-07,0.205388885802042,0
5.14921712459405e-07,0.21011772614136,0
5.10648361732762e-07,0.213971093167952,0
5.06465584029753e-07,0.216970859059297,0
5.46233817106088e-07,0.226461318161044,0
4.58540366095849e-07,0.199327839487185,0
2.68767328538582e-07,0.157371507388569,0
2.93139049718862e-07,0.168805622915445,0
3.03996987093967e-07,0.167645692895311,0
2.8915221285981e-07,0.156431728262368,0
5.18344542800766e-07,0.196779683349179,0
5.50614520320903e-07,0.191599658337653,0
6.01118904336182e-07,0.197981814415499,0
5.71934904896201e-07,0.190277879793414,0
5.59471190807264e-07,0.193250136538082,0
5.37672501280463e-07,0.200163568143272,0
4.61204872894712e-07,0.181174596361476,0
4.29059929449034e-07,0.176912727782764,0
5.88913738340606e-07,0.196865673510985,0
7.61448311814007e-07,0.214609841752683,0
7.04763311269623e-07,0.210706836617394,0
7.10910729718353e-07,0.216481218910273,0
6.45325215570589e-07,0.203055077347238,0
6.56657849410199e-07,0.20998015544195,0
7.20558560978888e-07,0.212846142064453,0
6.82711125531256e-07,0.198997202453768,0
7.64281695804347e-07,0.220272317704638,0
7.82309877267588e-07,0.221724617611288,0
5.79099916678191e-07,0.206331237649465,0
3.24659724913993e-07,0.167254535348415,0
3.20046635136547e-07,0.166209556985332,0
2.91083655525156e-07,0.164592095901835,0
3.37705307531258e-07,0.172264704468715,0
3.89319662146929e-07,0.185059014005102,0
4.08016676675135e-07,0.195373386435408,0
5.11637989291791e-07,0.227582154340146,0
3.81139222123877e-07,0.191622994867655,0
5.46441846381487e-07,0.220372504234443,0
5.17562222819735e-07,0.211104523072156,0
4.42877547859388e-07,0.194316113550289,0
5.03369321761654e-07,0.193885009802937,0
4.64423102023322e-07,0.184240400789476,0
5.2769214794312e-07,0.197695191683675,0
6.01831400093814e-07,0.199788859685546,0
6.66988225986289e-07,0.208046350277261,0
7.14574065718089e-07,0.20496848566779,0
8.20112206627753e-07,0.204283603822005,0
1.25795014154661e-06,0.237721663525912,0
1.28434351756716e-06,0.234712162856246,0
1.24204393086217e-06,0.230848896881048,0
1.19157292535162e-06,0.237844851339108,0
9.98443634038091e-07,0.220171631968705,0
8.72950560032935e-07,0.206864934511373,0
8.65232908467297e-07,0.212164482231355,0
8.91480321188812e-07,0.209604125033608,0
8.5034501281352e-07,0.213502633594095,0
7.61854086176863e-07,0.222896211639283,0
5.97230579172158e-07,0.195217900288194,0
2.12747714954078e-06,0.370894105953927,0
2.51757335808954e-06,0.339436551673725,0
2.54921112868774e-06,0.339548585496291,0
2.55893690326742e-06,0.331558933201019,0
2.6767610402814e-06,0.341639336270419,0
2.23064180812791e-06,0.303989185012381,0
2.1651982879435e-06,0.292473613214651,0
2.41185767961961e-06,0.288488740089467,0
2.08225216242701e-06,0.253288423404424,0
1.96578084718835e-06,0.257797497806682,0
1.37763156681813e-06,0.217526112517054,0
1.16549583321638e-06,0.220523270349985,0
9.38197237251645e-07,0.199832131994733,0
8.76245830358938e-07,0.196811333844813,0
8.07214932826079e-07,0.185846705421466,0
1.18149802965494e-06,0.22206647929655,0
1.21983098702807e-06,0.224457758476843,0
8.8753624490068e-07,0.207162385379784,0
7.43945165208884e-07,0.202038367117676,0
8.10859504693431e-07,0.205586561822995,0
1.53664946969677e-06,0.265201872994633,0
1.83508595875212e-06,0.278764548729146,0
1.89371954227509e-06,0.275440679400992,0
1.99628988305376e-06,0.27576265407464,0
2.96173209925735e-06,0.313010381520232,0
2.82710792932968e-06,0.291403680881768,0
2.81160316282371e-06,0.296345010870831,0
3.32005341470202e-06,0.309096815077876,0
4.10657150950595e-06,0.334744326492823,0
4.03868720871651e-06,0.331980642142131,0
3.27290762995954e-06,0.305482370467252,0
3.08633532036895e-06,0.306921505059492,0
3.16921559099774e-06,0.314139540064468,0
3.02265418523405e-06,0.319536888478347,0
2.37451579320031e-06,0.314425321353929,0
2.25495074163444e-06,0.33181361270275,0
2.20139718610638e-06,0.328060930670105,0
3.22168750254834e-06,0.387032573416601,0
2.82951839864393e-06,0.323636012621927,0
3.32727904906556e-06,0.351526850139664,0
3.43032516885484e-06,0.345359784257084,0
3.6563463604225e-06,0.358866451607936,0
3.81979692872871e-06,0.357731813369249,0
3.80937652040203e-06,0.344522762902283,0
3.76424878201285e-06,0.333084797569553,0
4.28228173196139e-06,0.335235841546036,0
6.74568664833851e-06,0.318563290186299,0
8.36181250287945e-06,0.314460840228136,0
8.15960894931361e-06,0.322772451220181,0
8.66800417176522e-06,0.216524852896683,0
5.03654406668395e-05,0.340027554298388,0
8.23182790902379e-05,0.371982823880626,0
8.26037376558072e-05,0.31185192683003,0
7.85610163390519e-05,0.306751276979989,0
7.31290805730657e-05,0.288990612534557,0
6.94094537999893e-05,0.272813750052654,0
7.6975064652783e-05,0.309180930027265,0
8.19698895939804e-05,0.325075984650167,0
7.76974086931283e-05,0.314858739544018,0
7.97027250259816e-05,0.383486316100904,0
5.21962778125766e-05,0.489277809612677,0
1.62052640443423e-05,0.309646757492509,0
1.32833644092298e-05,0.395413745112803,0
1.0753767572465e-05,0.378225693365216,0
4.31037073602202e-06,0.266140853467486,0
4.00517067936313e-06,0.299576295243973,0
3.88335339063785e-06,0.290255963269528,0
3.62299311510575e-06,0.3081202405933,0
1.59998852026431e-06,0.22984008024131,0
1.77507230937701e-06,0.285692836638828,0
1.93597131652737e-06,0.282462575712823,0
2.58505585385183e-06,0.313800300734371,0
2.22920472818122e-06,0.272624423356559,0
2.59743945952942e-06,0.311340866495586,0
2.81201146312746e-06,0.326134901157604,0
2.8164320401236e-06,0.32054605889167,0
2.13105117548732e-06,0.286755441794687,0
1.99148482176806e-06,0.281038583170353,0
1.99938470192707e-06,0.280592482751661,0
2.15643976830347e-06,0.289082103935093,0
3.00634382400591e-06,0.352805620105084,0
2.59767545457905e-06,0.316066719693909,0
2.67832874745741e-06,0.326689154254556,0
3.35826873539903e-06,0.340129574658856,0
2.95497701159826e-06,0.293776195537251,0
2.77854292665114e-06,0.284050497917427,0
3.41056563533026e-06,0.305052046146132,0
4.20728925306016e-06,0.33494151521895,0
3.71644986112385e-06,0.298291810937457,0
4.56757593094795e-06,0.332278839760143,0
5.53370845071414e-06,0.373538506742236,0
6.05557235088344e-06,0.409361676165088,0
6.94347503763871e-06,0.463780866019676,0
6.00674501120019e-06,0.452931361369347,0
6.59523529359166e-06,0.500242564099058,0
6.74792824046129e-06,0.485726838600648,0
5.28847567437244e-06,0.436795910668776,0
2.16298754838456e-06,0.278736515781174,0
1.44660418728599e-06,0.248898894277922,0
1.86160833818284e-06,0.274336501990114,0
3.05269032887846e-06,0.329873046059166,0
3.16671130102156e-06,0.301928470411288,0
2.79179762108991e-06,0.274274432474917,0
2.9012190352818e-06,0.277443661621892,0
2.46848368140159e-06,0.2501840589435,0
3.06085994344052e-06,0.299690717793153,0
2.978986440684e-06,0.290054359848841,0
3.00510015896227e-06,0.289098815845336,0
3.01758263718359e-06,0.289706542077003,0
2.68263006395828e-06,0.282782839205113,0
1.0674099396537e-06,0.183749381075612,0
8.99960265632646e-07,0.182686413999375,0
7.91893838308271e-07,0.168492769164902,0
2.73098306802573e-06,0.295058268173737,0
4.26722766548139e-06,0.353892790502067,0
3.62191850767793e-06,0.327594819316756,0
3.56393932327194e-06,0.335735715521972,0
3.77428687114215e-06,0.344828132732888,0
3.83007967327643e-06,0.3456759875745,0
4.043839226027e-06,0.355310067411142,0
3.90978555789363e-06,0.356617592313714,0
4.15093623331953e-06,0.365975110089808,0
4.51739685203549e-06,0.403905634379319,0
2.90743808219742e-06,0.347543725132005,0
1.01118736671802e-06,0.206010721273006,0
8.94936349610549e-07,0.187661923340154,0
8.9279020196886e-07,0.187959764963566,0
9.34872377332261e-07,0.193047854126997,0
1.03126498837143e-06,0.199556032980369,0
1.10381235648323e-06,0.203103464272153,0
1.02536745764726e-06,0.197860226290352,0
9.95332576973301e-07,0.202496567783702,0
2.34816932751072e-06,0.288390953303226,0
2.5646058363403e-06,0.268138493876145,0
2.64570441651413e-06,0.282613243755234,0
2.64591298706258e-06,0.292835565569409,0
2.62139043112581e-06,0.285118865469728,0
3.28079091107837e-06,0.315967481543656,0
3.15172615664321e-06,0.29753180130675,0
3.23600814404613e-06,0.299393904758602,0
3.52651011146731e-06,0.307010241851938,0
4.05186540323092e-06,0.332152014625987,0
2.36896594019835e-06,0.280780911954862,0
1.86442295804079e-06,0.29810700163668,0
1.88780432996465e-06,0.29181258715167,0
2.39515760179575e-06,0.308476332276173,0
2.87121897650736e-06,0.340620056747615,0
2.04168194311551e-06,0.306468106851543,0
1.91565896279479e-06,0.328265207368375,0
1.98729843557805e-06,0.322906186886519,0
2.2491668782507e-06,0.357432730071308,0
2.0783483207689e-06,0.334207989871279,0
2.51654854778229e-06,0.343963634555613,0
2.69065822583005e-06,0.342795155623839,0
2.61735181247835e-06,0.331239779506851,0
2.38434801814641e-06,0.322320273687949,0
2.00142259495883e-06,0.291448964308464,0
1.87533430102346e-06,0.281957497711455,0
1.85771766750227e-06,0.275165029664193,0
1.66795599667904e-06,0.269289033917649,0
1.19554496741398e-06,0.229308204224685,0
1.27842199040447e-06,0.241777077255151,0
9.12164709930822e-07,0.200730343414408,0
6.74662214859259e-07,0.176422928099885,0
6.46305280639077e-07,0.176315520645421,0
5.80695770052781e-07,0.17400201843672,0
1.04872375058648e-06,0.235583189994858,0
1.12933013313387e-06,0.230944896214745,0
1.15177636565235e-06,0.236367710413531,0
1.41072788786067e-06,0.25912822135438,0
2.07310013727992e-06,0.307070274810038,0
1.9294702663529e-06,0.289881453270619,0
1.83589137304994e-06,0.298371439196064,0
1.99151368966404e-06,0.31423138230751,0
1.98702924244805e-06,0.32026067104359,0
1.8503208104307e-06,0.315389741675468,0
9.95764693291238e-07,0.239322246255523,0
8.2343057127054e-07,0.222805533996692,0
8.4279605801501e-07,0.216212647476885,0
8.14898845038294e-07,0.216125665219101,0
5.00927097761829e-07,0.174900625538343,0
4.44229106664254e-07,0.17199084432305,0
4.07344595971872e-07,0.167387674278528,0
2.64598623934863e-07,0.142892117814016,0
2.5287104119339e-07,0.139417691289998,0
2.4701085830965e-07,0.136279467504467,0
2.62427758157241e-07,0.140982710830656,0
3.30895190445459e-07,0.158866237608681,0
3.38401745521751e-07,0.169198652301452,0
4.62633833745673e-07,0.202194213689825,0
4.69230147976877e-07,0.208184620645458,0
4.82625032135487e-07,0.218388419455843,0
5.70956283222512e-07,0.225480861688956,0
7.18300911088979e-07,0.240668828052259,0
6.31402770612962e-07,0.233722023374034,0
6.12876257095383e-07,0.238609110704907,0
5.63418334309342e-07,0.227893135561112,0
5.32165228425067e-07,0.223148072907963,0
5.0824510939251e-07,0.211764231450377,0
5.27261835868682e-07,0.204560124783008,0
5.01020918423762e-07,0.19355281559908,0
4.96553611521011e-07,0.187732407382713,0
5.42330336296676e-07,0.206668266420251,0
4.70872911682432e-07,0.195492919344423,0
4.92638583553207e-07,0.193770192590721,0
4.93970836952638e-07,0.188645020967671,0
4.17028331678032e-07,0.166036612241049,0
6.71449759309844e-07,0.207609166279824,0
5.99244836614094e-07,0.203282272167767,0
7.38610919305012e-07,0.227033178234076,0
7.89753464245777e-07,0.225695475179654,0
1.14039808445223e-06,0.271604677114362,0
1.1692434273875e-06,0.265370822226889,0
1.13580881068896e-06,0.276111457880454,0
1.06125873229362e-06,0.265791646274577,0
1.06703104851897e-06,0.271230263983111,0
1.01017067550651e-06,0.290105197835917,0
7.61308482942858e-07,0.258193583507908,0
7.75459345127421e-07,0.257669596776419,0
5.40670973550932e-07,0.215059044329104,0
4.96892809298764e-07,0.230364620955803,0
3.09579316478908e-07,0.179164294502048,0
4.38846687458968e-07,0.191277432600326,0
6.07929743119379e-07,0.206085749574582,0
5.96123495361364e-07,0.20804806168357,0
5.88462677465934e-07,0.1944024012743,0
8.00076443423521e-07,0.216528318936958,0
9.00014212513258e-07,0.216415780593849,0
1.06160226025577e-06,0.235269039747818,0
1.13068115066569e-06,0.231450459651648,0
1.3530671524322e-06,0.243627716164978,0
1.29929329877295e-06,0.239309882127046,0
1.08838968305644e-06,0.236586370262234,0
1.05287134554127e-06,0.234273887128083,0
1.46193664853784e-06,0.266394308404087,0
1.4905902003892e-06,0.277208595565616,0
1.41822903020647e-06,0.275144390210484,0
1.23307756237109e-06,0.276686574215844,0
6.99201911109267e-07,0.213577783112704,0
5.47069723119031e-07,0.20965608249802,0
4.92076381279013e-07,0.212743835596797,0
3.65272524372064e-07,0.190640183254996,0
2.672977722089e-07,0.160535895455957,0
2.56560358299507e-07,0.168304008700722,0
1.47262354362927e-07,0.149105053723931,0
1.4875626797984e-07,0.155282569665603,0
2.54840012123508e-07,0.190717863983641,0
3.26300864800399e-07,0.198437330115983,0
3.0059490555284e-07,0.183192201805554,0
2.6080682579802e-07,0.173179089125678,0
2.21460785700378e-07,0.164006900803337,0
1.48961951738691e-07,0.141838614989875,0
1.18001133301202e-07,0.133179110026413,0
7.86027701420986e-08,0.117138248324684,0
7.89578452626401e-08,0.117291805252957,0
1.24302273296021e-07,0.130100506637485,0
1.33679828880452e-07,0.125101847591248,0
2.47234584503488e-07,0.171588219979919,0
5.34987065257015e-07,0.246297047013284,0
1.21734834797388e-06,0.336875014831229,0
2.09818074573083e-06,0.374532727988534,0
2.10588919565463e-06,0.346002211386788,0
2.29793052813845e-06,0.361410649170192,0
2.41774384360973e-06,0.373296447609067,0
2.52206087251948e-06,0.381355683469373,0
2.58238900153642e-06,0.397813070153261,0
2.5971976909006e-06,0.408945667946574,0
2.58625675832455e-06,0.404864031533833,0
2.40686804422399e-06,0.388924842046453,0
1.65240702620735e-06,0.342162381802633,0
1.81442664899475e-07,0.140244551672283,0
1.16853634436037e-07,0.134835103061714,0
1.3826260736712e-07,0.138050307989002,0
2.00137514335482e-07,0.147598371302486,0
3.89676902359669e-07,0.172264705592205,0
5.43091727053123e-07,0.182030194198459,0
5.36517785441302e-07,0.183112082258291,0
5.41125101639552e-07,0.183871100701217,0
5.41005841144289e-07,0.186866698958195,0
5.07331620909123e-07,0.182838828353959,0
4.58899230127739e-07,0.174534368984612,0
4.57118622218884e-07,0.174970015293891,0
4.58281457153787e-07,0.175246999739731,0
5.38315533663395e-07,0.191250426860781,0
4.30106931951322e-07,0.186554328314045,0
1.59841359611431e-07,0.133679161770694,0
2.82801275744427e-07,0.169181177506614,0
4.04299032946087e-07,0.197030621951868,0
4.51212431125927e-07,0.189947828504415,0
6.03076147683558e-07,0.210977606706154,0
6.3071661681041e-07,0.206173221159743,0
7.81996660596217e-07,0.226817393845559,0
6.36077926366764e-07,0.208890901328495,0
6.27248680381583e-07,0.213293556719337,0
7.90475161645252e-07,0.237802709239808,0
1.14812367468926e-06,0.281047161136676,0
1.09191355103373e-06,0.262615984484749,0
9.27131270601141e-07,0.244345836386586,0
9.59788077927397e-07,0.265984696178708,0
1.13212219994809e-06,0.288511448270582,0
1.06942564049043e-06,0.278389351292991,0
7.64235687595131e-07,0.226321874734169,0
5.84420450331473e-07,0.192675799016631,0
4.92277734853469e-07,0.17395131175301,0
6.2611128528001e-07,0.199441548550465,0
6.32434797894212e-07,0.195606909366392,0
9.20464230024788e-07,0.234831466135922,0
9.59049059790334e-07,0.229449211022239,0
9.98274937270963e-07,0.234092478234204,0
9.75658203741855e-07,0.238412534235771,0
9.87221239476249e-07,0.247194338001708,0
8.82626537492049e-07,0.238904862968377,0
7.58883399256273e-07,0.231042251727483,0
7.04943916043842e-07,0.233857778616502,0
6.52248458723756e-07,0.215196278882681,0
6.05313590046281e-07,0.220074978177839,0
1.49809765758724e-07,0.127941748603285,0
1.80507886342804e-07,0.141988220611302,0
2.90620325794692e-07,0.16447811368539,0
2.92789026480115e-07,0.16314221946132,0
2.94693405492981e-07,0.163598813602676,0
2.93149875179853e-07,0.162373254094089,0
3.88898010441285e-07,0.177596908972251,0
4.70121624689579e-07,0.175461200225775,0
1.30448970047352e-06,0.278706427655337,0
1.54351136857098e-06,0.282110941624769,0
1.61638115499599e-06,0.284957315645187,0
1.68264109536357e-06,0.296435661069491,0
1.63160175315092e-06,0.295991116952563,0
1.63524632501828e-06,0.28831556419997,0
