Activity,Complexity,Tag
9.72668253512127e-06,0.218083638631667,1
1.10246569161703e-05,0.228811635482954,1
1.07220989864819e-05,0.212317641296321,1
1.03333823620947e-05,0.208698009235359,1
1.11378598886848e-05,0.225041891688931,1
1.15501470001401e-05,0.227613592625233,1
1.55218736460725e-05,0.205046218545471,1
1.9135730448135e-05,0.215441774603945,1
1.76184235729174e-05,0.235827694488671,1
1.70037837892356e-05,0.237011135322933,1
1.79737375747037e-05,0.234003924816936,1
1.74169684122955e-05,0.225935360006486,1
1.74658823809103e-05,0.235522061404649,1
1.70362157470197e-05,0.223175322862946,1
1.41018676102215e-05,0.188803113706531,1
1.12391420709385e-05,0.162668133599327,1
8.4563562483069e-06,0.202455019297635,1
3.87492979336175e-06,0.174856218881574,1
4.14737737700339e-06,0.172611288920324,1
4.79236963176794e-06,0.179745126867936,1
5.41800697269796e-06,0.1742108258509,1
8.20742369790578e-06,0.197655298376044,1
8.50979591138855e-06,0.183084004662841,1
1.10384310484761e-05,0.192605781186496,1
1.95550111085522e-05,0.280834354961556,1
1.91940991988542e-05,0.224108298604056,1
2.07352088814807e-05,0.162279461774925,1
0.000216279944192736,0.106494397904544,1
0.000335034644950664,0.0663005601285258,1
0.000411407778201145,0.0452211477295287,1
0.00150407618246382,0.066367761392875,1
0.00204336186675606,0.0558841654362069,1
0.00231926461731791,0.052970397709033,1
0.00261798931970095,0.0545498617610183,1
0.00322844828454639,0.0573863528190058,1
0.00293902278081891,0.0373586926872718,1
0.00228186455048309,0.0257025150454714,1
0.0021634393515937,0.0215070216604207,1
0.00162900330787643,0.0185786989054517,1
0.00104110394152051,0.0140521803512579,1
0.00125384616688914,0.0191622965354128,1
0.00121360744752456,0.0201309392385424,1
0.00168382424501021,0.0221371055855099,1
0.00222266339305393,0.0258803452680305,1
0.00219515472973325,0.0238536214757354,1
0.00216033216266232,0.0266235170928661,1
0.00211964211439966,0.0274110105580243,1
0.00219171026119975,0.0324435585364688,1
0.00215666112233165,0.0311513517458866,1
0.00260724770516917,0.0259300333388514,1
0.0023658343525354,0.0139778261076715,1
0.00253480287624394,0.0124811937433241,1
0.00254415856420477,0.0128508701486323,1
0.00232422733837037,0.010617833851728,1
0.00225381145071479,0.0106435269730446,1
0.00222308956367735,0.0105891766035356,1
0.00222042005799145,0.0124250050991525,1
0.00205387280246942,0.0116667877095823,1
0.00208105825439747,0.0123110835415686,1
0.00154770340146948,0.0137367072152603,1
0.00114571848243143,0.0177495614902253,1
0.00134771531807865,0.0255718011661759,1
0.000782621582928564,0.0209242767702964,1
0.000765903636498494,0.0275062855187364,1
0.000748700785055565,0.0267667246272401,1
0.000966229678243745,0.0302903185246875,1
0.00102953471757601,0.0245632193455204,1
0.00110098226442013,0.0241455506308402,1
0.00113597832824521,0.023122883757274,1
0.00108925063951667,0.020438521090241,1
0.00105813000087672,0.0228001579993868,1
0.000626243691480643,0.0197938232306349,1
0.000621905233392791,0.0248588656668604,1
0.000724719816849905,0.0280149810276723,1
0.000748650293422372,0.0282476931704466,1
0.000505207509984535,0.0245485203052362,1
0.00057934313006043,0.0370644564942212,1
0.0005872363323798,0.0422426136878896,1
0.000586451152976212,0.0417273248694058,1
0.000615474736747519,0.0504056581575463,1
0.00063174849025121,0.0436190126085821,1
0.00121764188850215,0.0458562622941262,1
0.00134376178130684,0.0455759510494447,1
0.00139373844447188,0.0433008489121859,1
0.00132604451793942,0.0486655440962156,1
0.0013358102619979,0.0436295890246364,1
0.00140537334809532,0.0368556984391253,1
0.00145144800993978,0.0358676819076167,1
0.00146831965152353,0.0279907598387247,1
0.00153318250990358,0.0179723019038209,1
0.00182179943137523,0.017210823280599,1
0.00172518268264987,0.0182566907844585,1
0.00176723901676916,0.0173803706077796,1
0.00172032572904568,0.0142974023236344,1
0.00175185360022208,0.013011109436709,1
0.00186009251417091,0.013019111405213,1
0.00195096570770283,0.0139241811020832,1
0.00210708584816843,0.0150156180487642,1
0.00182022290312282,0.0126086083653419,1
0.00153870108891848,0.0155312033167964,1
0.00118817969494167,0.0150771253584923,1
0.00124127414495852,0.0147639369816487,1
0.00118869384608674,0.0160452448285855,1
0.00110304073539414,0.0170234695527028,1
0.00122068639353463,0.0179246389730947,1
0.00124350477982115,0.0160371148405238,1
0.00195773697219335,0.0136301730179013,1
0.00236803463460861,0.0111231798819435,1
0.00245469359929619,0.0113710242664653,1
0.00307184017834772,0.0117950038591941,1
0.00330895424685266,0.0111732905570803,1
0.00395037915949847,0.0130324940123328,1
0.00472939922107743,0.014681599522837,1
0.00466569549762952,0.0148671156060889,1
0.00453944837629962,0.0158150556099041,1
0.00447101973054534,0.015045911188681,1
0.00417215112070468,0.020009638148947,1
0.00340412548320081,0.0216715366176114,1
0.00332664767456057,0.0273668078990113,1
0.00185602669403059,0.0236586507243423,1
0.00183211371648324,0.0236733673036394,1
0.00181345012387058,0.02348166780371,1
0.0017072233956041,0.0234507125937094,1
0.00159362378981057,0.0228958280346039,1
0.00132428898199386,0.0173890892233615,1
0.00136795602423308,0.0181946265295054,1
0.00136360441817641,0.0211533287614777,1
0.0013588291929454,0.0226668994969326,1
0.00135665407016553,0.0251217510087178,1
0.00107587842490223,0.0202956571559122,1
0.00102618236020582,0.0224036216886118,1
0.000979858618040198,0.0246617537205804,1
0.000994201649316942,0.0289566613310047,1
0.000927099892307952,0.0278298942964582,1
0.000842787024419064,0.0315066769918314,1
0.000802035903347166,0.0548360906020162,1
0.00154716222501932,0.0619802110179736,1
0.00153107882757038,0.0443003753520591,1
0.00122309469972319,0.0374331949685239,1
0.00148000040979604,0.0463210172698747,1
0.00158442391736425,0.0455713292043895,1
0.00159369932925645,0.0340381095079353,1
0.00162210888750186,0.0313670889737494,1
0.00178282132744728,0.0349139887762657,1
0.00206001248854676,0.0345679353507279,1
0.0020479208014314,0.0313845525933772,1
0.00127705058579659,0.0241454520903427,1
0.000947067840566513,0.0233994445543245,1
0.00088346077103909,0.0240633988823997,1
0.00093885631723271,0.0265698993473216,1
0.00103626095947953,0.0349115130507599,1
0.000655339681970407,0.0375163535159417,1
0.000654275339785691,0.044851071952207,1
0.000685477244131806,0.0392697155884974,1
0.000903331400313231,0.0622131017846367,1
0.000701661383422438,0.0887201571499172,1
0.000677523563587929,0.149808517652116,1
0.000845034889569026,0.174162391409256,1
0.000920036608279668,0.194561499595139,1
0.000965799828249322,0.206156578677554,1
0.000972961685307998,0.222901114136553,1
0.0008050339903426,0.241069458657112,1
0.000366510398251488,0.182624818588131,1
4.99008269679701e-05,0.33356241174849,1
1.90277097026593e-05,0.361887581622169,1
1.40885935810337e-05,0.415081023615763,1
1.37427039922637e-05,0.343858841474076,1
1.89021943250809e-05,0.383620624422201,1
2.16485429083052e-05,0.349989269119135,1
2.24825124484809e-05,0.348170893926956,1
2.4531356039549e-05,0.417423696655661,1
2.42225575487505e-05,0.437724854458205,1
2.49043768750537e-05,0.462346730315421,1
2.46213998128556e-05,0.508646701998476,1
2.51206633560494e-05,0.513201707085086,1
2.51540881347146e-05,0.497594252244198,1
2.47301764111914e-05,0.538723425500124,1
1.50626828468363e-05,0.418830433278934,1
5.72046965677661e-06,0.293603659640428,1
5.53341721128461e-06,0.341263164470667,1
5.26625474031368e-06,0.342442047420236,1
4.01332522965134e-06,0.294574457802626,1
3.93397443137569e-06,0.279056243012764,1
3.92236955603173e-06,0.241217257694691,1
5.66144201781201e-06,0.230189426632161,1
5.04329832896186e-06,0.192782286269969,1
5.72953276041102e-06,0.159701893709049,1
1.47264332470415e-05,0.215758375471454,1
1.37971954953978e-05,0.178052801214354,1
1.41768864522592e-05,0.156550422832248,1
2.62555257467482e-05,0.173158263867949,1
4.37578999932243e-05,0.227369055412995,1
0.000225562414255754,0.0851673547134585,1
0.00147913563498614,0.111157595825964,1
0.00372672809345577,0.182968584255068,1
0.00594918164540608,0.214571604328414,1
0.00645485413662632,0.1013009297228,1
0.00597969787304236,0.0845496593032682,1
0.00562299108273557,0.0397477195940388,1
0.00834478396740899,0.0429776184142174,1
0.0101475361233031,0.048493068873938,1
0.00982100390202444,0.0406583513996711,1
0.00766534176779085,0.0357911503578318,1
0.00684483069305016,0.0349334045170664,1
0.00712886437133325,0.0283761118819273,1
0.00863604553603539,0.0290674686799795,1
0.00840078984721512,0.0306648995191695,1
0.00673940960397564,0.0268079741099516,1
0.00602900471572693,0.032253822303433,1
0.00575630709606102,0.0376847656215803,1
0.00410634658413388,0.0288254207069017,1
0.00297044897603359,0.0234096352356421,1
0.00276839088370727,0.0210595273639695,1
0.00270882348990963,0.0220893973052776,1
0.00285394679523646,0.031254371467189,1
0.00299769940361253,0.0405963165561689,1
0.00250613489762293,0.0444585224052987,1
0.00225276044578044,0.0304377760100349,1
0.00197225901071757,0.024011123975707,1
0.00200949065199029,0.0254688019010574,1
0.00160188323652044,0.0231758609363376,1
0.00189521414176038,0.0231221690684992,1
0.00338984812657332,0.0298700891118225,1
0.00568959487067579,0.0415089495812682,1
0.0073173481118852,0.0455269426278553,1
0.00889717714954313,0.0463095954221338,1
0.00939311040427114,0.027444589945632,1
0.00924425640608453,0.0310589614919824,1
0.0091870827441145,0.0311537487544114,1
0.00738195655759061,0.0260214619184095,1
0.004804331421189,0.019343808891844,1
0.00417828100692558,0.0168129393352995,1
0.00492620560233698,0.0216045200284569,1
0.00591808555091036,0.0245068976877818,1
0.00619396959767926,0.0235669694247986,1
0.00436432831327401,0.0207373841069996,1
0.00260697585185192,0.0259142908031778,1
0.00266054689676584,0.0269254447387638,1
0.00268744693128129,0.0340436399737577,1
0.00346992056473484,0.046612614172375,1
0.00461100361116625,0.0352731782863802,1
0.00516984901740471,0.0312555723162479,1
0.00538075101501734,0.0250789441624486,1
0.00480278384148993,0.0258535673770286,1
0.00394137332553391,0.0203547904737578,1
0.00440150592399159,0.02190073977692,1
0.00453910995158551,0.0219612872414032,1
0.00503955671519972,0.0231693463533112,1
0.00521926012098884,0.0261662202243816,1
0.00386005995225088,0.0221401644449206,1
0.00174341611743888,0.0159214435804447,1
0.0017502030768906,0.0269301579198676,1
0.00179158582616315,0.0495617034096307,1
0.00125553111775219,0.0284992140301297,1
0.00145385816959771,0.021223499826952,1
0.00297668909281271,0.0259888635479456,1
0.00289192882643514,0.0227139665306943,1
0.0033035595835857,0.0244880176166325,1
0.00344208397841986,0.022514681029635,1
0.00329355391106129,0.022029179088098,1
0.00328124555680083,0.0210941276938069,1
0.00324551705111721,0.0207085071797179,1
0.00350444462646217,0.022540907469829,1
0.00377313879760075,0.0273270828215771,1
0.00364515509534764,0.0430823305233181,1
0.0022118577700344,0.0448926754726571,1
0.00212371202526252,0.0571861494916045,1
0.00127144375179225,0.0503113164760318,1
0.000811032981655312,0.04866562903962,1
0.000825699462184038,0.0399706953284429,1
0.000720935494918154,0.0412220683515258,1
0.000822522231375728,0.0441675896525752,1
0.000823698846232926,0.0494378315483196,1
0.00129237096945627,0.0437257003937294,1
0.0014354110400779,0.0278563184982319,1
0.00121529568970916,0.0253766838107576,1
0.00121137973872676,0.0241847453588728,1
0.00153189909059244,0.0261949446255251,1
0.00165784482329804,0.0198885510144,1
0.00184884999489184,0.0233264283264825,1
0.00199287470424922,0.0231480937413643,1
0.00266522741761903,0.0271566736065508,1
0.002891036405441,0.0279851743528934,1
0.00243018168119205,0.0312036561023892,1
0.0019282159351821,0.0379686035915911,1
0.0019355482244547,0.0385024451098496,1
0.00177567190318769,0.0424062305785268,1
0.000679467177651955,0.0187357386373744,1
0.00111559402271705,0.0312491061048726,1
0.00133150107506332,0.0230495389469605,1
0.00130714581892448,0.0239590792184121,1
0.00110106371819817,0.0217960161864968,1
0.00105370719356976,0.0217365541928586,1
0.000920087125188601,0.0207542307357603,1
0.0010136158286498,0.0212408751575138,1
0.00103595421570903,0.0213962830903436,1
0.00101149296311226,0.0219097701444675,1
0.000736407941440789,0.0224070915209829,1
0.000489396229433605,0.0291590078885972,1
0.000605713616494126,0.0494736003756103,1
0.000736921234293029,0.0375885625008497,1
0.000711649038291566,0.034600021604555,1
0.000679276347979501,0.0262932598917515,1
0.00074014235626471,0.0214906875236502,1
0.000811334921698207,0.0233267758699508,1
0.000996921221723462,0.0248465343200299,1
0.0010165239635522,0.0212548994256322,1
0.00215511590492743,0.0295393370122566,1
0.00249402614753673,0.0194471702187129,1
0.00243140842650039,0.0204492020597333,1
0.0024263454630727,0.0214208061917514,1
0.00263141562974704,0.0226074980449805,1
0.00251049615334595,0.0185124386657414,1
0.00332438406618992,0.0200284367916195,1
0.00342780214346604,0.0171819914631773,1
0.00341782848543586,0.0181012470800068,1
0.00324401541781114,0.0190098487203251,1
0.00290142966647687,0.0198027561769481,1
0.00277532746357052,0.0188396330139434,1
0.00319447848961954,0.0205076903087568,1
0.0031096779976339,0.0195149609080618,1
0.0025219028510988,0.0170346361263433,1
0.00227053676059823,0.0133486473868633,1
0.00252337732247071,0.0127351766184154,1
0.00325173185669388,0.0156714049525204,1
0.00374920591925998,0.0167257720216012,1
0.0048696235992186,0.0189316938381777,1
0.00492407317537535,0.0195714725861141,1
0.00460452169207842,0.0226763695926262,1
0.00381681587322642,0.0188954781801929,1
0.00371723553392474,0.0194727808743484,1
0.00373068969649932,0.018981921474473,1
0.00394787307535116,0.0226185674383319,1
0.00281127129283768,0.0254191029731736,1
0.00346993994466974,0.0358933855457813,1
0.00346061636587576,0.0317471081661955,1
0.00229369878916099,0.0258403701805111,1
0.00199094805027041,0.0218507530812191,1
0.00200974706081172,0.0191968134772918,1
0.0027758848556494,0.0209975506230573,1
0.00308960573996163,0.0210360661577732,1
0.00315585206552583,0.021913409715159,1
0.00288603144748097,0.0270204699994401,1
0.00262711076604635,0.0251570002151735,1
0.00172945964855494,0.0204694168509085,1
0.00127859769951797,0.0175264726252061,1
0.0013461317457258,0.0195494799335331,1
0.00130667620605267,0.0220724888613422,1
0.000659238566416618,0.0187256570533449,1
0.000647167796599633,0.0180397581106384,1
0.0023136631460998,0.0326722851106174,1
0.00550352437278539,0.0413110238287788,1
0.00577332310503174,0.0369210502632616,1
0.0059339938619712,0.0323258199369496,1
0.00594259064411902,0.0309292763975593,1
0.00593758441517764,0.0321338594544309,1
0.00558601910391506,0.0284278714075567,1
0.00527670837509675,0.026973247035011,1
0.00467905139697661,0.0203663185571504,1
0.00532591918836896,0.0249288465068546,1
0.00891864235566706,0.0248434110202638,1
0.0494651981486373,0.0200918404490277,1
0.137709683705676,0.0489488493523049,1
0.179589539047598,0.0592598632125564,1
0.217203044410242,0.0564802827834306,1
0.203074136817361,0.0394633223048874,1
0.179055618103726,0.0385149386517236,1
0.140444111797874,0.0339995334231292,1
0.102808878502496,0.0283864316731744,1
0.0736453318754007,0.0204805998559601,1
0.0535006336568875,0.0150561822115614,1
0.0514475549425969,0.0234629662664797,1
0.0451585821018973,0.0206291093114239,1
0.0404455152034339,0.0180248596631832,1
0.0265150307676385,0.0140383547242965,1
0.0282370733945547,0.0214064079073163,1
0.028762791791992,0.0157759249397289,1
0.0473184708073674,0.0221931468681177,1
0.0528431719569127,0.0142015363044187,1
0.0565586190123896,0.0149114867499057,1
0.0592334711249965,0.0143899772631914,1
0.0580123490079457,0.0140313460820673,1
0.0512141856073388,0.0120241767565693,1
0.05363136142896,0.0135685117438867,1
0.0540655243105709,0.0141425482199713,1
0.0598928804730944,0.0134420374773099,1
0.0696203624035995,0.0173443244287345,1
0.0401159997553213,0.0108534901046545,1
0.0246804748924742,0.0103022153455076,1
0.029279487767767,0.0124870126792678,1
0.0286400852231705,0.0165450692907784,1
0.0270308147216242,0.0156485063111236,1
0.0368160779595064,0.0207362805554035,1
0.0421918808023655,0.023147226647728,1
0.0413334075431664,0.0222801780780708,1
0.0393770710356149,0.0256687620454859,1
0.038429792088948,0.0307542973894766,1
0.0258971419629161,0.0207652124344763,1
0.0187787692033244,0.0164746741177228,1
0.0170628700607864,0.0159396008284099,1
0.00780787073620926,0.0106273972502713,1
0.00876588664832703,0.0202041275024591,1
0.0077206694054564,0.014689142082144,1
0.00706868325353593,0.012873513596274,1
0.00503246270707694,0.00828900604746929,1
0.00639992435005933,0.00983910925400966,1
0.00672924838340116,0.00825928106208599,1
0.00681608301982988,0.0083674561499394,1
0.00640615218085514,0.00877759278949638,1
0.0055021697116045,0.00804214975168585,1
0.00574148689936855,0.00772915287246805,1
0.00561245043701333,0.00740452627685263,1
0.00663048196208313,0.0104331680580483,1
0.0109887957153346,0.0162492501864184,1
0.011258542426288,0.0138492626020742,1
0.0101160531828424,0.0136943888673189,1
0.00935269217851097,0.0159461052664717,1
0.0088254157488692,0.01775518237065,1
0.00859004000263953,0.0198449414087382,1
0.00832460829089493,0.0160692719568703,1
0.007589065220019,0.0114468319963913,1
0.00860771823141468,0.0120172332632758,1
0.00866811174252871,0.0122263498935327,1
0.0190552000657712,0.00972694776662592,1
0.0592218911812732,0.0293633920191541,1
0.0597140783622488,0.0203800753617074,1
0.06302122346815,0.0175755548901251,1
0.0777526198919076,0.0199853731941033,1
0.0692927096300737,0.0146717397249683,1
0.065463159208916,0.0120775101544012,1
0.0666528313651261,0.0121182690624087,1
0.0659349943064115,0.0113211412079761,1
0.0553144553573748,0.00981866619509059,1
0.0518829955296101,0.0104292986491767,1
0.0502744778722197,0.0102271659879091,1
0.0432633164576652,0.0109009449600846,1
0.0395092003852256,0.0125204284692157,1
0.0384858571554966,0.0130959424015387,1
0.0295372927171718,0.0128817532739162,1
0.020134705736105,0.0117095493440601,1
0.0187625915592623,0.0124368056594655,1
0.0391285326626713,0.0231761446116684,1
0.0411221481481179,0.0122145186322123,1
0.0415393153214431,0.0117821354857122,1
0.0407425156863223,0.0116883729780968,1
0.0417880147479641,0.0121117760783774,1
0.038786413573887,0.0108155512332525,1
0.036854143921251,0.0103713553380627,1
0.0326454615450634,0.00743181948693253,1
0.046370335567143,0.0108930012557169,1
0.057622939458696,0.0123767351488345,1
0.0500456336141147,0.0108713523901263,1
0.042874954190749,0.0170587308581794,1
0.0437152407454184,0.0189892953085783,1
0.0580898460650488,0.0234144691463447,1
0.0574929683415588,0.0206033840869814,1
0.0523341604659461,0.0184069084482057,1
0.0458398077795688,0.0145359616392437,1
0.0358837755329807,0.0148383371490768,1
0.036495196086042,0.0157188339998962,1
0.0388179030381626,0.0153804320461593,1
0.0297369583162455,0.0140809255747935,1
0.0219479846183013,0.0124167788353213,1
0.0225421048890089,0.0143743764946815,1
0.0209227068983501,0.0132829743884215,1
0.0240122059538061,0.0167017251778743,1
0.0261431857984598,0.0200395131515563,1
0.0245464194431045,0.0191119567260924,1
0.0240005408015522,0.0195734688372744,1
0.0245397801661091,0.0180971976604109,1
0.0191243181952584,0.0274495525610747,1
0.00895487241397185,0.0110204527351136,1
0.011673105932264,0.0120313573148413,1
0.0119403539394588,0.0114494256842153,1
0.0162801704769878,0.0110523868666631,1
0.0173937456757982,0.0111792119500212,1
0.0141732536443185,0.00889076729655079,1
0.0144983010239775,0.0088950468559548,1
0.0141628434005957,0.00860849359642444,1
0.0159515859751267,0.00892680155344352,1
0.0185178614473687,0.0102302136210254,1
0.0182972670557678,0.0131635475563144,1
0.0157862640292255,0.0102850395165713,1
0.016137073955452,0.0121039274361721,1
0.013642390713738,0.0169854165690957,1
0.0110881169931355,0.0166490623115539,1
0.0127772676859467,0.0181600657517531,1
0.0119727802084824,0.0174265484218228,1
0.0155895871347544,0.0134189631387327,1
0.0545090025363054,0.031159555626994,1
0.0815592430551895,0.0223029713874561,1
0.0744471034158357,0.016866143313706,1
0.0718548929201514,0.0177329453520413,1
0.0724842223349662,0.015826490754977,1
0.127480057866391,0.0144705046162036,1
0.244427744484731,0.0211882455119592,1
0.237314320419875,0.0138717435736912,1
0.219221296039916,0.0130304399751538,1
0.20540732509266,0.0120479307378225,1
0.203629167241622,0.013547466542671,1
0.205525353399274,0.0161318323871174,1
0.178817521802201,0.013720416068272,1
0.156386927191617,0.0123833594743701,1
0.146200237784726,0.0118716889369998,1
0.149468023581363,0.016170026965942,1
0.0782433787534209,0.00823487841306065,1
0.0711952062160103,0.0138057779932687,1
0.055789264693664,0.0101385578262835,1
0.0546404267844499,0.0108413508086839,1
0.0545405737160298,0.00999535002896696,1
0.0552499998037294,0.0099264021401919,1
0.0543610785054289,0.0125616311932538,1
0.0560361254530944,0.0125347713909436,1
0.0592776014931333,0.0153523689694104,1
0.0552763843309958,0.017872517563434,1
0.0561962963878777,0.0181680189986779,1
0.056517695326901,0.0178699498998642,1
0.0429464568628361,0.0185573578316922,1
0.0288139702254239,0.0136499777484375,1
0.0226241328825255,0.0102978727951059,1
0.0250087375020561,0.0103820994074528,1
0.0434801247549128,0.0143092689888266,1
0.0443857878322469,0.0117252721490509,1
0.0447883559635191,0.0115055738285157,1
0.0452146480795822,0.0120884963507765,1
0.0577173720004641,0.0234590242838073,1
0.0709366719923639,0.0268909043616721,1
0.0855100794000451,0.0305619713614197,1
0.106997743855116,0.0362080143632207,1
0.108950096308528,0.0343622603914882,1
0.0930425801323969,0.0348113144902566,1
0.0366389215873648,0.0227064497356826,1
0.0262710246986087,0.022558310146619,1
0.0134627021255173,0.0114567480351124,1
0.0125791117134886,0.0136458681302557,1
0.0126465744381158,0.0133661194470113,1
0.0145146999671391,0.0149474712437944,1
0.0166063312110381,0.016267975499034,1
0.0154366998304518,0.0179476517808869,1
0.0141325290918694,0.0211678164851381,1
0.013858834300648,0.0194117116709985,1
0.0129356380111366,0.0163990165538568,1
0.00487273288985641,0.00908181087166391,1
0.00434193849454052,0.0124242516234522,1
0.00610449405102163,0.0155884374434555,1
0.00516390866714584,0.014538567232615,1
0.00522400285753491,0.0148307675287081,1
0.005330913810334,0.0127369664185685,1
0.00678985557530295,0.0132207072734375,1
0.00554881721594468,0.0106942383376615,1
0.0057214559660032,0.0114076246590473,1
0.00935835669920306,0.0117400378803598,1
0.0179138485870971,0.0204497740481671,1
0.0179504489379218,0.019822935444398,1
0.015254183499653,0.0178436406523576,1
0.0155657307571017,0.0176946543303379,1
0.0162329785359453,0.016374551037274,1
0.0176470920150331,0.018354873612727,1
0.0145352248048905,0.0169649815991993,1
0.0147981920306895,0.0182989441455239,1
0.0127333751471161,0.0151762088861501,1
0.0133382561119738,0.0143790036668167,1
0.0143327524007831,0.0155708902826721,1
0.0179909137031317,0.0214759526823298,1
0.0319788402694299,0.025294538873974,1
0.067543778192535,0.0369890219420213,1
0.0646926795390542,0.0318691446438756,1
0.073971937485077,0.0236680189898496,1
0.0811591288679693,0.0168955471178807,1
0.0750098176523285,0.0142633181996614,1
0.0776044823373731,0.0152903452786454,1
0.0701229103447656,0.014341227637698,1
0.0593844066772108,0.0116976041560999,1
0.0610230472598172,0.0116585845583696,1
0.0656339710763635,0.0122583500683968,1
0.06348443759627,0.012494147255517,1
0.0577426353525033,0.0125741874645783,1
0.0552897819146859,0.0164963930134857,1
0.0539852406482708,0.0173333632955763,1
0.0623065240330955,0.0228244460904788,1
0.0501329406948711,0.0169352326828092,1
0.0539781080952812,0.0142397333305642,1
0.0853003594305,0.0139327868997788,1
0.0755461050164773,0.0112402108783014,1
0.0812048551621201,0.0111983225433653,1
0.083064387362986,0.010059130723856,1
0.0837820780430141,0.00962992828292298,1
0.0860125538569313,0.00858564180238073,1
0.103488238790381,0.0113989126264888,1
0.111994472985063,0.0127219131469113,1
0.135135184704315,0.0162055802234788,1
0.139087030924937,0.0188628437074578,1
0.108452875010811,0.0198607743534746,1
0.139360382694252,0.0275431637626136,1
0.117957073753228,0.0322393484031912,1
0.0986613722994392,0.0309096249059033,1
0.0598981934616593,0.0240425674010595,1
0.0240868991118853,0.0182368470435478,1
0.0295680333564527,0.0261755194960805,1
0.0347059803679302,0.0306645563406792,1
0.0356360766485384,0.0231129176311489,1
0.034854504077517,0.0250371149283091,1
0.0331890175935176,0.0279838315394916,1
0.0284006536849662,0.0244991677106416,1
0.0200381074765516,0.0167116484028727,1
0.0159181266404502,0.0120308266520708,1
0.0181243852597322,0.0137681500932556,1
0.0186399686247448,0.0167874921970857,1
0.0147204275873264,0.0135821832082549,1
0.00848328892067872,0.00743125074510979,1
0.00712625758303503,0.00879292612838537,1
0.0124064530264739,0.0115532093908364,1
0.0142534848828875,0.00845942320203538,1
0.017069904756361,0.0114083178908271,1
0.0176656113780339,0.0135549229050382,1
0.0147477189551102,0.0126884775719027,1
0.0152646670115067,0.0138239941892696,1
0.0170537418842181,0.0151461943857264,1
0.0172514574121993,0.0150533479282914,1
0.0209980538956387,0.016323598847218,1
0.0258774027874814,0.0176948329842358,1
0.022528215262488,0.0181845644813839,1
0.0204438234795549,0.0423385806071387,1
0.0154754404058995,0.0304101270509037,1
0.0110512587310153,0.017402317780156,1
0.00982519343812612,0.0145550904711553,1
0.00966762643070739,0.0144819057964994,1
0.0165006632533651,0.0221332337940299,1
0.0154480853031408,0.0187128272171926,1
0.0472195581767804,0.0185251868702645,1
0.0705128289938961,0.0177314155671762,1
0.0618496094139501,0.0159427855924943,1
0.0666588823264163,0.0157731600593131,1
0.0653618007550475,0.0148844299143064,1
0.0567989477258464,0.0136295401419811,1
0.0464175936192073,0.00962232668717693,1
0.0455605471470731,0.00905155555968374,1
0.041440263770996,0.00816759729600303,1
0.0302707601391842,0.00515480859108114,1
0.0252212560921974,0.00681847019161554,1
0.0283488745017566,0.0119972560344791,1
0.0244707963980628,0.0109393908876919,1
0.0311051821480221,0.0149654906159153,1
0.0447336449151799,0.0189599413605612,1
0.0463567508411735,0.0158122764008773,1
0.0468782537882543,0.021520177991148,1
0.0483972645717766,0.0192967572453786,1
0.065137565674632,0.024990866910507,1
0.0966879280849515,0.0313884434137284,1
0.10525264611659,0.0303378692209556,1
0.0969814668699104,0.0272662747534821,1
0.0977416484499831,0.0249091635268954,1
0.0894145801691683,0.0252330592492133,1
0.0695725921496781,0.0209701134161898,1
0.0877696694771567,0.028884337200393,1
0.12682160943546,0.03596394684069,1
0.159864124595745,0.0509861994645373,1
0.202345917583792,0.0579609824509015,1
0.170090977310206,0.0552157514941015,1
0.135812633896998,0.0607910718249705,1
0.127268823243414,0.0643514054587359,1
0.100658707242074,0.0597416785259836,1
0.0704222678156863,0.0437133800185407,1
0.039591345257775,0.0290577158194954,1
0.0226013390075311,0.0215477018444638,1
0.0286556398794513,0.0182025639794835,1
0.0464621207456648,0.0460603161686072,1
0.0451764838491348,0.0256282505753795,1
0.0383520192358942,0.0254606147498795,1
0.032778009720435,0.0220061664629368,1
0.0265128236321471,0.0148794212385342,1
0.0190205402984047,0.010756396909399,1
0.0177676315037262,0.00911400550429147,1
0.020987027193234,0.0114477426555835,1
0.0287171305475366,0.0154003804292396,1
0.0373684012325727,0.0223370534363023,1
0.0290577207683096,0.0163365196448465,1
0.0286890756356187,0.0189148887407714,1
0.0296527344839016,0.015363122836926,1
0.0277774292516828,0.0149988095934148,1
0.0245266870506089,0.0159595010645221,1
0.0232042161239444,0.0174770248282922,1
0.0223098933649855,0.0218222562069548,1
0.0220176976188238,0.0207902264331004,1
0.0184014416291939,0.0189613565287007,1
0.0133521898570762,0.015093925580071,1
0.0137474896237143,0.0191314570085443,1
0.0134715535659028,0.0149508404807616,1
0.0152432024940035,0.0221326136412144,1
0.0444217225303506,0.0276302563689017,1
0.0516277479528402,0.0212551811874329,1
0.0744484506688691,0.0214133022561783,1
0.0974446179311753,0.0214695505596963,1
0.0937732925138365,0.0198341076181265,1
0.102610359574614,0.0189182659759635,1
0.103143241859255,0.0197203941371033,1
0.0782186140144407,0.0155124060413825,1
0.0693755189820277,0.0155381602832496,1
0.0848897551223612,0.0181088446015059,1
0.0975197085163318,0.0110609354579873,1
0.102311084074446,0.0126434705539709,1
0.124405126834243,0.00734974443162849,1
0.196072223895144,0.0146231711479519,1
0.159436863585312,0.00927469399040755,1
0.175306878503088,0.0109502319216227,1
0.182571061737958,0.0110587988177344,1
0.190936641621738,0.0117008925922406,1
0.195007676975852,0.0116879462505545,1
0.202194713079877,0.00807025030496019,1
0.286728874467662,0.0165160294440843,1
0.239033572054566,0.013258420298351,1
0.2287762157667,0.0200120872634708,1
0.201309217672696,0.0155698642790676,1
0.193804610739666,0.018113571305007,1
0.190853260741499,0.0183367897518011,1
0.188591330687628,0.0183707821472521,1
0.178540044579317,0.0171370082957405,1
0.177954044029691,0.0166090417233863,1
0.193893809021324,0.0300391806936328,1
0.0936930615050411,0.0176868009910287,1
0.0738350562192426,0.0143833471936596,1
0.0893715304608393,0.021970849425509,1
0.121931520887542,0.0343414233765333,1
0.1327463597918,0.0375373331558269,1
0.135128560290155,0.0325838440170419,1
0.118297721977367,0.0291921891269131,1
0.0682379147269294,0.0210922310009892,1
0.0391157654970024,0.0107239193215139,1
0.034004231865526,0.00960134683238972,1
0.0300186228230802,0.0105042107770439,1
0.022150721923433,0.0113475543645166,1
0.0218055567120962,0.0100495183373979,1
0.0320270209685171,0.0111895191193577,1
0.0249599058017094,0.0067859103244715,1
0.0254434063763508,0.00807349984799114,1
0.0256487891934242,0.00789834570762202,1
0.0258329747836902,0.00787409499053991,1
0.0310132608763846,0.010909828621553,1
0.0298994047363232,0.0118379472308526,1
0.027564547302087,0.0109066108169538,1
0.0281881027415594,0.0108973726348578,1
0.0317026518619407,0.013424681024936,1
0.0156855603787373,0.0104632622843881,1
0.0155602682053617,0.0157175354502553,1
0.00804029866742605,0.0117611348144957,1
0.00819015728905474,0.0143670064625587,1
0.0290387399288059,0.00652744181183021,1
0.10803531581063,0.0238491197196085,1
0.121415791474019,0.0116346715193657,1
0.126592623800018,0.0130078819679009,1
0.128198936909847,0.0112040178240438,1
0.125638431323499,0.011650010541315,1
0.126354987911187,0.0119753938052091,1
0.124449618373796,0.0118587771310376,1
0.118759738797566,0.0108145749995267,1
0.133881002120828,0.00883719793776067,1
0.158533051166911,0.0162775678203271,1
0.146367407415045,0.0159054321475703,1
0.161586200980481,0.0248722104940932,1
0.145116184779053,0.0235216541082094,1
0.14661044752271,0.0266265227805158,1
0.146106115960304,0.0248594701256291,1
0.116461148051275,0.0220583272700513,1
0.0743594443542918,0.0161850195789751,1
0.0252015228435099,0.00585661802983841,1
0.0275452282337085,0.0153389667366425,1
0.0308853347481926,0.0171732405621051,1
0.0312823363007372,0.0178761824398831,1
0.0466143320221599,0.0140270293167945,1
0.0630384892815886,0.0106499595447844,1
0.0589573480613436,0.00917753782772281,1
0.0715915787098211,0.0125663709213532,1
0.109413635808384,0.0168070394152796,1
0.132024412475201,0.0143585715485331,1
0.147982527435136,0.0115813749951311,1
0.160253951399394,0.0110643629271408,1
0.14797619270897,0.00999487974165126,1
0.135569449000726,0.00874082462482211,1
0.129522185365388,0.0107068840176542,1
0.155165938538369,0.01582782351069,1
0.160190673139358,0.0148029264547952,1
0.159202959517772,0.0147165124136473,1
0.140969325170364,0.0148096912445985,1
0.147514344069789,0.0150239624357224,1
0.166873045134878,0.0216239575614612,1
0.218377247991319,0.0330024386099776,1
0.301842420721866,0.041025088367445,1
0.350960287530921,0.0440383994199289,1
0.334939231270627,0.0388331111144489,1
0.248868683873824,0.0363578586977793,1
0.175874174141715,0.0322492308863274,1
0.134157635264322,0.0268513120272092,1
0.0940913053656193,0.013877963894659,1
0.116060011495834,0.0227579645819615,1
0.114585287636027,0.022622452514198,1
0.0971292828818877,0.0229179612119508,1
0.0567714994197833,0.0134029197887947,1
0.029408888147553,0.00840205939548218,1
0.0368100530161207,0.0131646428774173,1
0.0388308305521075,0.0123074651168414,1
0.0561002121472334,0.0153178637146805,1
0.0590722035628228,0.0128576521048498,1
0.0622972609661422,0.0157790195758129,1
0.0588781948644104,0.0186709004897371,1
0.0694327467382197,0.011715111788082,1
0.0824092248380408,0.0133777814473015,1
0.0832381632787746,0.0138997315057486,1
0.084713804642151,0.0142510667454751,1
0.0869507781053887,0.0137281964954652,1
0.0986716645446112,0.0151895561817901,1
0.0940844502473015,0.014508710009181,1
0.0941851388751504,0.016275701382222,1
0.0805401217405492,0.0140046811470829,1
0.0998464545993849,0.014613938629268,1
0.141207783207074,0.0347043828249678,1
0.130131041063686,0.0323725175732116,1
0.159324373433806,0.0348111397472714,1
0.15183417278386,0.0244045126439684,1
0.104845773091248,0.0204199396638848,1
0.0982439797152182,0.0222544918440548,1
0.086752613287886,0.0200584902250727,1
0.0780241192466125,0.0190541406248476,1
0.0630305350925377,0.00389374950627497,1
0.264287548609611,0.0164455413441564,1
0.322824952155132,0.0104100755817319,1
0.320550132959837,0.0107574227593432,1
0.331983902944008,0.0113976463398501,1
0.329967450163411,0.0113120710683702,1
0.324749978987484,0.0110118670949293,1
0.321193033112886,0.0105069040284092,1
0.302760778063269,0.0109307812910677,1
0.269643648293501,0.00980459934034352,1
0.269267034564078,0.0169475928382052,1
0.138114637228355,0.0142786082958009,1
0.0766850660422303,0.0222893993301788,1
0.0798072092759952,0.0218945340368484,1
0.0817838319788389,0.0192202203439279,1
0.0773460160316774,0.0215776914860912,1
0.0633036894078352,0.0174253408517844,1
0.0602501937637599,0.0197831365885103,1
0.060293366844504,0.0179234222992155,1
0.0879574625043779,0.0220225247527688,1
0.0939231358286171,0.0149384976624391,1
0.0781494820004866,0.0128329224187571,1
0.070375813913519,0.0125759349205602,1
0.107269451844629,0.0124494177993097,1
0.227834720545826,0.0278001035858079,1
0.32981855570042,0.0336915660998271,1
0.399544058983693,0.0417362795323311,1
0.370121953549079,0.0375703530463996,1
0.344098113159809,0.0331341433759659,1
0.225714889531433,0.0260771225574228,1
0.155047750747757,0.028056447650661,1
0.147879926576588,0.0195609491106389,1
0.15696856941394,0.0157123515586934,1
0.149874399196886,0.02634619507909,1
0.151641236688024,0.025936794986098,1
0.118257498054688,0.0160482709559097,1
0.0934971287650282,0.0126003110218226,1
0.0738605471348174,0.0101263619482657,1
0.0705462327806454,0.00903071070739528,1
0.0801611089558585,0.00904077068395681,1
0.0791226543159852,0.00865768076984347,1
0.0687432000393343,0.0109176235436947,1
0.0456548165003233,0.00886932403851285,1
0.0463702565306043,0.0101169666736149,1
0.02353771536841,0.00449183230786976,1
0.0228008239987089,0.00716761196037712,1
0.0183739397232818,0.00604553858612,1
0.016344093912448,0.00642444683189986,1
0.020607022250625,0.00973792814136755,1
0.0200838988985171,0.0119018330180494,1
0.0163653826939066,0.010629449913112,1
0.0173219452079346,0.00994429324274662,1
0.0232646900468647,0.0120645339900702,1
0.0245630971755776,0.0103708361788273,1
0.0248291109190456,0.0117592096031686,1
0.0214480028529219,0.0115523533874571,1
0.0223669189152574,0.0112107847830913,1
0.028527578664653,0.0116910914298813,1
0.0280027914214668,0.00902041174031027,1
0.113059684770154,0.0191086273732111,1
0.118304479670886,0.0136699851425376,1
0.142012913609021,0.0130138118420486,1
0.242600731295881,0.0198069361669135,1
0.335110378894193,0.0234124192254169,1
0.30504712239576,0.0158343937294263,1
0.284809843197016,0.0150685011158782,1
0.231794710245898,0.0127183408085535,1
0.223045261457478,0.0126207555443964,1
0.200447316645352,0.011954920223058,1
0.186669448251879,0.0140809999673621,1
0.178453518607806,0.0168651997478474,1
0.176646571786745,0.0168248316129169,1
0.16317156503638,0.017432176169168,1
0.123648451625028,0.0164995524252828,1
0.189293270924029,0.0449513339361219,1
0.191731379534164,0.0398381276978343,1
0.184947883357269,0.0381020814892279,1
0.192446852809555,0.0346410096580011,1
0.180921330846897,0.0202435357580246,1
0.203331423509937,0.0179809505650622,1
0.195168149575446,0.01526811178912,1
0.165709124360107,0.0167187511269506,1
0.211906421043,0.0186449964043524,1
0.291569045567808,0.0236355380701671,1
0.305597988482304,0.0264549332974993,1
0.280046370213999,0.0236054526550605,1
0.257405556391528,0.0205080114632605,1
0.168425253940953,0.0181206919331823,1
0.0581893600915048,0.0108358118028236,1
0.0661315160737978,0.0144726433602053,1
0.0811915538693222,0.0317872565973294,1
0.0637217467331316,0.0273356586333298,1
0.08643479566229,0.0413206081188825,1
0.126503449694446,0.0499522604574731,1
0.148354153501253,0.0513224691819797,1
0.128769572098239,0.0409849114520703,1
0.0920979494138268,0.0366692364083862,1
0.0883291223007476,0.0275093963777065,1
0.0942781272923513,0.0265794999198267,1
0.132379433367028,0.055765301434482,1
0.149546525498048,0.0397029563612119,1
0.148963418211067,0.0412156265579059,1
0.131198374775802,0.0388646564632645,1
0.0960894832306273,0.0317552628437294,1
0.0705159916060313,0.0253149639176462,1
0.0802528859560549,0.0332527339962558,1
0.09702346084515,0.0365873786867185,1
0.099614605672087,0.0403280278540936,1
0.0977600266510956,0.0188147009957493,1
0.123380587756729,0.0170471248848928,1
0.11522086428672,0.0137339493469912,1
0.114643244842626,0.0128920308356316,1
0.119752987352971,0.0132085484602126,1
0.124242473863555,0.0133978944768232,1
0.12348881854405,0.0134773719202238,1
0.117366359300945,0.0128343634448379,1
0.112769210677204,0.0124397702647745,1
0.112011363626045,0.0133810233410502,1
0.0883153503965269,0.0215946405672579,1
0.0101101894169298,0.00238572804956153,1
0.00836958693979776,0.0147164149945148,1
0.00901588255178465,0.0127456481424062,1
0.0124093082622448,0.00481586902091249,1
0.049388330829657,0.0200160533894472,1
0.05921216457482,0.0150931264467032,1
0.0689169719132328,0.0106177864806391,1
0.116261545479392,0.0163293795382669,1
0.118055179040579,0.0157350858594963,1
0.163886854002604,0.0191703434939076,1
0.19065583796828,0.0186411702803491,1
0.174134302800507,0.0173481619044022,1
0.119026118828209,0.0131047718507091,1
0.0812476631537088,0.011202647510724,1
0.081106225847494,0.010894779077671,1
0.0595931341092558,0.00945648790183617,1
0.0405681961867762,0.00931171763051792,1
0.0438291713004827,0.0093559829753459,1
0.0371530718247944,0.00790387491676692,1
0.0412084913324805,0.00772240510358533,1
0.0444267859667593,0.0081772380403552,1
0.0448160464990956,0.00792053837627365,1
0.0445534820423411,0.0075539104230246,1
0.0637213600022764,0.00920175301654495,1
0.076219746366784,0.00605083397189822,1
0.109400079881223,0.00930316111854657,1
0.141541668542925,0.0121358394670799,1
0.149733425096939,0.013389214391214,1
0.139569003678122,0.0129149185855903,1
0.136269658882631,0.0159685744410342,1
0.140618250866773,0.0177823467223453,1
0.133983116546741,0.014938553639513,1
0.132993390050279,0.0143316965895809,1
0.0769078641888038,0.00952013250717443,1
0.0455745209203526,0.0105788222545378,1
0.0422962815304436,0.0110381971581534,1
0.0280381851285818,0.00748827157621414,1
0.0261899736253045,0.0062216065342757,1
0.0263434562478384,0.0064430817677839,1
0.0378371562241242,0.00855707317377795,1
0.0433523510889659,0.00412538856446889,1
0.0923871571948128,0.0135739927127928,1
0.147461706305917,0.0203280834605044,1
0.204127786065246,0.0283384132818633,1
0.228474890811357,0.0322097483289285,1
0.238348105404598,0.029976561535085,1
0.228465515002061,0.0279213826344299,1
0.205615149596197,0.0279769230449285,1
0.166429570508867,0.0225438687973706,1
0.0849900561823267,0.00904701581633584,1
0.0544597669298879,0.0182528676472512,1
0.0538303450230548,0.020696530690904,1
0.0487000889661473,0.020312661357407,1
0.0391463932355373,0.0174816743706993,1
0.029961216610741,0.0119292848610619,1
0.0771984911461192,0.0211969665291743,1
0.0951638507766051,0.0175232786243905,1
0.0889377515561739,0.014374987453636,1
0.101104242610756,0.0149774269480356,1
0.126048982402075,0.0220590096168066,1
0.124560078439557,0.0215315814694889,1
0.122512534954372,0.020958986587344,1
0.120785925199494,0.0204775812492042,1
0.118735684238502,0.0200142540218614,1
0.11793490790792,0.0222329942357691,1
0.066552413985059,0.0181720470821506,1
0.0367946930597565,0.0194732549207964,1
0.0350754350899591,0.0286282218771888,1
0.029892417169053,0.0297979013442353,1
0.0164262115447529,0.0163593029648885,1
0.0166145588003198,0.0218822153665813,1
0.0220608780716163,0.0162234124041161,1
0.0247106971027069,0.00832634496101506,1
0.0340788780007967,0.0114205487946424,1
0.0400250507139412,0.013342473267241,1
0.0419930972220775,0.0127470019774822,1
0.0380318216948141,0.0110229872140997,1
0.0381118032234605,0.0109161501321271,1
0.0373953964130592,0.0112647030064632,1
0.0413451628890017,0.0130684190100535,1
0.0443022710475376,0.0159959430750064,1
0.0233865577441806,0.0145031375716478,1
0.00475678122397221,0.0140573338645438,1
0.0090180027985136,0.0243064520976523,1
0.0115598926702313,0.0148321113017062,1
0.0115202002994846,0.016513447206627,1
0.0132020268152624,0.0149778824583422,1
0.0159934511513709,0.0158920576321881,1
0.015390103430984,0.0139926010318102,1
0.0138559525081601,0.0119167362020421,1
0.0120565901193867,0.0106042107625335,1
0.0108594379194405,0.00945160918422118,1
0.00941385864416544,0.0087235499867965,1
0.00849009654333441,0.00831722366334618,1
0.00829268230141019,0.0110282683825077,1
0.0083070356207408,0.0106580398966291,1
0.00760346285930921,0.00969180061534987,1
0.00721651331347674,0.0114372238896082,1
0.00667498514267382,0.0130633231090504,1
0.00486837727826345,0.00956593524598747,1
0.00594549641226988,0.0115244007849029,1
0.00699347893824535,0.0121359434878072,1
0.00737080657604275,0.0125218411117206,1
0.00750355527290052,0.00850149505025457,1
0.0119231620967148,0.0147072436984107,1
0.0110539750048422,0.0080379435111435,1
0.012544598342508,0.012457399247055,1
0.0141637017065988,0.0127812478227168,1
0.0164282602912521,0.0110228825384776,1
0.0165447007043163,0.010401189176296,1
0.0182340451072793,0.00897864222087947,1
0.0214023131096558,0.010581609373661,1
0.0215520506595348,0.0097830182581904,1
0.020888169260367,0.0118516792005545,1
0.0110455478816108,0.00627778199806927,1
0.00906391484401415,0.00806492571220528,1
0.00903624465483539,0.00752325179806943,1
0.00891399422341453,0.00856847717282341,1
0.00859661400494093,0.00995640420087114,1
0.00595672479165059,0.00800751291637043,1
0.00537832490000076,0.0172149878594854,1
0.00458521587538202,0.0176881465355763,1
0.00383708688683948,0.0237767131377983,1
0.00271572567286507,0.0170725675796072,1
0.00298557137310271,0.0184794676578202,1
0.00290610191560538,0.0181281807622406,1
0.00271106134949555,0.0177889760275612,1
0.00133135951436585,0.00853139637986406,1
0.00129943895311686,0.0156275963853893,1
0.0011702422426336,0.0130525064354751,1
0.00150120875786524,0.00685353864886609,1
0.00411673842667229,0.0159042901251038,1
0.00434271082342682,0.0132642704741001,1
0.00437614428873358,0.0151468253537416,1
0.00406382811882549,0.0149977669974395,1
0.00422529457146806,0.0145155946167517,1
0.00472851582059381,0.0164049067687888,1
0.00470194848644219,0.0180385766334349,1
0.00542955840532283,0.0222072384501859,1
0.0058961735294861,0.0147367735218943,1
0.00639898555228428,0.0172298687222541,1
0.00363852594851222,0.0112532652941063,1
0.00306093919607312,0.0114567859430561,1
0.00305079001700125,0.0116025731115203,1
0.00368601609451807,0.00981479663810726,1
0.00778300883276413,0.0201649585773108,1
0.00874788243183887,0.0196279821076629,1
0.00942335643481966,0.0134828840830762,1
0.0226338731319573,0.021697693941377,1
0.0255064923759928,0.0184910269383674,1
0.024866963291428,0.0191508522221898,1
0.0214251946936964,0.016216091792464,1
0.0192779126335914,0.0144291476563754,1
0.0200969045842139,0.00669159335988416,1
0.033193083891605,0.0120798263512364,1
0.0376141966492938,0.0146074927143815,1
0.0372409500489056,0.013693299457264,1
0.0319251201619534,0.0134706312262382,1
0.0308819176553228,0.0148472689959171,1
0.0300087314294981,0.0172997542902319,1
0.0275682442327338,0.014852434115861,1
0.0251366802257769,0.00714331158588847,1
0.0338434110992979,0.00940595569949692,1
0.0361654424760275,0.0161959840345476,1
0.030359837955965,0.0135889879507982,1
0.0294387040028331,0.00930488058013023,1
0.0359417892515513,0.0128917297680807,1
0.0586899115502264,0.0188952088557656,1
0.0614876353730898,0.0168320662564283,1
0.0626716892363446,0.0158673799940543,1
0.0620078501974708,0.0169184073970049,1
0.0717669861501798,0.0189985953754728,1
0.0678497841664146,0.0168865725877857,1
0.0532595530733778,0.0138494101650409,1
0.0431552677931928,0.0115207786993683,1
0.0341719287738213,0.0101738852771566,1
0.0375850878597296,0.0103530627784597,1
0.031911984934651,0.00808743856531213,1
0.0414683954101285,0.0115733670051474,1
0.0441039699596071,0.0127858078892794,1
0.0501269695899576,0.01473423686226,1
0.0452860193772224,0.0264704193909142,1
0.0300013737887219,0.0186865977342745,1
0.0268587105204876,0.0142198646320603,1
0.0268935287922744,0.0149256854888575,1
0.0433012999362024,0.021700150127645,1
0.0629977902229385,0.0282129221240329,1
0.0914637226302636,0.0421100437103589,1
0.085905579321512,0.0330043179759088,1
0.0841354223889568,0.0328754003792819,1
0.0725947689532016,0.0328499473609306,1
0.0696554866990847,0.0218395394467941,1
0.0525368581259204,0.0122694311064932,1
0.0523480063621898,0.00893153830019067,1
0.0720499727235051,0.0114498031643082,1
0.0767120645007957,0.012946033264498,1
0.0802759321949883,0.0106908794812529,1
0.0969429202264298,0.0122675447917547,1
0.127290974380151,0.0161048905138128,1
0.146890495513735,0.018171875695688,1
0.165936519249979,0.0183666191915046,1
0.16093527487024,0.0219604688169288,1
0.1670536383666,0.0249425812908975,1
0.158462983512549,0.027708988544687,1
0.114421913010682,0.0206414450710997,1
0.0801925550016334,0.0118333102278731,1
0.0482030975109847,0.010828532226356,1
0.0469728977487907,0.0134666202430465,1
0.0426279579572994,0.0123377865318761,1
0.0393957838705261,0.0107772049575163,1
0.04032682081473,0.012513240782099,1
0.0460137240065929,0.0137899325823545,1
0.0509792145928754,0.0145017590005333,1
0.0596293896307358,0.0346586478570758,1
0.0299182351657554,0.0205383881606195,1
0.0181624135093087,0.0358238179004168,1
0.0175059306391061,0.0310774585319285,1
0.0147117830870645,0.0262761522964808,1
0.00869567531831774,0.0180718188960516,1
0.00577928083022903,0.0158659587770881,1
0.0075403532563281,0.0209606792739498,1
0.00784020935176778,0.0206154198278299,1
0.00790997192737545,0.025972690984668,1
0.00768117790878293,0.0291859126542931,1
0.00576233815382013,0.0399038153951972,1
0.00204431125251951,0.0217949460701611,1
0.00208488761400526,0.0363686631637499,1
0.00234242625496621,0.0367849507660641,1
0.00230753768879975,0.0200112843484225,1
0.00340346141502036,0.0241809028389789,1
0.00311296460446395,0.0179994214456455,1
0.00308583907456679,0.0175948119683231,1
0.00309477305418649,0.0179246443888456,1
0.00312079734874121,0.0174317720508203,1
0.00326243148771216,0.0176726763682757,1
0.00348081698024985,0.01922625125236,1
0.00332583862174304,0.0196220293378285,1
0.00337712628660927,0.0195682494114907,1
0.00378958382282948,0.0350175951547105,1
0.00199659773002842,0.0366149856453959,1
0.00214134643048848,0.059777680883833,1
0.00219457395339284,0.0763724886562969,1
0.00128961519467736,0.0620798381560919,1
0.000893841042190922,0.0829774581269097,1
0.000927348401410124,0.0897870912273701,1
0.000904649234677247,0.113274783545902,1
0.000362681872870459,0.0883703694004106,1
0.000260686821476289,0.0921278602325939,1
0.000368108131831104,0.0736554148143577,1
0.000361739662997837,0.0705849270740551,1
0.000362983952471092,0.0716024709415608,1
0.000356094756216343,0.0708614283046522,1
0.000348023831191889,0.0675473517305855,1
0.000315398280848692,0.0561630040548526,1
0.000278595212731691,0.0528233227473031,1
0.000288582047508107,0.0539910880587418,1
0.000320996290945758,0.0636386479916491,1
0.000209531934529043,0.0938376533436706,1
0.00012813223408882,0.170174305744432,1
0.000131162426622092,0.177714141855556,1
0.000123280057026491,0.171816290841657,1
0.000134420468937249,0.0858073308744459,1
0.000318863542848533,0.113119887652081,1
0.000329455730452346,0.116412231451107,1
0.000327428836390309,0.115783665609038,1
0.000310816083133509,0.109633595195845,1
0.000280951150388278,0.10321321994673,1
0.000260995025064028,0.0957664879764066,1
0.000263975432411489,0.0958748698750688,1
0.000293499138846483,0.0993612367521036,1
0.0003362889324116,0.108237842445546,1
0.000367306019973712,0.229699948728362,1
0.000188159131226266,0.352562162048576,1
0.000119369154125069,0.637585808660779,1
9.72878718932897e-05,1,1
4.75364178001323e-05,0.488038917605298,1
3.25082940205863e-05,0.281716871461157,1
1.95912770204624e-05,0.199785032956717,1
1.79309896769828e-05,0.209140272353183,1
1.88106172629914e-05,0.216035119686778,1
1.88612183395021e-05,0.21894068964271,1
1.8238439703868e-05,0.217065217474263,1
1.80933400844563e-05,0.211700087315966,1
1.84677057548638e-05,0.205931156059707,1
1.8129584349637e-05,0.208634474047859,0
1.66874048684388e-05,0.319599231323406,0
1.74920141217444e-06,0.195429605801828,0
8.33277035832788e-07,0.294745791212614,0
8.31781183158497e-07,0.295249525482945,0
6.72401407305788e-07,0.26344910820205,0
6.29280803836662e-07,0.271026430539197,0
4.8376232020936e-07,0.236490420008995,0
4.90858882136883e-07,0.240574995437462,0
4.97068755824574e-07,0.241944770242466,0
4.10135490211304e-07,0.242037570702369,0
1.97235003375071e-07,0.18323829780081,0
2.19941467602461e-07,0.188953567247494,0
1.63410396882886e-07,0.160607067409344,0
1.38899932420298e-07,0.151568377742742,0
1.11263425552615e-07,0.138332172575499,0
9.36026866345657e-08,0.132691459183618,0
9.61534990370116e-08,0.134560109945214,0
9.48029977845297e-08,0.133325783688697,0
1.03177735421313e-07,0.138976602099804,0
1.12774048936437e-07,0.146645979075578,0
9.01091591630317e-08,0.131759444449395,0
8.53860974567283e-08,0.133030771681333,0
8.10246634665337e-08,0.138859406315219,0
7.53002495209774e-08,0.138325594941341,0
1.0357094189573e-07,0.155054344961485,0
1.42600695493228e-07,0.17210415014719,0
1.201243232669e-07,0.159412752322725,0
1.20272285029617e-07,0.167543593082828,0
1.19328487624055e-07,0.167102084126812,0
1.11187470998862e-07,0.15785820054437,0
1.11776262040864e-07,0.161080078575056,0
9.85692103807281e-08,0.14848116002715,0
1.01022739834193e-07,0.147466735401034,0
1.27893652813458e-07,0.166536288273227,0
1.0167105938228e-07,0.149645130552894,0
6.15074628277072e-08,0.125186797076604,0
5.85314195245766e-08,0.127686865774476,0
6.16037271070656e-08,0.131197865345999,0
7.06997465036722e-08,0.132838358323169,0
7.7483831524389e-08,0.13720282481501,0
7.77394539328708e-08,0.137667177221492,0
9.01926900721047e-08,0.143420993531964,0
9.74206603809743e-08,0.148534297170499,0
6.73508701185816e-08,0.129449113909364,0
8.75500700699003e-08,0.140509441801619,0
1.70189133888083e-07,0.183824937422068,0
1.97636868541283e-07,0.191934693897407,0
1.97517174860599e-07,0.190517430824612,0
2.15474601306301e-07,0.199521911593554,0
2.084325382036e-07,0.198219319884392,0
1.99613405943852e-07,0.196176053932553,0
1.58469849212106e-07,0.184769898742983,0
1.6300292903375e-07,0.182978791888312,0
1.35009378463261e-07,0.168278018173681,0
1.25424970649354e-07,0.168170581652103,0
6.98962071718047e-08,0.134154553789729,0
6.24395455326069e-08,0.13186978903646,0
6.52116639106151e-08,0.131306458162903,0
7.00416859273167e-08,0.132525913860533,0
8.8836840804103e-08,0.145802571868149,0
9.97350777640698e-08,0.149916532319964,0
1.18513551925782e-07,0.152785983893702,0
1.38055391636111e-07,0.16281626456259,0
1.54880757796579e-07,0.168805787335547,0
1.69225217757469e-07,0.173704093018762,0
1.58273500642304e-07,0.169741538822083,0
1.55388055268754e-07,0.167420634198325,0
1.4346147132453e-07,0.161703450273496,0
1.29661553943899e-07,0.161399377613198,0
1.36700370037178e-07,0.158271325208299,0
2.21618452469062e-07,0.198956763135023,0
2.35869067490948e-07,0.204827141750399,0
2.00265036168213e-07,0.191604123419717,0
1.81983036113933e-07,0.189266251143959,0
1.25808754429759e-07,0.16473648841539,0
1.14312240066927e-07,0.159646203601235,0
1.48629182321203e-07,0.181475104668065,0
1.96522953308706e-07,0.199567580243342,0
1.73693548391211e-07,0.186553528281577,0
1.65588821871332e-07,0.192354712091815,0
1.22618535838427e-07,0.168983390951768,0
1.13774446172919e-07,0.163782036263081,0
1.43590333031819e-07,0.173372601078713,0
2.77736388989722e-07,0.219003865987467,0
2.41471750416575e-07,0.197928338677396,0
2.07320914977674e-07,0.184618957536622,0
2.12359191265395e-07,0.182254254652325,0
2.00850771201346e-07,0.180757133376234,0
1.91724319049758e-07,0.175760492538507,0
1.92575608520196e-07,0.176089902415281,0
1.9118926283036e-07,0.174314514692783,0
1.86860171600691e-07,0.173835475574541,0
1.61155762673281e-07,0.178872057690798,0
1.19909511310181e-08,0.0876797114963153,0
3.90150465548192e-09,0.0829444624534872,0
2.96501620446338e-08,0.105506818435556,0
4.32905939624376e-08,0.12066763403769,0
5.54729276488472e-08,0.129150272726714,0
4.51471193500658e-08,0.120932542398933,0
7.38178942191892e-08,0.142818155105141,0
7.68626977218615e-08,0.141963807549883,0
9.32887453901763e-08,0.149988689053038,0
1.28224274772922e-07,0.167388641374919,0
1.25643220616048e-07,0.163175858595082,0
1.27361716269781e-07,0.162670759376236,0
1.00424207763922e-07,0.150452758888572,0
7.31524482880681e-08,0.131458569464918,0
4.34615394585207e-08,0.111961076398368,0
4.64999762760502e-08,0.114240169618263,0
5.58045046110821e-08,0.11979413869526,0
6.18217860732052e-08,0.128871457552083,0
1.122372100452e-07,0.157495379180553,0
1.22358775084602e-07,0.154895448625323,0
2.30201699044271e-07,0.202528931212386,0
2.30401676624605e-07,0.19660141728499,0
2.26913751835996e-07,0.200349476439949,0
2.31586134728563e-07,0.201486471248921,0
2.37677206071491e-07,0.20175701232365,0
2.41694648063423e-07,0.205465554082154,0
2.57176388991363e-07,0.210177698395768,0
2.55893883936206e-07,0.206313169987784,0
1.72151855583892e-07,0.182145117961857,0
1.70720370096395e-07,0.190852352896391,0
1.06269843394596e-07,0.157903939193986,0
1.03899399182245e-07,0.161684276590234,0
1.06308043505453e-07,0.160836490036284,0
1.19572713666131e-07,0.165573606018677,0
1.27523939407218e-07,0.165806734273512,0
1.16852865773145e-07,0.155700881676194,0
1.38594331533445e-07,0.16878336750778,0
1.27353757913352e-07,0.165436712875596,0
1.27274811017582e-07,0.163987086277086,0
8.70725686841936e-08,0.141331384923392,0
1.4219762065684e-07,0.168479838120704,0
2.53472697243267e-07,0.215016233785517,0
2.5063907668678e-07,0.212124610321752,0
2.67268539945405e-07,0.218673892104263,0
2.7340761609431e-07,0.223504070394746,0
2.88732227232927e-07,0.242255515481039,0
2.91540890383656e-07,0.237210964993873,0
3.88305909528628e-07,0.271517031131708,0
4.2717528632738e-07,0.263771428829912,0
4.34768704363445e-07,0.255472023822505,0
3.87610667511039e-07,0.253626460262117,0
1.95724825659209e-07,0.186647556763403,0
1.53546300590657e-07,0.167801559368719,0
1.32609392831848e-07,0.160069881469271,0
1.30107030903338e-07,0.160065091606656,0
1.39757588575879e-07,0.16366578509512,0
1.41667594118706e-07,0.167418472491069,0
1.20096564519677e-07,0.15483862727175,0
1.25231423421014e-07,0.160219934351985,0
9.13162826660984e-08,0.144829571246989,0
1.10780830818794e-07,0.156883763973093,0
7.53298546068913e-08,0.133405336339825,0
6.74754024799739e-08,0.128195207675853,0
6.92545089762662e-08,0.129827634192609,0
8.22237012794691e-08,0.138115586098884,0
9.67580157913162e-08,0.143660842250328,0
1.08062701930797e-07,0.14888573250723,0
8.52193539728395e-08,0.135352162892692,0
7.3051026993744e-08,0.135513152488004,0
8.03029997056021e-08,0.145716705324234,0
1.01602299182738e-07,0.158324852877556,0
1.29256123434008e-07,0.172565520671912,0
1.26527616849228e-07,0.168683905623489,0
1.20009659267479e-07,0.168343267707753,0
9.14345120091996e-08,0.150133710396158,0
9.4342049780194e-08,0.150578648726458,0
9.17970947280795e-08,0.147614597774982,0
7.85498056178408e-08,0.140436616832389,0
7.30540830026127e-08,0.140042511115062,0
7.29135065946606e-08,0.140032424863727,0
6.30915577580768e-08,0.129781090180275,0
7.11454144636652e-08,0.131318128268038,0
8.02418158613802e-08,0.135384233038815,0
6.79674199078063e-08,0.129758714153379,0
6.7761139309181e-08,0.129618340252718,0
1.23116665283996e-07,0.166333487674101,0
1.59938770808243e-07,0.186043086515525,0
1.76603187168303e-07,0.192019420553937,0
1.78414572758268e-07,0.191191251737826,0
1.62731708246668e-07,0.185275308720173,0
1.61403299391632e-07,0.188839158342704,0
1.41210720792862e-07,0.19000738589079,0
1.14491016585736e-07,0.17805088181759,0
1.51389267664291e-07,0.193013912713491,0
1.04652705368336e-07,0.163788625517953,0
9.16018284947512e-08,0.16155364189599,0
1.03047855044401e-07,0.172662954733645,0
9.96474721765055e-08,0.170153765859623,0
1.01859831596762e-07,0.171721593673516,0
1.0529733223904e-07,0.161799523425642,0
1.27382089662238e-07,0.173156363539493,0
1.34059978374773e-07,0.176864459451575,0
1.38864724651458e-07,0.182206325238492,0
6.75956054954692e-08,0.142973733230964,0
4.10469741181298e-08,0.122637521374767,0
4.64245947239603e-08,0.125147257103513,0
4.44832650902304e-08,0.124924034759186,0
6.83705584110457e-08,0.137638883304583,0
6.80894055951415e-08,0.131480650985278,0
1.35506170904951e-07,0.181828484821391,0
1.36947588421271e-07,0.180172757882347,0
1.56521134223611e-07,0.185689202690875,0
1.7787499619242e-07,0.190107678270583,0
1.81677689894487e-07,0.188000429279116,0
2.03858902597597e-07,0.199507557173108,0
2.00494236833352e-07,0.191702475848603,0
2.16770603733961e-07,0.194079559154914,0
1.47036301365336e-07,0.171455037097988,0
1.3798312975974e-07,0.172624399481722,0
9.29003139296164e-08,0.147050673688587,0
8.26935626430047e-08,0.143141396972844,0
5.23843213523924e-08,0.125719514164729,0
1.08972182903439e-08,0.0891518634376514,0
1.49333783365951e-08,0.0973604072536293,0
1.01996205992521e-08,0.0921333841338088,0
0,0.0826888519504773,0
2.412432500868e-08,0.111923660806824,0
2.89065332199597e-08,0.112101061751518,0
6.43342710310917e-08,0.139160181783932,0
9.99370926836495e-08,0.161743273705786,0
1.15104255698687e-07,0.166083330934579,0
1.14561814124524e-07,0.169078405874366,0
1.21063027324348e-07,0.167945749546722,0
1.46059906531843e-07,0.180900894515261,0
1.62452338102604e-07,0.190197849284684,0
1.78473655596393e-07,0.191750539511035,0
1.95489576643185e-07,0.194224610242939,0
1.90268894826123e-07,0.196712956371891,0
1.74277755419911e-07,0.190018656079378,0
1.79015587835745e-07,0.191793740078597,0
1.55280903957802e-07,0.18481030498132,0
1.58716048926576e-07,0.179331949677585,0
1.59878159965684e-07,0.17844971146514,0
1.95024490293506e-07,0.19391567749593,0
2.03574757439675e-07,0.194500063325698,0
1.77930259019459e-07,0.182816614313338,0
1.15939564789417e-07,0.159831779587033,0
1.20091471171563e-07,0.161460531655805,0
1.18514252261148e-07,0.163459376842671,0
1.15213317015182e-07,0.163075387837395,0
1.18781207369184e-07,0.162148117039527,0
1.22568875694313e-07,0.165739494235679,0
1.52504710901303e-07,0.193249423465298,0
1.11498483568086e-07,0.164861119790011,0
8.98157823116533e-08,0.155014384752576,0
1.03771110476618e-07,0.164170574657483,0
1.27424619118991e-07,0.165752905102929,0
1.56333953680414e-07,0.178162138440183,0
1.46291399203634e-07,0.172478314122659,0
1.13006369277297e-07,0.152281605302057,0
9.43708271970395e-08,0.141775202485873,0
9.31468319783443e-08,0.141053967597077,0
8.04405201046856e-08,0.13118771003738,0
7.95287471253912e-08,0.128468501555427,0
1.0823587576668e-07,0.142723083175372,0
9.57144524295669e-08,0.142449804239764,0
7.39953974009693e-08,0.13650848084067,0
4.07266025217462e-08,0.113896187876943,0
4.78797006133374e-08,0.11847998998673,0
4.71249300896634e-08,0.121332144597808,0
6.30408789443405e-08,0.13352236416319,0
8.93461756155235e-08,0.153379580403707,0
1.09825828047381e-07,0.16295079699352,0
1.05906496673499e-07,0.166194017728283,0
7.8626524173811e-08,0.15054645715657,0
7.81280763939846e-08,0.144328412859141,0
8.01924103846724e-08,0.141523069849147,0
1.01834046521934e-07,0.147855992845726,0
1.33260322720843e-07,0.167172932663353,0
1.31775357078146e-07,0.166393387260701,0
1.93704358129155e-07,0.18792122969426,0
2.13029475877225e-07,0.189195644858665,0
2.0143650623448e-07,0.186443667646157,0
2.06480448871979e-07,0.185612972183962,0
2.03542924013962e-07,0.180757419000294,0
2.1881806600902e-07,0.186535241548644,0
2.11919125988328e-07,0.189206654877433,0
2.12028632972783e-07,0.190624371257627,0
2.16298450363774e-07,0.188185561299451,0
2.19903012824198e-07,0.186095427257938,0
2.30366277855211e-07,0.197263813173207,0
2.03341418429193e-07,0.190043096157587,0
2.18746759135421e-07,0.191060993992789,0
2.55161142143127e-07,0.209038127051471,0
2.56108823226626e-07,0.209471678552262,0
2.51914705721983e-07,0.214406797305926,0
2.62585206354393e-07,0.220197941230806,0
2.49691713937538e-07,0.21905117576007,0
2.06978641984399e-07,0.206935108841872,0
1.96400012618599e-07,0.203214941409983,0
1.80332536657525e-07,0.190448330143506,0
1.8709873129299e-07,0.190365705933396,0
1.46506274827202e-07,0.174601929533122,0
7.96859405815659e-08,0.138075658943245,0
2.08305395501299e-07,0.198577294482566,0
3.53690942742821e-07,0.240241981029081,0
3.53972604893536e-07,0.233425686607657,0
3.78789434245194e-07,0.23876592010348,0
3.88963970104984e-07,0.236201736769954,0
3.95055041447912e-07,0.244339881715164,0
3.11782938125984e-07,0.223118431187695,0
2.89753125195568e-07,0.218474596074955,0
2.79960208443236e-07,0.218615217823398,0
2.43426068087997e-07,0.199395968931326,0
1.7958177714549e-07,0.192541833300033,0
9.87006824289257e-08,0.156141737189238,0
9.0294875368646e-08,0.150152235057173,0
3.90384759561441e-08,0.115250718081987,0
3.11638414373243e-08,0.108922800474574,0
3.91984070869302e-08,0.112327634564174,0
7.12505284353721e-08,0.131271949668441,0
9.64478308911612e-08,0.145287936766821,0
9.82330494051904e-08,0.140490495159782,0
1.22543663621147e-07,0.150749194218809,0
1.2130082301443e-07,0.148385557226678,0
1.28561390751231e-07,0.15092721649917,0
1.4231222098941e-07,0.161128931469924,0
1.54477364625934e-07,0.164452693972645,0
1.40917916943146e-07,0.162948199057805,0
1.32771361301879e-07,0.157284106236698,0
9.30261196280375e-08,0.14268027089202,0
1.00768008761631e-07,0.151753763409913,0
1.1235894106513e-07,0.160652489193638,0
1.02496181776781e-07,0.158512157208215,0
1.00234735214073e-07,0.155670527326933,0
7.46763143769871e-08,0.138151161588274,0
4.86712705771363e-08,0.122604299548168,0
5.50313343673455e-08,0.127012902795982,0
1.01191775324733e-07,0.159510187539568,0
7.65888665938715e-08,0.139214197205736,0
8.01766210055183e-08,0.141475000083248,0
8.05174296612102e-08,0.141699406122525,0
8.48548612484167e-08,0.147401594995691,0
5.49946622609232e-08,0.126236158222931,0
4.84530206104428e-08,0.122993303895043,0
3.49508094270883e-08,0.114622753429748,0
4.48257927509106e-08,0.12065234404527,0
4.68411669328508e-08,0.123003191172289,0
3.68037694710361e-08,0.113558632973067,0
5.49602821611524e-08,0.126245869150564,0
1.0372215066787e-07,0.143939940015227,0
1.45827649857835e-07,0.15800789157266,0
1.56132702763051e-07,0.1536231888329,0
1.5483396266078e-07,0.154538860633113,0
1.55512332962741e-07,0.151854863815005,0
1.56374636798476e-07,0.154207183428342,0
1.57413998148031e-07,0.152678376981621,0
1.60779364247642e-07,0.158295303500863,0
2.05759039778452e-07,0.177048541554381,0
1.68105636175115e-07,0.166929257142188,0
1.88085121822158e-07,0.184065964725782,0
1.51065840059039e-07,0.171995353845265,0
1.08452343061533e-07,0.159128116012197,0
1.14176820673941e-07,0.162452199729467,0
1.33314566878259e-07,0.170114470396983,0
1.47553021531523e-07,0.168160304828287,0
1.4600133302853e-07,0.169452329240618,0
1.41290750025106e-07,0.165827476423858,0
9.79417735599092e-08,0.140586804617244,0
8.26691145720565e-08,0.133588456292365,0
1.39447913010535e-07,0.165352838752073,0
1.63950992118358e-07,0.170011908092384,0
1.62770863360296e-07,0.167033422739819,0
1.62654034687927e-07,0.1663711787082,0
1.57749140453946e-07,0.175241195414803,0
1.75890818767679e-07,0.185456556663277,0
1.86133541825349e-07,0.189954196788275,0
2.01869759158444e-07,0.190955086310691,0
2.1587952248138e-07,0.203215602487695,0
2.09703837892905e-07,0.197114779471899,0
1.34846582324161e-07,0.172188621807373,0
1.46846510481231e-07,0.185923123916951,0
1.55685061130664e-07,0.189426391187503,0
1.61647270766302e-07,0.193396717178857,0
1.599791992589e-07,0.192530779517709,0
1.71056212737675e-07,0.19821383675891,0
1.785943679467e-07,0.202056303620412,0
1.46544474938058e-07,0.186412696065968,0
9.9914872952501e-08,0.159991654873069,0
8.08879707365187e-08,0.14771429126314,0
6.41293274363463e-08,0.131876281345462,0
8.09681909693173e-08,0.144732956597467,0
8.20232780311751e-08,0.146876332632819,0
1.14704746205979e-07,0.166050539711358,0
1.41325639459688e-07,0.171448058739866,0
1.48997240389306e-07,0.169746373023441,0
1.79231036460976e-07,0.179946790391678,0
2.35060243810412e-07,0.202812820722862,0
2.08877887829335e-07,0.192182061779179,0
2.21452409320539e-07,0.199507738367099,0
3.00413821132859e-07,0.235164758475219,0
2.15796755574524e-07,0.199911744315687,0
1.96264529558761e-07,0.191361665389904,0
2.26396777002404e-07,0.206045350313753,0
2.90877227124374e-07,0.236799242251739,0
2.60704296562668e-07,0.235487976817816,0
2.92486024793097e-07,0.244888827376092,0
2.60952278948979e-07,0.23735034463704,0
2.61749387928852e-07,0.236606692727711,0
2.51399704560785e-07,0.230319745951742,0
2.03617286896429e-07,0.200197398880835,0
1.95015895268563e-07,0.192340152531872,0
1.99524272351853e-07,0.192975970977319,0
2.08500025066113e-07,0.195108315171105,0
1.43288615822904e-07,0.169573930298408,0
1.39491779471169e-07,0.164195814219286,0
1.07573740511833e-07,0.150487625493857,0
1.10171348050078e-07,0.149446810548909,0
1.1490593345649e-07,0.150819287418396,0
1.48389794959835e-07,0.169448854147397,0
1.08011768449655e-07,0.149514288019621,0
8.73216334069783e-08,0.143498054027367,0
8.35158836960434e-08,0.142786525975543,0
6.51145719621881e-08,0.131831057602936,0
6.59356196781982e-08,0.133085002356622,0
1.10470836919193e-07,0.160142944220284,0
1.27182685083566e-07,0.16682068022011,0
1.44133793275604e-07,0.180830539587743,0
1.50411344826363e-07,0.177652563227995,0
1.46202265611635e-07,0.175622230291525,0
1.80168530848247e-07,0.193718401965596,0
1.84268676080183e-07,0.19476387910568,0
2.20755893965921e-07,0.205883022778282,0
2.13449677096647e-07,0.19879833837828,0
2.00881649624289e-07,0.193365303736146,0
1.88955256680618e-07,0.191202854815944,0
1.87273751467564e-07,0.192039190871329,0
1.81370242668942e-07,0.189486050448523,0
1.91464558295934e-07,0.200925156645024,0
1.88843203022106e-07,0.202381442405211,0
1.06318230201681e-07,0.159363037327552,0
9.51536111353414e-08,0.151082642428367,0
1.08240014112023e-07,0.161188930136153,0
1.01940497497521e-07,0.162858453982669,0
1.03225549226735e-07,0.162043012184163,0
1.16152530407442e-07,0.168247643285963,0
1.3612959671413e-07,0.179182683518516,0
1.80651061915216e-07,0.205005616495803,0
2.09377035944528e-07,0.206170118209829,0
2.35902492587947e-07,0.211352250257791,0
2.34405302909776e-07,0.210738741547742,0
2.34457509727947e-07,0.208183957280733,0
1.89093095413959e-07,0.194730938551494,0
1.65073120374768e-07,0.183428593474931,0
1.86947458853998e-07,0.19123846978142,0
2.04210343617477e-07,0.203024142689045,0
2.17800988057465e-07,0.209175024218206,0
1.81396728079137e-07,0.187019859307642,0
2.40092026079287e-07,0.217575188259022,0
1.62940280851945e-07,0.181488118151125,0
1.70394077482828e-07,0.184990819781357,0
1.49611689172433e-07,0.175598205409839,0
1.42925714769766e-07,0.172176528119604,0
1.59404478591063e-07,0.178974747451352,0
1.51865814047226e-07,0.173850840183749,0
1.73614601495441e-07,0.182047672363871,0
2.27861305585793e-07,0.208256115865389,0
2.40753906666729e-07,0.217145393681142,0
9.07173049278678e-08,0.149242254699773,0
1.30867213109383e-07,0.177321462458172,0
1.66306665621178e-07,0.194854835916734,0
1.96701284159554e-07,0.20261812174818,0
2.10618857881622e-07,0.1945182909545,0
3.13588784699876e-07,0.22767839149784,0
3.50435083627666e-07,0.229156925159085,0
3.62844707973672e-07,0.235583827781974,0
3.50699937729605e-07,0.234306043819989,0
3.50155458816196e-07,0.23545783454543,0
3.50610485803349e-07,0.234795290759015,0
2.95200461003712e-07,0.219076319427547,0
2.29917808553756e-07,0.193706495721041,0
2.24176268225165e-07,0.197679010017137,0
2.31179112547387e-07,0.206053531679781,0
1.57947462696143e-07,0.18178898362792,0
9.20424031066299e-08,0.154948108868441,0
9.81337291169635e-08,0.157347722386313,0
1.35971702922589e-07,0.174874471780653,0
2.02659228116147e-07,0.195680336740402,0
2.16653393060482e-07,0.198469887093798,0
2.02475549249778e-07,0.197431999016395,0
1.661604865303e-07,0.182187270997612,0
1.70903985295912e-07,0.18142238893253,0
1.85479046592672e-07,0.191734943245183,0
1.47556077540391e-07,0.177820062516761,0
1.43585558017961e-07,0.173400112502566,0
1.49888576309292e-07,0.174236150360016,0
1.39086603628684e-07,0.17492916714846,0
1.08109051398636e-07,0.167601758228121,0
8.65718288977155e-08,0.146340919423283,0
8.53947561485223e-08,0.143569665566771,0
1.52065982628115e-07,0.181583078106816,0
1.57962551739931e-07,0.184480232393623,0
1.4840921334952e-07,0.179697971246441,0
2.00668238338304e-07,0.192082782241139,0
1.8409416524042e-07,0.186083526956502,0
1.58726553957062e-07,0.174494798807188,0
1.25785834363245e-07,0.155347191858201,0
9.15188069204897e-08,0.13565473393634,0
1.30005418608459e-07,0.161451229589086,0
1.33877891179691e-07,0.159525497044773,0
1.1500493541046e-07,0.143315665573849,0
1.4286077458131e-07,0.157363067834134,0
1.30138864329052e-07,0.15408404863592,0
1.21155726260026e-07,0.151741555114278,0
1.30118490936595e-07,0.151730350311238,0
1.39624461189543e-07,0.15990236516681,0
1.48874681700308e-07,0.165580729513737,0
1.44259407973471e-07,0.165274358572053,0
9.89331937703394e-08,0.138423747875807,0
1.02827249404204e-07,0.14422752958482,0
1.0097358902489e-07,0.14672117993027,0
7.90611777685072e-08,0.133511614400983,0
5.34169976825482e-08,0.118477901352078,0
5.99033765059895e-08,0.120927675358661,0
7.36095762813181e-08,0.129481486651239,0
6.80293040873939e-08,0.124785939517281,0
6.97437250626356e-08,0.125537454426248,0
1.05839964813757e-07,0.145907623366262,0
1.06141491022118e-07,0.147520469173377,0
1.11526687983268e-07,0.144786869805981,0
1.95189069104447e-07,0.18442017448201,0
1.91259041699525e-07,0.184051502144349,0
1.8837512433041e-07,0.178847537640682,0
1.5457216456771e-07,0.166548591196167,0
1.23272267068885e-07,0.151679746450021,0
1.42530980290915e-07,0.157674911713987,0
1.40952551710323e-07,0.158154951384157,0
1.24096880128575e-07,0.147093411296215,0
1.85058845373251e-07,0.175320360555469,0
2.19221777513922e-07,0.192857287742054,0
1.85178093385975e-07,0.177740196409908,0
1.91811606303065e-07,0.181626519711929,0
1.89966859282951e-07,0.183445591442509,0
2.24739083191785e-07,0.20422642469866,0
2.16811095851469e-07,0.208791390451196,0
1.75964672315335e-07,0.190231966059416,0
1.99965037964286e-07,0.197552512511754,0
1.96753172643468e-07,0.198064886864463,0
1.93180698276164e-07,0.204215029332998,0
1.79315395039117e-07,0.198547393062237,0
1.6505402031934e-07,0.191505491653011,0
1.61516435386619e-07,0.187982085445839,0
1.66212502347917e-07,0.194154991575979,0
1.41286611679763e-07,0.176056088984937,0
1.57987700146245e-07,0.174638622124985,0
1.76441409698825e-07,0.183233250476121,0
1.33990899840974e-07,0.166798947512859,0
7.28262193413533e-08,0.129665695861975,0
8.09895193645457e-08,0.133623374388513,0
8.08187012021654e-08,0.13296151006895,0
1.45578266800793e-07,0.165415149794004,0
1.67600694376443e-07,0.16463879973074,0
1.94574747655022e-07,0.166749316596491,0
2.01286570799368e-07,0.168300280946866,0
2.71258223190115e-07,0.192951721860475,0
2.42792264582034e-07,0.181141466206657,0
2.42917242611386e-07,0.18118454151323,0
2.41823764438118e-07,0.180192690675233,0
2.46463231568497e-07,0.18703826941835,0
2.47732493918557e-07,0.187388403467756,0
1.72147207903738e-07,0.163917261816029,0
1.59401931917006e-07,0.173846994703242,0
1.43258246734773e-07,0.169468431469742,0
1.42213919370805e-07,0.168969712492699,0
4.87903912561575e-08,0.118419142107028,0
3.62877496402157e-08,0.110201748447101,0
4.72438597681303e-08,0.121658439934729,0
4.42700448047996e-08,0.116768385657159,0
5.85663726260104e-08,0.124228029517396,0
7.38471809708457e-08,0.132417905322387,0
8.51579154612119e-08,0.142151958285862,0
1.05644889580983e-07,0.149396086123276,0
1.14826222558503e-07,0.154527192266115,0
1.19762122549128e-07,0.161323169228371,0
1.16836312391774e-07,0.161076876880648,0
1.41848471643612e-07,0.171097346380654,0
1.435025364437e-07,0.174116823348409,0
1.29804167691097e-07,0.16616831059959,0
9.73453424957358e-08,0.153887685703451,0
8.20882182196314e-08,0.144089495788708,0
1.09108429965495e-07,0.159515177216605,0
9.28318720643319e-08,0.154215336566535,0
5.7607995511471e-08,0.129480700238348,0
5.92208678586858e-08,0.128814765821234,0
3.20007421993398e-08,0.108597068857139,0
2.98344775795165e-08,0.11000408474142,0
2.95834391843377e-08,0.109771017648329,0
3.11539730753529e-08,0.112394552985584,0
3.90168292266586e-08,0.118537548032009,0
4.72970215890722e-08,0.12418013399931,0
4.02223610584399e-08,0.115716353472307,0
4.18216723663007e-08,0.115882059525685,0
4.0111899071213e-08,0.114523828156262,0
4.61174021658221e-08,0.116004974323069,0
4.4835470112328e-08,0.115003040922724,0
7.46868194074727e-08,0.13551322449978,0
1.84425232867843e-07,0.185573594333425,0
2.06884351377435e-07,0.189956677694267,0
1.79603869542936e-07,0.177396955400314,0
1.75699818213397e-07,0.180724113165383,0
1.79152153232057e-07,0.177448310253396,0
1.86910850414427e-07,0.185741653687764,0
1.88158466035002e-07,0.18420554304638,0
1.62685358778829e-07,0.176143519323104,0
1.64700287292809e-07,0.178511372134947,0
1.55958510257545e-07,0.174468375909464,0
7.12790511848118e-08,0.132105817444065,0
8.88174860812689e-08,0.146387123727548,0
1.40566412256415e-07,0.168128004541486,0
1.42188452630235e-07,0.169130479476235,0
1.4069508296315e-07,0.17412699750902,0
1.29991093566889e-07,0.164066020768085,0
1.18970934586438e-07,0.159446402065726,0
1.60386667108036e-07,0.17578481154132,0
1.62197861697448e-07,0.176645520019902,0
1.69505351903751e-07,0.175831023103978,0
1.70735904808143e-07,0.174383580654193,0
1.32561260692168e-07,0.158862031812694,0
7.05204606500521e-08,0.125389164979788,0
7.64258794542168e-08,0.125839090231971,0
1.3461330698053e-07,0.151714272348333,0
1.54259878661457e-07,0.162029762818191,0
1.77696920008977e-07,0.169296690826685,0
1.73890979297488e-07,0.167149500506974,0
1.94638414506449e-07,0.170106862980691,0
1.73693548391211e-07,0.162157787221637,0
1.60548699244919e-07,0.161458816545411,0
2.393254771881e-07,0.189663112341216,0
2.52243163008497e-07,0.192586201535414,0
2.32201920515571e-07,0.191004317266541,0
2.08785188893657e-07,0.184564899936148,0
2.24219880018393e-07,0.189157311020774,0
2.32736722067562e-07,0.196900607003079,0
2.32222548575434e-07,0.203237703076725,0
1.88677669208394e-07,0.191178912471616,0
1.83920036401766e-07,0.192114083700874,0
1.90640136236798e-07,0.198708883136424,0
1.96870828984906e-07,0.20027903506021,0
1.84296944162217e-07,0.194003619690054,0
1.89015931190029e-07,0.197955105716373,0
1.90954395815444e-07,0.197191473329973,0
1.80896624961173e-07,0.197560211720432,0
1.59227930412054e-07,0.185471186682165,0
1.17155856319089e-07,0.166488057465176,0
1.20479265963609e-07,0.167612014353765,0
1.23577358620926e-07,0.167911634082145,0
1.3629818653671e-07,0.168389544214935,0
8.93072751693013e-08,0.143469378883153,0
8.62264998955723e-08,0.146927156832908,0
6.21950648231252e-08,0.126793592035202,0
6.45632806956766e-08,0.132468743051363,0
6.63243058061634e-08,0.126338184448862,0
2.07392476518679e-07,0.201810515478453,0
2.70196705776263e-07,0.219946096365804,0
2.38238811367934e-07,0.203283527796675,0
2.43826723584029e-07,0.200502793872306,0
2.63728663006033e-07,0.207610983176671,0
2.57444553769576e-07,0.206060163316426,0
2.5474788061051e-07,0.203618282705325,0
2.40667065081381e-07,0.205164627378904,0
2.11919125988328e-07,0.187258427424182,0
2.06735116277689e-07,0.193839685574761,0
1.45354159483768e-07,0.1674276322236,0
9.76865331525361e-08,0.141914662997985,0
1.16659254877954e-07,0.15423546890688,0
1.41391534650916e-07,0.172238172877282,0
9.79401818886235e-08,0.14374501318596,0
9.65491885186335e-08,0.146679930470689,0
9.82550144689327e-08,0.147612832500173,0
7.46865010732157e-08,0.131865257431274,0
9.99740194574773e-08,0.149398133635261,0
1.03817396277606e-07,0.150305582356662,0
1.09443508604558e-07,0.156919073446542,0
1.15637019911432e-07,0.159020036882507,0
1.3904585684377e-07,0.17165593307748,0
9.03459998503423e-08,0.138425852441655,0
8.34124250624734e-08,0.139778638251803,0
8.20713465040031e-08,0.137788657748974,0
1.07678154148174e-07,0.154702631109843,0
1.12185767229247e-07,0.15988582623661,0
9.53377993365213e-08,0.149848076070765,0
8.26611562156279e-08,0.139419891950556,0
6.13623024064525e-08,0.12193255629254,0
5.41679481951364e-08,0.12116862474823,0
5.77689453118799e-08,0.124563156079745,0
5.9799981539271e-08,0.132509626338733,0
5.67378606530103e-08,0.128822486307057,0
7.17343965062217e-08,0.138519137144198,0
5.43767754678185e-08,0.127763532110945,0
4.16424501795318e-08,0.113509106956392,0
1.25276181217568e-07,0.165716157383923,0
1.54679570546068e-07,0.17000431130396,0
1.87386059793483e-07,0.183782758437191,0
1.87703884715809e-07,0.181815019395757,0
1.7980251011939e-07,0.181264338995669,0
1.76539774984281e-07,0.18252866970215,0
2.76332152914635e-07,0.217942143387512,0
3.42339206800136e-07,0.23655525221809,0
3.34765398154311e-07,0.227706944126715,0
3.38527026737206e-07,0.224886667893487,0
2.9905007717528e-07,0.217334780475392,0
2.80333996527968e-07,0.223086466549638,0
1.9224842457071e-07,0.196036077263768,0
1.8802145497073e-07,0.197408883315234,0
1.59966020220654e-07,0.17772996620588,0
2.14730144812558e-07,0.202725815442118,0
2.23759696016274e-07,0.22340558700406,0
1.72976977978394e-07,0.198409351853096,0
1.639907839005e-07,0.191034246037746,0
2.51995180622187e-07,0.241996860340693,0
3.11842466632069e-07,0.251997168479128,0
3.01258043582789e-07,0.251583145960484,0
2.9398773481772e-07,0.240895702076344,0
4.4143589704494e-07,0.273952700584738,0
4.61238006843906e-07,0.263410896719712,0
4.33464807246208e-07,0.245701506817875,0
3.98192098218302e-07,0.230073291649062,0
3.01395054647061e-07,0.204052706623711,0
2.99200076277244e-07,0.20264477604186,0
2.75891578302756e-07,0.196000758471436,0
2.53230317539882e-07,0.19295499334589,0
2.51878479283521e-07,0.188978480696618,0
2.51793484036865e-07,0.186958943915977,0
1.55164966621352e-07,0.158218872032803,0
1.4312836635786e-07,0.160915285490632,0
2.42037653225489e-06,0.356953923917186,0
4.87487881520921e-06,0.354040273011042,1
4.72558851630278e-06,0.33070921256893,1
4.58509786759957e-06,0.31707025255424,1
6.06337040520633e-06,0.301436438534796,1
6.38445602532865e-06,0.262096066648748,1
6.30978658697163e-06,0.265413618586972,1
6.85799357653245e-06,0.276238258694803,1
7.06105893549385e-06,0.280330577702886,1
7.04482879072738e-06,0.233103211538273,1
9.42206803879807e-06,0.251061902103735,1
8.31125128087962e-06,0.231206587896187,1
8.28042684742726e-06,0.236970447880263,1
8.52412267196475e-06,0.246414364079336,1
7.81127091260556e-06,0.208867162057176,1
1.45144328184839e-05,0.29433765038677,1
1.82157816264477e-05,0.263033025327934,1
1.69494291698321e-05,0.239527043654307,1
1.67873007050027e-05,0.23952342239367,1
1.72462554912207e-05,0.274077743264642,1
1.52702256407912e-05,0.309683411292516,1
1.59340867766465e-05,0.359930213035087,1
1.62577112398032e-05,0.363330194866756,1
1.58828035734895e-05,0.349666008171383,1
1.56544942442702e-05,0.399286181353151,1
4.18705478164703e-05,0.205723827913211,1
0.000167960759962685,0.400549989000957,1
0.000250205725970531,0.421112275938338,1
0.000252532805098704,0.343655006041478,1
0.000251136905815811,0.329111614984181,1
0.000228772926273979,0.281487860763855,1
0.000189452793260467,0.244162938235809,1
0.000156724401788492,0.198053381477872,1
0.000139585253869097,0.193998403352684,1
0.000119098497171624,0.182674392121111,1
0.00011815163917318,0.274877296174937,1
8.29162634319481e-05,0.242293426337052,1
6.91433377403145e-05,0.230560532488142,1
6.90204530133702e-05,0.248505484036683,1
6.25035711467424e-05,0.276749458163082,1
8.36280134364433e-05,0.189077062222578,1
0.00012668788312232,0.160927580118767,1
0.000111129404283686,0.148653151750119,1
9.51013225052667e-05,0.127474412264444,1
7.02973553856017e-05,0.10111197209102,1
7.58413489979123e-05,0.0888561999925105,1
7.32654286176032e-05,0.0714939218229166,1
0.000127162736985677,0.0668905933822979,1
0.000160175787725399,0.0704406047190323,1
0.000197079457617012,0.0690747585309266,1
0.000213383453384466,0.0663714794781818,1
0.000229243742321951,0.067327335381214,1
0.000311995618516515,0.0792166840866843,1
0.000442326707013067,0.0935782866175084,1
0.000394084303286834,0.0753628288300373,1
0.000400284433081249,0.0765918452510951,1
0.000277192348295252,0.0560774331154157,1
0.000383414444097951,0.0668717880973973,1
0.000512685623468986,0.0538241525189164,1
0.000510069476143605,0.0480130756508993,1
0.000654360681698352,0.0518342483312876,1
0.000687481921518704,0.0438031809520661,1
0.000651317541428507,0.0378543748139224,1
0.000525904196346224,0.0316589779511755,1
0.000531085462715901,0.0296701805643469,1
0.000471479519913063,0.0235542180972918,1
0.00047780505844308,0.024340590513039,1
0.000551910809915963,0.0298765712295642,1
0.000605675170310889,0.0419589823787672,1
0.000605315534093893,0.0431508869778667,1
0.000610818227974686,0.0451477177109279,1
0.000593221523966131,0.0495475687155994,1
0.000601062327129773,0.0584986060214004,1
0.00059631280700802,0.0622694078046833,1
0.000404153335024451,0.0621948939691956,1
0.000254616757647658,0.0616033547379594,1
0.000387785900269231,0.0794821997372579,1
0.000427887730809892,0.0633255251965896,1
0.00073862975666182,0.0718165063237417,1
0.000699228919101771,0.0663171970823971,1
0.00070490163753764,0.0741873292601159,1
0.000641533337102791,0.0903755900639281,1
0.000541782488550288,0.0601677508367716,1
0.000894277840085175,0.0733451012500728,1
0.000865002839291924,0.0387865226101241,1
0.000905666424364127,0.0197585082350182,1
0.00263397148048944,0.0367452878836083,1
0.00327413575465122,0.0319941795148191,1
0.00331454927956942,0.0337969558741548,1
0.00336082301155057,0.0332004672927078,1
0.00452534625472233,0.0285019172141059,1
0.00756513785605523,0.0372807958979744,1
0.0082464072142801,0.0419925673446835,1
0.00905908913147929,0.0433718711390889,1
0.00753390061584257,0.0304695182833261,1
0.00587642592366898,0.028895240008193,1
0.00634356220946166,0.0297057180226946,1
0.00655784371587361,0.0210668136714452,1
0.00664589829200625,0.0201054391972773,1
0.00598015172983279,0.0180208800685243,1
0.00641258800087685,0.0216656841772299,1
0.00624884554189033,0.0206680648301025,1
0.00772979022913999,0.0231245624980078,1
0.00818352278516311,0.016581352051948,1
0.00812578143542032,0.0192170293027753,1
0.00712160324383749,0.0167156534663291,1
0.00591314823617862,0.0127429791178862,1
0.00585558241518121,0.0106852008768844,1
0.00697427173048745,0.0122272770859763,1
0.00695971413784672,0.0122048100995394,1
0.00683527691796881,0.0116905691253433,1
0.00684460773180013,0.010991246042571,1
0.00564079816653298,0.0086586722353085,1
0.00503501296449544,0.0112817271059095,1
0.00429767004681869,0.00892519965181454,1
0.00567848538812145,0.0124947286078681,1
0.00601158621287985,0.0149128684774286,1
0.00573750471881661,0.0339126205504138,1
0.00334522955567177,0.0165843398419008,1
0.00505184806098815,0.0255768096896956,1
0.00518993402882066,0.0237123029670963,1
0.00631357775410857,0.0115064140262417,1
0.0167111218704404,0.0191650843397124,1
0.0170164404712069,0.0169228651985453,1
0.0168749397762375,0.0170839273559944,1
0.0152821866264182,0.0161150939395325,1
0.0140444028108816,0.0150891870039313,1
0.0136969749252942,0.0142156787874683,1
0.0140289301839908,0.0166838526551956,1
0.0139255086152246,0.0160901165011659,1
0.0139218505781479,0.0166400905928524,1
0.0145815000769728,0.0257855742732493,1
0.00388244449644039,0.0126094087656705,1
0.00319098631551426,0.0107378605769622,1
0.00484162869636419,0.0142931260168063,1
0.00497936697105336,0.0139587025162074,1
0.00603387733952593,0.0157388996777074,1
0.00735393097011515,0.0185423470175068,1
0.00761074513572335,0.0194338356852376,1
0.00711286642721396,0.0187249644312013,1
0.00360771941308513,0.010058167844979,1
0.0027960962794452,0.0138176684661493,1
0.00228233041560569,0.0158411737893572,1
0.00165712700724328,0.0251958951400211,1
0.00157746183561632,0.0313623860456913,1
0.00119738000064092,0.0313800712998124,1
0.00108908320900379,0.0477708135897475,1
0.000870789215854629,0.0404544921518397,1
0.000796684661891554,0.0346983093177554,1
0.000777282724739222,0.0352764724511471,1
0.000666067250512428,0.0403067726222719,1
0.000543766223808745,0.0410774545556317,1
0.000523703918602361,0.0380790313549842,1
0.000394109049000312,0.0204606023441305,1
0.00199927271042687,0.0422771448221124,1
0.00291871705501979,0.0362626122127459,1
0.00808419971246635,0.0376850725458874,1
0.00922720151481265,0.026305679105927,1
0.0101513069721194,0.0202499745938528,1
0.0162800894797647,0.0271950499359861,1
0.0162033707498567,0.0208670091082051,1
0.0143844487498537,0.0191059981548904,1
0.0116757705947488,0.0136890476560039,1
0.0119225592362537,0.0149122779991366,1
0.0164265042744308,0.0182094865870314,1
0.0232182200041319,0.0233226213051476,1
0.0262917462099491,0.0268690542536413,1
0.0281598528329099,0.0213551065941826,1
0.0525773702898278,0.0342734663549341,1
0.0659672855416086,0.0414164036609452,1
0.0773738116496468,0.0526501539314944,1
0.0807946876026611,0.058340949998539,1
0.0758541274674397,0.0635187746786548,1
0.0643037818761286,0.0343656901570748,1
0.0556695638040462,0.032365158395271,1
0.0513181796625121,0.0272673580241759,1
0.0391238419982243,0.0207884034465236,1
0.0257656156853314,0.0181106151282242,1
0.0417165196487306,0.0218734061040224,1
0.0439201370077434,0.0141493086117722,1
0.052090909085628,0.0123540904096373,1
0.064557788483588,0.014837172514552,1
0.0697798330107208,0.0124022964825913,1
0.0850457096738139,0.0127865578327733,1
0.0919632771258752,0.0136554056607591,1
0.11146581914601,0.0174644695568029,1
0.114788077222721,0.0174573635411586,1
0.12701495422002,0.0183514413166411,1
0.141721823359934,0.0220801908161777,1
0.173680406378741,0.0286197661389191,1
0.172176873430058,0.0441230414197381,1
0.125775052454536,0.0321285460124112,1
0.062160593433939,0.0193405020971261,1
0.0540216921860433,0.0291617650748703,1
0.0514808018153875,0.0298329716072599,1
0.048462756087471,0.0286442129192758,1
0.0234427032319582,0.0190343911097626,1
0.0106429808749498,0.0146845960341891,1
0.011697085639293,0.0130396755833158,1
0.0134173922864283,0.0150177303461801,1
0.0133634200883346,0.0150386616755636,1
0.0142506911166977,0.0136007813273679,1
0.0153893326947876,0.0120042501020715,1
0.0135350420598031,0.0107960631516765,1
0.0134069600602607,0.0109710148308287,1
0.01414190159762,0.0106883959672647,1
0.0154743887003114,0.0124949487768726,1
0.0122666638907185,0.01128258762855,1
0.0116299974978859,0.0150595163158382,1
0.0115216026372688,0.0135576390306336,1
0.0118189534090617,0.0131020003668762,1
0.00743011818520877,0.0112681028036897,1
0.00408776513933161,0.0117194321323924,1
0.00563410652240619,0.00962864328930639,1
0.00784413526272875,0.0127673428491585,1
0.008238650330648,0.0102160860574303,1
0.00929760525559698,0.00885096771413283,1
0.0100438831374376,0.00970366945006206,1
0.010273098319192,0.00828965268703406,1
0.0134588489720154,0.0107322246888015,1
0.0151372186461802,0.0123820401815977,1
0.0181870024393457,0.0168333268921004,1
0.018534627628824,0.0148658398293367,1
0.0242808752566725,0.0110143525815995,1
0.0334126727925576,0.0128943697522521,1
0.0322672212577852,0.0141241425412662,1
0.0335518282225994,0.0155041642430176,1
0.0390123156085203,0.0178319181347091,1
0.0736271443133421,0.0263970262627582,1
0.113530624394658,0.03525440267768,1
0.141173929001608,0.0361529198979385,1
0.132178097557113,0.0333136482439004,1
0.104288840940746,0.0234062636928736,1
0.106562024668773,0.0324833014177236,1
0.106370255224251,0.0321706404499925,1
0.0928302325058967,0.0259800308476379,1
0.0846566840242183,0.0206659084741129,1
0.0930280896146304,0.0204854491189933,1
0.0875612838244959,0.0161351828502328,1
0.083067100882967,0.0152662816093666,1
0.0707355385207965,0.0142309614053701,1
0.0724265718659611,0.014432180385992,1
0.075395807871137,0.0192083104287936,1
0.0517421070965312,0.0136181460742611,1
0.043842137546284,0.0111167785906467,1
0.0472237950720425,0.007446263338027,1
0.0633666784883842,0.0111445273572569,1
0.0411035396730445,0.00821632080049576,1
0.0341216553012066,0.0104448051050597,1
0.0363528052197467,0.010282407861474,1
0.04331242685889,0.00786633454630426,1
0.0562674162082671,0.0100317617229716,1
0.0620039467171056,0.0110427441156724,1
0.101432095984842,0.0149290830518346,1
0.162869774525017,0.0219306758088454,1
0.19774400598967,0.0406383418102892,1
0.157190514259553,0.0328921895213789,1
0.143202296836656,0.0291020133562821,1
0.133191495070601,0.0270724205822178,1
0.0790471067805932,0.0189394368616504,1
0.0483397048691636,0.0215559940596891,1
0.0361052193842031,0.0187833374992914,1
0.0189370614840962,0.0136313770891412,1
0.0181329912083787,0.0342271619631134,1
0.0133371679881828,0.0200417233167779,1
0.010078455684783,0.0184429223143734,1
0.0145536582505576,0.0311414533547729,1
0.0160170216279977,0.0344015441106043,1
0.0143681654804477,0.0369840653092957,1
0.0144053870940004,0.0313151144806447,1
0.0147400094559142,0.0318219752462989,1
0.0148105573152118,0.0291821189370373,1
0.00980217976733389,0.0265484246983216,1
0.00736923397934575,0.0200888222687227,1
0.00701341437407122,0.0178733205183179,1
0.00885163621379021,0.0172986005426923,1
0.00831609589145499,0.0128316022259471,1
0.00917760588406502,0.0149943963691972,1
0.0095678583775253,0.0150523243010233,1
0.00888189922880834,0.0151004519792935,1
0.00729695694357979,0.0123586209498095,1
0.00720284569581338,0.0135893681128948,1
0.00809795910303104,0.00863904238399428,1
0.0101911415902743,0.0119827866420435,1
0.011395107457407,0.0200330307539341,1
0.0107456259342733,0.0209729160644192,1
0.0101504322389226,0.0208768717777055,1
0.0100414651170882,0.0199267279504746,1
0.0167471600544907,0.00469381238525008,1
0.0792057067207922,0.0202296022997769,1
0.138036126490181,0.0266206375791773,1
0.140836941183143,0.0204606946444302,1
0.131285857004194,0.0202560268071479,1
0.155095528798957,0.0227408752205379,1
0.165433222141291,0.0255490005974016,1
0.162528193090251,0.0265466767738615,1
0.171057434061114,0.0263183084447637,1
0.119468257639636,0.0112763492350878,1
0.0869918773780053,0.0104007740843336,1
0.0946269158620675,0.0126921029773247,1
0.0926147138025624,0.0126619731701137,1
0.0871195184326494,0.0136624852870678,1
0.0696965396273904,0.0113830279204462,1
0.071137603674265,0.0130148320124848,1
0.0726247141693372,0.0131091062264349,1
0.0735851920067834,0.0125062854756152,1
0.0522921616143349,0.0132063271777092,1
0.0361039621913054,0.0259812057537931,1
0.0294174396590678,0.0262231271914168,1
0.0196085208856453,0.01679928114551,1
0.0562578531869126,0.0313205920169028,1
0.0584340135429066,0.0153974751188108,1
0.0502089338865083,0.0133943222402994,1
0.0526921500622612,0.0132886198953456,1
0.0612548937364506,0.0150705415486469,1
0.0718235911345485,0.0157285801994015,1
0.0684130976416161,0.0143674395461059,1
0.089289118568751,0.0142390849404413,1
0.180030049349845,0.022606166488109,1
0.28058209696459,0.0339256151228413,1
0.27473062830916,0.0316606003552074,1
0.288184458025487,0.0400784627521693,1
0.265473194955076,0.0339337106354671,1
0.225071042801665,0.0289462018698407,1
0.198171441567478,0.025506855336207,1
0.168832137276887,0.0217934758523013,1
0.106054027301807,0.0133550325450576,1
0.0888029607103581,0.0201900833199803,1
0.10311555594621,0.0311548435674831,1
0.104962144591822,0.0323683166531375,1
0.0801132909624309,0.0204913459698546,1
0.0635643579317767,0.0153881334066431,1
0.0643790855162914,0.0186887903243882,1
0.0700610082362743,0.0199514841833216,1
0.0793694050618977,0.0220292262667309,1
0.0818816341951698,0.0273680318249042,1
0.0689053608005748,0.0315264942532563,1
0.0619191491356501,0.0284949966263925,1
0.0473509570289819,0.0233657801701808,1
0.0243346181826033,0.0126416188294618,1
0.0166662384982167,0.0143944753164778,1
0.0156131393459345,0.0179050081763783,1
0.0140630374425259,0.0157534357670087,1
0.0141509908545146,0.0148258462300403,1
0.0152405714949843,0.00729107564318834,1
0.0323541519257909,0.015234043393382,1
0.0329731718732956,0.0157939501210492,1
0.0425570435662192,0.0162868628324689,1
0.0450587906802431,0.0141357115012089,1
0.0503337682006132,0.0148867383736293,1
0.048940493925943,0.0140856460040814,1
0.0484323754977324,0.0126307502474944,1
0.0567482946480978,0.0121030833881091,1
0.0523887932152634,0.00880144475615877,1
0.104956168122403,0.0149377657333913,1
0.191897485064996,0.0242424553493438,1
0.266261713081968,0.0208764047590988,1
0.268806962089475,0.0188840384546893,1
0.255715580153956,0.0194900434060236,1
0.219502901494345,0.0176481829822508,1
0.20758191525277,0.0167462224034806,1
0.199441402007947,0.0164365580621417,1
0.202477272723416,0.0170100294075272,1
0.187695423556024,0.018789313819284,1
0.174674387267389,0.0236192574815299,1
0.118214715106774,0.016772741118939,1
0.0378337967301456,0.00710378976988255,1
0.0880456524059312,0.0228109130499159,1
0.0874030728815648,0.0180700914255235,1
0.0796675930277658,0.0161495302387837,1
0.0759855222948775,0.0167713942087903,1
0.0855443875120254,0.0171914866198033,1
0.094326685236888,0.00968156501674538,1
0.116756041874132,0.011493293722982,1
0.104046820787755,0.0111494512540803,1
0.0804971156675701,0.00857222999732832,1
0.0817429822220248,0.00858991105942928,1
0.0980111773372831,0.00890410241816314,1
0.118939006221224,0.00997288068886724,1
0.118879470007058,0.00997137162781448,1
0.12173679031062,0.00918072846347994,1
0.167553429922996,0.0117983844785897,1
0.213668998313124,0.0256143484051624,1
0.193883286284769,0.0224656067028257,1
0.187744060406774,0.0211041335054088,1
0.18745996997917,0.0223051065289329,1
0.113365035636453,0.014108619367788,1
0.105996278679273,0.0185184095152031,1
0.101098485927649,0.0285789551204782,1
0.0924011828330832,0.0162002048902811,1
0.108753402557748,0.019274267651789,1
0.109732385322628,0.0267227736146448,1
0.111597388857185,0.0270710257115959,1
0.11012727669551,0.0266687027288896,1
0.0981206873089872,0.0248699434433116,1
0.0713480162619894,0.017635888411026,1
0.0467447837276338,0.0126072091162277,1
0.0345398185265693,0.0100189694295388,1
0.0323557079691066,0.00867885200543145,1
0.0311091771400635,0.0186387943378098,1
0.0235552074034144,0.0340580222716061,1
0.0286750702411152,0.0366915965349058,1
0.0300904769810087,0.0436346264824324,1
0.0273356337515913,0.0176986238119248,1
0.0219266776375459,0.0116708188328561,1
0.0252992709755509,0.0103809731986706,1
0.0286785748404432,0.0110154388937102,1
0.0270714011765979,0.0107838521721097,1
0.022700591944888,0.007395116786869,1
0.0294583532299948,0.00939347043203211,1
0.0336438000678729,0.010282799058596,1
0.0355715796131379,0.0107888838234853,1
0.0347218283023152,0.0102918225048393,1
0.0339367226868263,0.014830234404782,1
0.0254135347396772,0.0104589851102408,1
0.025432379772184,0.0179360826832799,1
0.0195899947624346,0.0146370850835167,1
0.0156389677142216,0.013987484899652,1
0.0253992850964661,0.00409639170994433,1
0.122479394701848,0.0192518179167471,1
0.184830183223924,0.022236999394679,1
0.215056277176341,0.0238475335707122,1
0.301101141591168,0.0290285216484361,1
0.389742119967464,0.0357136927195276,1
0.430257888567761,0.0326726721901316,1
0.390446277323274,0.0242773952636247,1
0.299377618638331,0.0196577518583212,1
0.193625984718598,0.0128825466272928,1
0.144468539985246,0.0154092139721957,1
0.180750965170242,0.0219343243115662,1
0.240747539786001,0.0274034591173871,1
0.275880505664655,0.0269129881736906,1
0.249395949742409,0.0415420822123356,1
0.184365358742627,0.0351345032157061,1
0.0906550488574677,0.0185430435546817,1
0.0484622629186282,0.0160718408103754,1
0.0564292559159119,0.00930880066215464,1
0.0860947049827751,0.0142148423687592,1
0.111892113856179,0.0177519707670297,1
0.152719711246959,0.0235400450251505,1
0.169548084137071,0.0271050599178018,1
0.18659609716779,0.0323288879106183,1
0.197575668344867,0.028483884265429,1
0.163016496674083,0.0237000840432413,1
0.134580605584313,0.0214167904960097,1
0.11331648922453,0.0173113194533363,1
0.103848328928662,0.0234704423824203,1
0.123096253443637,0.026463284776942,1
0.128809860942961,0.0310687255251489,1
0.126528337501196,0.0313373277783161,1
0.105812745408998,0.0275055770006533,1
0.074154977976214,0.0207885861534818,1
0.0426112254021282,0.0155839443748113,1
0.0665484849314386,0.0249677006356257,1
0.0945381646062561,0.0323532920247683,1
0.114617566852959,0.0508566578855123,1
0.110921743846633,0.0509747510980629,1
0.116331701299293,0.0533151588184879,1
0.0965013078288924,0.0524923152736019,1
0.071845137887022,0.0272607267394606,1
0.0574973051288374,0.020448731804404,1
0.0552527178412555,0.0223594324375588,1
0.0606391116813393,0.0249585944338941,1
0.073405937603633,0.0364251771311086,1
0.13058763395997,0.0399165119592367,1
0.143911866401043,0.0303123540406628,1
0.122108753194564,0.0282597302068273,1
0.0928237001949416,0.0221991392971052,1
0.0647046999001322,0.0158774869790722,1
0.0472173663233707,0.0114799125847186,1
0.0511204937154871,0.0125384507098325,1
0.0517601901870166,0.0112263911982878,1
0.082632137630978,0.0167326842165133,1
0.118230058101334,0.0221093753055197,1
0.113918757454351,0.0291837332123938,1
0.102150522883255,0.0331412700584248,1
0.0986390268673245,0.0323447431624918,1
0.0859949339011519,0.0280707963135792,1
0.0454294243108549,0.0177325201496853,1
0.0369886412328309,0.0208489980241558,1
0.0226875289419622,0.0180068318912555,1
0.0133259164210164,0.0148749421342157,1
0.0195203326605038,0.0213113593107619,1
0.0221509035409578,0.0238864783073268,1
0.0239039573022034,0.0226005997191136,1
0.0264404830412014,0.0159683796660444,1
0.0471234593290503,0.0207207248430014,1
0.0422678859738122,0.0105956955822002,1
0.0415353444491427,0.0105823717295067,1
0.0429059746398572,0.0103282536675235,1
0.0437014753329245,0.00921048186471919,1
0.0500539439300658,0.0117621838765271,1
0.061567489936919,0.013839790248162,1
0.0605214477411987,0.0119897349897863,1
0.061695141967601,0.00991020122924484,1
0.0794611472725529,0.0138384611836394,1
0.0811745868917854,0.0150939942544673,1
0.0847191198312334,0.017066113896327,1
0.188124689564979,0.0234982415617311,1
0.231551409039711,0.0170153325877772,1
0.228216688101961,0.0167216576746839,1
0.259697541319791,0.0186296780785874,1
0.259774803173591,0.0170689949645198,1
0.205557999854309,0.0147566430970885,1
0.136820782078268,0.0105281453836278,1
0.143893612530723,0.0110765699247292,1
0.166318086545671,0.0123440312473257,1
0.205253902351156,0.0165746422688374,1
0.161384196680213,0.017947732088433,1
0.12122674284589,0.0137647243862722,1
0.284131073429875,0.0187701703370745,1
0.424417990995284,0.0212478564884777,1
0.435597533839509,0.0181871773432634,1
0.428407248795681,0.018374315445567,1
0.449141328618451,0.0182875516151957,1
0.462654590723016,0.0189305375231765,1
0.459788004622275,0.0190282685385715,1
0.403812733167542,0.0174691055284662,1
0.414270894150845,0.0186488702034297,1
0.410111874294309,0.0200771376009873,1
0.275153623654298,0.0243470881781804,1
0.090171111010805,0.011388095995261,1
0.0643578086764422,0.0150415079811101,1
0.0637180997603988,0.012257019185958,1
0.0730059243115642,0.0164782712645273,1
0.0758583876960935,0.0170301199907744,1
0.0782399697959015,0.0181423782081881,1
0.0812224378292433,0.0215655490486352,1
0.109293370348441,0.0257138370962676,1
0.098013279196516,0.0243395845981464,1
0.116396241517626,0.01593069391309,1
0.137915736432682,0.00771549893494646,1
0.153033053870654,0.00857150242771976,1
0.190021851039712,0.0112434954610456,1
0.232625483402048,0.0127712613704988,1
0.262591773833325,0.0141731719884427,1
0.285491746374791,0.0148093042644606,1
0.28009690020959,0.0143027027719452,1
0.288950112641193,0.0151051827491642,1
0.285300912920018,0.0170060033044462,1
0.154149372824833,0.0142417479284218,1
0.0605227293023928,0.0197887846057471,1
0.0670682753627747,0.0187840732805857,1
0.0714938318701536,0.0183970783731405,1
0.0836255714986861,0.0209965337865692,1
0.0768502455173163,0.0164336257536722,1
0.0644242457238271,0.0122496935795495,1
0.0729565245467917,0.0135382603133006,1
0.0522333288399294,0.00952736426698735,1
0.0518474441807607,0.00781729716470283,1
0.0495772707472741,0.00569490187585892,1
0.0533025378046553,0.00618970181611567,1
0.0711180022272927,0.0105077309635728,1
0.0817159106654462,0.0129408112605813,1
0.0823553897975087,0.0131939945160816,1
0.0828759977175838,0.0148759126103627,1
0.0848018806398872,0.0191368711812525,1
0.0710317147549269,0.0165048671914378,1
0.071262134522933,0.0161586714028587,1
0.0439115357077321,0.0166361009841031,1
0.0113118322665612,0.00841473336587015,1
0.00952131511956864,0.0160742997075581,1
0.00514207151290919,0.00977289677965718,1
0.00577046692756446,0.0165320038304312,1
0.00719694492723604,0.0169559058581616,1
0.0124042711429111,0.0235746827613773,1
0.0153270153000305,0.0276963943977451,1
0.0130530678625258,0.0240390826307854,1
0.0133866350571576,0.0282399725870721,1
0.00999468450064173,0.0278821549237043,1
0.00816158531667135,0.0216103285835982,1
0.0101655868244238,0.0240586757670043,1
0.0101913332763932,0.0205477530679104,1
0.0105571240021919,0.0213387263893351,1
0.0105663019638823,0.0205175811937874,1
0.0125317877191196,0.0180021724423132,1
0.0163765630651706,0.0207393772189547,1
0.0166661089527274,0.0179133731387571,1
0.0285192782262318,0.0144945264149287,1
0.0554110759721423,0.0269213189333726,1
0.0969294536364042,0.0343036765633786,1
0.150224972821301,0.043626116276598,1
0.190181216622695,0.0459147857098644,1
0.236537228514048,0.051145494591955,1
0.257246198802809,0.0547866786136554,1
0.250968844670032,0.0659825705839138,1
0.174481169250979,0.0300014300809906,1
0.0993603564340133,0.0205028999423151,1
0.0681127703954954,0.0173147536670266,1
0.0589810353057772,0.015456514880705,1
0.0640283915826642,0.0184646401017565,1
0.0805782916096513,0.0225640387866748,1
0.0884129605958623,0.0343336262012962,1
0.0880386831382331,0.0324787942912358,1
0.0819112881518225,0.0372189405208568,1
0.0377140316937557,0.018926481489213,1
0.0495053464207717,0.00923407619877974,1
0.23820103963363,0.0213101771032759,1
0.441059259786796,0.0274826919045038,1
0.469902509708953,0.0210758219504424,1
0.455268104556785,0.0252491949556057,1
0.420168345608631,0.022467408049193,1
0.386124044947384,0.0212321720002093,1
0.332308147937723,0.0185699891463148,1
0.301919216714045,0.0157429905930601,1
0.30928225419388,0.0159867332600886,1
0.340606230283268,0.026360052350848,1
0.296014857421024,0.0405843344987548,1
0.154454382354041,0.0291933151185029,1
0.121266234476709,0.032760787027998,1
0.104204572902406,0.0309940454216004,1
0.0823672295843707,0.0268064037659786,1
0.127680133540535,0.0150782419708617,1
0.258170632701549,0.0282271338809957,1
0.333314953998145,0.0359357374308133,1
0.389117055345198,0.0374437950111303,1
0.389725416731833,0.0261413836989731,1
0.369593801054138,0.0229522727883452,1
0.335017770897698,0.0184511155269443,1
0.361817433090805,0.0158123916532632,1
0.449012271613858,0.0185406154073898,1
0.538568521794767,0.0216430545626539,1
0.622710289722049,0.0381656480284228,1
0.519691335934478,0.0325353484316468,1
0.419336270608047,0.0282878599775855,1
0.253540364248844,0.0181482312353527,1
0.204055027496837,0.0188440016538429,1
0.139624089670227,0.0211824142239344,1
0.0298492256691705,0.00320115582878567,1
0.0454404755475992,0.0270056001602087,1
0.110562956988219,0.0396706856979392,1
0.150544501252614,0.0323865364206001,1
0.148299612041033,0.0305252931481549,1
0.162134553608919,0.0258685532403279,1
0.138090971733473,0.0222304659758384,1
0.109568365331941,0.0187167812175226,1
0.101132543310273,0.014033533443832,1
0.101847943132709,0.0140106517785064,1
0.115887325792746,0.0169804094999637,1
0.123675949868887,0.0181705205451493,1
0.131479607956272,0.023178500016677,1
0.121699560269168,0.0216515974847356,1
0.102331492203537,0.0229968952125164,1
0.0530182018745527,0.0161020883037745,1
0.0530971207497776,0.0137131952468135,1
0.0353967441029928,0.00919539704897193,1
0.0207654033820533,0.00871095428069574,1
0.0211110241702043,0.00957634048551032,1
0.0205103449896134,0.0107910216903642,1
0.0160262643752298,0.00911606741542769,1
0.0158517406547077,0.0112733869460171,1
0.0162605600426117,0.0137615251770441,1
0.0133468973700014,0.0127916138611408,1
0.0105095996860596,0.00832297664324803,1
0.0204801281663603,0.0183266434322698,1
0.0771625074288056,0.035127318818775,1
0.0912595429307751,0.0285505770944899,1
0.156377774730984,0.0285762327999101,1
0.175635457431998,0.0235423131754442,1
0.220362317121056,0.0186035185541923,1
0.285505605132121,0.0205298756895683,1
0.239251561236424,0.017037404008741,1
0.184661593375176,0.013701472619383,1
0.127251725088925,0.00939297252762993,1
0.095234542649302,0.0070732702906358,1
0.100481956129815,0.00686222034618315,1
0.0985771709568377,0.00606076406521735,1
0.0940747987160354,0.00684590941232815,1
0.0882827995520395,0.00732491068996412,1
0.0936972775837258,0.0175928048926836,1
0.0519440386048319,0.00447234762586218,1
0.129102484734226,0.0103168777529384,1
0.323970375239926,0.0207942594126382,1
0.574836366251543,0.0291419146745461,1
0.595216295888245,0.0111683418092181,1
0.678414901029553,0.0133042614126713,1
0.660617696134799,0.0113844438635458,1
0.661472967585048,0.0109040073009919,1
0.705418593510564,0.0116467411455599,1
0.669409960123997,0.0108588330412659,1
0.678868111455191,0.0130045336845616,1
0.664979962052038,0.014692917846619,1
0.510304503660298,0.0134796952349489,1
0.152245776854094,0,1
0.165601725012779,0.00803973421013968,1
0.150823287714328,0.00459965445324595,1
0.152866600184011,0.00585461901923821,1
0.134178335086912,0.00547295820380117,1
0.13206488801488,0.00596035382380242,1
0.131768931363836,0.00634247406604626,1
0.129935975318355,0.00615048310921308,1
0.134896992020345,0.00658870505795245,1
0.124570618242776,0.00641312280858342,1
0.113796455704647,0.010298274901373,1
0.0994155958767909,0.00474353064327659,1
0.264490320682956,0.0217887452036322,1
0.252963273447171,0.0164534097434386,1
0.253130626513722,0.0157109866145128,1
0.25694828717406,0.0150121158437255,1
0.269606094514768,0.0151584068761081,1
0.270602028121457,0.016779044827309,1
0.275872869195094,0.0161856968123385,1
0.257773821919339,0.00909914009422232,1
0.287622592433489,0.0106311640204306,1
0.301075750275697,0.0139119694106722,1
0.205885420117258,0.0102442746956642,1
0.218467004630755,0.0129442025209655,1
0.251230401907519,0.0151103991659775,1
0.272500142746511,0.0162058915761907,1
0.263073558420469,0.0155009894553334,1
0.290366659999024,0.0163527758386629,1
0.193444645733806,0.0114358242167731,1
0.197971433292591,0.0226134811478674,1
0.250574299460506,0.0265427124520661,1
0.25407332133395,0.0443933830354299,1
0.193653899874201,0.0390651841638433,1
0.167438429931953,0.0341499888839968,1
0.140797545062979,0.027985718205337,1
0.0889925255647261,0.0248720848465306,1
0.0143072795159153,0.01140395675259,1
0.0118701066299111,0.0269578148210439,1
0.0239075072265359,0.0318296846006721,1
0.0244967830877917,0.029300189084152,1
0.0254603987181882,0.023147682489861,1
0.0516377019569133,0.0268703649775812,1
0.066209111918234,0.026811038783425,1
0.105705985300287,0.013954376407588,1
0.281354505980456,0.0333611849005479,1
0.35401982823698,0.0270872395440725,1
0.32674665268359,0.025854652126232,1
0.297571810537553,0.0220515604334993,1
0.281313148304208,0.0225652242752717,1
0.234823211414763,0.018385035034129,1
0.232574764270833,0.0188471135403863,1
0.279424533481554,0.0236414760967665,1
0.298225747928917,0.0223842909420927,1
0.288465463043634,0.0363290493488003,1
0.179616963461339,0.0264831754376291,1
0.0937433770469286,0.0205720328113742,1
0.0814012537073452,0.0190918727569476,1
0.0625180677793278,0.0178656054144401,1
0.0592689222349088,0.0143011029440699,1
0.0483200148573353,0.0141816628179041,1
0.0489094891401536,0.0145535012270981,1
0.0497172802536117,0.0129723655405534,1
0.0512420527781906,0.0193146970448124,1
0.0243510207563034,0.00888742140709167,1
0.0148424147440926,0.0131502059493097,1
0.0187639799259927,0.0122582867674022,1
0.0271244975480167,0.0140771722246092,1
0.086550356800992,0.0258754450095114,1
0.123532825233406,0.024598303329141,1
0.121602227155801,0.0166135376226998,1
0.113672303787836,0.0155832543632065,1
0.100103849303474,0.0144430353336217,1
0.153001220534519,0.0138874715394156,1
0.179752437169598,0.0124265377044132,1
0.147859127130654,0.00969687918072867,1
0.137299656733321,0.00914178979869858,1
0.204584201529655,0.00707811014137942,1
0.350858941625216,0.0134397886136151,1
0.427518573721734,0.0181459208848378,1
0.403641658528599,0.0196890481567917,1
0.392358618210524,0.0173220759022691,1
0.372861203689338,0.0123607834749578,1
0.390008570275997,0.0126003574224371,1
0.467614498417596,0.0161943235323979,1
0.439862794561854,0.0106141751710922,1
0.37069861809577,0.00936407973111203,1
0.37196072249938,0.0141462561225336,1
0.368711746563326,0.0126049741957393,1
0.375078319863099,0.0121713920436997,1
0.393749790144576,0.0106143309188183,1
0.392605916675037,0.0111131929515581,1
0.379079797638744,0.011839694310773,1
0.358166025282001,0.0128380277892752,1
0.225806243225187,0.00744103623354454,1
0.175124101779387,0.00857235969252713,1
0.178082108744129,0.00932509442520275,1
0.207436908725182,0.0108080748620443,1
0.179350894996021,0.0102395022562734,1
0.165229761318547,0.0103882083609053,1
0.150021764007744,0.0133198127574411,1
0.136524516497134,0.0151090412155626,1
0.109474865810054,0.0116598452200821,1
0.0950124599519043,0.0075884929286871,1
0.0876875746273978,0.00795344431905509,1
0.0895968910267279,0.00795790637261654,1
0.0951517295893905,0.00768178673653768,1
0.100874809412374,0.00855586591451101,1
0.119420567458368,0.0107843884328072,1
0.225482873228248,0.0159950006699497,1
0.371658119456316,0.0185900242098549,1
0.383153916971211,0.014041494352493,1
0.38528107280389,0.0158388816338702,1
0.419504650341414,0.0183409367654228,1
0.505837118975965,0.0215140666843138,1
0.520738771330961,0.0184287962070008,1
0.510029549562121,0.0174805222486119,1
0.526194100639635,0.0182716195456075,1
0.578840844504174,0.0203609424773455,1
0.43734912966933,0.0176601194027533,1
0.139076923933176,0.00752965374996823,1
0.117086084886404,0.00916474014784764,1
0.15880565515454,0.0126374465652182,1
0.154369332667134,0.00771392554658648,1
0.165018352018878,0.0079897912706553,1
0.141818531234578,0.00980817832975765,1
0.133213858643758,0.00995578046477331,1
0.138355622466489,0.0099791260305502,1
0.138371744435863,0.0099537100462663,1
0.152278703992276,0.0117652930168924,1
0.147654116925102,0.0108265357791487,1
0.149693013816786,0.0122979476893186,1
0.0693364677615596,0.00551307431141962,1
0.0541346714573717,0.010322435876187,1
0.0719070778369252,0.0143676348820288,1
0.0791792124333383,0.0165059644407359,1
0.0908599065933256,0.0195546160144701,1
0.0938680506083457,0.0219119114096383,1
0.0930388198419002,0.0238953356380073,1
0.0907133958659572,0.0396971779090579,1
0.0287666680451009,0.0286864968401472,1
0.0135932842970394,0.0258864758713332,1
0.00758853103495312,0.0290427482733628,1
0.00767683318097455,0.0311129793393446,1
0.0086126484239904,0.0377612909039209,1
0.0111512682367841,0.0461447590447622,1
0.0382802710791988,0.0230258655481913,1
0.066270298004293,0.0288513121252118,1
0.0831081401241093,0.0312730547846383,1
0.0972315299764673,0.030526096049308,1
0.083464816074448,0.0228791489881836,1
0.0796617730702497,0.0224863632692896,1
0.0736083939764271,0.0190815696405547,1
0.0620216415787183,0.0167046864041671,1
0.0472802015077697,0.0120042341013043,1
0.0408552675280063,0.0104612377381758,1
0.0394905979737832,0.015983004721752,1
0.0431078968289224,0.0170884095577754,1
0.0420770284361605,0.0193131635800446,1
0.0240491692449028,0.0116714179002845,1
0.0232448854772333,0.0158718334170985,1
0.0235069301769765,0.0161066248301346,1
0.0235353262957862,0.0250770812802079,1
0.0171252392121733,0.0186260230594016,1
0.0114876210245647,0.0166444123190816,1
0.00944654403370896,0.0134618110442926,1
0.01215342692418,0.0135275277108489,1
0.0159120280973566,0.0173570088739165,1
0.0151884453864536,0.0200172482088154,1
0.0155759762299943,0.0208714311519034,1
0.0157891039224312,0.0193317791108568,1
0.0164640447457731,0.0149622176186929,1
0.0199845343079026,0.0233262130608276,1
0.0150330588154501,0.0116124481334651,1
0.0141548802471883,0.0106710683524054,1
0.018385078107467,0.00764159201188525,1
0.0236352641636774,0.00912383506868021,1
0.0231586838552873,0.0094531841492471,1
0.022826572289377,0.00888211223837775,1
0.0354959199459046,0.00943050831837506,1
0.0731239491806135,0.0143184146649843,1
0.163119071513644,0.0299349376049882,1
0.242367662264364,0.040340351964034,1
0.274286361776006,0.0533193660832904,1
0.237782684380575,0.0368590438676817,1
0.217154175215658,0.0387772717180185,1
0.207625629320428,0.0417180879924964,1
0.152721359789487,0.0275225854053441,1
0.0759824155593178,0.0178679352497481,1
0.0552763371531586,0.0141175908713729,1
0.0603457678969956,0.00826558761312857,1
0.146531706063253,0.0145983162051601,1
0.16864978866654,0.00742098172975103,1
0.182614861612297,0.00878692396049817,1
0.258616944061425,0.0121622599334636,1
0.295829380539105,0.0129293396327152,1
0.297831052365283,0.0120196730373837,1
0.358816082005659,0.012901386768611,1
0.393000552364518,0.0124827712526516,1
0.384427427273173,0.0117078050328549,1
0.375449906621811,0.0143183915283047,1
0.263251416705577,0.0117826374982314,1
0.273314331797959,0.0131638280528124,1
0.411874841831091,0.0149989655214493,1
0.322297104010152,0.010506750951736,1
0.253315357115475,0.00763104458001966,1
0.289673088395819,0.00667823434962507,1
0.382396997030694,0.0083562466139761,1
0.390587080890987,0.00976128309030531,1
0.383509451101391,0.00888417887046824,1
0.38941954067131,0.00885406236727912,1
0.369922336587214,0.00755594083476711,1
0.375919857869699,0.00869915473404271,1
0.415404273089963,0.0106951650357024,1
0.506130362604457,0.0143886312169785,1
0.58842835294748,0.0179934476374765,1
0.540582506890286,0.022924342308692,1
0.359690075508188,0.0200987926012016,1
0.315210158552751,0.0164129212402107,1
0.208066059217554,0.0138980429721055,1
0.209232398240538,0.0145403307953259,1
0.172092846998825,0.0143969444598597,1
0.166453646990465,0.0210929326357289,1
0.160359056047536,0.0187296174320434,1
0.132898655270252,0.0142178790944226,1
0.105970765212517,0.00899040291569981,1
0.0885694690148606,0.00745277479928256,1
0.0852599927916975,0.00544291107025893,1
0.0990962563767961,0.00868071852182567,1
0.0899931833768972,0.00621630880902767,1
0.138527966944858,0.0105157852566107,1
0.150612432955418,0.00952600480878495,1
0.140436357430037,0.00987675970531535,1
0.141335214433858,0.00990049663398334,1
0.145340537204225,0.0107882273407358,1
0.166043399863805,0.0109945535404839,1
0.173489368533829,0.009730865424281,1
0.169845489370443,0.0105935792699043,1
0.1533070784908,0.0100329384850387,1
0.152802017214915,0.0107575999992327,1
0.102247729312831,0.00731877021894159,1
0.079410163626707,0.00811275493862775,1
0.0977160486337233,0.0098081178806258,1
0.0980654231261624,0.00931887222998914,1
0.197226323288923,0.0163037349443744,1
0.176775331683099,0.00945788818486768,1
0.172293415998878,0.0102753927543399,1
0.170142682830105,0.0094053714097036,1
0.143747063414026,0.00731466248690292,1
0.148926609616158,0.0073691665392329,1
0.158913072426316,0.00678404036340579,1
0.167791301483591,0.00636107739607653,1
0.196182658715726,0.00693900433052674,1
0.229217548905447,0.00590524130420192,1
0.19838566987355,0.00361832237669336,1
0.20072546153665,0.00551050406802862,1
0.187762036275214,0.00495964916291804,1
0.221553932883882,0.00606924965414695,1
0.224334863796226,0.00628760498960385,1
0.347699206711205,0.00962559727566503,1
0.436514203515612,0.0102806650147781,1
0.428641396695548,0.0101568824753387,1
0.393946712035394,0.00929238763968166,1
0.379787088703211,0.0103291203803057,1
0.479915328094768,0.0131572659050087,1
0.66144637060831,0.0167665555947782,1
0.799753663833817,0.0194521158940575,1
0.901856446702804,0.0225194574670382,1
1,0.0253416375092121,1
0.831855168399762,0.0306227570499081,1
0.555092603006487,0.0273303009976437,1
0.480484810749715,0.02433731058658,1
0.334642034914187,0.0244343606174396,1
0.0363482028866258,0.00152281390737861,1
0.00725425410925636,0.0414653020348709,1
0.00737707218114551,0.0480901049368806,1
0.00517654907383258,0.0711850119610702,1
0.00396572096202397,0.0243467749987852,1
0.00640574775277982,0.0473778793602915,1
0.0100075111810647,0.0485682832371949,1
0.0172607205414825,0.0657007895432241,1
0.0242729411547678,0.0574165123360686,1
0.0373505901364903,0.0707756078818851,1
0.0390572783244752,0.0568732602239532,1
0.0321928449161454,0.0336045610605878,1
0.0262225674072259,0.0124517107521895,1
0.0552773214854658,0.0177685318389563,1
0.0631258039656951,0.0133611909159361,1
0.0573046580959783,0.0114958460975363,1
0.0522853161923512,0.00863989843963922,1
0.0666369811673209,0.0114272426473087,1
0.0709110111866346,0.0120492233640622,1
0.0714659772920321,0.00996966546269381,1
0.0810148124550528,0.01124021284101,1
0.0720890647356433,0.010503441256884,1
0.067189775675936,0.0130741637099347,1
0.0613822600441827,0.0163018197607475,1
0.055831371385716,0.016897664166134,1
0.060827415700047,0.0176526382455436,1
0.0642449924316632,0.0236821936119507,1
0.0492666220656851,0.0169392219408727,1
0.037750031061591,0.0135081887832682,1
0.0372981466597832,0.0175246986854299,1
0.0398971713195101,0.0195576875993748,1
0.0398139078921974,0.0196374778411751,1
0.0408005730139484,0.0189108009574811,1
0.0426306419164429,0.0177199763338622,1
0.0428951593305629,0.0185465109595642,1
0.0363631960532292,0.0202149548162858,1
0.0228156912266139,0.0106481202405668,1
0.0224290065460887,0.0128261034221888,1
0.0254442083647582,0.0133832414642935,1
0.0251616066983601,0.0109074253054172,1
0.0264154866448433,0.0115614351059587,1
0.0273723976512883,0.00778431593163371,1
0.029605499860411,0.00965284903984813,1
0.0299219374061539,0.00662854127918243,1
0.0400396728408306,0.0103699140989998,1
0.0509749309579313,0.013311371823845,1
0.052285158394824,0.0112805915209518,1
0.0494913142212503,0.0112347048900244,1
0.0497538946979217,0.0119545291267439,1
0.0497541335958759,0.0121736477356241,1
0.0488854999737585,0.0114400869534263,1
0.0554995449983404,0.0152220985246689,1
0.0615238325569521,0.016126078778067,1
0.0608795945430031,0.0220852953676728,1
0.0458783193308358,0.019726452146598,1
0.0185483744658136,0.00859211484669645,1
0.0161887157491616,0.00378423509436926,1
0.0586893918568183,0.0167502916898327,1
0.0590862191908177,0.00893893250387112,1
0.0616447979284308,0.010729443094671,1
0.066005719346482,0.012022217241532,1
0.0651064321472747,0.0121235662962658,1
0.0609240806644429,0.0114754782096262,1
0.0646889035558246,0.0127414558503444,1
0.065510274518435,0.0119559177800966,1
0.0655417556899759,0.0118428289282265,1
0.0616746375487639,0.0196019416636664,1
0.0131758874114223,0.00302816608266649,1
0.00675941798437754,0.0181941256298574,1
0.00681616233885839,0.014299947610802,1
0.0056116012994188,0.012072196891999,1
0.00565799631560593,0.0111909356453908,1
0.00769038967929044,0.014792411280185,1
0.00772810768844926,0.0153487199993061,1
0.00759963951462722,0.0190058704434973,1
0.00594174207761615,0.0127228966595596,1
0.00762699955742427,0.00564086751879858,1
0.019155630564393,0.0148275004946758,1
0.0205554923419841,0.00931226566680758,1
