Activity,Complexity,Tag
0.000109519207267225,0.0921162669128402,1
0.000103723370297295,0.123653997632284,1
0.000184131568086987,0.141968273690748,1
0.000192212191646379,0.0916124120177529,1
0.000206424665934639,0.0955202019171797,1
0.000233068647616388,0.0890278287504555,1
0.000235194651161961,0.0793584544821892,1
0.000238552813224379,0.0792318619692402,1
0.00021383126918581,0.0737738580398918,1
0.000188939613316818,0.0688678853769455,1
0.000189786480982292,0.0689884714059996,1
0.00019570585399855,0.0687996783050219,1
0.000165481815880375,0.0741905765455198,1
0.000137582224917941,0.0854506701426959,1
0.0001302831069804,0.0815537654828804,1
0.000101687559499449,0.0853294011387362,1
7.83539063352938e-05,0.106299176582446,1
9.13476499355986e-05,0.126247569798362,1
8.78373331461313e-05,0.101103365703781,1
8.71377751571842e-05,0.104442172348659,1
9.82358834405661e-05,0.133251284013934,1
0.000104932668499085,0.155979296386742,1
9.23135247839484e-05,0.144995846974558,1
9.14683013529064e-05,0.149061092492279,1
7.68475143622836e-05,0.147055553020569,1
7.70776746082773e-05,0.168352716274215,1
8.75369292240627e-05,0.193058963578531,1
4.48544963023301e-05,0.146425258419477,1
3.54659664082107e-05,0.211266972806762,1
4.10432404259346e-05,0.22829196845028,1
5.26392168528665e-05,0.266686412559856,1
5.01898757007946e-05,0.190003274236034,1
6.16896339456926e-05,0.137007113580194,1
0.00010864791612851,0.144771079709513,1
0.000110098460339614,0.131228715315669,1
0.000108493025874631,0.130079578177764,1
8.86324496092784e-05,0.115620696918297,1
7.95798001966734e-05,0.109169854076379,1
8.23921700407167e-05,0.100823833313126,1
0.000122517511380516,0.123019858272173,1
0.000129714080715291,0.106667728609549,1
0.000126822423957181,0.121339479798389,1
0.000104664646366863,0.146320429958535,1
6.87708971407451e-05,0.156815577236066,1
7.3951606496217e-05,0.156916212890264,1
8.0277097812845e-05,0.145783055561133,1
9.15560568809452e-05,0.12468472019881,1
0.000172481629203387,0.165828222830727,1
0.000186903596283206,0.157562066747056,1
0.000146772687194255,0.14360215295855,1
0.000135807377481255,0.167466372455007,1
0.000136824207052893,0.156634487026583,1
0.000148091263121473,0.156782999927006,1
0.000155350258080702,0.139818388717496,1
0.000164699396737863,0.145945234925062,1
0.000165157841070095,0.1396849603568,1
0.000163960816619517,0.142614251175319,1
0.000100475772801613,0.107911939016542,1
7.92795003686915e-05,0.10842181920908,1
7.71308763457717e-05,0.105600331179421,1
7.4249790326736e-05,0.0937392747061453,1
8.62819734857171e-05,0.101864907622945,1
7.78230516697166e-05,0.0998106275701283,1
8.30203491834271e-05,0.113685207976109,1
6.7232941436154e-05,0.0989721000315372,1
7.71730795616824e-05,0.114888006304236,1
8.37475408127075e-05,0.111722956773354,1
8.14391713123211e-05,0.112389427321281,1
8.42179197939949e-05,0.11380446593242,1
0.000102426849574402,0.12834911973609,1
0.000102019462107139,0.134327876249113,1
0.000101124838993096,0.128754973053228,1
0.000114497391866685,0.136039721904272,1
0.000118766914406333,0.152813443633193,1
0.000128357421355101,0.156972165556313,1
0.000127709717018435,0.148840799344006,1
0.000124421087853418,0.195349035825622,1
0.000133105975016208,0.209500966240766,1
0.00015149881798209,0.213312666617407,1
0.000138770433226214,0.191992170970899,1
0.00014784811156355,0.202134054149165,1
0.000125808377386673,0.202160133755601,1
0.000104248606964946,0.19649903048147,1
6.47136610806414e-05,0.161913137106693,1
2.30583454734574e-05,0.119750525800333,1
2.07749444759626e-05,0.162554484116475,1
2.00237941489124e-05,0.181370328600164,1
1.56897069695033e-05,0.197962738027749,1
9.80117118414325e-06,0.175096355828107,1
1.94173546400046e-05,0.266188396041614,1
1.90078466539162e-05,0.195588568100285,1
7.77648098465789e-05,0.153319742537754,1
0.000126138886901045,0.151535537365778,1
0.000120485200527968,0.136223914328202,1
0.000140476407165059,0.125548807277549,1
0.000149021718338436,0.0981601505603807,1
0.000175112909863619,0.102679971080231,1
0.000170689759146667,0.0876315589319893,1
0.000160968017607772,0.0739975803049785,1
0.000173237246636192,0.0754884386511086,1
0.0001645444742179,0.0750272131351804,1
0.000134575262636658,0.0891747317271526,1
0.000112575200946014,0.0908813569118913,1
0.000117120291565714,0.0997300393547669,1
0.000102680012455598,0.0997603059971826,1
9.64144844707272e-05,0.113710577431098,1
0.00010677720913601,0.109122666008699,1
0.000114970739327707,0.0947405078308068,1
0.00013191344058647,0.121899072121482,1
0.000121905120423227,0.116907325494583,1
0.000128220378869839,0.124602900660275,1
0.000123943832599684,0.129042650965401,1
0.000124339291788903,0.125109796510025,1
0.000136618989106443,0.10553373259313,1
0.000150337859306647,0.119276501460869,1
0.000248959137076121,0.131310311142168,1
0.000280849560497622,0.0787028681038202,1
0.000334920868547005,0.0987568600131608,1
0.000311128392386542,0.0739206110742247,1
0.000322114126428007,0.0665204315591462,1
0.000378769309889098,0.0690965998982367,1
0.000498463593066212,0.079840263996486,1
0.00054959649501474,0.0800807319962563,1
0.000540067436562421,0.0881790864383962,1
0.000554607720289814,0.08694757183308,1
0.000388886395219721,0.0830155613115769,1
0.000330306839075229,0.124231711374241,1
0.000381084487738742,0.140185640778264,1
0.000334970684811869,0.113637483675486,1
0.000246478659050154,0.0896300183743614,1
0.000243367141092366,0.0918987018831981,1
0.000236392856612871,0.0828813284879434,1
0.000244144486033503,0.0856427809107309,1
0.000258981482196326,0.0707080821538121,1
0.000309487461838049,0.0673335914363162,1
0.000337753357630329,0.0664161344970407,1
0.000352675024827414,0.0702341637095484,1
0.000302386629776794,0.0619328851888877,1
0.00027524599969168,0.0795265292762778,1
0.000203927248111772,0.07619209474376,1
0.000252698500315132,0.0786753875887037,1
0.000255892180876041,0.0716511147400008,1
0.000256970596948431,0.0720888650397548,1
0.000230388267840976,0.0814248959400133,1
0.000169464606994189,0.0865048227824665,1
0.000160723121728902,0.0826788103887152,1
0.000143230776256771,0.0708512173751344,1
0.000159755762024135,0.0836579006964869,1
0.000183093259476415,0.101455986357548,1
0.000206790526848934,0.126613306716847,1
0.000129794060322583,0.128740551157369,1
0.000109976136943153,0.168666146798363,1
0.000225997712342713,0.112312237726743,1
0.000398508173141874,0.112981946261364,1
0.000392732307233857,0.110444838716879,1
0.000391661176514426,0.117656255222256,1
0.00038877638225916,0.124617729219769,1
0.000381599155105934,0.118153004577514,1
0.000376901431111351,0.1192413760092,1
0.000378327832892972,0.119483831887221,1
0.000384647164059254,0.122017624776226,1
0.00039329616188279,0.125288439079349,1
0.000310423966740261,0.295681831500229,1
8.25875520721926e-05,0.433849854756124,1
7.3690881020359e-05,0.655424922462127,1
4.29046646510088e-05,1,1
9.14057110070105e-06,0.751146004202766,1
1.34385496547943e-06,0.41537665485939,1
2.80411589201255e-07,0.237788377982785,1
2.52761918584083e-07,0.251557889506662,1
3.27431391605765e-07,0.291775495484596,1
6.43463093499529e-07,0.383442418935249,1
8.36095211994407e-07,0.436549962701453,1
6.10193678066293e-07,0.368113271143191,1
6.61559948064467e-07,0.380594290140568,1
1.52042648648621e-06,0.529320592774461,1
2.41299751868512e-06,0.619694077851096,1
2.50136548577215e-06,0.644557741262497,1
2.59764665860066e-06,0.535174918216435,1
1.26863994901705e-05,0.560729614696722,1
1.63335488298369e-05,0.406997470513648,1
1.49145519089963e-05,0.388681805702677,1
1.40467014240812e-05,0.376124474573176,1
1.42138977980146e-05,0.383639100662327,1
1.41422747982245e-05,0.388182384453926,1
1.53535515069666e-05,0.357630764738599,1
1.6396571685121e-05,0.342225384323516,1
1.61616800392057e-05,0.343639076296389,1
1.57555535181773e-05,0.351245014044065,1
9.24013591275496e-06,0.366757186060251,1
8.44645159105311e-06,0.514097621603429,1
8.95444748294964e-06,0.485458183418932,1
7.37818977863291e-06,0.43960995826635,1
6.04108643986808e-06,0.385139211059258,1
6.38564300422013e-06,0.337363294685985,1
9.29140867276422e-06,0.510380454894634,1
1.0293106170277e-05,0.58622291993947,1
1.08536037078501e-05,0.601368309632907,1
1.09683563917485e-05,0.602913038783989,1
1.4689771159078e-05,0.52364230022139,1
2.19249274421494e-05,0.537540932612333,1
2.15727363523744e-05,0.470268937714775,1
2.20973324252225e-05,0.430860759068413,1
3.01413570997857e-05,0.426514696270501,1
3.94671432299725e-05,0.487189692855851,1
3.42143554502371e-05,0.409086318431015,1
3.10774563125072e-05,0.36644000272698,1
2.74531393376564e-05,0.330199423002825,1
2.87001704640971e-05,0.291460767946779,1
3.44629651142814e-05,0.313363810929014,1
3.23339891841599e-05,0.327570032726298,1
3.13682777213951e-05,0.325886430652711,1
3.03964273792385e-05,0.343483172018027,1
2.8854388062605e-05,0.393106717699842,1
2.58045484714251e-05,0.376380280993939,1
2.61825214982369e-05,0.410385672604676,1
2.15091110255905e-05,0.391975373666816,1
2.2657043656823e-05,0.2887581883594,1
8.52247063928263e-05,0.30469898281436,1
0.000127826675921522,0.246754757067527,1
0.000132509000156791,0.195691843425038,1
0.00030269753918646,0.196785851552801,1
0.000335559572495861,0.119578221808126,1
0.000329672105190572,0.114871825810008,1
0.000336479712533467,0.109860557301204,1
0.000361532389109554,0.100299639411744,1
0.000336095743563961,0.0804558374101512,1
0.00032967882177673,0.0820297733651918,1
0.00035202363999924,0.0940861728826795,1
0.000342043719230657,0.0979431230073532,1
0.000337210810927877,0.103565695439719,1
0.000217674797722812,0.105047248861359,1
0.000163687941318871,0.12856158221035,1
0.000146474819859083,0.118524942889206,1
0.000135110194851542,0.119105045303239,1
9.34438817503563e-05,0.126432262741698,1
7.08512374980605e-05,0.150703902388163,1
7.00105760186194e-05,0.154508191898959,1
6.71561559656693e-05,0.148355907828642,1
7.07333478109303e-05,0.129651051197872,1
6.78417777807661e-05,0.123751099722857,1
6.36174637242095e-05,0.133279136239298,1
5.90954036899499e-05,0.147333135567799,1
5.85107624897938e-05,0.131964512067862,1
6.06606952415251e-05,0.122495582042224,1
6.45056303331733e-05,0.132867315644107,1
6.63433444326349e-05,0.144743734410544,1
5.90521005499502e-05,0.13571345833024,1
4.40409762513027e-05,0.1061878929541,1
5.11853974287112e-05,0.134865073728803,1
5.5494503774241e-05,0.138582304788136,1
5.73896586964409e-05,0.125595469299277,1
6.09800764506695e-05,0.138966652139271,1
6.10983424384363e-05,0.159824563239432,1
4.81994841431696e-05,0.174139530467492,1
4.62841719611441e-05,0.185832388123714,1
4.75860459767634e-05,0.176255599248047,1
5.34477817993065e-05,0.108766023196689,1
0.000115950890993438,0.14490700547861,1
0.000105835744813366,0.119061933446654,1
0.000107690370553973,0.108541006703106,1
0.00013347304796382,0.128659744262524,1
0.000114770067302574,0.111874415984663,1
0.000103133710693482,0.10385886314818,1
0.000116209477556748,0.101319295370478,1
0.000138442616285731,0.107883386974853,1
0.000131554150136132,0.104884910318048,1
0.000126445589388794,0.134396170708603,1
0.000108210117568726,0.150092561585827,1
0.000101561842717973,0.176045863774786,1
9.62413462049281e-05,0.202721791769099,1
9.63490562508058e-05,0.210531873463845,1
0.000101309942735419,0.19564709481573,1
0.000124648938505445,0.207529359135869,1
0.000116591916456216,0.211151101149814,1
8.00982832852035e-05,0.179988460170477,1
7.97725647705262e-05,0.185163095743895,1
7.86314453181878e-05,0.201172417590719,1
7.27270289677579e-05,0.191080472299992,1
7.60359314066416e-05,0.158451282171693,1
8.36313442729257e-05,0.16982936494069,1
7.60388300107808e-05,0.146134146155308,1
8.32031576151765e-05,0.172966824107921,1
6.08527076251376e-05,0.154272146351359,1
5.83031624020657e-05,0.149607440619105,1
5.86417529263681e-05,0.11766996161495,1
6.19866848667308e-05,0.112687359528893,1
6.34073724687223e-05,0.115959623612915,1
6.59188049727274e-05,0.118211424511822,1
6.25351414004812e-05,0.131298902688318,1
5.08757359149839e-05,0.121319947332305,1
4.96537684455555e-05,0.123058531160421,1
5.66117693422037e-05,0.11435673361422,1
5.99930035043867e-05,0.123555955690401,1
6.82749352651116e-05,0.121626846921303,1
7.33576874610309e-05,0.134952836564474,1
6.45097455947504e-05,0.133991156208259,1
0.000173212407916945,0.140783535836877,1
0.000358812183224356,0.135473231289294,1
0.00035899454445229,0.119397702083753,1
0.000355899269385089,0.106207510769715,1
0.000369313470888424,0.108480522559805,1
0.000339933737234444,0.109206465856284,1
0.000274199323992267,0.0822254470142773,1
0.000260068488342915,0.0815972016027348,1
0.00024965369998753,0.0852986640327978,1
0.000222063632123488,0.0801370229490057,1
0.000197914052618844,0.104344197585267,1
0.000117300907958911,0.117675578088831,1
9.00864636575205e-05,0.126504475530233,1
8.74712935352758e-05,0.150013556407638,1
8.32600240194117e-05,0.135231756458677,1
7.41050039812948e-05,0.132498466738881,1
6.17650970205211e-05,0.174114811503931,1
7.03673936949218e-05,0.202759780351472,1
6.86961684789832e-05,0.187383218468775,1
7.5484034219091e-05,0.148596942035286,1
0.000103722411357496,0.117271297919048,1
0.000112436906351725,0.0880341206754197,1
0.000248210496927103,0.101313810854468,1
0.000448931990591509,0.148208964337036,1
0.00065822202012503,0.183384001179542,1
0.000705721777755756,0.199785073604323,1
0.000626603378964887,0.188098344200616,1
0.000506245554352768,0.14047575069455,1
0.000437958809187092,0.119687122304688,1
0.000395601339301533,0.100278535481781,1
0.000480110149557946,0.126788644790306,1
0.00037705031062535,0.0962180818411229,1
0.00038427826818065,0.0893686265913458,1
0.000457991273664382,0.100877171281527,1
0.000463161717267204,0.0991412286493997,1
0.000526638066300273,0.107896690867277,1
0.000556320089181558,0.110702944025345,1
0.000590823311270883,0.126839975877661,1
0.000522024697050122,0.137592724535251,1
0.000404632733379871,0.146369274422585,1
0.000407700268349213,0.151495626393021,1
0.000333911143165567,0.130307638338274,1
0.000738145337281047,0.198886896850683,1
0.000925018427934162,0.104161202317554,1
0.000922840815711927,0.0960714088913916,1
0.000895532457068009,0.0851975913255008,1
0.000793965095000009,0.0754820047919699,1
0.000742733799169453,0.0652404389212223,1
0.000767336915170527,0.0654196247026859,1
0.0007491308270662,0.0624360412061924,1
0.000699674230392205,0.059511607765896,1
0.000677867373286154,0.0704630323849736,1
0.00049306489147774,0.0635002897045081,1
0.000519605829878606,0.0840724087504797,1
0.000504690148656667,0.0914870763074314,1
0.000501657656709801,0.0994092753358634,1
0.000510933355087881,0.0993764494097755,1
0.000616962942717202,0.0903038552318492,1
0.000756982833294415,0.100809092586614,1
0.00099637916858183,0.108605966936533,1
0.000961458644911255,0.0869870369390772,1
0.00115071941633252,0.0818346578187918,1
0.00121713532996273,0.0911746902653618,1
0.00130967407561009,0.123987577477107,1
0.00112238837069237,0.100566981657417,1
0.00106671839049157,0.0675773392998912,1
0.00128541161536822,0.0722377577553485,1
0.00118774529284383,0.0531708920700378,1
0.00117105845762425,0.0518002183427608,1
0.00121986518813394,0.0425878774682035,1
0.00209535390485862,0.0534380431241746,1
0.00415619917596851,0.0698536446340509,1
0.00582070374063324,0.0748646926732987,1
0.00915895247225197,0.0647051311321516,1
0.0175949483362766,0.0939682265551676,1
0.0205592412236299,0.0679995397615469,1
0.0267143126431295,0.0490004735005104,1
0.0304838266288763,0.0366446452834617,1
0.0235946097072031,0.0301314126629035,1
0.0168392779751733,0.0189258196037873,1
0.0167873517865774,0.0186156571989352,1
0.0186286299764155,0.0213960018733379,1
0.0203993837266426,0.022725473504194,1
0.0233090628551176,0.0299795077641862,1
0.0226311819424071,0.0287449643515185,1
0.0210142458010938,0.0277485639414878,1
0.0162909448047326,0.0401069164267776,1
0.00762935267116625,0.019930996575995,1
0.0113387729722311,0.0220404303448296,1
0.00962110339904869,0.0158788698475039,1
0.0106956917509194,0.0170036107252614,1
0.0105349451144083,0.0156977480622394,1
0.0104489675593004,0.016025617159572,1
0.0104514942847979,0.0157201792114939,1
0.0115081395225958,0.0188552303666168,1
0.0125123987170061,0.0128477903516445,1
0.0136329560619266,0.0115288715423395,1
0.0130978528409072,0.0170587106097772,1
0.00818846576961658,0.0126314099100974,1
0.00818931448682743,0.0148753564649422,1
0.00817738483850161,0.00921125467763627,1
0.0111326411942761,0.0120493969283686,1
0.0128553271766808,0.0122353098546208,1
0.0130246673865147,0.0122174142010339,1
0.0115109512089949,0.00868580879823556,1
0.0111712871254878,0.0112404626286692,1
0.0129150932682296,0.0111340524237396,1
0.0181159046755381,0.0115136553958147,1
0.0192668813821388,0.0112843266217196,1
0.0188118738087588,0.0119220057747123,1
0.0166699563665313,0.0108620679956462,1
0.0173136414120522,0.0122760629598628,1
0.0172059864179712,0.0134169652854613,1
0.0177875308599505,0.0138613685709041,1
0.0194325397784802,0.0176288361269066,1
0.0201546140281993,0.0175109921407936,1
0.0192905127674083,0.0204255739529646,1
0.0113952936491773,0.0129745363582092,1
0.011510437026441,0.0154685607825629,1
0.0107166122918867,0.0177282618211563,1
0.00934707378859595,0.0213826421246859,1
0.00881271161831096,0.0202920512105985,1
0.0119302405779096,0.0236126423351947,1
0.0118263669870007,0.0195087125690696,1
0.0101793841461804,0.0160297789582646,1
0.0134465969896197,0.0197828244519624,1
0.0144683203106537,0.0198358342104833,1
0.0141498612500594,0.0306980504224314,1
0.012531171527536,0.0252118126774806,1
0.011433292105717,0.0196044684064515,1
0.0100442524949995,0.0130858462978951,1
0.00877576691597137,0.00975541539848654,1
0.00885048681286732,0.0111626001086462,1
0.0084954159709779,0.0123314448236416,1
0.008322753590357,0.00947529209575685,1
0.0112887558211943,0.0150170432756271,1
0.0105536912455108,0.0173321570030979,1
0.0105925133835546,0.013929790879698,1
0.0118325914335812,0.0134990780882139,1
0.0123107117534635,0.014470848792353,1
0.00997551508810158,0.0144910026263227,1
0.00852345160263561,0.0143036102337504,1
0.00934775406657208,0.0144948209810134,1
0.00969469219470038,0.0155235523111186,1
0.00952590556513108,0.0198346270152799,1
0.00755908521796747,0.0180987517780202,1
0.00754789634138752,0.0166996680577801,1
0.0105933028109111,0.0206136880150514,1
0.010089630395893,0.0175297625284556,1
0.010505065379761,0.0199585160101352,1
0.0212583586494098,0.00981645099617519,1
0.0631539017519237,0.0267408274899589,1
0.0694677267383947,0.0225839011693786,1
0.070624600417437,0.0221739592628504,1
0.0714418226501793,0.0182303835103103,1
0.0731337870360355,0.0190142387182615,1
0.0765156829920443,0.0202977580175109,1
0.0822010046241369,0.0224963941006855,1
0.0855474337560146,0.0245548731400097,1
0.0918671878192696,0.0261057326131771,1
0.0889927685585157,0.0273875516720388,1
0.0535878313961575,0.015374930455738,1
0.0465643360268358,0.0161951098449947,1
0.0398804002753609,0.0151357306718314,1
0.028767591374175,0.0136458154275703,1
0.0320908333810887,0.0149130211928726,1
0.0337225937445865,0.0152477118467257,1
0.0344582479559311,0.0156022158264511,1
0.0351549376839083,0.0165215438444467,1
0.0345937580330971,0.015588071749322,1
0.0268039285954532,0.0352843320525105,1
0.00355600348192342,0.0313856578916915,1
0.00358293837811302,0.0334276072076325,1
0.00387076152145694,0.0239462143078724,1
0.00424191953031058,0.022279720202662,1
0.00428020406853577,0.0164646609697069,1
0.00547584674975232,0.0199581789242754,1
0.00556234144346007,0.0170001411283462,1
0.00656854885323748,0.0173286627947752,1
0.00539628833282391,0.0130076730106343,1
0.0091116851630875,0.0203101766031999,1
0.0101994551256752,0.0118139689448271,1
0.011326186914097,0.0135245917009184,1
0.0115553282800813,0.0129909924322924,1
0.0115955853545942,0.0117351643443108,1
0.0124281482762876,0.0140235747892487,1
0.0122459462201314,0.0141328788630068,1
0.0123192457282463,0.0155195635561741,1
0.0113966261793638,0.0135935570259413,1
0.0152901062972736,0.018066117096404,1
0.0118322439603273,0.0131512274879072,1
0.0121129205902335,0.0174738304016479,1
0.0173434614270076,0.0216619984586461,1
0.0173729324506617,0.0205877124612707,1
0.0179609970670276,0.021329753562461,1
0.0158830653650792,0.0143378894228426,1
0.0130793288712473,0.009753095447813,1
0.0159574431306078,0.0108294029468177,1
0.0154716605879521,0.0086450881546434,1
0.0151161350305183,0.00968210148398757,1
0.0148760736098535,0.0101216449674679,1
0.0146877156957687,0.0132359443158049,1
0.0125147431131307,0.0113041953050338,1
0.013306354773084,0.0103723960593999,1
0.021849708779825,0.0141797827142269,1
0.0225583808902128,0.0108194830909998,1
0.0217545024713335,0.00698175026706664,1
0.0318439732541016,0.0139436319779086,1
0.0403634894523754,0.0213574282836545,1
0.052100179962969,0.0254522487284917,1
0.0597922642268693,0.0251635695711638,1
0.0527644825365037,0.0230485945312159,1
0.0449661130258899,0.0210341721444351,1
0.0288654997012699,0.0142323991098664,1
0.0304385716406977,0.0143144286303827,1
0.0368980463629766,0.0181374522296261,1
0.0291930838573701,0.0121138223333096,1
0.0299331701068881,0.0120517382202697,1
0.0308061759724883,0.0113664383861504,1
0.0297044205608075,0.011641655969386,1
0.0300145958706149,0.0132104820040658,1
0.0322150372343455,0.00986378429462052,1
0.0481458871672106,0.0139987597843183,1
0.0616214074161302,0.0164994246664643,1
0.0519677255423321,0.0176669312129176,1
0.0442980865924558,0.0197063010839097,1
0.0472090967121072,0.0266049129351971,1
0.0491861711131008,0.0269492713489192,1
0.0624258371598337,0.0322635754747029,1
0.0783068263502714,0.0380236325442,1
0.0947197175318289,0.0446299807351636,1
0.105272614609952,0.0695978626351587,1
0.0925911676315727,0.0917092406859946,1
0.0580729520253669,0.111014787278443,1
0.0478698320049307,0.108117276939835,1
0.0277903167403425,0.0957353518073285,1
0.0200958020818524,0.0836484156861073,1
0.00781486965314053,0.0497452287155068,1
0.00532709907918593,0.0435849462038509,1
0.00487527139539029,0.0385001922442522,1
0.00452681669462014,0.0381888797559831,1
0.00335324109133984,0.0353095445190187,1
0.00353373248737095,0.0465279259117126,1
0.0036049067933517,0.0490460710638815,1
0.0036613250582608,0.0505137390795263,1
0.00373340510363811,0.0434904838393813,1
0.00360534093043025,0.0413261011157009,1
0.00153611892107016,0.0212871214572741,1
0.00167266148055787,0.0384620664459711,1
0.00268946254654983,0.0491780735897754,1
0.00320430025647008,0.0385088271362404,1
0.00342930774499092,0.0300459766460219,1
0.00801766922000743,0.0425889863779236,1
0.00906725407939833,0.0222917616658416,1
0.00829214660540543,0.0185456679281591,1
0.00856085699570509,0.0183402287260019,1
0.00942245677807896,0.0219107364896,1
0.00873286210540367,0.0199936435890149,1
0.00804500750493054,0.018245754631698,1
0.00778953253192024,0.0173711143094049,1
0.00722352863090645,0.0173258564690772,1
0.00626111364012299,0.0163987227409226,1
0.00525168077899525,0.01721637698357,1
0.00441820376807983,0.0374850170920149,1
0.00232563966838562,0.0215955890914252,1
0.00358729402211934,0.036360309415277,1
0.00329008574370492,0.0249829280332061,1
0.00284931769510049,0.0252557944042933,1
0.0166739406467147,0.0115658775736231,1
0.035083390578161,0.0125776994248985,1
0.035019367266185,0.0121430995882707,1
0.0355870611866894,0.0105464760339104,1
0.044487942902793,0.0137127725186132,1
0.046089175199043,0.0134347858913205,1
0.0493539591817648,0.0129484857566075,1
0.0441991047828138,0.011294016361922,1
0.0447749659524762,0.00913363985882913,1
0.0462119059332361,0.00908437757831742,1
0.0444423175859778,0.0142846767532309,1
0.0399421668266159,0.0162375152768064,1
0.0324893085383197,0.0141964288886497,1
0.0286731199068408,0.0123272283423429,1
0.0380964783259071,0.0149676651060181,1
0.0387490460903785,0.0140305113034046,1
0.0430953473251481,0.0130962455970625,1
0.0441333697359644,0.014336173678092,1
0.0429833847325958,0.0171010296418791,1
0.0437313923701848,0.0165877121796611,1
0.0486939446207773,0.0184086747051592,1
0.0474408855598199,0.0196174109095184,1
0.0383612770768435,0.0161683733984897,1
0.035991915146001,0.0178626239526204,1
0.0431459197183584,0.0237910958034012,1
0.0427858445045512,0.0211249620157426,1
0.0404449514010769,0.0351147826946365,1
0.0327497807099012,0.0291248177709551,1
0.0337439553632314,0.0289869508781227,1
0.0472940704742718,0.0349351282919389,1
0.0627207064162761,0.0414215198337907,1
0.0719953244600965,0.0548110974099864,1
0.0738188656439,0.0523770144512409,1
0.0758821238160386,0.0547072618229727,1
0.0523270741561918,0.0545708215465112,1
0.0324789098847532,0.0589401890740774,1
0.025041572517691,0.0493380379308364,1
0.0169429410512573,0.0290699119837033,1
0.0070276306154221,0.0187598104197921,1
0.00663847183372263,0.0280561901870872,1
0.00629353253606879,0.0310553654799023,1
0.00636356389093176,0.0309397637057826,1
0.00360111017271339,0.0247085801754463,1
0.00270139013899175,0.0241957854723119,1
0.00325893642167769,0.0248781302344298,1
0.00315293719088454,0.0159387899068669,1
0.00358315748506729,0.0235576320268431,1
0.00360590703651199,0.0239776866227434,1
0.00317399701734372,0.0183646767373203,1
0.00468741902045366,0.0216619292401707,1
0.00505668530137205,0.0166880894189922,1
0.00568490274824009,0.0190124710872838,1
0.00564102024162008,0.0170436049873969,1
0.00631724209651107,0.018486319698076,1
0.0056431374434095,0.0152674539899852,1
0.00535819506712307,0.019005357646592,1
0.00485862729516046,0.016542229110896,1
0.00570437728773209,0.025806646895779,1
0.00559440788792674,0.0164022451760197,1
0.00550247239237835,0.0111509628681892,1
0.00679213759012138,0.0128558205415881,1
0.00736482391799179,0.0125600008316636,1
0.00825192534326591,0.0130204413565861,1
0.00796872118573145,0.0130606269056813,1
0.00780776381356799,0.0141188461829688,1
0.00952640783800614,0.0143994910587416,1
0.0124319999219027,0.0182326879276975,1
0.0156780314775252,0.0185315853471468,1
0.0230048699354272,0.0314386458965163,1
0.0269417608290885,0.0405564112793844,1
0.0377401456714282,0.0692299486438354,1
0.0318714591666352,0.0503029798517475,1
0.0304826362649059,0.0308717695614507,1
0.043802173581957,0.0406483871203617,1
0.0324464203135468,0.0225244805758225,1
0.0308801845596559,0.0188943603122535,1
0.0275131280350772,0.0136604511168227,1
0.0267571409604712,0.00860241944998071,1
0.0394016131815779,0.0134602232734054,1
0.0400188414337128,0.0086398003310236,1
0.0573361647170078,0.0138521796590255,1
0.0644565127034269,0.0165536040280799,1
0.0651323567163079,0.0165564947213291,1
0.0594702819024624,0.0147561694886288,1
0.061271849999227,0.0141472308518955,1
0.0747501597050633,0.0168896479881058,1
0.0754786186351475,0.0161620139495723,1
0.0723627644938091,0.0201555783556946,1
0.0533252746711312,0.0150141104950662,1
0.0510433753788066,0.0208079242780406,1
0.0396035144910805,0.0160100143616096,1
0.0340729426752493,0.0106490648841765,1
0.0381140194236854,0.00820406809360521,1
0.0438173379699495,0.00854195426120302,1
0.0434957213447154,0.00899814215894447,1
0.047269657178513,0.0104394974658062,1
0.0605420586746999,0.0153758556352452,1
0.0745478548677953,0.019343739941651,1
0.0938908050230765,0.0227356512744554,1
0.0987680447893469,0.0249524512352307,1
0.0940664370798468,0.0231412564596181,1
0.0712067843468967,0.0231838006637705,1
0.0414120945682563,0.0230407169914938,1
0.0351729907002711,0.0294206614599068,1
0.00657277566668246,0.0117086467470925,1
0.00564681371443143,0.0158143479119912,1
0.0052093422218646,0.0148271453098286,1
0.00480054393661898,0.0175562319679726,1
0.00436569427342147,0.0183904654175436,1
0.00498458682846419,0.0229724471977372,1
0.00440250907949411,0.0221124535160101,1
0.00293994630336751,0.0213242656014622,1
0.00592244146824173,0.0273499788852752,1
0.00678538211891313,0.0280612455166835,1
0.00703607966412464,0.0294312178192092,1
0.00795349198339668,0.0336636869941615,1
0.00878093821061785,0.0305894454192769,1
0.0118662880689228,0.0372905551821165,1
0.011883016420625,0.0385152663715082,1
0.00878102535370684,0.0302925893130975,1
0.00523872341838473,0.0182266205510973,1
0.00464034675945917,0.0167912893199015,1
0.00561492738941915,0.02526745289443,1
0.00586082971691614,0.0271070928154833,1
0.00608813519625342,0.0299411442800444,1
0.00575974031522885,0.0309438798779553,1
0.0053320115887402,0.0417635792719476,1
0.00276199720224707,0.0195867611898061,1
0.00262620592502798,0.0121882154097122,1
0.0038685874396992,0.0142044335385475,1
0.00329517878960373,0.0103074803696307,1
0.00415697577899523,0.0138430095035923,1
0.00516858554577961,0.0157906268028683,1
0.00550611529492591,0.0116859476304611,1
0.0180044665258461,0.0250308933418099,1
0.0261225689585599,0.0242828492481543,1
0.0247818848752895,0.019180944682828,1
0.0280682815484074,0.0189456527498469,1
0.0225911104982725,0.0142885489286474,1
0.0252599056622148,0.00949596104198586,1
0.0358919894734538,0.0151383081258385,1
0.0388392677633145,0.0175889997885425,1
0.0372339417017896,0.0132139900203004,1
0.0333411510034335,0.0111431780156527,1
0.0353373359546432,0.012989275565208,1
0.0402549261802557,0.0159412347000607,1
0.0497959030114055,0.021550484961495,1
0.0569839706242263,0.0233711593085958,1
0.0850873024671035,0.0248827901884465,1
0.0757500407039407,0.0223615733422899,1
0.077582050098082,0.0230830485310705,1
0.104693843738056,0.0269126177886133,1
0.0930627186773367,0.012570391967918,1
0.0992832405010265,0.0143613302137898,1
0.114300822366143,0.0168589618421459,1
0.117398607703858,0.0162259826565727,1
0.115376868897058,0.0159483956802712,1
0.115462921706334,0.0166454681592419,1
0.0884472282943801,0.0128115615840455,1
0.111104027144827,0.016480116301538,1
0.109563186935347,0.0145523310075854,1
0.0702393848345165,0.00781671766814468,1
0.0690522154904514,0.0189003720432461,1
0.0733827722908626,0.0200727747759607,1
0.0796889245526691,0.0219074279486363,1
0.081896445518508,0.027808052404856,1
0.0624250948840156,0.0202411365381788,1
0.0494546603029529,0.0149181302999053,1
0.0261491445616274,0.00831384716290215,1
0.0255221311962341,0.00979134268698703,1
0.0158111806400784,0.00667817200890203,1
0.0159743013143531,0.0160874222347642,1
0.0184645520858037,0.0189067922587835,1
0.019883641341079,0.0197887278122714,1
0.0213873527772992,0.0206740613423464,1
0.0215977567440617,0.0196849790305763,1
0.0133687587158597,0.0147161949443529,1
0.00907291473802004,0.0251002534300924,1
0.00903020608890499,0.0383449580741701,1
0.00858106710778757,0.034518776264693,1
0.0123154188863099,0.0592930443870837,1
0.0106125318072501,0.043767561946919,1
0.00996097108740351,0.0408339596913449,1
0.00931100167533427,0.0392758996710633,1
0.00731667726627304,0.0289344093889149,1
0.00889772079702417,0.0330245323664284,1
0.00739469374016928,0.0169125553822298,1
0.00941638450297505,0.0228732367915017,1
0.00989760092564211,0.0234913836699008,1
0.00998013134979038,0.0274307343358027,1
0.00983024078935011,0.032543036184848,1
0.0100761303970224,0.0267974607147246,1
0.0107743854362807,0.0239477150054406,1
0.0123706990463848,0.0211127625766401,1
0.0125172963838534,0.0239675063759338,1
0.00625098988136466,0.0117184434521308,1
0.00507303474309795,0.0158218297581667,1
0.00698323656764851,0.0182124126416433,1
0.00778095002226777,0.0124597365861665,1
0.00872211504718269,0.00859812528884541,1
0.0128039119470104,0.0148473275320009,1
0.0134454540263765,0.0192165986355958,1
0.0126892198386773,0.0203997522995573,1
0.0122110940417813,0.0237638800648137,1
0.0159139498425669,0.0270395953440704,1
0.0307465452485684,0.0441653718778787,1
0.0339476383483523,0.0366212361825109,1
0.0335287455970203,0.0358651958706382,1
0.0301793202891872,0.0350489531530096,1
0.0257115729371259,0.0318912012292582,1
0.0263143911059647,0.0325787959754975,1
0.023349883381056,0.0230451660961847,1
0.0167069812176183,0.0118120311998528,1
0.0229256364808157,0.0144289579789824,1
0.0241969267922851,0.0100438245050366,1
0.0250008822531195,0.00582229812553192,1
0.0631252001103728,0.0181881436941905,1
0.0646146750448618,0.0108667306301597,1
0.0703122647975297,0.0099037144977694,1
0.0767194376607923,0.010262946625583,1
0.0737593378012112,0.00933236890394859,1
0.0659706313579066,0.00811883178884155,1
0.0679790397082825,0.00910458370094131,1
0.0752820485352172,0.00801561729598679,1
0.0767651151916329,0.00941464366333406,1
0.075030408030037,0.00942747512767804,1
0.0678129475175614,0.00872380829629391,1
0.0636697697318838,0.0124993793299693,1
0.0684089466922123,0.0192396600284649,1
0.0716578641827065,0.019755072615222,1
0.0722816516725635,0.0190780732086659,1
0.0720502748151675,0.0205139100283224,1
0.0719213709085925,0.0190972859181015,1
0.0590194544232927,0.0315913761177171,1
0.0255708393096709,0.0145304986233852,1
0.0204110143942479,0.0183710903198999,1
0.027766790538294,0.0270561147556678,1
0.0234159362788391,0.0218293224961969,1
0.0262753033785899,0.0295510422518968,1
0.0332673885490456,0.0370958829930701,1
0.0292564205362872,0.030810507503066,1
0.0154469837231917,0.0180525335860463,1
0.00996620114382977,0.0207685783144336,1
0.0123802513057957,0.0249732354177829,1
0.0116486235076665,0.0263149339301718,1
0.00939202543242574,0.0109678143012686,1
0.0239384345647293,0.0255267872170211,1
0.0259488969928225,0.0175187477056624,1
0.0260115575046065,0.0171232880060137,1
0.0304112066103764,0.0199068609258161,1
0.0309774329690848,0.0171085829904056,1
0.031181012455603,0.0169992291400837,1
0.0305406094061007,0.0167917771182156,1
0.0270366137591189,0.0150351461378067,1
0.0211649971650651,0.0113470597844196,1
0.0193613812138271,0.0154715675480908,1
0.0119122385280872,0.0103043979820257,1
0.0106516949175484,0.0149134419250288,1
0.0102083820724869,0.0191066157315619,1
0.00363251877841577,0.00821547179304589,1
0.00268404454419138,0.0248916424551126,1
0.00243328758571291,0.0232426381652373,1
0.00236840050460341,0.0243928965260704,1
0.00212920926251395,0.0247640192205841,1
0.0022336168224849,0.0256513282168042,1
0.00748669560941605,0.0145885128424164,1
0.0145928563609206,0.0199276364848278,1
0.0174089641588737,0.0199777694065989,1
0.0282341081299652,0.0254943703430689,1
0.0279525654727106,0.0222921613257483,1
0.0257278247694261,0.0207854568483692,1
0.0233038790375311,0.0188472519557949,1
0.0225813921695399,0.0153119141805501,1
0.0278974722957232,0.0191200685195478,1
0.0294138241323287,0.0176133403271793,1
0.0490115685048182,0.0279751094944598,1
0.0520970758527492,0.0275851340207795,1
0.0622218555916666,0.0287373710545018,1
0.0663481782361673,0.0225963022198465,1
0.0792725362198727,0.0258999689261461,1
0.0751532348196431,0.0175541147557334,1
0.068507497210665,0.0158790084075497,1
0.0644763645633282,0.0164221040968635,1
0.0692344883689153,0.0178343532588114,1
0.071173145902513,0.020007107861089,1
0.0728883557530849,0.0219371509220331,1
0.0798771121055293,0.0194721679522787,1
0.0829738669964604,0.02077567728113,1
0.0804516529351111,0.0265059356980145,1
0.0465992412895734,0.0176586304565642,1
0.041470990185286,0.0277003326951107,1
0.0431143368988198,0.0267215076485321,1
0.0436199846348736,0.0265914989737999,1
0.0434363536969686,0.0243256746699621,1
0.0524518191055132,0.0266396142405942,1
0.0499280126001888,0.0219009764201373,1
0.0467242896661695,0.0222127132491795,1
0.0477378566084276,0.0157152569149763,1
0.0458174905626272,0.0170703200274347,1
0.0494859030009722,0.0145839106146585,1
0.0788722935183351,0.0211803143430103,1
0.0832661231067066,0.0208900634594177,1
0.0740934201555147,0.016764706971466,1
0.0755855046361681,0.0150186336124853,1
0.08908772828651,0.0183847386961901,1
0.103734783056312,0.024226695314638,1
0.0908872155160758,0.0289136103336142,1
0.066756073621329,0.0248157070339938,1
0.0540162332891362,0.0181363119625255,1
0.0377861030954427,0.0165049612175032,1
0.0376410458592706,0.0187433217322614,1
0.0397806626213959,0.0248553892885069,1
0.0186732577719304,0.0130967688980471,1
0.00896792858170455,0.0182815087196881,1
0.00913711170873223,0.0157034673231082,1
0.00938820443260299,0.0170727511540055,1
0.00801361501706199,0.0129789957666926,1
0.00758364000225182,0.0165073333065465,1
0.00684347631546784,0.0148498569877868,1
0.00701206044011347,0.0113994375271422,1
0.00730398619991511,0.0114966930336469,1
0.00708199451561018,0.0138342400525244,1
0.0053992341158353,0.0122195404686507,1
0.00433026051154515,0.0118099686283952,1
0.00494640226906395,0.0131202503632909,1
0.00724459498251321,0.0171188773800326,1
0.00707903694263331,0.0165266001046498,1
0.00778134795967721,0.0117671151613817,1
0.0116865207130288,0.0160498180708373,1
0.0116435023982897,0.0120559516048534,1
0.012751720117396,0.00917807754996587,1
0.0195793575110802,0.0123407857845429,1
0.0192474592208799,0.00921700268311336,1
0.018357254154169,0.00533180087224574,1
0.0316899216470246,0.0130324082247957,1
0.0370205152294333,0.0113676558601914,1
0.0342621508536728,0.0110733589737485,1
0.032157148130886,0.0120940367710793,1
0.0318093013885969,0.0129964449014103,1
0.032899471131426,0.015522089856764,1
0.0236753546779295,0.0113560514637472,1
0.026808776621855,0.0144407894992825,1
0.0233464884427481,0.0183114776310879,1
0.0186280673582563,0.018137801347401,1
0.0252196374594995,0.017331905181293,1
0.0253132240385205,0.0206074090643824,1
0.0338731512752984,0.0211489984097002,1
0.0405486092230299,0.0207549597401607,1
0.0426820147648947,0.021297784706056,1
0.0429242609073154,0.0165905713407497,1
0.0376454508139713,0.0146781467923947,1
0.0416736906118351,0.0149421051377512,1
0.0455365025026354,0.0116148099246731,1
0.0381131174083498,0.00896952952218025,1
0.0410790504959489,0.0122633223441605,1
0.0516870619594327,0.0165216594971456,1
0.0547376927141721,0.0211696883796506,1
0.0478911964404869,0.0181212422472536,1
0.0952198517763091,0.0168136776071864,1
0.116633980904126,0.00965313424258892,1
0.126026884402746,0.0108409982623462,1
0.125867395890215,0.0106149604942999,1
0.125971736051474,0.0114662616610717,1
0.122966541499462,0.0111325724996239,1
0.122795700983306,0.0107822933769892,1
0.116560068535756,0.0101626449218701,1
0.119232409210874,0.0103393128379446,1
0.120405917007389,0.00989568222942194,1
0.0686738987031433,0.00870410813007556,1
0.0514209862021778,0.0381223526608028,1
0.0593299258679316,0.0476430311228231,1
0.0621127898635567,0.0928525073972863,1
0.0446583440910388,0.0730543248252588,1
0.0338183156693148,0.0268636905495942,1
0.031059929741968,0.0185102060048819,1
0.0277694175640442,0.0164335821051942,1
0.0275860122268998,0.0163334079866949,1
0.023924507678476,0.012086497204117,1
0.0279309630088134,0.0147286939065377,1
0.029324779988141,0.0147062380976811,1
0.0295370950953068,0.0154716194378572,1
0.0283382437564146,0.0149563563013029,1
0.0275569717656738,0.0143720380982816,1
0.0204604949244439,0.0203507500452789,1
0.0149198866486221,0.0252659586810283,1
0.0510356300096229,0.0252706035440463,1
0.125097033213761,0.0450912880909699,1
0.144158476588077,0.0507357633157763,1
0.12657204974937,0.0401749043126138,1
0.116057009216617,0.0378826497702155,1
0.104988620276261,0.0339320025509432,1
0.0961048224728032,0.0302966447838046,1
0.0863466642879213,0.0280308012119976,1
0.0854278950911334,0.0281865371411208,1
0.093930352960581,0.0311969361273479,1
0.0859774857609896,0.0660603535635535,1
0.035418312140326,0.0372876120146555,1
0.01235135416846,0.015324441936449,1
0.00892071072360219,0.0147642844461769,1
0.00894702290790067,0.0153102159912999,1
0.010065010340506,0.0199257572091638,1
0.0109137053028604,0.0202193486893136,1
0.0111413255003411,0.0192093558054746,1
0.013610454477496,0.0233838287519872,1
0.0148372848605275,0.01536695253732,1
0.0164087912958997,0.0211105038707939,1
0.0322587600397769,0.0218727263074288,1
0.0479291767994527,0.026073698548395,1
0.0487950759459726,0.0267455744898078,1
0.0486839063723825,0.0282767401573324,1
0.0418868555698406,0.0278906999867682,1
0.0387000738706173,0.0279825076966899,1
0.0393005766966795,0.0232956863718491,1
0.0696933353880425,0.0313957254239473,1
0.0795678934079434,0.0158473357080115,1
0.0794369304738899,0.010952561473331,1
0.122876697524366,0.0179542774874699,1
0.143831923617489,0.0218318328510476,1
0.182890764980647,0.0259698229642495,1
0.192783489062061,0.0217684039944171,1
0.167991156427102,0.0144313797451081,1
0.142199541987189,0.0117711391937483,1
0.134240254795292,0.0120832808106056,1
0.136391393104209,0.0133065817307728,1
0.14085569944816,0.0198314549285785,1
0.143157392014631,0.0275763590181593,1
0.144745737378295,0.0305605445965202,1
0.136103258298957,0.0293970852360757,1
0.0879614216642705,0.0275204076405984,1
0.0160752634328124,0.0059514691028811,1
0.0128451010370212,0.0197979317380305,1
0.0121889800841021,0.0190642029370965,1
0.013134498671861,0.0183690118969271,1
0.0174274624281866,0.0152940831121062,1
0.0245141179640931,0.021309510234421,1
0.026775978424424,0.0243329940586839,1
0.0341244505102252,0.0349206007665187,1
0.0333122589899314,0.028888777629115,1
0.0325897465873421,0.0280947793101455,1
0.0316826522919807,0.0263051277910133,1
0.0322405020125254,0.0232492024656815,1
0.024595220791176,0.0201437741289352,1
0.00929968374829035,0.00635030355502046,1
0.00851831747522973,0.0145223127921965,1
0.0090828262949716,0.0171333496650295,1
0.0116688955319933,0.0172432573000113,1
0.011828894509902,0.0113771012714924,1
0.0120569530212751,0.0143622304419351,1
0.0115523120670932,0.0129242433014382,1
0.013084672510455,0.0122433417464455,1
0.0155698220102106,0.0175533453238612,1
0.0127644989865507,0.0154044001539507,1
0.01320280337115,0.0159841193335149,1
0.01423602027692,0.0161750808105916,1
0.0163596718157859,0.0157456149831148,1
0.0138641275927607,0.0154866621590387,1
0.0120135885383115,0.0186279117558525,1
0.0127445467576515,0.020989179625923,1
0.0114197877264686,0.0185067333432981,1
0.0106496553187739,0.0265335969791506,1
0.00923985177885164,0.0210993616055593,1
0.00957563413416915,0.0228078134881064,1
0.00932109507314609,0.0237745289595248,1
0.00919403014151405,0.0234717099186789,1
0.0096914925808793,0.0198442387014026,1
0.0127541558441102,0.0277096721830402,1
0.0137942714812686,0.0329044641863572,1
0.0132755512225316,0.0302477308057315,1
0.0141004362885339,0.0328028520488224,1
0.0147399339194509,0.0237378191899942,1
0.0163461997884248,0.0210427803351179,1
0.0156677051596896,0.017806463725268,1
0.0159691350301979,0.0133092848086082,1
0.0143135160772305,0.00772574480844158,1
0.0166355713337721,0.0116831226011194,1
0.0157606568905588,0.00835326005823901,1
0.0174140422593073,0.00669263711620072,1
0.0213329189468477,0.00930714559294029,1
0.023326032063992,0.0106335173940019,1
0.0229571184525029,0.01289016069462,1
0.0183192051041013,0.0117040395850735,1
0.0213589951115232,0.0152104789875242,1
0.0235918152414392,0.0214823874924008,1
0.0175497972000861,0.021660657353393,1
0.021268486318016,0.0316508844614976,1
0.0220840463608679,0.0439049146685927,1
0.0315454287627484,0.0719333269795477,1
0.0330395114218752,0.0552536464948014,1
0.0301954764317909,0.0477041581097395,1
0.025634555892442,0.0430692507880953,1
0.0262696162893184,0.0328029719696773,1
0.0266421529499513,0.0183222625530906,1
0.0839407934134454,0.0371731667339718,1
0.0889780710104083,0.0327441387569139,1
0.0949697945082749,0.0323433816338677,1
0.0895643080919051,0.0313277492741233,1
0.0908218046358863,0.0318303835114246,1
0.0800361997971522,0.0276820582850214,1
0.058942844861333,0.0206539552174791,1
0.043230263447108,0.0137643565907135,1
0.0457484343080409,0.0146689135285665,1
0.0539769018333187,0.015494398570609,1
0.052691491469443,0.00804905837585342,1
0.061430217509387,0.00953540777962007,1
0.0563277048135449,0.00820195358022969,1
0.0643796760798957,0.00749438335424837,1
0.0717184891278462,0.00609252816016644,1
0.0727472875526441,0.0062925964472147,1
0.0818817291804417,0.00731663579982461,1
0.0866632227824479,0.00781072584983688,1
0.104645639993967,0.00770417513932698,1
0.113928441919393,0.0114718577004666,1
0.105195759745601,0.0150818743540851,1
0.117994431041709,0.0171664073032659,1
0.12834277093685,0.0190605149261141,1
0.136157664866828,0.0227908136753653,1
0.135047538110779,0.0322069390149139,1
0.080125675728646,0.022369781150644,1
0.0674816748539893,0.018492759249585,1
0.0432140745057215,0.0126339286899174,1
0.0249483570404596,0.0189097854973259,1
0.0268322512782176,0.0136368464819421,1
0.0273999266762428,0.0139267769016842,1
0.0297487018579358,0.0146350097572086,1
0.0333303923961123,0.0161060259264604,1
0.0342344788434165,0.0168070933718354,1
0.0347566824580608,0.0166225521592013,1
0.0369409915308114,0.0163365892741286,1
0.0385836034180877,0.021395606219973,1
0.0302013112268719,0.0167866739585352,1
0.0340907312258395,0.0216646878340331,1
0.025916884553971,0.0262551278040107,1
0.00862338822982666,0.0105821277244395,1
0.0125328533164007,0.0209668102227015,1
0.0182867922809613,0.0284825677013196,1
0.022289870306714,0.0326872873614143,1
0.0318668684041955,0.0407555562691129,1
0.0354158680363499,0.0521053477766048,1
0.0345523967770161,0.0421891507594123,1
0.0305800380732585,0.0376484659585492,1
0.0285058823343587,0.0354040406566503,1
0.0294768107868133,0.0334594766140137,1
0.0259013743402472,0.0268064806096998,1
0.0258812182180579,0.0343962384402651,1
0.0259236491486714,0.0293705154486829,1
0.0258322596051304,0.0232205734987357,1
0.0210823421898247,0.0190798214283333,1
0.0193649282010211,0.0120402516461116,1
0.0205253925806083,0.0158999651599455,1
0.0345767728293904,0.0215440759409742,1
0.0371521175189227,0.0151848264186955,1
0.0328522415854999,0.0134249969033642,1
0.0333784997620241,0.0131828589980405,1
0.0296772986285071,0.0125652157180111,1
0.0300531219317829,0.0123394868606546,1
0.036909548708982,0.0172307799517967,1
0.0342893154668094,0.0158819630496852,1
0.0347154728403468,0.0193591560925602,1
0.0353554195312007,0.0192315680612584,1
0.0233529726436365,0.0213250189570405,1
0.0104610028497655,0.0164387038840457,1
0.0112151123664879,0.0212664222388151,1
0.0102177888013773,0.0222629382537139,1
0.00714686771243874,0.0130436041816959,1
0.00555377144811582,0.0128816294941158,1
0.0057593991225579,0.0117007192814097,1
0.00817502775533216,0.0100009519237168,1
0.0119150490037888,0.0139530377955495,1
0.011672766773089,0.0123849196057048,1
0.00996655329833761,0.0109289824715548,1
0.00993893193298856,0.0115284575571141,1
0.0100930935414144,0.0111884842534042,1
0.00922450439253017,0.0118839034612636,1
0.00849228398604698,0.0114310199636043,1
0.00998603501816365,0.0135383267171602,1
0.00830618445729078,0.0103549633723494,1
0.00880509380137616,0.0257699473129562,1
0.0100708625580393,0.0326157200316992,1
0.0121356135972155,0.0428017646168617,1
0.0125693887119548,0.039046629569737,1
0.0123369628972157,0.0391989096466469,1
0.0116673698406889,0.0375866225866471,1
0.011356648099918,0.0333147715082406,1
0.00914915659691871,0.0350441157286093,1
0.00309945596508357,0.0139177051591671,1
0.0036405343822192,0.0299176825438066,1
0.00368344958113011,0.0258000486059241,1
0.00271591632757831,0.0208619007463797,1
0.00204658546525076,0.014494907770195,1
0.00257162030587419,0.0247757192026679,1
0.00246623728083485,0.0238584619226286,1
0.00241370291282772,0.0231219346731842,1
0.00234213030813958,0.0229361128087157,1
0.00278482968009682,0.027169217543647,1
0.00277250026999195,0.0280931400714581,1
0.00218056251622995,0.026148049489172,1
0.00283009077293632,0.0356459162262909,1
0.00381162145780733,0.043825470740921,1
0.00458233013714712,0.0543614067123287,1
0.00530221446348876,0.0600466650439581,1
0.00626869154987176,0.0847692150915485,1
0.00626806390260564,0.0935240640982599,1
0.00644280831498431,0.125143602880743,1
0.00362022647934275,0.212806970993454,1
0.00126966271400679,0.18921552310548,1
0.000319743983201375,0.117698926255994,1
0.000136656252528742,0.200896013279208,1
0.000114074747576805,0.185490921197291,1
0.000101767172568136,0.154938505277076,1
0.000169804793867587,0.221277110436558,1
0.000209951735295513,0.157478363893525,1
0.000195735593771556,0.145719877843458,1
0.000194433945515767,0.162008487845175,1
0.000186182526989242,0.169443870504122,1
0.000178781217533784,0.186704486420912,1
0.000157552077675623,0.185380509566387,1
0.000151521918545885,0.182777813422899,1
0.000157947262705885,0.184861675894948,1
0.000188987021031539,0.227937045735395,1
0.000146757938819358,0.258249103041442,1
8.03593475549445e-05,0.453456324684815,1
8.60225817089205e-05,0.573821782633011,1
8.76935779795236e-05,0.608407054378996,1
7.90954837056789e-05,0.538128676145564,1
8.68028796133002e-05,0.186831965197904,1
0.00020238125208951,0.15970220240029,1
0.000199207684294113,0.122274001179181,1
0.000200306444235273,0.123756005252063,1
0.000216339348791543,0.121371236375976,1
0.000210227022229048,0.108569730321524,1
0.000200715049284799,0.103986354687243,1
0.000199353556177491,0.102932313884991,1
0.000200541174139735,0.107014843326169,1
0.000209454084588376,0.111030615004456,1
0.000211868924356601,0.168203000277609,0
9.14280989424833e-05,0.166342647441291,0
8.93522175730228e-05,0.231500928630368,0
9.25530739466183e-05,0.257850238146072,0
5.54320013893896e-05,0.282632611358905,0
1.80282968431356e-05,0.255623789409626,0
1.79979264428746e-05,0.294280363506012,0
1.81781656106106e-05,0.297778561220022,0
2.02115079502661e-05,0.322301543995936,0
2.32160419518268e-05,0.35235338592117,0
2.55292698613065e-05,0.361985170470696,0
2.14482780509365e-05,0.457686098891441,0
3.77847610392601e-06,0.362360795380409,0
4.03588218069477e-06,0.5618276298849,0
3.35440347465538e-06,0.571444601284502,0
3.02746295911219e-06,0.570785199441445,0
2.41755998407731e-06,0.523313500266442,0
1.65542120574971e-06,0.444268627902819,0
1.48679649242547e-06,0.441908758917749,0
1.44165120564448e-06,0.438327875294973,0
2.26539641981997e-06,0.539351917562233,0
3.5994358164542e-06,0.559960525024132,0
3.52830903615461e-06,0.509275409043948,0
3.55861747320326e-06,0.511540081351606,0
3.16302418449522e-06,0.478279939980317,0
2.97766878726796e-06,0.467575237589377,0
2.76403442802574e-06,0.446930436896308,0
2.41716590626697e-06,0.419540648947813,0
2.29842877201763e-06,0.41196248852781,0
2.27126237335404e-06,0.399880250050229,0
2.01709770217833e-06,0.408084551496058,0
4.37767321281483e-07,0.242262198666954,0
4.85368735265267e-07,0.278910639660365,0
4.37043081279589e-07,0.273786023219701,0
5.0129091741816e-07,0.2781775261419,0
9.85867900524716e-07,0.365348302187841,0
1.20752151200131e-06,0.37970924817443,0
1.41384719216652e-06,0.391624759711585,0
1.41347644047429e-06,0.387009072221159,0
1.42267124685476e-06,0.387633930344432,0
1.87186117293343e-06,0.453641345430407,0
2.16166825533748e-06,0.510315342519975,0
2.31139727162022e-06,0.523456218909136,0
2.62971102827592e-06,0.524544017849151,0
2.54712095092023e-06,0.535443868228844,0
1.64801264567357e-06,0.427229361694143,0
2.0286666346944e-06,0.467863698442991,0
2.5046340195378e-06,0.46804777664779,0
2.59285319270843e-06,0.46000825039041,0
3.06967603981287e-06,0.470740895814486,0
2.84235428439409e-06,0.43452589529353,0
2.57466169781408e-06,0.409945876591124,0
2.22601124559661e-06,0.37377602035568,0
2.57119257998434e-06,0.398277048636929,0
3.8265956249032e-06,0.491556580734638,0
4.29898229647956e-06,0.520733785543018,0
4.3983782767623e-06,0.493800912386301,0
5.37040073895341e-06,0.58399184254039,0
5.01176475577906e-06,0.585014857433228,0
5.66156741549268e-06,0.68780231749171,0
6.61603106520879e-06,0.779468166919922,0
7.35641900908674e-06,0.830075454950465,0
7.68352106056679e-06,0.883005482660554,0
6.75395316091581e-06,0.854318047998138,0
5.00022623969893e-06,0.730472919138075,0
3.42215814089393e-06,0.605225977675234,0
3.07378883519253e-06,0.7126431109835,0
2.82007712229268e-06,0.706521497452852,0
3.05701211560266e-06,0.636470507676676,0
4.36628431271693e-06,0.698877964378786,0
3.38019085787835e-06,0.585539895034486,0
2.61588264780841e-06,0.498446360535477,0
2.25685926610864e-06,0.488258754373423,0
2.34873961224005e-06,0.516060740999073,0
2.33748758610392e-06,0.469519874692904,0
2.62549002848054e-06,0.407813494364497,0
3.20747729184194e-06,0.427506056657613,0
3.19185804094977e-06,0.42368746436685,0
3.17627002855938e-06,0.456927659611455,0
1.76833842215182e-06,0.360774139386161,0
1.81629774304914e-06,0.351167203033905,0
2.26978059968388e-06,0.396197003676292,0
2.12894746609183e-06,0.37180658275922,0
2.32099273233772e-06,0.388918459801518,0
2.25363687078807e-06,0.407162177912156,0
1.6239463600374e-06,0.437099559954002,0
1.32772675307629e-06,0.430844801052077,0
1.32215407152936e-06,0.435407071407789,0
1.33543444235865e-06,0.449100878380865,0
1.14247760785838e-06,0.413844702884854,0
9.1041253256341e-07,0.427556111879148,0
3.71956018680252e-07,0.301487311764983,0
3.09592460197007e-07,0.290285680162232,0
2.77509696798658e-07,0.269518295490303,0
3.93783202494449e-07,0.295919671874735,0
4.30764964486773e-07,0.304793963384861,0
3.02677756172107e-07,0.275106968566396,0
3.78209165223285e-07,0.292231087590288,0
5.58130604513514e-07,0.287261875788937,0
1.06598099075701e-06,0.362726226653072,0
1.19210777756825e-06,0.366651830983541,0
1.26159237860134e-06,0.364256600123,0
1.8374634721397e-06,0.416601592664985,0
2.44484106092507e-06,0.417813396085321,0
3.25130049124149e-06,0.457296522482565,0
3.61297411043968e-06,0.459753332853924,0
3.6498407832149e-06,0.449455246986665,0
3.84190660110671e-06,0.45820789682249,0
3.7106458076305e-06,0.47907456551429,0
3.3499849735428e-06,0.460964894098896,0
3.24263458146854e-06,0.461817996300727,0
3.18564157909469e-06,0.469546074780927,0
2.51798282734797e-06,0.442023386436257,0
1.4342755282018e-06,0.375303239201229,0
2.17121562520354e-06,0.486672259211646,0
2.17413889131789e-06,0.458552622919558,0
2.22733888192245e-06,0.488603264746971,0
2.14559429927953e-06,0.488575896084358,0
2.47271741619664e-06,0.55690899566115,0
2.41128844381118e-06,0.478876966043139,0
4.41200761453917e-06,0.566559954203933,0
4.7340766706939e-06,0.46385730707387,0
5.25963147782367e-06,0.487170272951354,0
5.51401070818269e-06,0.505639670774618,0
4.45649781760675e-06,0.449792621115258,0
4.68681929126266e-06,0.477411966733659,0
4.76293775807928e-06,0.462142789869244,0
4.61031866659033e-06,0.452291368689465,0
4.26125718145465e-06,0.433446465407142,0
4.04051935131984e-06,0.466436126268596,0
2.05306914525767e-06,0.372161613252149,0
1.85241520557268e-06,0.441674714657504,0
1.49855460284216e-06,0.39796005344635,0
1.3564916587588e-06,0.379883048261549,0
1.53003396991657e-06,0.395231432033604,0
2.32160157484783e-06,0.495916074034276,0
2.39735494167484e-06,0.524209930813837,0
2.34396176559872e-06,0.528080673015153,0
2.51235167636843e-06,0.539140972023898,0
2.55434598479839e-06,0.533392674369885,0
2.55013536358419e-06,0.5375968507339,0
2.15817488656556e-06,0.507674852191036,0
1.9611778039957e-06,0.475966522582483,0
2.24314227556198e-06,0.489851209256255,0
2.2828201052231e-06,0.540516425382218,0
1.43546392712659e-06,0.440222925975592,0
1.32403156714153e-06,0.445031995688496,0
1.24552725975114e-06,0.440653293285852,0
9.17447360958656e-07,0.372029996336439,0
1.22550995663407e-06,0.427576376383456,0
1.33328237675711e-06,0.463016545995411,0
1.57242173960748e-06,0.494167797510661,0
1.59107194723857e-06,0.508479117892894,0
1.27057673612768e-06,0.368492995697384,0
4.09152165166894e-06,0.599324334719719,0
5.51887980413187e-06,0.676853869739105,0
5.63083859452693e-06,0.647238618446799,0
6.09051314828343e-06,0.667948214844281,0
6.19019613230131e-06,0.67246897122226,0
6.14781195914843e-06,0.675496538165201,0
5.84713315881583e-06,0.654913116327281,0
5.38636936782606e-06,0.635450675361426,0
5.28553898541699e-06,0.621893717589276,0
5.32797813422268e-06,0.741627644772547,0
3.44061197754834e-06,0.631544486388512,0
2.74045233916722e-06,0.605751729713141,0
2.90958365056317e-06,0.648153070406226,0
2.38858884262807e-06,0.578169823169985,0
2.27502198869872e-06,0.577228648376776,0
1.95044912552269e-06,0.537782367304538,0
2.64870157116328e-06,0.616582990051552,0
2.83223876427682e-06,0.567772358141704,0
3.28990059259106e-06,0.602914668120106,0
3.07378564968741e-06,0.563424428834851,0
2.73457734290895e-06,0.54631723970656,0
2.18771119827734e-06,0.487320113665885,0
1.91037300496381e-06,0.475965551039039,0
2.03543090067123e-06,0.446932058841529,0
3.45471934660908e-06,0.519679344540827,0
3.62809025703995e-06,0.452998163655768,0
3.84576301470363e-06,0.469745555819999,0
3.9231062568583e-06,0.502002120946458,0
2.97451708960932e-06,0.440779452282353,0
2.89429075980806e-06,0.437853584083384,0
2.88933257247386e-06,0.433207798695196,0
2.93433574462338e-06,0.432993946764352,0
2.88459541809143e-06,0.425104633775033,0
3.21692940482921e-06,0.50407181341396,0
1.05970451809587e-06,0.334017683195933,0
7.67288301485224e-07,0.356590540697182,0
6.7446525135589e-07,0.329658105368707,0
7.19148228862119e-07,0.35187661248182,0
6.03420266607029e-07,0.335924244733697,0
5.90725001136812e-07,0.356824149453843,0
4.19692662494129e-07,0.323968548995908,0
4.12795119093564e-07,0.335699360672039,0
3.97907095762901e-07,0.344128535482675,0
2.59724816218645e-07,0.309390062747766,0
2.14264061672923e-07,0.286032243838763,0
1.26644277255273e-07,0.254929275284754,0
1.11154090699425e-07,0.256404134972121,0
1.90940101487046e-07,0.290255879992343,0
2.73234132383386e-07,0.343306472917076,0
1.0853940754843e-06,0.525112564559062,0
1.57714861816695e-06,0.528787179374288,0
1.53575719226979e-06,0.541373443799181,0
1.46472659367307e-06,0.537651479445412,0
1.2040643141262e-06,0.483832764581014,0
1.03331959576804e-06,0.453899295528426,0
1.1005537915739e-06,0.448363967953332,0
8.77283279355284e-07,0.401556375112545,0
1.04230683052481e-06,0.407450467518582,0
1.18932919504112e-06,0.372254781615209,0
1.38317509374348e-06,0.413588360299864,0
1.1264274917097e-06,0.400567396231505,0
1.0928091093289e-06,0.380679971363704,0
1.30517008859049e-06,0.397176858880429,0
1.80749927516006e-06,0.468341178203304,0
1.95033609147018e-06,0.451962990602702,0
1.65615695467331e-06,0.406332165860568,0
1.54793815280109e-06,0.387152149536513,0
1.1717981272881e-06,0.351053918326701,0
1.09391776786755e-06,0.356467778679648,0
1.06539208334344e-06,0.328811902309594,0
1.67546142395197e-06,0.388936744049478,0
1.73795815710071e-06,0.380538428632539,0
1.87199856068635e-06,0.399054393430615,0
2.01899872942507e-06,0.415118726935151,0
2.24099760855296e-06,0.461733012600189,0
2.50519271603188e-06,0.469175029967765,0
2.70188049633079e-06,0.456990444370051,0
2.6941407464808e-06,0.464413555433031,0
2.57496092977854e-06,0.475654297475259,0
2.50555391120876e-06,0.507815286534584,0
1.69298427104662e-06,0.451566456894217,0
1.62367045419105e-06,0.454764183017747,0
1.69916569234542e-06,0.418635041108666,0
2.78495024910202e-06,0.504984882807531,0
2.56203486932475e-06,0.464582645798455,0
2.36437078308685e-06,0.49032428435766,0
2.19644071539439e-06,0.509785664740009,0
2.11737945839981e-06,0.501062648500825,0
1.95701743155576e-06,0.480548822512502,0
1.89810367235509e-06,0.477616012179138,0
2.04557365171934e-06,0.489004735300213,0
1.8452999174837e-06,0.448666319988862,0
1.88146341569408e-06,0.512036903640815,0
1.16733893391662e-06,0.404702645485005,0
1.10215681995494e-06,0.380098724128654,0
1.21481857939838e-06,0.380683989086052,0
1.19676889086081e-06,0.384023880219953,0
1.08939013751519e-06,0.36967051043932,0
9.3917404722435e-07,0.341726076679592,0
1.13914156193592e-06,0.358246043469866,0
1.30125212281406e-06,0.389607465477584,0
1.22638340158528e-06,0.37111816416731,0
1.44684080451163e-06,0.373688994694872,0
1.27493779538994e-06,0.370012490377259,0
1.21447485312052e-06,0.392611232880588,0
1.33590055368791e-06,0.43232823595765,0
1.47791818139203e-06,0.458677771812764,0
1.26382685630298e-06,0.41691873740576,0
1.17702081430517e-06,0.395243622879964,0
1.16747251961503e-06,0.406091309030625,0
1.10640042656082e-06,0.397749358249904,0
9.73770687950503e-07,0.404711311944759,0
1.52385624791402e-07,0.236198046061955,0
1.40781240686129e-07,0.242074130896023,0
2.12611812099929e-07,0.235410553459826,0
2.10752864348188e-06,0.470076738745545,0
3.26658382548125e-06,0.519972149578132,0
3.21259629580539e-06,0.51025785811161,0
3.08469929297362e-06,0.504471683285547,0
3.28294129149452e-06,0.51878510516685,0
3.2647481524685e-06,0.507233920007997,0
3.49415107031043e-06,0.526149583339034,0
3.77788216135919e-06,0.531975372199148,0
3.96904000753466e-06,0.535165203167,0
3.77802890011099e-06,0.538208436230951,0
2.89440831522267e-06,0.533003872127861,0
1.76761675110566e-06,0.436108561435527,0
1.7480695668888e-06,0.447271661749679,0
1.72911519489824e-06,0.447747597144768,0
1.51063486030849e-06,0.414764009595216,0
1.55060113231998e-06,0.415779073323611,0
1.28518618189802e-06,0.38673381407305,0
8.65794498258257e-07,0.326068868595985,0
9.28012037297306e-07,0.35374056382854,0
1.16820898784625e-06,0.401941247932488,0
6.25050360136942e-07,0.327879022905423,0
5.64247904677077e-07,0.33856569822179,0
5.90285709705469e-07,0.343783308975746,0
6.2460151219025e-07,0.350176414032488,0
1.34910457515264e-06,0.457277860005334,0
2.27184562906499e-06,0.554213116001287,0
2.30304672685377e-06,0.543715471847628,0
2.27835793186296e-06,0.550370167134681,0
2.58602891592554e-06,0.57419865929518,0
2.8513378198546e-06,0.610587997624896,0
3.09852900929811e-06,0.634005705832363,0
3.09680965860122e-06,0.6204428852766,0
3.134532923978e-06,0.612006301490251,0
3.14154154902472e-06,0.618641644148762,0
2.2259718891947e-06,0.602500085078576,0
5.59722535005761e-07,0.352757262917566,0
8.68404557288922e-07,0.424104178597739,0
1.07852982575011e-06,0.445754074904599,0
9.90154151795861e-07,0.456675993563896,0
6.10967550293061e-07,0.367677110056547,0
4.08183740784111e-07,0.313112081215997,0
6.17748052070165e-07,0.365089430543193,0
7.13792367179548e-07,0.379561400162186,0
9.69039699061849e-07,0.404242784901694,0
9.79987149805585e-07,0.392802648924861,0
1.14561584418896e-06,0.402899646827236,0
1.31639714447684e-06,0.41347593166001,0
1.35587839764483e-06,0.395521520663836,0
1.409904564415e-06,0.40019556013803,0
1.59840672690588e-06,0.422964370816246,0
1.60197613676766e-06,0.420196454575571,0
1.68849527778856e-06,0.412593738780442,0
2.00351501663768e-06,0.430524408563622,0
2.02785145365935e-06,0.431652018994711,0
2.05928570987099e-06,0.431523357294623,0
2.06053350305246e-06,0.43211601886412,0
1.56121071400494e-06,0.403565040744135,0
1.39965422550056e-06,0.406047718532268,0
2.00199419484029e-06,0.474907376455338,0
2.76202663497849e-06,0.562818867578038,0
3.25479786758435e-06,0.60062150401082,0
2.63808664605039e-06,0.592396358242385,0
1.33731748691522e-06,0.436267521004762,0
1.48688774173331e-06,0.480178319157816,0
1.6784965937783e-06,0.505446610160167,0
2.40870222468978e-06,0.642895576241146,0
2.95579865051381e-06,0.670137737754166,0
3.0759291863559e-06,0.648774118329444,0
2.81613285040948e-06,0.637089178525082,0
3.47259352409058e-06,0.392257908787606,0
7.74794173604747e-06,0.473060732199796,0
7.45889927762954e-06,0.444687030742488,0
7.28483146088584e-06,0.439608114178745,0
7.74661821005082e-06,0.381838319546195,0
0.000152851301247831,0.0992880690665229,0
0.0008747970735856,0.140000079423991,0
0.000923072368331931,0.100190430724813,0
0.000897735501335509,0.0966919413311115,0
0.000883117867789434,0.0992307267587778,0
0.000894299794008257,0.101366342951508,0
0.000926436860506805,0.100344399483652,0
0.000939039708616382,0.0994175471210717,0
0.000944728085653966,0.1007528966956,0
0.000956167523482259,0.104384809698168,0
0.000899294315419326,0.18551258341747,0
0.000157921523927304,0.170230198511974,0
8.71913031520575e-06,0.445134722247032,0
2.29872296882884e-06,0.54792221210027,0
1.10851467713389e-06,0.40698687576337,0
1.04051339114441e-06,0.428842973091808,0
9.50941611398155e-07,0.410009954756408,0
9.5236378529518e-07,0.413011941641712,0
5.71878319770819e-07,0.356161140824742,0
2.71331872037887e-07,0.282919199649921,0
3.82186628014622e-07,0.310411116241969,0
4.66181718642993e-07,0.341283418011105,0
5.7760945450772e-07,0.37246444354336,0
5.44803581448002e-07,0.368283366025469,0
6.62865388612718e-07,0.396954945445066,0
6.68488832725045e-07,0.387906113593021,0
6.74402774352321e-07,0.389383316122667,0
7.63241785163628e-07,0.432550449299795,0
5.28843995299552e-07,0.365189845242323,0
2.80373774172777e-08,0.192565484545781,0
0,0.186769780778507,0
1.30264552440681e-08,0.19467931438385,0
9.2650930094831e-08,0.235223914101761,0
2.45403093491052e-07,0.276761253134443,0
3.14059257677478e-07,0.282809866912511,0
3.65996863431972e-07,0.300097109398152,0
3.99114299443698e-07,0.30100521923293,0
3.67788144889551e-07,0.274040445704151,0
6.46083428353148e-07,0.335510378646269,0
1.12477565316962e-06,0.426314529552256,0
1.19863867960576e-06,0.423095896526098,0
1.27441835253955e-06,0.419589860185203,0
1.20644666092018e-06,0.407088888392662,0
1.15171670303579e-06,0.413183207068963,0
1.35987034934653e-06,0.425194418397595,0
1.76647490165886e-06,0.471166317393003,0
1.79074958098457e-06,0.47333635103765,0
1.84518020414627e-06,0.501256974882963,0
1.6689400784298e-06,0.496123592943856,0
1.36044137682816e-06,0.455520389408824,0
1.67800006601309e-06,0.520190818057541,0
1.71226284525142e-06,0.527942775474725,0
1.71102974649678e-06,0.51086255261298,0
1.89465469513836e-06,0.517936656316323,0
1.64045837442793e-06,0.532197162588334,0
9.64788077314062e-07,0.43294476402495,0
9.32474313415677e-07,0.434784962584816,0
1.11111733757203e-06,0.447733994100505,0
1.21182369079804e-06,0.463647971443829,0
1.29558079336676e-06,0.451514653206856,0
1.07798654299046e-06,0.388924395506599,0
1.02934973708569e-06,0.379687795060227,0
8.50653175891743e-07,0.364505797292217,0
6.2495171223657e-07,0.325118608392077,0
6.87993577793099e-07,0.326851826035385,0
6.49075747997754e-07,0.316335217750577,0
6.61249207178295e-07,0.323081195973166,0
5.91828213489301e-07,0.319720942434075,0
5.58064325455454e-07,0.310409060658986,0
4.84404760313824e-07,0.305891256049469,0
3.73369971918912e-07,0.291523701343841,0
3.69396619456756e-07,0.298009454109191,0
4.26891390265516e-07,0.323485927365817,0
4.73876563146667e-07,0.353532320241033,0
2.53224330617075e-07,0.298043832136484,0
2.89354843435776e-07,0.294577467673212,0
1.15777943857946e-06,0.438844012686822,0
1.71098206667827e-06,0.507259563119511,0
1.69829348049297e-06,0.492077469085451,0
1.66548729915856e-06,0.499849690235949,0
1.65697902050975e-06,0.510288713390731,0
1.58889018450868e-06,0.50623082231296,0
1.44294010211777e-06,0.475085370742143,0
1.27868641560406e-06,0.435890555223905,0
1.1039612544659e-06,0.406689675140392,0
7.80553977887693e-07,0.371476035319904,0
4.23590487657561e-07,0.335937616059931,0
8.20743338015537e-08,0.209177543217864,0
5.41091954196521e-08,0.200683350968775,0
5.18820649314191e-07,0.339566403242013,0
5.55567814268444e-07,0.302021896233722,0
5.90707737754246e-07,0.309802919818447,0
5.4620602576495e-07,0.297025065945717,0
5.52741962955716e-07,0.302228031576953,0
8.49872213347136e-07,0.356076809420647,0
9.06197389987113e-07,0.359416304364418,0
1.00354509048016e-06,0.376292819311436,0
9.67271435447688e-07,0.369195975504332,0
9.4114751902293e-07,0.376489299263234,0
3.300413478782e-07,0.259058412375792,0
2.2552482225857e-07,0.260485103366063,0
3.19867152811856e-07,0.282873753250026,0
3.2982514456322e-07,0.298182558312785,0
3.09599036723698e-07,0.295753601804528,0
3.23823344649675e-07,0.2925655962403,0
6.12187598752553e-07,0.351455022688093,0
6.37596728932535e-07,0.335264235110489,0
6.30755497041765e-07,0.336690439005977,0
6.19843086854306e-07,0.328309391565144,0
6.51763081217042e-07,0.338218210125264,0
6.17544590775648e-07,0.328989846023387,0
5.93872691224502e-07,0.331462320149378,0
5.96894605239218e-07,0.322741527911189,0
7.63804386470435e-07,0.357102698824168,0
7.60662553601828e-07,0.363666729676679,0
4.37886520827765e-07,0.314914078440065,0
3.81863247866216e-07,0.326540637535723,0
3.76048776205147e-07,0.324714449661435,0
3.73300918388652e-07,0.326422544797152,0
2.86726801714939e-07,0.290550842399898,0
2.20197835638504e-07,0.260617689296404,0
2.81198408964948e-07,0.27950568136617,0
2.87316633952578e-07,0.298121629057165,0
1.12735334335798e-07,0.23224897442601,0
1.07859148068784e-07,0.224137317622438,0
4.6005763643628e-07,0.331536634455134,0
4.60129258922279e-07,0.331399444807023,0
5.25715212726099e-07,0.349173018025683,0
5.52417246950326e-07,0.348802736738219,0
5.43174349718427e-07,0.348574221252596,0
6.23980133176139e-07,0.371514699461752,0
6.00979450380438e-07,0.34299403453129,0
9.4018487992847e-07,0.397505038861299,0
1.35300661340349e-06,0.458146975141549,0
1.50106426708255e-06,0.477178205492515,0
1.94269087919138e-06,0.536782936403239,0
2.08798145926502e-06,0.532776690297817,0
1.90658698075413e-06,0.485574923658605,0
1.69914431863368e-06,0.470631147958485,0
1.54654064087916e-06,0.446250770870007,0
1.36376283108203e-06,0.407157199711147,0
1.67999511703988e-06,0.463160285133039,0
1.80002546360815e-06,0.479636865267392,0
1.71398918350793e-06,0.464467645536922,0
1.71126567939184e-06,0.465539643196021,0
1.48711432362948e-06,0.452800378929541,0
1.3471201082235e-06,0.423747703696392,0
1.10393988075416e-06,0.378839827358135,0
1.09692437090607e-06,0.381563504472332,0
9.71080580259017e-07,0.359588890829568,0
8.30829572037384e-07,0.352035679286766,0
8.36292507795149e-07,0.351686871220314,0
9.06296037887484e-07,0.343626780240805,0
1.26355876008208e-06,0.391056177663165,0
1.2462197474601e-06,0.396563507498183,0
9.3488204149235e-07,0.355517939605086,0
9.85484304053792e-07,0.392247588573006,0
9.13011904738199e-07,0.384599247335868,0
9.79508707488783e-07,0.392645028566538,0
1.24853766484414e-06,0.447565428456097,0
2.0693210785692e-06,0.54757865003511,0
2.13783235365196e-06,0.460486139864791,0
2.09427776426446e-06,0.473564392341318,0
1.91664896383381e-06,0.47531704449841,0
2.03145960337367e-06,0.486549575690062,0
1.9466470710292e-06,0.455466159916471,0
1.82561996963425e-06,0.420306575624815,0
2.45747467145755e-06,0.497153824141365,0
2.53988338053807e-06,0.496350111991245,0
2.3524167127264e-06,0.481255289269364,0
1.43798057892659e-06,0.400009035954078,0
6.84102637431047e-07,0.341910253863609,0
1.42209251250591e-06,0.444034690949607,0
1.99902242684159e-06,0.482219492620432,0
1.93093235774178e-06,0.477415914868528,0
2.06332606069881e-06,0.50764202191551,0
1.87163315242205e-06,0.521268960192497,0
1.01767116153868e-06,0.390129853830153,0
1.07454362850926e-06,0.403524448255552,0
1.09113466397832e-06,0.381533275129903,0
1.07422559178879e-06,0.377842400859205,0
1.06975673914373e-06,0.375851978564415,0
1.33167677942033e-06,0.459207442333584,0
1.15943066057016e-06,0.446584916784744,0
1.23288090719819e-06,0.479226417115837,0
1.19614740908846e-06,0.481873838222857,0
1.1132215178386e-06,0.473144764315196,0
1.00956261240282e-06,0.45951193958368,0
1.08777066781742e-06,0.490558132820329,0
7.70727824944847e-07,0.436296697073141,0
8.27388712720778e-07,0.43878873572273,0
1.46759437034345e-06,0.573758555144094,0
1.55179240847519e-06,0.598003432891989,0
1.77015518765033e-06,0.629016825776131,0
1.76112530822829e-06,0.598139644086664,0
1.61479923347544e-06,0.555492123095429,0
1.4932645064265e-06,0.4895852286452,0
1.73786444159536e-06,0.51820225296661,0
1.33184417257627e-06,0.436065229730071,0
1.21624887119554e-06,0.410950107120402,0
1.30016381040486e-06,0.408186954919596,0
1.98692788598135e-06,0.472130683462009,0
3.06842321147815e-06,0.580098261084211,0
3.29760910393926e-06,0.58193174643682,0
3.5974900893776e-06,0.575927392373332,0
4.6794088815384e-06,0.66915522587346,0
6.08867100150222e-06,0.807927244380156,0
6.06759939894994e-06,0.769774777323716,0
5.9976539272573e-06,0.76735620908734,0
5.98624642791985e-06,0.777484141103561,0
5.9272061733386e-06,0.806670729393933,0
5.04663421960468e-06,0.82161801231732,0
3.0791635016311e-06,0.641860599390102,0
2.09454822392465e-06,0.560887922472249,0
2.03993828765238e-06,0.627820978494654,0
1.53732980421488e-06,0.523801241869328,0
7.04182417551684e-07,0.358933878672024,0
4.6950080945758e-07,0.331465345987649,0
3.03877458502147e-07,0.288719474249002,0
3.94635273733909e-07,0.302533272553895,0
8.36665006377282e-07,0.418118918420425,0
1.14016503390228e-06,0.464368244037606,0
1.14450307532112e-06,0.454663049933957,0
1.13374469971976e-06,0.455682627347003,0
1.10084562494583e-06,0.455993235509732,0
9.45088810917465e-07,0.446970617201132,0
1.04430773877068e-06,0.481452998880011,0
1.07587126483509e-06,0.462032491679381,0
9.37031743654614e-07,0.449051239442758,0
9.39434744852728e-07,0.470595248165399,0
6.31989109587559e-07,0.362982957198677,0
3.80101971811665e-07,0.294429866716294,0
3.69521059672746e-07,0.29861651210351,0
3.69835910888099e-07,0.298641854215155,0
4.18068260401343e-07,0.298765642222125,0
7.87215177360284e-07,0.374942291312606,0
6.91539044987393e-07,0.34971906769696,0
4.60300145858027e-07,0.290963824745026,0
8.87441444137818e-07,0.351470398359568,0
1.11595683915109e-06,0.397849183136699,0
1.44014918860309e-06,0.463227933246952,0
1.47947188582288e-06,0.46416686146341,0
1.60499609837602e-06,0.481692072423356,0
1.62986811129012e-06,0.47224233539291,0
1.64890468986433e-06,0.483412411708854,0
1.54978153268106e-06,0.475231180944082,0
1.4799371750863e-06,0.480727984544304,0
1.02898936397465e-06,0.423481337553936,0
9.53810107376149e-07,0.451154801875787,0
9.48358166748945e-07,0.461878090060676,0
1.05029731045491e-06,0.477691846611879,0
1.17708575750624e-06,0.506719674313203,0
1.37757764746323e-06,0.543609592025836,0
1.42747755752567e-06,0.580631979022534,0
1.50136606800275e-06,0.604528339688491,0
1.18451959610685e-06,0.560739239696767,0
9.54881361919247e-07,0.494159556986814,0
8.54416593290919e-07,0.472638662958952,0
7.86865799379801e-07,0.42627888441517,0
7.45094681824439e-07,0.415427992627923,0
7.37254126151258e-07,0.420774487858646,0
7.10330647942342e-07,0.428608204364847,0
6.36325095841807e-07,0.39231243260459,0
8.17655453217448e-07,0.41356607970161,0
7.92987723663695e-07,0.389047271689773,0
8.31008268598579e-07,0.386191127282173,0
6.70908480756346e-07,0.350665586158005,0
4.40198169959806e-07,0.28499549480258,0
5.50036852562714e-07,0.316796885573184,0
5.4759911908301e-07,0.314253501932462,0
7.5598335486087e-07,0.346058005352017,0
8.14144512788285e-07,0.338901978138024,0
5.83926516669536e-07,0.303164014898235,0
2.77227830974992e-07,0.237353516164195,0
3.23021830459156e-07,0.243179120174939,0
9.52658495897539e-07,0.349842473525978,0
1.23828023561186e-06,0.373926109250571,0
1.24845330033768e-06,0.373372378559502,0
1.29665348652507e-06,0.375877285495816,0
1.29723304293976e-06,0.374509172323075,0
1.03003698412495e-06,0.349291221943041,0
9.65236822502524e-07,0.358485436891239,0
9.3822784944662e-07,0.353172904373031,0
8.63379577105514e-07,0.333356601360474,0
1.08919284171444e-06,0.372048844704692,0
1.4014627703407e-06,0.466577909451435,0
2.06755723355891e-06,0.529818737831179,0
2.02596121602671e-06,0.53662696191504,0
1.7584834969047e-06,0.514737460199016,0
1.71013256439455e-06,0.512527697795853,0
1.66464725063196e-06,0.514620044108869,0
1.84428661858206e-06,0.526253412953734,0
1.78393475795879e-06,0.5104580242171,0
1.65718248180426e-06,0.4893118993339,0
1.73207463190938e-06,0.506890457080259,0
1.24895722669541e-06,0.440681526895066,0
1.83284613385293e-07,0.231149565978837,0
2.18681124170291e-07,0.244737706556821,0
3.38385316117964e-07,0.287008657775883,0
3.86394885789537e-07,0.28331194650514,0
4.72420684550349e-07,0.271578662671877,0
9.53991783926e-07,0.355707678703529,0
9.02242739522738e-07,0.353196113698603,0
8.62969057978447e-07,0.356986349157055,0
6.61673906941041e-07,0.316480104234395,0
9.22066035102408e-07,0.353342878426465,0
7.85426362100213e-07,0.317916061341477,0
7.79908758964325e-07,0.312324880661737,0
1.13378087061656e-06,0.352831604279029,0
1.15330339285833e-06,0.349559183833117,0
9.34027915088299e-07,0.338618493801147,0
7.49654167227966e-07,0.318778345533939,0
9.12824473727491e-07,0.331000623298455,0
1.38915562270351e-06,0.39853810177791,0
1.42824978562077e-06,0.404620895405222,0
1.18277938548936e-06,0.384539868516437,0
1.21043285816102e-06,0.38698056371929,0
1.187992927024e-06,0.392462764412202,0
1.04504965318806e-06,0.381096504629613,0
8.51632256302931e-07,0.36957242776928,0
7.8315263075488e-07,0.351768800862999,0
6.14694488520746e-07,0.307623892965504,0
8.48110217984978e-07,0.380915942213057,0
1.11846711994086e-06,0.430764284220668,0
1.62571051332238e-06,0.484973602328479,0
1.74318536547988e-06,0.469982924773042,0
1.93438760321052e-06,0.5008100440662,0
1.94066726137678e-06,0.507424658115484,0
1.89860718767991e-06,0.478335504143766,0
2.39817495234668e-06,0.523532361622887,0
2.16105571353111e-06,0.496476858099189,0
2.13019536203153e-06,0.493727909115977,0
2.20967114572413e-06,0.477980990909707,0
1.99023043272097e-06,0.442563206622666,0
1.48018379483723e-06,0.410630948818728,0
1.40327460344419e-06,0.42567706010986,0
1.39669807675275e-06,0.430914609640272,0
1.37818186585301e-06,0.419132668335926,0
1.30821995284364e-06,0.437739408412013,0
5.76352824118508e-07,0.304967059862703,0
5.02091609542843e-07,0.295060219359798,0
4.80563246660187e-07,0.295079724335801,0
3.31449238381316e-07,0.283441836226663,0
1.86415759398025e-07,0.239162213072524,0
1.95983886426462e-07,0.232609195357516,0
1.86967365574269e-07,0.23438829167639,0
1.05048196699342e-07,0.20409611761575,0
1.16337626831034e-07,0.206712057289098,0
2.33462587216907e-07,0.249620532134422,0
1.67895129894407e-07,0.24117574570907,0
1.89658809122741e-07,0.238918930291876,0
3.10285461697118e-07,0.280604777794277,0
4.54833099771079e-07,0.32481351758564,0
4.2597396479206e-07,0.331755199527137,0
4.81199628375814e-07,0.338847737525162,0
6.15092676660266e-07,0.343425210853875,0
7.3578673863323e-07,0.338286776867823,0
7.5408592415216e-07,0.350264161190575,0
6.05293754648252e-07,0.326441189752877,0
5.51729486119924e-07,0.318143877057266,0
6.32508244163264e-07,0.340464433124508,0
7.22473382412249e-07,0.36087616354028,0
5.77859362521994e-07,0.322109087910754,0
4.74710137904807e-07,0.291803078013046,0
4.62153596044487e-07,0.305133859802227,0
2.8627548757074e-07,0.287818414406289,0
1.30297435074138e-07,0.252834299038527,0
1.30716688650717e-07,0.255432849826843,0
1.39653058083858e-07,0.251105475030454,0
1.98861836161574e-07,0.257425091926042,0
2.25275325277214e-07,0.275336321300374,0
2.30142366061797e-07,0.279494553606466,0
2.24538343254854e-07,0.290096095553039,0
1.59277722005801e-07,0.271233244592276,0
1.18630779481755e-07,0.244142584279571,0
6.76116267830131e-08,0.220874606157085,0
6.85945092486944e-08,0.224215807109731,0
8.46367130137059e-08,0.221422032455965,0
9.32227796422978e-08,0.207364457231209,0
2.2624567123889e-07,0.267213230217672,0
1.27533485318894e-06,0.486504859359588,0
1.92957594911167e-06,0.528094854600182,0
1.91501551901682e-06,0.512369105503516,0
1.91929026136626e-06,0.499209586862598,0
2.04786351610671e-06,0.503670155694491,0
1.70631201341974e-06,0.441508134523876,0
1.50452485597923e-06,0.41421099345928,0
1.16647525099722e-06,0.374873122736376,0
1.10973215663764e-06,0.376439129120851,0
1.32104171369444e-06,0.39138825836328,0
1.0761713188654e-06,0.37246550216177,0
9.49069767488605e-07,0.381842771193319,0
9.47362336746338e-07,0.368754296772718,0
1.11067188064691e-06,0.401796895070866,0
1.13833758154789e-06,0.397527022186192,0
1.1272421589536e-06,0.409085008384674,0
1.09019339859561e-06,0.397513235594801,0
1.30850202418377e-06,0.43219232179991,0
1.14631162016126e-06,0.401164039374945,0
1.06704690187217e-06,0.403728444807982,0
9.53349750507749e-07,0.380183121751587,0
9.74879654763845e-07,0.373255409184289,0
7.87034836667417e-07,0.354590998528697,0
8.13608114830015e-07,0.367838727010288,0
8.42975903045325e-07,0.395025894031978,0
8.2478368884336e-07,0.385826542208412,0
9.57563659985287e-07,0.366384326149098,0
2.52724411830297e-06,0.53359038775518,0
2.95613641681435e-06,0.564142192199003,0
2.89223559521698e-06,0.551268149790274,0
2.98669260395445e-06,0.562547476256944,0
2.65098814728731e-06,0.53653077927626,0
3.09125989213948e-06,0.574489646384433,0
3.08732096368423e-06,0.554654322656022,0
2.98056913829712e-06,0.531848621894888,0
3.13674109557288e-06,0.552380999742893,0
3.19961258798481e-06,0.633324923662508,0
1.74308373759085e-06,0.502174468600623,0
1.01987789451835e-06,0.397448168043189,0
8.73144897176465e-07,0.37173927325638,0
3.96135441127165e-07,0.276338769428878,0
4.10359338020222e-07,0.288854621167042,0
6.03497540795652e-07,0.334116565862819,0
6.33149866548597e-07,0.323952431401586,0
8.45339856116208e-07,0.378664177125209,0
9.70032446317568e-07,0.384395175570916,0
9.88991339670232e-07,0.379646762605672,0
8.66773886944134e-07,0.355472527777941,0
9.85673892987319e-07,0.388338131935255,0
1.09551863832577e-06,0.42512428887412,0
1.15743663712567e-06,0.433871480506755,0
1.29293744066972e-06,0.437030845243796,0
1.19592010788469e-06,0.442874133223901,0
1.1549844147356e-06,0.471887038626336,0
1.16892963131011e-06,0.465305643079724,0
1.17549495735452e-06,0.498379390091809,0
1.26799216113794e-06,0.537922474406398,0
1.25244689617105e-06,0.558744729249089,0
1.01546966922872e-06,0.495054268760802,0
8.54053753982364e-07,0.442436430667759,0
6.03734192998315e-07,0.389884725500076,0
5.72875588388639e-07,0.401575394271578,0
5.64003853881887e-07,0.385433613740001,0
7.5080916972815e-07,0.409260145749799,0
1.25554454300095e-06,0.506860319873832,0
1.14674412954946e-06,0.44410263984941,0
1.1599978859973e-06,0.446421901882026,0
1.23203911178168e-06,0.435596285364111,0
1.48768483731996e-06,0.471253979359516,0
1.69273631543871e-06,0.507874855074004,0
1.72804537897035e-06,0.489823595173315,0
3.36342944926469e-06,0.531533696193578,0
4.04394212518805e-06,0.464351515047252,0
4.07897559114803e-06,0.468200533734105,0
6.10568930568977e-06,0.40633493724228,0
1.14919782138221e-05,0.517025676866057,0
1.22291895925499e-05,0.546627821679849,0
1.332696808986e-05,0.561983218920574,0
1.32061922323363e-05,0.485353779773823,0
1.40637429516286e-05,0.482942815780259,0
1.54470453628185e-05,0.501015389191866,0
1.67287314966597e-05,0.408352366251042,0
1.78866136934687e-05,0.402643507855758,0
1.54436795170095e-05,0.335650778308832,0
1.75140139972385e-05,0.339165190184344,0
1.81140103596368e-05,0.329457894659192,0
1.82570202208055e-05,0.300169007665899,0
2.01841627522831e-05,0.310417033397786,0
2.5903791855737e-05,0.368678555727386,0
2.29378851864567e-05,0.311934462852148,0
2.0549980508121e-05,0.295459503113518,0
2.02382523208809e-05,0.314438724310186,0
2.03091316593637e-05,0.31455046147811,0
2.16528681446045e-05,0.353326936343436,0
1.9173777251978e-05,0.370601465926043,0
1.74734356972118e-05,0.382655905507795,0
1.77249199199696e-05,0.390755687759263,0
1.98301976444331e-05,0.420440515870044,0
1.76876532094067e-05,0.414266292649135,0
2.79871105575778e-05,0.438315529119613,0
7.490161917322e-05,0.580769139035229,0
8.83144555334748e-05,0.494750485620654,0
0.000151728696876052,0.48091547090295,0
0.000253840226452058,0.638927190264659,0
0.000328570583005443,0.67075028096853,0
0.000404763341966865,0.596407725150138,0
0.000371507522577739,0.292581127992568,1
0.000432267323507549,0.161088701661894,1
0.00033162571783095,0.100209218571839,1
0.000279638842485374,0.0660564686100963,1
0.000396445083836136,0.0648964047381162,1
0.000308177420187312,0.047952173232593,1
0.000268501108162479,0.041658244486523,1
0.000284053997790001,0.0407642887347854,1
0.000286924902420895,0.0379954856899199,1
0.000385295398217352,0.0442727392343251,1
0.000409746648755793,0.0466610220528888,1
0.000367238030762801,0.0547891756196054,1
0.000330508964512761,0.0562377464255041,1
0.000394277721233507,0.0663428149644992,1
0.000266914956793063,0.056316948389566,1
0.000271883968679161,0.0596952176229604,1
0.000327862227370672,0.0719498306722003,1
0.00039135244475716,0.0848989743300662,1
0.000393786064105626,0.0812166554847239,1
0.000367384799108974,0.0748800590648563,1
0.000389116819040573,0.0880335361508252,1
0.000445926677477052,0.0963800944622655,1
0.000493598616488944,0.110828981790498,1
0.000264358072268962,0.102622529112999,1
0.000212386072101938,0.114239106896237,1
0.000114714220773767,0.0991708994707203,1
0.000118342683734906,0.104074109938335,1
0.000118815490276608,0.108547385333435,1
4.92649299690671e-05,0.0990508661773427,1
4.26318870734393e-05,0.109672078646086,1
5.98606726894662e-05,0.13353333275583,1
5.75564462981372e-05,0.123079666928902,1
5.5891077376459e-05,0.145342114577191,1
6.56169382872611e-05,0.173245582314399,1
6.67125486886858e-05,0.163209275416097,1
8.49618475533644e-05,0.18443010150856,1
9.17929495378646e-05,0.143657775154204,1
0.000107159217067464,0.152024956517262,1
0.000117511537359247,0.127602083692541,1
0.000338932107968396,0.177372086688195,1
0.000421289680854595,0.152279138197376,1
0.000421829950742955,0.156776485723729,1
0.000396199544176958,0.151871174762192,1
0.000357282090065699,0.146575284472766,1
0.000348248066301508,0.129831093327461,1
0.000407768709337667,0.138585183492078,1
0.000419656781786566,0.168860372134976,1
0.000309672663508965,0.144992292617685,1
0.000284866927597758,0.159145277430553,1
0.000202504496199707,0.202883838674781,1
0.000180347918106202,0.221251896545449,1
0.000313743756310808,0.234334349371082,1
0.000319263297466905,0.215973348894419,1
0.000290795495728671,0.198775511194795,1
0.000418449385023056,0.21105393774473,1
0.00069234781894407,0.187603357987397,1
0.0006925170156097,0.148816836856335,1
0.00103913900804479,0.104389625854592,1
0.00136053611580548,0.0816505818568083,1
0.00115778456087169,0.0304529370940383,1
0.00641673381910248,0.0394278353655493,1
0.00726137658147484,0.0186469166186767,1
0.00699524003029336,0.0175161280439717,1
0.00666785684668341,0.0167133210500135,1
0.00714998860020018,0.0155273327256247,1
0.0130408406391857,0.0222267365056099,1
0.0203026662480231,0.0343648263746611,1
0.0297752777387588,0.0341861246402032,1
0.0287522197499616,0.0231895387420407,1
0.0258856254960194,0.0217050033527296,1
0.0255547690994587,0.0219242143273289,1
0.0386210499801115,0.0260461200647698,1
0.0419877024183311,0.0166310930666532,1
0.0359731879955766,0.0152293485772688,1
0.0331112268629686,0.0144920595483347,1
0.0347958871329326,0.012126957991201,1
0.0388347656762945,0.0116257665002302,1
0.0375241494886767,0.0115546967759287,1
0.0328236874615054,0.0121424814617709,1
0.0277794334036437,0.00967122763262626,1
0.0246372642904842,0.00859799148115577,1
0.0194641577664063,0.0126622085522125,1
0.0154198736343938,0.0154932891817004,1
0.0156444640320905,0.0128228609497507,1
0.0169415826376086,0.0128929619983555,1
0.0150507196817844,0.0145459824975585,1
0.00873796450610342,0.00662406898012812,1
0.0105508716103517,0.00880963501894312,1
0.00996064004549875,0.00798042057860896,1
0.0106982849160861,0.00917394959596874,1
0.00945010407754999,0.00804250784802309,1
0.0097869318365228,0.00807581279711122,1
0.00898187129919892,0.0077952703853699,1
0.00844441647253745,0.00842288181311094,1
0.00975228808207322,0.0113118197298297,1
0.00753215348467618,0.0134035582993978,1
0.00471905005528387,0.0168060631724955,1
0.00447353698993555,0.0189684689583193,1
0.00286707997369964,0.0124496938107868,1
0.00309988881306013,0.0114822073328264,1
0.00336101928838693,0.00968271325471967,1
0.00342446740685711,0.0102038425775239,1
0.00282234859706729,0.00776096960517401,1
0.00276776650550076,0.008174906866968,1
0.00326235884000242,0.0100053887807981,1
0.00295145679964188,0.00878027313236299,1
0.00314397490346246,0.0102491667982206,1
0.00312246935907227,0.0107501744551871,1
0.00292115411921201,0.0131702356016648,1
0.00241147398910562,0.0169363315052577,1
0.00219926393126681,0.0223624781614594,1
0.00222600581924279,0.0246294906642375,1
0.0023627111502323,0.0246001088603166,1
0.00265173947692747,0.0299626471640518,1
0.00297912045524306,0.0403001963385797,1
0.00285307997959019,0.0463759937633643,1
0.00281237494496174,0.0564424092046987,1
0.00295518399692306,0.0771572305128721,1
0.00234749289021037,0.0710212746834575,1
0.00160594536297311,0.048563135690436,1
0.00111627587550362,0.0359162417267669,1
0.000881847040323227,0.0306799267403356,1
0.00081923453369033,0.037857954394279,1
0.000714422189631866,0.0310112569025019,1
0.00092064145101111,0.0384735882567843,1
0.000885366118382104,0.0417828686230106,1
0.000954622043717342,0.0376482862545443,1
0.0010470527012713,0.0353561734618613,1
0.000922773273652465,0.0312096834629855,1
0.000900930516931336,0.0288897942857462,1
0.00259245752831103,0.041847682582286,1
0.0035725916968846,0.0361109687820534,1
0.0037154038876988,0.032021670149557,1
0.00416800632908611,0.0290429327097949,1
0.00425711923908106,0.0294050536687334,1
0.00368519399579229,0.025164145854737,1
0.00325570682506038,0.0228061977678678,1
0.0064884493533976,0.0167888832748081,1
0.0141868949666126,0.028418746112444,1
0.0153207444925713,0.0334795057251859,1
0.0155392264863981,0.0282623356019173,1
0.0155130802698962,0.0283857490865302,1
0.0147403373288388,0.0278214243248505,1
0.0145528907351556,0.0232250109641518,1
0.0190204265450152,0.0232895461996309,1
0.0163135276720532,0.0152055298877438,1
0.0119560733279661,0.00868052325670878,1
0.0292916882696369,0.0146960828723816,1
0.0704888620196028,0.0334358115848182,1
0.110173477451947,0.0427509837977617,1
0.125157699580332,0.0504023125134097,1
0.128137644191617,0.0450543928720112,1
0.138506188606532,0.0440224379998159,1
0.118206653040568,0.0441268165378913,1
0.111866503359087,0.0345397810843324,1
0.0825031748838221,0.0306501142367541,1
0.0453757513961413,0.0163442883515297,1
0.0421897615303585,0.0175031590283551,1
0.0437086324170383,0.0164272679174046,1
0.0429685337786799,0.0139778153450893,1
0.0493801775946575,0.0161355856072114,1
0.0475787363079192,0.0175411613682715,1
0.0323802734184953,0.0101557768803109,1
0.0438277521875857,0.0108404120204513,1
0.0504142200184266,0.00916702261899603,1
0.0521955342237871,0.00673185267286675,1
0.0508356403575004,0.00804965591329361,1
0.047874636057284,0.00796389067996511,1
0.0457743816998024,0.00780996017449462,1
0.0486194508870378,0.00962944845009989,1
0.0663978839203311,0.0132194814797982,1
0.0854365002132481,0.0189133697356488,1
0.0845602550550723,0.0212240801339609,1
0.102070860054725,0.0278469408811,1
0.0804005369006177,0.0591240263342655,1
0.0549248796436665,0.0952675024883603,1
0.043461810680423,0.0799246647579149,1
0.032008763765945,0.0697792822592554,1
0.0160579073689009,0.0439450267131319,1
0.00639787186734978,0.0171045767620802,1
0.00468607594069627,0.022467752080379,1
0.00477001154345521,0.021656300129371,1
0.00462904213518739,0.0233645369457704,1
0.00430000177320596,0.0224906964932096,1
0.00463281155931887,0.0236865373001025,1
0.0043749729156173,0.0302012810409246,1
0.00370681811290358,0.0418532711010532,1
0.00344288434560024,0.0430772971075199,1
0.00325378792764373,0.0434303572111244,1
0.00226716286666863,0.0642027834004596,1
0.000813972475474157,0.0242193268011743,1
0.00160946124648415,0.0433754242238993,1
0.00206664279218445,0.0625309242570922,1
0.00242024044893653,0.0736413482980054,1
0.00637932813954305,0.0309274672032373,1
0.0122016132897672,0.0236974229007493,1
0.0111278653326155,0.0201823089323208,1
0.0104474296789176,0.0189012709974851,1
0.0100387416713378,0.0174989738416341,1
0.00938809076227152,0.016103845948908,1
0.00845332489584248,0.0141796207465807,1
0.00933691698875098,0.00780846034644192,1
0.0206664648853155,0.0158898001066892,1
0.0210454174072706,0.0105856527108623,1
0.0216934956067372,0.00899216007467989,1
0.0261079932697928,0.0119443195189646,1
0.024085068566848,0.0102717485782178,1
0.0256721932050811,0.0104935328031743,1
0.0224660420039785,0.00832867406557749,1
0.0334016063078892,0.0100566259331037,1
0.0340302322993849,0.00613161768314353,1
0.0297938965303219,0.00585745216260854,1
0.0306718672635688,0.0064243210204156,1
0.0276854011132682,0.00737317999414389,1
0.0266311274440564,0.00909906726836783,1
0.0297589006747987,0.0124402854049365,1
0.0347639358048112,0.00850847525086696,1
0.114063607953066,0.0260765457033162,1
0.120101701828725,0.0209505529887935,1
0.119057057430566,0.0232187687528685,1
0.112078048308531,0.0279453311633376,1
0.103976343640217,0.0165534754090325,1
0.112561241114445,0.0188143311134001,1
0.106961380675507,0.0173387282625287,1
0.0921710133952444,0.0155715304824915,1
0.0766569188528124,0.0130143241487752,1
0.0656070069132822,0.0156323619231233,1
0.0524070891448892,0.0143091204333869,1
0.0628140714434163,0.0209657814012643,1
0.0680158596548356,0.0230213808098818,1
0.0575936636729326,0.0188297744109345,1
0.0523578394415318,0.0413886458793346,1
0.0481328904829781,0.0454960816994805,1
0.0471550295998819,0.039168415638327,1
0.0511484659730377,0.032171428418063,1
0.0492109473438361,0.0292207388581267,1
0.0514100799236766,0.0251068249410251,1
0.0901603955040202,0.0349345068379134,1
0.11907119528676,0.0397317393253187,1
0.135054810590907,0.040164255650684,1
0.18233636903695,0.0557319636663987,1
0.195180681530952,0.0666484918532898,1
0.170094914338751,0.0573793344121878,1
0.116159193962768,0.0489867873298868,1
0.104616133644397,0.049096334895853,1
0.0606975544492233,0.0292242125090483,1
0.0213867239609528,0.0150498569947988,1
0.0187119988097883,0.0230828386872663,1
0.0175346834444643,0.0275280143465666,1
0.00919343196859643,0.0238737343476659,1
0.00843855275337832,0.0472496258183121,1
0.0069912743574675,0.0400522603128061,1
0.00734031612792304,0.039316138261256,1
0.00725637086845948,0.0360957516386386,1
0.0059006978835907,0.0297171341898309,1
0.00590336710669961,0.046539605612961,1
0.00576489810836879,0.0513305859114388,1
0.00491719980650901,0.057212914164519,1
0.00282139312279039,0.0356653279333122,1
0.00182075138994242,0.0225528961726848,1
0.00376905171438976,0.0346248395315879,1
0.00422555001445626,0.0246754411519429,1
0.00353423625825548,0.0165331459969345,1
0.00879244194344831,0.0256318561417707,1
0.010382900506263,0.0200225704266273,1
0.00961296711998804,0.0178657386916513,1
0.00964877495716876,0.0138361721891655,1
0.01104703351721,0.0169621901991538,1
0.0133741442450762,0.0212616742834726,1
0.0127346241353855,0.0137098848577845,1
0.0142922845836951,0.0160751740626693,1
0.0145113446876146,0.0196608905037794,1
0.0165277423768933,0.00759609789509285,1
0.0292952700319627,0.0149481568257498,1
0.0291550261876338,0.0150656823447006,1
0.0266844239168288,0.0139355346805093,1
0.0263342215658481,0.015924590174185,1
0.0287107800010822,0.0111294916785109,1
0.039975558343385,0.0146885416875227,1
0.0403138328688681,0.0178048871267218,1
0.0372232858935957,0.0164582432514622,1
0.0325787079251056,0.010986917613284,1
0.0309732004283071,0.0184651443370182,1
0.0345668075220752,0.0124276288245764,1
0.044634094355965,0.0187536772186546,1
0.0524522069541196,0.0197700597699185,1
0.0559829610463054,0.0189088793100096,1
0.0507582402802828,0.0204249422233126,1
0.0568450732731804,0.0241236636645877,1
0.052134292603083,0.0226420945876846,1
0.0500909142406731,0.0232631090893545,1
0.0583661277620652,0.017522352557377,1
0.068470028789294,0.0206882214478173,1
0.0689114522434506,0.0235048545191766,1
0.0688043852174702,0.0234110961212793,1
0.0641398973816471,0.0262495200518204,1
0.0624117072582567,0.0254590332511254,1
0.0634630283938579,0.0188145057443272,1
0.0557381539304051,0.0178212051496667,1
0.0502686146045037,0.0146486471127891,1
0.0398086883564085,0.00965108042460343,1
0.0356066670831566,0.0164465135789005,1
0.0232331795673616,0.00912803683829957,1
0.0322135141744739,0.0160254575656235,1
0.0351051113841898,0.0168033633571746,1
0.0456124505485248,0.0226945298690863,1
0.0384572266442411,0.0215599205974901,1
0.0440192729248599,0.0329154186902789,1
0.0447287448371778,0.0280945170785402,1
0.0456773460944463,0.032212250942474,1
0.0431826333635782,0.0351648656738521,1
0.0475297465233855,0.0377232657236387,1
0.0509166654994645,0.0269548163664132,1
0.0540459306739618,0.0214849726699893,1
0.0711968307704609,0.0294979786544929,1
0.0883132002603163,0.0323942909930155,1
0.087677065463673,0.0331651372695887,1
0.0717634127477599,0.0296637786732695,1
0.0657447109452365,0.0296454697919718,1
0.0745657980063247,0.0312403839239327,1
0.0749210266276184,0.0314364416235814,1
0.0753905301886331,0.0289156322702945,1
0.0498353719039916,0.037751721552072,1
0.0178819801012962,0.0357027470001353,1
0.0193160498803943,0.0201079792537958,1
0.0232782733508959,0.0132735413912106,1
0.0225353246637168,0.0127323097209252,1
0.0224761503048163,0.0111868510304837,1
0.0217993515575178,0.011299259824925,1
0.0193872528194419,0.0094222176468526,1
0.0177559605386899,0.00843777164143693,1
0.0175668133376164,0.00979518603780312,1
0.0183316710363237,0.0100594196092623,1
0.0198248002812706,0.00832810543558146,1
0.0200279535800869,0.0136359654387686,1
0.0158666550254354,0.0268858365030452,1
0.011422006930598,0.0201961887555529,1
0.0123112876643245,0.0261214570988128,1
0.0125700961583848,0.0224607158911666,1
0.0130780019835152,0.0167876842229165,1
0.0162854904998441,0.0178465951902816,1
0.0223701171561006,0.0151564117358001,1
0.0224101906308405,0.008770618235612,1
0.0225744104079606,0.0116112398721107,1
0.0184816132807624,0.007866362882507,1
0.0206101164761701,0.00876003265351962,1
0.0211708970058998,0.00746423440449481,1
0.0248079367669298,0.00869660207696024,1
0.0260753206412742,0.00789458746349874,1
0.0255294801244766,0.0102616247629165,1
0.0215174888059119,0.00784573269009994,1
0.0175401135317044,0.0102093920123343,1
0.0153403529859444,0.0143918231054268,1
0.0154478844947417,0.0143499287318825,1
0.0239783972294131,0.0119236418744876,1
0.0302053693866257,0.0164747180553134,1
0.0321558461947017,0.0205066936059731,1
0.0317225279373992,0.0192900162324584,1
0.0317636277962737,0.0215366674570041,1
0.0281684926689302,0.0181124339254807,1
0.026301745764039,0.0168534778980237,1
0.0290770707366094,0.0171303096236845,1
0.027431166437021,0.0165022894823233,1
0.0334045577059186,0.0175749968624583,1
0.0347849925641427,0.0226951042608001,1
0.0406290289367288,0.0180525482295619,1
0.114226149608865,0.0346860594715114,1
0.160017788772667,0.0474431792401925,1
0.216322523729241,0.0613444461301417,1
0.251748296009342,0.0528421517461161,1
0.22604018946274,0.0327136137784329,1
0.167835551881862,0.0243383878435567,1
0.131407944983975,0.0202505743135098,1
0.123689999838926,0.0192652542429063,1
0.0983950720819765,0.0131156250987672,1
0.106342207975841,0.0170177283848959,1
0.140913270379155,0.025997160654776,1
0.158342253065305,0.0255501577162496,1
0.145645080015977,0.0274846168106397,1
0.0999433206977028,0.0205816635937576,1
0.119724076352339,0.0236463727660989,1
0.128829626980344,0.0172888396194385,1
0.132245788563638,0.0153455392944005,1
0.123764798634721,0.013718881247782,1
0.120452444563348,0.0152003497068764,1
0.130727198111463,0.0170112271961574,1
0.144535435624629,0.0184220623702966,1
0.155012800617244,0.0186416112697031,1
0.153412396263368,0.0185136213094136,1
0.164543098938029,0.0168844095044712,1
0.097298829142816,0.01753346594025,1
0.0263997504621174,0.00954623837847445,1
0.0261598514379896,0.0197784532951664,1
0.0296038619943645,0.0227854372137587,1
0.0280084703435297,0.0215807693582728,1
0.0263991585976303,0.0185647817894674,1
0.0265536864771813,0.01994216584817,1
0.0253550194584999,0.0292589792882211,1
0.00762334056860985,0.0122049111070708,1
0.00553199928105772,0.0646918895279461,1
0.00616974959624221,0.0583854670706713,1
0.00658452846953383,0.0301345812428956,1
0.00718192634543052,0.0342733587627931,1
0.00709934314516934,0.0267468020148428,1
0.00989138842460299,0.0217787294136883,1
0.0101294443719876,0.0215597438763279,1
0.00972375310861618,0.0199061626391918,1
0.00975580622215498,0.0190314487443553,1
0.0108314436536512,0.0199085583821512,1
0.0110970911380342,0.0181502688252738,1
0.00826745589294605,0.0132264594210872,1
0.00667401875830475,0.0134265893984127,1
0.00669150912465338,0.0125139815303231,1
0.00833083206832456,0.0140809774237142,1
0.00744081635964948,0.0112610582919102,1
0.00700704626403308,0.00947502582362178,1
0.0123738157433574,0.0132643767543111,1
0.01309993826903,0.00586061984683345,1
0.0156342090673089,0.00677177171394024,1
0.0168330201625846,0.00768921571598291,1
0.0175694866900647,0.0051435630327598,1
0.0251841254171232,0.00943825622024905,1
0.0262296144488816,0.00721982713516011,1
0.0283486750447617,0.00914654439258133,1
0.0291036511552358,0.0104161893646713,1
0.028382855138563,0.0108113132358161,1
0.0232927611646271,0.00992321380942509,1
0.0231929911942266,0.0153475862141143,1
0.0228646074241411,0.01558112462025,1
0.0221688927397181,0.0173263084383843,1
0.0196996174237464,0.0223335563932214,1
0.0099738945069708,0.0112996102746705,1
0.0071780136796153,0.0118747217806411,1
0.00654798627642007,0.00994058148060851,1
0.0066460194437688,0.0142838069466736,1
0.0427579381941254,0.0184874664876599,1
0.0960533816707197,0.0301136933675322,1
0.109598608871807,0.033118733012515,1
0.125874618634639,0.0393281794691546,1
0.142211648839308,0.0354747368260556,1
0.176395665704978,0.04084019120848,1
0.175285987682198,0.0307123128251181,1
0.146431914104989,0.0240986076627209,1
0.118227121918835,0.0162335168583366,1
0.086980586585307,0.011524281907009,1
0.0767864118183694,0.0145232919369958,1
0.0966416028011251,0.0188841579188921,1
0.0953941082530519,0.0119857836195906,1
0.105345390980441,0.0122288147865088,1
0.100710475888644,0.012540779162354,1
0.0968065071255175,0.0120948772124139,1
0.0941460596891219,0.0149847112740954,1
0.0634037193602274,0.010231051463623,1
0.0787187448102391,0.0202585459101323,1
0.0745843047617204,0.0140402074697843,1
0.0720311729722728,0.012956987823959,1
0.04791019935341,0.0112209740531867,1
0.0306780629884021,0.0127390568066681,1
0.0271624490430287,0.00953818016675374,1
0.0315570191510801,0.0154841618551285,1
0.0310359822944775,0.0134371296906969,1
0.0298599361600651,0.00971063404854247,1
0.0570447089199138,0.0170248754777957,1
0.114320494386812,0.0291350002236993,1
0.114560130509661,0.0295592468376876,1
0.114021993251108,0.0249221274954396,1
0.146205934427538,0.0281494099100677,1
0.173539428500981,0.0372643031798765,1
0.16085157908767,0.0365522781012826,1
0.170553058540501,0.0367305388050544,1
0.133040056159445,0.0334426541961213,1
0.0802958275019115,0.0252483880680648,1
0.0665004027529071,0.0244110441662706,1
0.0714664099616564,0.0261630351199333,1
0.04024140888512,0.0194631694946858,1
0.0217916285460585,0.0268675236105654,1
0.0212942699749173,0.0280460153559282,1
0.0211552406107849,0.023581283451311,1
0.0265069561729679,0.0252899512935042,1
0.0228465727489919,0.0165118072531233,1
0.0201840278315498,0.0141334326147969,1
0.019156666778591,0.0132466441391625,1
0.018920076050012,0.0168070733048667,1
0.013379882573403,0.0118286581600789,1
0.0199982345857195,0.0159910698442047,1
0.0294951950572766,0.0222649789993116,1
0.0388462555900955,0.0271427204272697,1
0.0461669696057259,0.0253084231215868,1
0.0466025453920727,0.0229331560399102,1
0.048222425461303,0.0241833245581363,1
0.0434094986401214,0.0221180837488857,1
0.0410017554251054,0.0187378354994665,1
0.0414720864503601,0.0196246528377979,1
0.0429743604415773,0.012904011917675,1
0.0483914067318115,0.0129323564451358,1
0.0477545733538961,0.0112048979567418,1
0.0640205040538954,0.0123277949325318,1
0.0624552392343599,0.00734923547230039,1
0.0631633797632731,0.00789545747095649,1
0.0616113709269562,0.00745807445589771,1
0.0659368481045706,0.00730017612309632,1
0.0619509430291058,0.00610571274088703,1
0.0544941596861539,0.0042074683634811,1
0.0511205945124489,0.00594500335156926,1
0.0461462238372913,0.00580069149346993,1
0.0565755263337856,0.00668038252166728,1
0.113645731685627,0.0175766358979632,1
0.117984622357665,0.0209538419135186,1
0.104845898609898,0.0184597008605981,1
0.106968392931516,0.018499599118882,1
0.0942292951739623,0.0190473394918324,1
0.0865902957856571,0.0196171846727767,1
0.0833834970264428,0.0194180462384909,1
0.0753707959659419,0.0154361470201605,1
0.0586269377735221,0.0117797355581486,1
0.0634253488364886,0.0155830676361948,1
0.0394316805339477,0.0114159995027744,1
0.0638021000012609,0.0217907480197293,1
0.0703959656651435,0.0182985466488256,1
0.047763737111672,0.0154266994199963,1
0.0943357184254918,0.010907429467156,1
0.187552480461091,0.0217584654984843,1
0.205549791986903,0.0244487327272779,1
0.272064808922221,0.0312487889748154,1
0.245641818136588,0.0227220691283704,1
0.228322039385695,0.0212140165780395,1
0.184125862624647,0.0172176753553523,1
0.175082392088019,0.015084691007432,1
0.196303148321485,0.0194880661890524,1
0.188270131601711,0.0180145719391958,1
0.199996719427512,0.0416702204361388,1
0.271628564317085,0.0432919354802962,1
0.333415883976705,0.0416052872673807,1
0.247846877275944,0.0311565058516925,1
0.196890748767419,0.0333803816827058,1
0.166983458689443,0.0303755110336226,1
0.113559934980174,0.0214174110586369,1
0.101297383691293,0.023795412072706,1
0.116731774151149,0.0254111205387993,1
0.137532598244477,0.028378847614707,1
0.135611447124467,0.0291240661934484,1
0.153817837701445,0.0424127351248734,1
0.172672945639215,0.059776475113587,1
0.129321664085551,0.083819321248336,1
0.0705420313718136,0.056859128161551,1
0.0186402562619988,0.0372912648773844,1
0.010961378224241,0.0466969062356243,1
0.0078143546313602,0.0388711544230327,1
0.00396031502822102,0.0224425857123351,1
0.00867737346131471,0.0416457311879633,1
0.0131677823529109,0.0548455039655441,1
0.0134090610886663,0.0510380632635845,1
0.0112436896640045,0.0371781494067154,1
0.0119965726596292,0.0201872477012586,1
0.0283691258103495,0.0300757733904098,1
0.0365962359150342,0.0168981459656875,1
0.035839771017949,0.0156615075397146,1
0.0324801341397236,0.0138150885309002,1
0.0372800457023007,0.0184199444372419,1
0.0395158748208903,0.0184402617581472,1
0.0386675831063878,0.0175465314245453,1
0.0387812477721766,0.0181801031054713,1
0.0377491909517399,0.0189493104643002,1
0.0369484721490684,0.0238855301721356,1
0.021804478022859,0.021523185987217,1
0.00941163904439182,0.0255732234522147,1
0.00978974122432302,0.0309728451560527,1
0.00944718760858426,0.0242861156371615,1
0.0221785757540437,0.0231576207196912,1
0.0247893146619276,0.0099526633135275,1
0.0269962031313395,0.0113365211039004,1
0.0282518975024157,0.00801115739718135,1
0.0352729404198882,0.0103188811036409,1
0.0356483159011554,0.00870810096803892,1
0.0358234340904286,0.0086288803297688,1
0.0358020771594086,0.00892252190417204,1
0.0399506210091196,0.00551404063968847,1
0.0674713053073079,0.0112276747899051,1
0.0609707368379057,0.0102239557135531,1
0.0575544662826945,0.0143837059676603,1
0.0497641217566829,0.0123063665466914,1
0.0484005210826085,0.0148442362683508,1
0.0461561422843877,0.0142058787893391,1
0.052863036407238,0.0156499201130292,1
0.0547620595988682,0.0162230346267899,1
0.0574049996728067,0.0171463849423295,1
0.0537173460374326,0.0252847532572707,1
0.0407446900104668,0.0187139296480007,1
0.0565836746281606,0.029200067176184,1
0.0516865209686954,0.0225817569896722,1
0.0531091727661918,0.0206527537141869,1
0.0394296658609287,0.0136013864363577,1
0.038179881916018,0.0106169513440118,1
0.0519670150164435,0.0166292332641178,1
0.064378021275342,0.0189210345414614,1
0.125160303469759,0.0291103845911429,1
0.270928818090681,0.0394798577474415,1
0.257970229650132,0.0317474478810733,1
0.369669141728731,0.0315580296429047,1
0.391211426918219,0.0170133422720805,1
0.374902673400498,0.0148311812353438,1
0.322139718257078,0.0110403306544668,1
0.297776024972103,0.00885330859437235,1
0.327374815733264,0.010115710412845,1
0.29972260397865,0.00812606909426134,1
0.35487839655179,0.00894950831822662,1
0.387196288143444,0.00951798299004482,1
0.386026654840219,0.00969185094379986,1
0.318875708134766,0.0100829768092159,1
0.274871683801486,0.00891162035917396,1
0.297600010126233,0.00518951948426788,1
0.309324517096653,0.00709113000977124,1
0.318117405809866,0.00790888310253747,1
0.339765996900369,0.00865043957776014,1
0.307590384758736,0.00690402171532725,1
0.306133293363758,0.00889538000628467,1
0.322217730213209,0.00964260116126774,1
0.328557428646311,0.00996028408677964,1
0.359335425523808,0.0103934285496405,1
0.220611073168769,0.00845347128074305,1
0.132587085893844,0.0208961950642119,1
0.147920169079391,0.0208317198666283,1
0.148755769690542,0.0215458532001626,1
0.146071447707455,0.0204714940488654,1
0.122115055501516,0.035171791046053,1
0.0223397829788347,0.00953060951855225,1
0.0120754758017139,0.0296078371315442,1
0.00797942345533947,0.0239039318059986,1
0.00565799707515513,0.054814921060888,1
0.00447967699648234,0.0446120347335404,1
0.00306926205084866,0.0331520279803414,1
0.00227280337820358,0.0261297398030027,1
0.00263031860151637,0.036442984675435,1
0.00413930957430556,0.0182679266120499,1
0.0105456671604542,0.0342330974813402,1
0.0134966361223888,0.0399279124504991,1
0.0137942001140341,0.0379164700778974,1
0.022634031782423,0.0370619357619285,1
0.0234572872513902,0.0245956913270667,1
0.0223798609314701,0.0238330554900139,1
0.0208193500232042,0.0229034197930939,1
0.0169492597863231,0.0137187983607207,1
0.0149577915305379,0.0110357793805119,1
0.0137404650629724,0.010989251865568,1
0.0136986141331001,0.0104158611977356,1
0.0149482754911422,0.0114569366906373,1
0.0155139569361124,0.0130460423249122,1
0.00975524664964699,0.00993111916584415,1
0.00951058790964265,0.0146600221711973,1
0.0128132473513109,0.0203796872183858,1
0.00988370292359685,0.0154590597463402,1
0.00921605071960453,0.0179821939803033,1
0.010247947950859,0.0110489361182772,1
0.0103828357578915,0.010760048351779,1
0.0174913748795493,0.0124440913563252,1
0.0197068361235045,0.0111866554265754,1
0.0232615148549642,0.0119724226723225,1
0.0345061301151601,0.017794113924297,1
0.0349422073923917,0.0152388534821179,1
0.0283687549946389,0.0122227467219871,1
0.0252156444173275,0.0100106913423925,1
0.0252516972634211,0.011147100315744,1
0.0240558905848998,0.0154986285591368,1
0.0129204079238621,0.00843353483898784,1
0.0132207826703004,0.0146029252197025,1
0.0118182506455027,0.0185076411082276,1
0.025358266842464,0,1
0.319498555940484,0.0276327598883347,1
0.414233081795025,0.0263161901582631,1
0.446739403712536,0.0283614615672417,1
0.470601617077291,0.0293864712261659,1
0.53223853526317,0.0314889923761791,1
0.606064697847047,0.0348054932824132,1
0.569517887575853,0.0331176381143021,1
0.455975568648599,0.0266214820021519,1
0.301069502000034,0.0145138421588899,1
0.18101921111072,0.00591968716086037,1
0.202791179716059,0.00943165280409567,1
0.182917409707942,0.00982639190617185,1
0.166745199314366,0.00693849111140796,1
0.220389731527989,0.0104509573028705,1
0.314574825544322,0.0162319952324175,1
0.325047716398614,0.0128766204269518,1
0.332577980706944,0.0124943110156912,1
0.449830171141306,0.0153698903818819,1
0.592092639527404,0.0274303661745817,1
0.761097631374423,0.0387269073436414,1
0.865354315612291,0.0434341153115508,1
0.930083020334046,0.0488495207612991,1
1,0.0656134786336918,1
0.793441250082421,0.056031430164407,1
0.390845930216392,0.0351385014939143,1
0.212373958665895,0.0284453359422799,1
0.071377984153195,0.0106845580598013,1
0.0867173654688297,0.0195974494900836,1
0.117352127944863,0.0250468640816906,1
0.137195864892367,0.0296114517380409,1
0.140932958603666,0.0421248498128013,1
0.125393650497537,0.0388345990801773,1
0.122601485130829,0.03743179949371,1
0.0850818617693569,0.0350225130554344,1
0.0538744157481464,0.0330924553362677,1
0.0161894630411947,0.0116366331623216,1
0.00380678468959717,0.0188941119066043,1
0.00429908094160547,0.0231035228865137,1
0.0165014125181793,0.0452308430767368,1
0.0217481505663222,0.0288964674414151,1
0.0207427852522208,0.029666731445666,1
0.0212050200149357,0.028870972023894,1
0.0190518766576438,0.0182704458448653,1
0.0182334863967681,0.0142373637681752,1
0.0172630144711771,0.0111484914857616,1
0.0176109187650623,0.0110907738615558,1
0.0176623877830142,0.00507757679010103,1
0.0370333417800507,0.0124829944506699,1
0.0388787580181033,0.0110261719504855,1
0.0429643250437985,0.0146225188599155,1
0.0424279722378023,0.0115362517138948,1
0.046210390475932,0.0121702491143335,1
0.0521835647549004,0.0149435919587556,1
0.0559496971977992,0.0177978484339024,1
0.0614493347294343,0.0201868293622231,1
0.0627823147535622,0.0208663564824499,1
0.0633221874711921,0.0293905802963786,1
0.0477866287145519,0.0239639167990288,1
0.0422010384149435,0.0225007580287421,1
0.0317506635080117,0.0211623926491284,1
0.0400753789026896,0.0202918382087579,1
0.0489488683568217,0.0136608425187868,1
0.0472881349945196,0.0133916858629854,1
0.0445609892570694,0.0120948657342616,1
0.0402876837051574,0.0107749763332438,1
0.0362972604939952,0.0089517827723531,1
0.0392736432031398,0.00387959614536456,1
0.133279917675894,0.0186398899504507,1
0.138241475556473,0.0116091578832323,1
0.131414695176185,0.0103894356263304,1
0.128806458733814,0.0104055761137464,1
0.141529362424812,0.0153510253611379,1
0.12437013086616,0.0123404312518563,1
0.109641618920674,0.0101404760092292,1
0.103179460204099,0.00710445436650983,1
0.113028635474221,0.00724599282590324,1
0.115883417818983,0.0102539955552457,1
0.0827771986613067,0.00548014528086294,1
0.077441953780044,0.0122640038260543,1
0.0833049916459482,0.0107244076331258,1
0.306878406933367,0.0265931772245974,1
0.430347872108228,0.0176768935643163,1
0.428139511422483,0.0180403429782204,1
0.56858529450732,0.0182253837533182,1
0.648663624883057,0.0162776445085226,1
0.644641946686765,0.0178258556182132,1
0.524850624538039,0.0161595586860126,1
0.438487592950964,0.0107556281002298,1
0.481228162362483,0.011427953664081,1
0.397932440378175,0.00930394920318883,1
0.390667887211513,0.0107685604215193,1
0.380253544634172,0.0126428869123048,1
0.300191778117127,0.0102330714330967,1
0.284250354781797,0.0134362566246177,1
0.283817380928463,0.0186587715135857,1
0.274632453870101,0.0130193332538613,1
0.400174813479617,0.0183892338383897,1
0.518657668898015,0.0374162273152581,1
0.546609954543625,0.0396882558336248,1
0.666607353121333,0.0440774848250419,1
0.650795354286527,0.0369340952057282,1
0.570097272408646,0.0397656671867807,1
0.572712151699206,0.036791335235931,1
0.495371663411243,0.0380310915049482,1
0.249834755232866,0.0214902098530892,1
0.189303916951517,0.023601097027158,1
0.196347211058024,0.0236580015818985,1
0.229614231799503,0.0245358273279991,1
0.294083140110709,0.0312472506145885,1
0.345846803144271,0.0348513543975478,1
0.386797158481234,0.0470250989203451,1
0.366828278266383,0.0542653723468437,1
0.220648641160809,0.0425765004731745,1
0.15413775770898,0.0392516714774068,1
0.0511880269391554,0.0178495947095487,1
0.038700002956341,0.0219819732153344,1
0.0171886532826062,0.00888759109640958,1
0.00985579310284715,0.0337569512617296,1
0.00847587772179462,0.0311946270043374,1
0.00783715658302821,0.0221553547918763,1
0.00752120342469548,0.0170633833488916,1
0.0081075823617702,0.0110885841356845,1
0.00995658465086612,0.0117321667550568,1
0.0103121907522554,0.00891516888359924,1
0.0200690538845212,0.0146063341514925,1
0.0277750364818621,0.0159345691266512,1
0.0257607538675857,0.014544273051349,1
0.0233304459598917,0.0128575452630291,1
0.0218191319367394,0.0122654903278502,1
0.0218187444251799,0.0126172136517306,1
0.0180019608468781,0.0112418378077132,1
0.0171065967889691,0.0114241390769964,1
0.0210412247938196,0.0131590385893532,1
0.0245689926154295,0.00967529029158069,1
0.0277135022772399,0.00954523899193185,1
0.0246161368629824,0.0105856313675206,1
0.0241057982413914,0.00944615408637777,1
0.0253924624893399,0.0107013600121829,1
0.0252801840180927,0.0106029129981632,1
0.0375668699992769,0.0125969801324813,1
0.0462086709685289,0.0126346126454748,1
0.0400203377656552,0.0117561295545923,1
0.0309084683493552,0.00884116093441512,1
0.0297520647846918,0.0120939578305223,1
0.0275339716204064,0.0141687878646909,1
0.0256387057694646,0.0138120755980611,1
0.0273843568655204,0.0102222424018198,1
0.0290063389460994,0.0089299131558542,1
0.0252139007083061,0.00739029688951962,1
0.0327173860624314,0.00577005200082993,1
0.175792328218654,0.0301175325552883,1
0.23272773953939,0.0214756061092619,1
0.233530857100578,0.0220712351271852,1
0.242136722772266,0.016869425426994,1
0.367519523083423,0.0226042081155647,1
0.498860296518764,0.0285558324284748,1
0.524476371932014,0.0303387362054014,1
0.52221672413073,0.0323023383625537,1
0.407084098307286,0.0210791576239108,1
0.335390145027541,0.0169814473429566,1
0.350383939196296,0.0116453504576193,1
0.447532731774435,0.02102168746621,1
0.367159777367167,0.00752055644552943,1
0.295060594492936,0.00650118951455353,1
0.309919598694776,0.00822448219908447,1
0.300128449676235,0.00470355890475386,1
0.425917551407756,0.00807183515539148,1
0.464294490273597,0.00729372130977287,1
0.46815168231189,0.00772845078215971,1
0.438823618871544,0.00734946568053795,1
0.430522619637778,0.00943124178829824,1
0.350140622963891,0.00768695993616801,1
0.313349977161098,0.0127544468980576,1
0.329321412074096,0.0155244538802587,1
0.23737070592128,0.0102625069871195,1
0.292870925479823,0.0151772475909093,1
0.300089373607706,0.0116179294179852,1
0.278354413529384,0.0135157112981355,1
0.271766617174386,0.0116145775865226,1
0.294139589429052,0.0121897911457439,1
0.287951451258832,0.0134454919679685,1
0.316129462921251,0.0131854512570426,1
0.370594158605221,0.0130165194916351,1
0.378310031113698,0.0122397383811293,1
0.436571615863593,0.0120728745359755,1
0.362952362430871,0.0134815679907184,1
0.249289400013182,0.0105555932587576,1
0.205789992166013,0.00648185862650859,1
0.218922656476364,0.0104850599421157,1
0.241434764062121,0.012450813711285,1
0.216332973346779,0.0109352858778496,1
0.221121114247947,0.0130986999161994,1
0.225868428472993,0.018504774936069,1
0.0680034215259074,0.00266592173332209,1
0.0470380998760219,0.0140054882263701,1
0.0478381886561708,0.0158938827352192,1
0.0202058945531342,0.00735434093748388,1
0.00698430968386245,0.0148877961333987,1
0.00711784224682387,0.0104288456844279,1
0.00760454652822969,0.0135164271534484,1
0.00715514633332931,0.00834834191907438,1
0.0107772601541668,0.0126157989472382,1
0.0106379310454091,0.011573228555217,1
0.01583966883727,0.0122497431621803,1
0.0207441528820496,0.0105130079505623,1
0.0214955411897609,0.0130291911020754,1
0.017641189180333,0.00911968493175225,1
0.0182124255948251,0.0109750288500986,1
0.0182261607255902,0.0136788825785392,1
0.0167257142560892,0.0069793693650368,1
0.0849484857356431,0.0188843921169174,1
0.154731774638643,0.0237093474077771,1
0.148834210123931,0.0215459919666298,1
0.147361696394478,0.0215097492968692,1
0.146084446765813,0.0202180080841276,1
0.137432803975866,0.0188950147760697,1
0.121884064116545,0.0154576541622805,1
0.128866339157765,0.0121659260976428,1
0.132970811905492,0.00720434429984102,1
0.146477178779467,0.00866284169413621,1
0.142546335767236,0.0116856234279244,1
0.117441407818792,0.0100544073958071,1
0.128496010809301,0.0114225859347902,1
0.12903251993091,0.011735176567916,1
0.129990237543378,0.013411348864074,1
0.12637399725809,0.0138031571737167,1
0.127601015132143,0.0142301931785814,1
0.0850304520145422,0.0156311402145666,1
0.0158895111114746,0.00862068917483175,1
0.022584143553094,0.0188161767995201,1
0.021460626857582,0.02079544336718,1
0.0216231681362586,0.02099157617189,1
0.028951102376682,0.0243892984402121,1
0.0372644884557242,0.0332415807538602,1
0.0410174688741583,0.0385800491293869,1
0.0458951379176595,0.0440536680957576,1
0.0484097680133064,0.0408225851578322,1
0.0471625361877125,0.0508257993274252,1
0.0398253589818257,0.0529131040878453,1
0.0153974167843198,0.0335597417908127,1
0.00929485978457766,0.0258332566058313,1
0.00446653333150235,0.0138516052001896,1
0.00487976447554865,0.0216857619261294,1
0.00552326005585694,0.0221667314602109,1
0.00636076185455804,0.0178481518038432,1
0.00663519547091023,0.0156861699406173,1
0.00649960845167021,0.0196374245906863,1
0.00556096434959835,0.0174430744573939,1
0.00549329600273882,0.0174418880236649,1
0.00542874051174923,0.0201475790285235,1
0.00421857372218372,0.0169714926699383,1
0.00762294744850621,0.0163951951913115,1
0.0139137842938234,0.0207570774789961,1
0.0119333199440505,0.0131224917103369,1
0.0132575062978656,0.0182123270057163,1
0.0140178863197704,0.0204988115942593,1
0.0156532755091715,0.0227477802337315,1
0.0168179588855906,0.0249028149861043,1
0.0176834771445521,0.0273882868291968,1
0.0186765068720596,0.0274505078992007,1
0.0194465664173875,0.0280130657644676,1
0.0149734733858538,0.0564709256887089,1
0.00226707321299058,0.0270598201407978,1
0.000823191716528514,0.0473315755222606,1
0.00100126405805985,0.0619685855457188,1
0.00100088312261604,0.070513923148517,1
0.00113309845568029,0.0912842317361429,1
0.00110635264531994,0.0950877024921911,1
0.000937171869708828,0.0940699102492407,1
0.000822396783694324,0.108709157753797,1
0.000625764276327788,0.203402412292166,1
0.000106909090691951,0.222687840505392,1
6.32941789354409e-05,0.284020576954445,1
6.05894195645509e-05,0.283646555810677,1
6.03523280704573e-05,0.289750295158022,1
5.84154151837556e-05,0.263248215314565,1
5.44187697944007e-05,0.246281664907762,1
5.19369571445479e-05,0.347017539053958,1
3.82022666983546e-05,0.2887485329916,1
3.64188529246196e-05,0.360789175079759,1
2.72634337735392e-05,0.313375926693771,1
