Activity,Complexity,Tag
0.00878651366452933,0.00685357911095133,0
0.00918174995958321,0.00856723208470898,0
0.00901301121998269,0.00884218837025952,0
0.00797348234934506,0.0080431621149523,0
0.0084339806362465,0.0106821442861731,0
0.00827288490042109,0.0211662276839524,0
0.00353147956825467,0.0110921491283526,0
0.00144022749295042,0.0124755862395098,0
0.00174828613746849,0.011693772579134,0
0.00261616819187352,0.0179694546599978,0
0.00330714584416788,0.0211887652668315,0
0.00419407157144943,0.0274239361817794,0
0.00428861014286731,0.00690592829844525,0
0.00808321341376782,0.00512766689106266,0
0.0145854640084853,0.00991926655886185,0
0.0156619065320502,0.00723385872915675,0
0.0156262548528,0.00790508311413328,0
0.0157035410057538,0.00769640500832661,0
0.0158405384517277,0.00873332649723181,0
0.0140865725477592,0.0076525484082711,0
0.0114123860270327,0.00630976578794916,0
0.00883987617618924,0.00497939299001225,0
0.00839989565838366,0.0072950494135023,0
0.00689382537273227,0.0118001849425596,0
0.00286794181999845,0.00526350066880517,0
0.00237925457136567,0.0103448939128742,0
0.00236254397981192,0.00718571551201805,0
0.0031408005492985,0.00849447509978679,0
0.00388424201193988,0.0100451631674867,0
0.00387424226944259,0.00959262403128573,0
0.00387436332387022,0.0100814541590432,0
0.00383512926948389,0.009597577406678,0
0.00427857471465596,0.0087928191254944,0
0.00483598589617527,0.0150305576752525,0
0.00323659566126794,0.00896113730968359,0
0.00170607484235542,0.00609918775470662,0
0.00102674792653835,0.00500749216458745,0
0.000983303719992833,0.00784735652654896,0
0.000784992951624983,0.00647557694377115,0
0.000771249887796155,0.00826775464163228,0
0.000712228815463185,0.00814388813843657,0
0.000679727943867197,0.00818485348717428,0
0.000770063341017494,0.0128953053111917,0
0.000653380387091161,0.00922575830108937,0
0.000844258430129505,0.00957929872457996,0
0.003349552771463,0.00859805266633685,0
0.00938430289379102,0.0233250525601483,0
0.0109654540938779,0.00981328953978709,0
0.0111348449363446,0.00825609850444075,0
0.0114980499595298,0.00859087875307867,0
0.0110422848636541,0.0080712825857523,0
0.01012449458862,0.00762146675364824,0
0.00958442741300881,0.00669280259929385,0
0.010448982383064,0.0074627495309937,0
0.0114006057931691,0.00842803687712578,0
0.0102680770333225,0.0119549890530672,0
0.0043658106285115,0.00503505354956821,0
0.00121615359184542,0.00455223423146131,0
0.00124959534318732,0.00513885997850031,0
0.00241215638617084,0.00926431755104201,0
0.00267954015572704,0.00733173262801072,0
0.00254591485896423,0.0065904125354699,0
0.00260535614809012,0.00838471688339262,0
0.00236965987382467,0.00744971473689596,0
0.00224756776550296,0.00752888886327415,0
0.00222074450522675,0.00693258749313419,0
0.00218311461886697,0.00724604073081409,0
0.00189198172288577,0.00577016283071713,0
0.00184839883262704,0.0101777669852023,0
0.00095696781323635,0.00590319361416492,0
0.000653555019855886,0.00800466554490399,0
0.000644208585259934,0.00995307492659008,0
0.000538594169469307,0.00717879126716172,0
0.000881178089501235,0.00857690419365367,0
0.00178945337266719,0.0138657124288863,0
0.00216658017362556,0.0141882932228921,0
0.00192153074286448,0.0103916328716276,0
0.00191542058820839,0.0123013605721015,0
0.00213249218409311,0.0126505449513447,0
0.00248252033990892,0.01539969168162,0
0.00259342486944589,0.0158738031861643,0
0.00247733286863781,0.0154043790830112,0
0.00252839562273202,0.0189023537882925,0
0.00247814721381921,0.0330452356290665,0
0.00156276012296199,0.0309511544619047,0
0.000805956786821023,0.0295354475250316,0
0.000697003285911684,0.0405963059928437,0
0.000626690652493032,0.0279395030639242,0
0.000573207473882486,0.0229190692913747,0
0.000620764031921777,0.0249338013150433,0
0.0006776926883895,0.0285219597091961,0
0.000636776861494215,0.0298424154265902,0
0.000528980142885776,0.0223361293939036,0
0.000519952773383972,0.0255187224783346,0
0.000663990506506652,0.0142545911631993,0
0.00107467092286763,0.0210153409730054,0
0.000916413181754976,0.0103781846807499,0
0.00076511283231938,0.00820703110217856,0
0.000949756757074599,0.0106110102970925,0
0.00131940429689869,0.0134577921823874,0
0.0015795743596566,0.0145954057438659,0
0.00156194118241348,0.0124361467662193,0
0.00156419077621435,0.013826016622385,0
0.00156904964090777,0.0123806597946576,0
0.0015690310038147,0.0214338949559601,0
0.000921806572263558,0.0171316506008865,0
0.000467745459960192,0.0158912011563635,0
0.000458359030391692,0.0133773771648609,0
0.000760345653132933,0.0186085916748318,0
0.000904533155851243,0.0181454371205917,0
0.00080620699082387,0.0152547484705694,0
0.000800735054502501,0.0179983534771681,0
0.000872221754634731,0.0123674891868639,0
0.00147577327859131,0.019900747924695,0
0.00159027596882053,0.0171867660607387,0
0.00121494912526524,0.0139039716610151,0
0.000822463178359923,0.0105661610832492,0
0.000671006772652003,0.010185574757028,0
0.000675767993139925,0.0105408351406999,0
0.000708887529621991,0.0116388160146354,0
0.00061191286566022,0.00924737917076735,0
0.000593483678794543,0.00809758261197357,0
0.000660585303119656,0.00877725426582197,0
0.000694028563234582,0.00708496581292929,0
0.000795638455587567,0.00786802225691398,0
0.000809330964501785,0.00731848887612118,0
0.000823240621039284,0.006199025521767,0
0.00120185773532335,0.00780221482595638,0
0.00168835064327449,0.0100015951128824,0
0.0020417508484021,0.0110147701331199,0
0.00226102219569004,0.0142048244736061,0
0.00172724492439983,0.0129957126863138,0
0.00112380235346817,0.0102138811068713,0
0.00122790764034351,0.0122775304716546,0
0.00156379449631848,0.0170492246984039,0
0.00146459596078533,0.0165950310046552,0
0.0012802155670383,0.0187888093059646,0
0.0012493655660173,0.0254219077271074,0
0.00142142315635674,0.0172230359316992,0
0.00226593405695412,0.021322855664601,0
0.00258342193531335,0.0194931414315097,0
0.00208605098357365,0.0152910048902775,0
0.00164043146295098,0.0142170543914772,0
0.00154771760853323,0.0153250313651851,0
0.00153630942458157,0.0144899943144384,0
0.0014636440142554,0.0153010293895291,0
0.00103918823023615,0.0135511116513173,0
0.000460909916395902,0.00725430991985289,0
0.000391390961861353,0.0149628265457456,0
0.00025808422004524,0.0137089503989712,0
0.000171725713161994,0.0125010113604861,0
0.000266249194278696,0.0219648518181912,0
0.000337090264798004,0.0264090794731245,0
0.000414182506261466,0.0315337143680409,0
0.000461530448149866,0.0420596145462582,0
0.000432281337577414,0.0381521053152591,0
0.000416101525982915,0.0325860069680864,0
0.000393933667509778,0.0312157856679163,0
0.000488128667657451,0.030384894879224,0
0.000610380385287084,0.0312043194032317,0
0.00062376778856312,0.0200466724596422,0
0.000753932361442216,0.0211013372403954,0
0.000949194961325584,0.0237657933830452,0
0.00115501797852652,0.0270436730771442,0
0.00121518201400416,0.0229146766225588,0
0.00122686505320905,0.0191532499684375,0
0.00126986788194253,0.0204581256508429,0
0.00118245984198631,0.0203472351349831,0
0.000855532278557779,0.0186945908945456,0
0.000538763501695501,0.0162099348815543,0
0.000541525636123305,0.0221597918363142,0
0.0005789319159303,0.0224126120027984,0
0.000578091792326065,0.0143312408530727,0
0.00075255977024191,0.0156783504652538,0
0.000863376264635853,0.0168040641557742,0
0.000897175444233704,0.0214922674815454,0
0.000928228294792825,0.0220314086711441,0
0.00103358281818635,0.0279531455040454,0
0.00110403382166384,0.0300017611401642,0
0.00110207456860721,0.0330979763505936,0
0.000794860804294993,0.0286726925688814,0
0.000286061649448035,0.015950959697027,0
0.000113789048301643,0.022195738532887,0
0.000349812170990824,0.0176162057994839,0
0.00137941352998694,0.0298380581404763,0
0.0022282290709396,0.0289239998639493,0
0.00241003463554167,0.0298729424809392,0
0.00477186831197197,0.00851232119097178,0
0.0142578490546046,0.0159633123653331,0
0.020606333987169,0.0130330303127746,0
0.0190809677862521,0.00919054175659609,0
0.0164972382904226,0.00869474421028007,0
0.0137108760368165,0.00761538508394742,0
0.0122903664182856,0.00720631551512952,0
0.0119315900556433,0.00666752918179065,0
0.0116114086589739,0.00615105247211925,0
0.0107781915958437,0.00562611841033907,0
0.0109942624399905,0.00864684970433752,0
0.0099889915889374,0.00940027137879167,0
0.00963135398705885,0.0132250005831828,0
0.0110165295131447,0.029533107157171,0
0.0138591605208625,0.0194653334246457,0
0.0212695216897999,0.029123193626589,0
0.0209876890400537,0.0244446907383934,0
0.0157369569287232,0.0199152525953243,0
0.0134976971377709,0.0201199203305136,0
0.0119368274486438,0.0197078348238084,0
0.0102706750978658,0.0186030838889618,0
0.00866117351643244,0.0149135955758585,0
0.00602449269550164,0.0119305916701042,0
0.00279168364758146,0.00656842989750426,0
0.00256947740253983,0.0146263583857094,0
0.00313135601029924,0.00350628239111743,0
0.0160737565644647,0.00963130801248895,0
0.0254260810441271,0.00881796145751672,0
0.0250977574256537,0.00626357216204735,0
0.0256566346299141,0.00644371079248939,0
0.0264427402098251,0.00570073527037545,0
0.0319072230940251,0.00687057481982957,0
0.0340841393658985,0.00724485980014401,0
0.0308036544695418,0.00646294262713229,0
0.0227684414288741,0.00370922256040483,0
0.0272982771645509,0.00580562817836118,0
0.0313887878594602,0.00789311897931448,0
0.0264589159633785,0.00621081889528197,0
0.0272892456429851,0.0093162106076576,0
0.0243925580068481,0.00808105101028864,0
0.0241535094916096,0.00977501621856856,0
0.0225134302500316,0.00955760744455894,0
0.020067780974736,0.00828368937079202,0
0.0183401704927759,0.007708896181807,0
0.0204768756247391,0.0118027050791458,0
0.0145323566880797,0.0090338854092716,0
0.00650698033554509,0.00498116610330844,0
0.00600579317125443,0.00781626957024537,0
0.00593409789610631,0.00831037594655917,0
0.00793021892524671,0.00985126231621075,0
0.0113912330531081,0.0134007622585905,0
0.0102242631186218,0.0110628640040269,0
0.00943753461378123,0.0101976085335021,0
0.0146778952827173,0.00966419479790685,0
0.0217341796007571,0.013481108459419,0
0.0254269062919198,0.0145527808636648,0
0.0269954085930927,0.013605239149726,0
0.0250029132648941,0.0136104357543463,0
0.0198084469283261,0.0089225207515912,0
0.0206932298541423,0.00907787321633208,0
0.0222548380068638,0.0074605137480431,0
0.0197742080908733,0.00695504026476429,0
0.0154847265794313,0.00509295479999793,0
0.0158986112635205,0.0089420654406765,0
0.0136810142483368,0.00842221288177301,0
0.0102301730409541,0.00581959397263697,0
0.00907770271492697,0.00420638804112717,0
0.010555689475564,0.00477140895684303,0
0.0118675825531064,0.00693044743487886,0
0.0123300305479082,0.00752643238561611,0
0.0172740214156061,0.0109609803599032,0
0.0263792112454307,0.0146915178654427,0
0.0337553222794815,0.0217836134157624,0
0.0344114333639443,0.0292207984069204,0
0.0277131274384007,0.0287499470569099,0
0.0186591323457859,0.0230482802023817,0
0.0139113655718613,0.0239221865415914,0
0.0105099194851181,0.0178295049807519,0
0.0044782989877559,0.00800412067299448,0
0.000951317654019704,0.00525510689418695,0
0.00117062141678922,0.025285611508275,0
0.00192674186749496,0.0373240129602463,0
0.00217390281031034,0.0307095348721178,0
0.00214236053625954,0.0253717818114962,0
0.00213689926602323,0.0265380758358107,0
0.00207082179300718,0.0232812464817552,0
0.002685533846548,0.0246304774759727,0
0.00370076129976748,0.0303813444726492,0
0.00390326300290412,0.0187543402969144,0
0.00403466770310263,0.0129096266888505,0
0.00505949815688933,0.013660745980384,0
0.00607247076278085,0.0148834075618153,0
0.00640624822295034,0.0168731546878774,0
0.00747325574165394,0.0185945786594282,0
0.00907074609196022,0.025447292843505,0
0.00904459918032705,0.0243417325946717,0
0.00670413890228808,0.0153221841170109,0
0.00420154578583344,0.0113139653897072,0
0.00294025301206776,0.00873057670280507,0
0.00273150404360827,0.00855204125287953,0
0.00369925734541479,0.00929028060079066,0
0.00634941394449568,0.0137520571479484,0
0.0109695132313731,0.0199622120953834,0
0.0138163766397758,0.0210048557971028,0
0.0141142121747082,0.0161644922205122,0
0.0139465711626074,0.0168722249411986,0
0.0125616399104735,0.0197958083294491,0
0.0083512753330924,0.0146216493122054,0
0.00512299416627261,0.0107533224060084,0
0.00589912516912425,0.0129310950606768,0
0.00954159728259324,0.0218318423115212,0
0.0134425949546209,0.0356793149683725,0
0.0132210228930113,0.0402523538981128,0
0.0104150854512813,0.028063159003987,0
0.00901764446067195,0.0282354903966479,0
0.0078506160219323,0.0248260983800682,0
0.0056656179478566,0.0195027520381672,0
0.003876008099487,0.0107257445953127,0
0.0034811008477029,0.0105425931743414,0
0.00320965063221075,0.00695504688101055,0
0.00424667305623307,0.00511508034719843,0
0.00742300461085289,0.00938269805223997,0
0.00808571577442892,0.007695366963902,0
0.00767183850639255,0.00694468464373145,0
0.00765625291961789,0.00716910441510786,0
0.00757619021074613,0.007199160468082,0
0.00749856512853339,0.00778759691732556,0
0.00709569645355261,0.00921165594626199,0
0.00582667049927788,0.00770284012585674,0
0.00531197622004746,0.00866489608240156,0
0.0051719077558313,0.0174699731787649,0
0.00288613286827088,0.00941615336929731,0
0.00260784394622678,0.0125912372017297,0
0.00360448211075449,0.0193063293987171,0
0.00440766538197477,0.0234088744100576,0
0.00590760574429723,0.0242740270567077,0
0.00794705622251596,0.0256829254415977,0
0.00782452248736855,0.0157679031439398,0
0.00629245955551472,0.0125386269934766,0
0.00507140102740896,0.0108873272636975,0
0.00527892907675751,0.013290768958862,0
0.00619674478130149,0.0188198274118612,0
0.00696533920286589,0.0215094627526077,0
0.00726111469774879,0.0209914158551017,0
0.00715707384370857,0.0215180168244407,0
0.00555621484727716,0.0237110731322938,0
0.00246495371652436,0.00422770257492519,0
0.00499526991880233,0.012069646034112,0
0.00822236581770121,0.015809779001765,0
0.00829100766643042,0.00915442825389986,0
0.00832267109627725,0.00845157014173381,0
0.00849103138322966,0.00821188157183598,0
0.00819928449338851,0.00600363009929649,0
0.00958761723243564,0.00558483879503486,0
0.0118493119512137,0.00732290344776182,0
0.0108032090241247,0.00545479576785375,0
0.0102807741828564,0.00726016104192082,0
0.00960696780289376,0.00718041543560625,0
0.00894566818205725,0.00733939575605724,0
0.00889897701185753,0.00841825377174139,0
0.00968432188662677,0.00787190376309425,0
0.0116110737873889,0.00917454673774592,0
0.0123553662277653,0.00955628095059422,0
0.0113653409948346,0.0104491431776901,0
0.00871007980893601,0.00827684206686799,0
0.00763080544401362,0.00722974964501555,0
0.00767315781344448,0.00690156832975334,0
0.00711707067684758,0.00659683394243226,0
0.00605536997196564,0.00555808879288457,0
0.00591946359292699,0.00667933738394942,0
0.00530818123903275,0.00717245833361565,0
0.00456995694896863,0.00515132872299408,0
0.00566935369924636,0.00964338175848726,0
0.00542606559167629,0.00820525260834312,0
0.00483007301432663,0.00710522241972118,0
0.00531411500791203,0.00974968466483005,0
0.00548374980847265,0.00940920523304285,0
0.00548959874743339,0.00824209217044387,0
0.00546622261996354,0.00868611935621236,0
0.00492889939307028,0.00720067681307327,0
0.00481806531126031,0.00756896870181042,0
0.00741333211637646,0.00556857989545739,0
0.0165375451852665,0.0112690993154149,0
0.0222701222669111,0.0153907451726767,0
0.0261746166298706,0.016019492523719,0
0.041892960858578,0.0186716782979043,0
0.0521588646450263,0.0154994179219258,0
0.0474631842373427,0.00998153439216998,0
0.0418222015710491,0.00920351556217143,0
0.0332406057476854,0.00783534106990334,0
0.0256172877469982,0.00638479933752402,0
0.024959084170644,0.00770825205071042,0
0.0251912068969035,0.00789140783300931,0
0.0266584020718085,0.00819749705383426,0
0.027600153017349,0.00967062252572871,0
0.0183749947062489,0.0113599679625214,0
0.00559046246999052,0.00372515087520634,0
0.00659596859855073,0.00676363254206782,0
0.0087500547446998,0.00730626068822367,0
0.00871799672736852,0.00603600950705885,0
0.00880208037621556,0.00627511158623552,0
0.00931231901401602,0.00616306775840405,0
0.00903113865958908,0.0054485640065959,0
0.0101727346586687,0.00378564329034418,0
0.0152841479353262,0.00629645107894651,0
0.0153737475231914,0.00445938009219256,0
0.0150664512523536,0.0061901704201209,0
0.0127091634073092,0.00560855922002403,0
0.0105991377897331,0.00453728729499264,0
0.0119993837745017,0.00535081169998157,0
0.0159317735433073,0.00667598037404969,0
0.0159177154808728,0.00717904862224341,0
0.010891060944517,0.00446215925494569,0
0.0104131186326902,0.00681958951943563,0
0.00990681477393543,0.00646352516054469,0
0.00997467610991866,0.00681738580804534,0
0.0104882296127704,0.00730618432670329,0
0.0110386216964403,0.00825602448130714,0
0.0129695806403637,0.0109711951179643,0
0.0133028806407154,0.0130906399313639,0
0.00983616273967444,0.010208667797408,0
0.00639097127611834,0.00832650803644077,0
0.0066818776541437,0.00921760359564596,0
0.00644794652788968,0.0117249312758947,0
0.00484565153653238,0.00372828156002354,0
0.016717559730146,0.00760357045805451,0
0.0335189610212185,0.0135816455237911,0
0.0331173336896106,0.00547731401671638,0
0.035283195708946,0.00438934763723993,0
0.0456149132556002,0.00556476108939774,0
0.0547853860443693,0.00660100348842505,0
0.0589036518538411,0.00650799809276428,0
0.0596384184842117,0.00692188375534545,0
0.0612640328389429,0.00632807852994869,0
0.0636193115775148,0.00858243012694915,0
0.0491159407257258,0.00940266847931299,0
0.0223792509885953,0.00344939395133808,0
0.0182030545155659,0.00853301967694918,0
0.0207403351461768,0.0160334720346435,0
0.0171167186708898,0.0151450456512476,0
0.0152742107172939,0.0118371501717816,0
0.0168501265458716,0.0126189702349132,0
0.0164784855011254,0.0106695399849928,0
0.0136413263470916,0.0103672918263154,0
0.0103154932784087,0.00654708075704821,0
0.0135688338374529,0.0091734507207023,0
0.0148147154849558,0.00517983643607646,0
0.0188541125836458,0.00477680621730186,0
0.0243504357275071,0.00610864178379543,0
0.0231575882689913,0.00404380128903316,0
0.026320516803359,0.00427074376072181,0
0.0310098754046931,0.00508241854351695,0
0.0306486687267707,0.00454213973098452,0
0.0299621239014071,0.00472004941494544,0
0.0299594816666888,0.00531379970320549,0
0.0270723716574352,0.00451413123147821,0
0.0260478192802864,0.00625039055783173,0
0.020443741018156,0.00674567828710117,0
0.010816880000703,0.0039689059788447,0
0.00838476958003943,0.00437891995964947,0
0.00856403808477178,0.00637532603277702,0
0.00633142627353812,0.0044368615766907,0
0.0060285285105539,0.00594992772235172,0
0.00584944766258828,0.0055863811938596,0
0.00594449810104748,0.00499165290416822,0
0.00957245175667818,0.00497783179704935,0
0.0160944991348647,0.00799734487236276,0
0.0180093542769601,0.00799618498248664,0
0.0185752892044673,0.0080917333409747,0
0.0212427225214115,0.0117124901091688,0
0.018062040444017,0.00838385379196578,0
0.0166345737191831,0.00754916805741665,0
0.0175497098509164,0.00800901174498874,0
0.0142735137678566,0.00687657837223815,0
0.0144811007533759,0.00886588245403118,0
0.017692594803586,0.0247023985849846,0
0.0145622569712063,0.0155304109674852,0
0.0129391942480511,0.0170169775885008,0
0.011910886909835,0.0169946669968527,0
0.0114539224132277,0.0119455273225013,0
0.0173325456105651,0.0198082806802207,0
0.0210498531040237,0.0182189292523052,0
0.0201808814348958,0.0151175273530183,0
0.0192181919650388,0.0152585580921829,0
0.0168820059722962,0.014268716632841,0
0.0145438348441349,0.0113093270620593,0
0.0143611076693306,0.0110173957262799,0
0.0141069808915122,0.00858821701573761,0
0.0146051539151451,0.00893453786197976,0
0.0151721860559645,0.0114908426264712,0
0.0133486074856885,0.0102450154490001,0
0.0130966764552218,0.0153730990529487,0
0.0156108924553517,0.0192807638258032,0
0.0199202885675128,0.0211086550032534,0
0.0193357544627537,0.0115285560871638,0
0.0140379230445312,0.00775856237387546,0
0.00899634199591482,0.00503109214724554,0
0.00872980419113282,0.00400882370190014,0
0.0121849131683218,0.00523576503788154,0
0.0180089242145785,0.00694027270134782,0
0.0277043930837854,0.00942735341247946,0
0.0369445149984283,0.0115189022470442,0
0.0432614239089802,0.0126876932388266,0
0.047286574680626,0.011801154186385,0
0.0457936162569244,0.0187596063717225,0
0.0295002832211697,0.0161462556848379,0
0.0114673593547962,0.00918098274299849,0
0.00526468166294128,0.0123266355934463,0
0.00379886257938431,0.0109486081835772,0
0.00380015362669145,0.0187913183903825,0
0.0035929754099477,0.0260201026787794,0
0.00252409168975183,0.0211726264403957,0
0.00187766702947206,0.00730369642093773,0
0.00312976512887758,0.0112882262563314,0
0.0034274208439953,0.00791295205052286,0
0.00329694858939867,0.00701838754308368,0
0.00346083087327419,0.00718586228010626,0
0.00363545957408116,0.00735553104155676,0
0.00396136755181831,0.00778898966969539,0
0.00460308683935048,0.00881371561189822,0
0.00496924254658007,0.0105374036884588,0
0.00509365049037593,0.0108402753614651,0
0.00514634092408724,0.0294192767929583,0
0.0027111390851598,0.024669733747479,0
0.000912063645853031,0.0210758345662952,0
0.000875470802217396,0.0284577358624366,0
0.00107504432545997,0.027198453559672,0
0.000846719706107844,0.010782098533692,0
0.00149732820206346,0.00855817874501731,0
0.00319962427132861,0.0153954179839304,0
0.00409309625184182,0.013219093345349,0
0.00420391641202533,0.0128031604164081,0
0.00414180480913646,0.0125135764223798,0
0.00415696394532937,0.012046879383664,0
0.00426681161388699,0.0128445268913279,0
0.00416624759873389,0.0140985975671961,0
0.00302929830471042,0.0083149205069274,0
0.00204757493557933,0.00473623181517718,0
0.00274913420624355,0.00973131642033879,0
0.00291023738493296,0.010196778445278,0
0.00304806644507531,0.0115269257545068,0
0.00328655502188351,0.0126356066794345,0
0.00336045243279572,0.0131642772183577,0
0.00346324874742054,0.0136491974199942,0
0.00338760469741038,0.0181673461272259,0
0.00218487904407769,0.0181377806847242,0
0.000519097788291994,0.0104194378220687,0
0.000430776891073839,0.0341630141323056,0
0.000588611097047837,0.0541847680632809,0
0.000761976470395578,0.0686184177683816,0
0.00078771414901529,0.0312754772882852,0
0.000774174190716503,0.0256574439851101,0
0.000774583037722055,0.0245410459356651,0
0.000856032276315307,0.0247975025978211,0
0.00107851214145836,0.0290694443533553,0
0.00112966875827631,0.0207939846924209,0
0.00110799471959794,0.022233144796239,0
0.000994953032538032,0.0205232407106504,0
0.000870124297161086,0.0191909906649186,0
0.00061885307870031,0.0159027876190049,0
0.00042995997495496,0.0162547907361701,0
0.000444667098836576,0.0179887690072258,0
0.000498707993485634,0.0194005777670494,0
0.000633268638438728,0.0181484892669259,0
0.00185115646424148,0.0120771848782049,0
0.00683755922812207,0.0151214471776092,0
0.0166773472827304,0.0248447996714647,0
0.0263517816214697,0.031808310931706,0
0.0304759869230949,0.0263170635719362,0
0.0310310633643022,0.0270313316641972,0
0.028968030114739,0.029612234497269,0
0.0234655885624105,0.0174026060709168,0
0.0168492545690865,0.0116743465327192,0
0.0112087900197832,0.00832950441304667,0
0.00955799949754179,0.00909698948382038,0
0.0114638260864023,0.0189621971021486,0
0.0110922767253267,0.0117482298369363,0
0.0110678464554603,0.00871423804803474,0
0.0126685246738518,0.00943490671521343,0
0.0122206904077513,0.00651213150317411,0
0.0114219338909074,0.00597588960344766,0
0.0109498121932886,0.00689714260174969,0
0.0109385609977578,0.00788992920869317,0
0.0108270079573215,0.00520951205195832,0
0.0197033195465244,0.00641668758676995,0
0.0271919433251616,0.0071082546620498,0
0.0259587999809235,0.00570262115442042,0
0.0261073444425748,0.00639622766770061,0
0.025495651442386,0.00603947779495714,0
0.0276670121049414,0.00583861345554434,0
0.0364065327785564,0.00740568347398873,0
0.0388889560453752,0.00637048389099974,0
0.0306275780136064,0.00507123732966347,0
0.0248914190559548,0.00506933747572579,0
0.0239606465966901,0.00665272195047881,0
0.0220401875043065,0.00631627415137086,0
0.0220326903454073,0.00788008174801662,0
0.0199460728752256,0.0073500015694858,0
0.0177759225060965,0.00660442230017663,0
0.0178681323506252,0.0107156655159957,0
0.0154735105983984,0.0109139848904279,0
0.0145637229803581,0.0135696493149239,0
0.0153937976259049,0.00769415367692386,0
0.0146899100172976,0.0065922131296074,0
0.0120566548666198,0.00495615972472481,0
0.0107870586391133,0.00486306144759029,0
0.0106302510580575,0.00499336867596546,0
0.0106797379611652,0.00483578008081018,0
0.0101395844795501,0.00487734064655465,0
0.00984933029510829,0.00487985264257748,0
0.00931652338119859,0.00669234179709342,0
0.00586601372778975,0.00312479059463417,0
0.00636273833078859,0.00757616714090388,0
0.00745021697002931,0.0101820251675488,0
0.00836193599713875,0.0160627411502733,0
0.00861535760794133,0.00823222615099147,0
0.0111352009975964,0.0102583895686201,0
0.0118416842177054,0.00659212734778789,0
0.0126779802322564,0.00793225873044761,0
0.0110252474416731,0.00760223890091962,0
0.0105464653173256,0.00633886077501491,0
0.0139452754306849,0.00910354812232786,0
0.0142920261293244,0.00698777565061448,0
0.014489403676769,0.00647805761739616,0
0.0163297952585043,0.00679200221822145,0
0.0167239639412855,0.00750262978552223,0
0.0140105623463022,0.00582242482720382,0
0.0138663729186863,0.00795878273329456,0
0.0157500597472167,0.00861201488559854,0
0.0210105250029079,0.0103795575429826,0
0.0288720012935343,0.0157954459533515,0
0.0329239288943255,0.0155306781615339,0
0.0340509186975506,0.0216854934725662,0
0.029889307149908,0.0255723651916732,0
0.0175651749844956,0.0159950654185163,0
0.00872877622455253,0.0115754893125138,0
0.0103867682394356,0.0176617192010614,0
0.0108464344666618,0.0154909526431527,0
0.0113265257913388,0.015269461895342,0
0.0135520060368594,0.0220452993937584,0
0.0144264821239,0.0230669585493331,0
0.0130151679528469,0.0184750229098761,0
0.0105991121262679,0.0151316420788486,0
0.00783712134188258,0.0127061461375819,0
0.00505667687033199,0.00936251571490933,0
0.00628886569342994,0.0094726184650133,0
0.0101225477160964,0.0131754864518486,0
0.0142294912601434,0.0171454952290186,0
0.0181175183615997,0.0217760568688365,0
0.0198494575001439,0.0354280087073676,0
0.0199814464524958,0.0342324165163853,0
0.0190766709813797,0.0252196129259257,0
0.0173073076266995,0.00679054230276704,0
0.0257090897097247,0.00876181420208913,0
0.0274724738071942,0.00540529326141429,0
0.029185021687991,0.00604630568440392,0
0.0297565659438203,0.00499676964133098,0
0.0314452685102391,0.00549604058162589,0
0.0309544404493121,0.00450213733852951,0
0.032442198314569,0.00466689360739971,0
0.0318977973393969,0.00465454877272342,0
0.0278420261415307,0.0036835079560707,0
0.0332242330364481,0.00584835601268944,0
0.0347660984229334,0.005937924511647,0
0.0376629504319582,0.0097694204181537,0
0.0329454107256778,0.00892689196977006,0
0.0296829625133653,0.0113717336559459,0
0.0301473445451016,0.0106830882090671,0
0.0282426174628295,0.0148134256054488,0
0.0196909978717583,0.0107771203872185,0
0.010744962260131,0.00755125555194768,0
0.00875027547914814,0.00711333685712738,0
0.00977040909496514,0.0104242040923298,0
0.00794295635108727,0.00605778491399987,0
0.0090477827413575,0.00486670830872064,0
0.0140657169325037,0.00760113380052846,0
0.0147365368754962,0.00384337246882051,0
0.0191949567939909,0.00545964312310172,0
0.0206886498961324,0.00521146917945659,0
0.0199155969180622,0.00548888028417132,0
0.0221284883735544,0.00504042090008917,0
0.0319279637556877,0.00771761299966465,0
0.0431611480771875,0.00935928054494608,0
0.0547267932924242,0.0138163771840125,0
0.0532669664724506,0.0192343656086505,0
0.0334785002296898,0.0119962874542948,0
0.0238823257530527,0.0172059686692002,0
0.0231430330441761,0.0150494652603695,0
0.0166621341954145,0.0167070967543212,0
0.00523201557812821,0.00592927077809984,0
0.00187041180166619,0.00977169095988364,0
0.00179573550688052,0.00633166272316319,0
0.00300902135312466,0.00913803787023593,0
0.00423618317589076,0.011222675899134,0
0.00462871391477069,0.0114044742487472,0
0.00470623665200239,0.0121231889639022,0
0.0047497518094441,0.0119998558417928,0
0.00496072599591165,0.0119023855972585,0
0.00510633083332434,0.0157529283360323,0
0.00347117559848637,0.0119916722538718,0
0.00119859620437011,0.00482491280270992,0
0.000634460479144938,0.00781449294221603,0
0.000580719864851689,0.00958970901464396,0
0.00113537059811091,0.00722791456316673,0
0.00295895981316987,0.0150861908548601,0
0.00447457567345983,0.0180159807509578,0
0.00535530298984164,0.0220931298940536,0
0.00616518435826847,0.0271036363573775,0
0.00592308463753374,0.0294827692467307,0
0.00460763212790127,0.0260772346936455,0
0.0052465946917272,0.0146155609596532,0
0.00877433657451257,0.0231883981982713,0
0.00742552212278311,0.00753259990669136,0
0.0076196100833684,0.00559793935383958,0
0.011185526564383,0.00800100462163982,0
0.0133105784080298,0.00808684724038079,0
0.013453138971561,0.0070803816337184,0
0.0135270084734778,0.00734269275636811,0
0.013643348022143,0.00708065620716444,0
0.0143538199797663,0.00666994955495356,0
0.0148837524166259,0.00925096997598653,0
0.00986885569555877,0.0058078616483707,0
0.00620234397131531,0.00640693380264555,0
0.00663324473750248,0.0127983544697869,0
0.00699871659739896,0.0125477922631012,0
0.00750121403483452,0.0184218237243691,0
0.00672276296915297,0.0479554307572919,0
0.00355292765495072,0.0307961648155798,0
0.00138224670419192,0.0198603615692374,0
0.000398436737961655,0.0117690549324732,0
0.000171213573968578,0.0223821611080907,0
0.000377140149633048,0.0481611513654927,0
0.000411992521115186,0.0259828105281279,0
0.000383460430314883,0.0227359000454303,0
0.000378423289471053,0.016159039813088,0
0.000542465260884451,0.0164562237716522,0
0.000682739435357586,0.0193728988099667,0
0.000634594921545865,0.017847196164092,0
0.000971196677371387,0.0162569669305546,0
0.00194819474348026,0.0235186231237966,0
0.00269704327107941,0.0272678999665571,0
0.0031063720501151,0.0277151945909043,0
0.00315204316340732,0.0334724367736032,0
0.003906037987612,0.0157340675303452,0
0.0112480284179521,0.0102815353723251,0
0.0264738826145841,0.0217950896152365,0
0.0324149245217397,0.0120729787356847,0
0.0286750078151343,0.00823233595178138,0
0.0256276628162509,0.00825709301441437,0
0.0238584174712739,0.00777242412516961,0
0.0217223014747762,0.00708673850458579,0
0.0186950542551728,0.00665318825579914,0
0.0146902363350064,0.00528105391935828,0
0.0129764944480395,0.0058060565855405,0
0.0128840857730825,0.00880522117660079,0
0.00901397296655902,0.00656969041827688,0
0.00631051974637489,0.00507747563708521,0
0.00764354262634967,0.00821669597976388,0
0.00711801821238336,0.00419522286562438,0
0.0104650617562112,0.00515183116412939,0
0.0148333509638449,0.00687052597258375,0
0.0159990253294796,0.00611189892485811,0
0.0162394830313771,0.00632725764730436,0
0.0267691767161149,0.00528986330014067,0
0.0498295550638376,0.0104605068752392,0
0.0552227433424774,0.00841184522582484,0
0.0478254947024644,0.00991869456307303,0
0.0311524797079509,0.00704688459711473,0
0.023698124718188,0.00518782489821668,0
0.0327913584532108,0.00710285448088476,0
0.0459925412810205,0.00912790027628874,0
0.0509211316396929,0.00863949511670766,0
0.0503128067585871,0.00734236855816551,0
0.0470658537524767,0.0115922793319703,0
0.0299516431240199,0.00615571262461027,0
0.0245409328457573,0.00680245065657323,0
0.0227204802225374,0.00490849351021468,0
0.0205045073824157,0.00395217371793525,0
0.0226479810989783,0.00637629682915268,0
0.0204581369153646,0.00672470941752833,0
0.0129369902127315,0.00384403246154454,0
0.0100106377336787,0.0042713743905406,0
0.0104473247472507,0.00845195852442999,0
0.0107369935141699,0.0072377683462066,0
0.0178387987384796,0.0149630415799085,0
0.0254155328934868,0.0182966433864725,0
0.0271538414675683,0.0119310211454571,0
0.026899135799103,0.00782796887587502,0
0.0259385566748292,0.00816124254697061,0
0.0224841745108478,0.00578608045470612,0
0.022326751965954,0.00598471526832981,0
0.0227022538113872,0.00558317691993636,0
0.023743245476403,0.00592770516228242,0
0.0243850043637179,0.00677431640946784,0
0.0210058982178427,0.00639824340731459,0
0.0134523354199097,0.00379107954707592,0
0.0103744915498317,0.00410687055177443,0
0.0097442224671225,0.00519527015140049,0
0.00932029582464079,0.00581469775884732,0
0.0080149405705933,0.00930239320849487,0
0.00395053204382308,0.00536435889966787,0
0.00389852236497439,0.0072736933215522,0
0.0051408531111251,0.00772004152835839,0
0.00786838899941005,0.0111548966247152,0
0.00950272595810322,0.0108746639535954,0
0.00956729285623529,0.0101198126568861,0
0.00949195095308154,0.0114284865916033,0
0.00912878114439428,0.0125568641178963,0
0.00607910470701718,0.00691751994571325,0
0.00826779949683705,0.00220182809404144,0
0.025969693410671,0.00776877345228936,0
0.0401668854334377,0.0101701145342653,0
0.0430493211206248,0.0112903400258145,0
0.0408324825397105,0.0113025829290166,0
0.0358186585151286,0.0104802716390926,0
0.0376662258797633,0.00911157535331301,0
0.0537298835399375,0.0114622311130765,0
0.0600022198223889,0.0157339062514183,0
0.0491084177839965,0.0122976952086025,0
0.0431868252050877,0.0146173058977544,0
0.0427091719382527,0.0128318186521275,0
0.0422852247433294,0.0109360935290656,0
0.0412311031492844,0.0113859443844844,0
0.0366917481470049,0.00804892229636537,0
0.0301230714630872,0.00752223710123383,0
0.0271567664392997,0.00642665062709261,0
0.0328960403767554,0.00945153208830379,0
0.0307828277016739,0.00769587144853032,0
0.0228800408295568,0.00607802685461818,0
0.0173335653284761,0.00476930256991644,0
0.0167696984219429,0.00491175677019677,0
0.017479740682625,0.00583592140550653,0
0.0159211811563821,0.00470974168305762,0
0.0200370894962509,0.00639775408425342,0
0.0192616051826057,0.00492803443409571,0
0.0201170323862141,0.00382000190269045,0
0.0340150514720039,0.00563808518421983,0
0.0557907801285359,0.00955936849515575,0
0.0761600428379653,0.0116023292617374,0
0.080952283452085,0.00766743878741713,0
0.0836834027780378,0.00663707426417442,0
0.0906113124980186,0.00747612824506293,0
0.0886453968940034,0.00736023124217233,0
0.0702200530006634,0.00700249613524822,0
0.0486527062811489,0.00574388440316853,0
0.0462623672061257,0.00792779341008015,0
0.0447834134130649,0.00802041686321358,0
0.0390809418172273,0.00762955021121422,0
0.0250493152487005,0.00483440362713722,0
0.0189875349834918,0.00599559564820076,0
0.0171236664072275,0.010466234674727,0
0.00688543510651287,0.00538439518776119,0
0.00581110356098186,0.0071025576009382,0
0.00653695800315527,0.00605026507249968,0
0.00867870413677581,0.00791293852636809,0
0.00873717410111414,0.00630986966325595,0
0.00843586972144103,0.00673309100741957,0
0.00916615175721833,0.00932876174861763,0
0.00805526983369516,0.00610631493468923,0
0.0111437278467058,0.0112281510228497,0
0.0103093786929255,0.00435887383847563,0
0.0200624640839412,0.00458703811988069,0
0.0430251324406515,0.00930039371823752,0
0.0612865273243719,0.0129240847957268,0
0.0661711796339328,0.0128431496484366,0
0.0631420480600271,0.0117409543800685,0
0.0624647233793013,0.0117600038348025,0
0.0627202396731687,0.00674391249855485,0
0.0781716393057368,0.00841776830528351,0
0.0862340373574171,0.00777061269273683,0
0.0826011852138046,0.00701022146048989,0
0.0823591822679312,0.0086114790743785,0
0.0799406731440947,0.00829236026611555,0
0.0810185416087508,0.00830560503752668,0
0.0855354933233646,0.00873773215929234,0
0.0892762109269447,0.00901966548980418,0
0.0933934976191174,0.00887966792128574,0
0.0967560535283187,0.014583045412682,0
0.0691581653335351,0.0192020673340031,0
0.0260897514439426,0.00996066873302301,0
0.00823532436216162,0.0147637245243241,0
0.00414286363137383,0.0102205073595246,0
0.00296561780044624,0.00853762023738658,0
0.00317167308495378,0.0118400334817339,0
0.00341148139779319,0.0132103151898103,0
0.00312574749549517,0.013583981343458,0
0.00260982013588498,0.0123406492587631,0
0.00234776723494334,0.0124367706090793,0
0.00236707609928638,0.0177318927259633,0
0.00184897191956619,0.0183168851413237,0
0.00126064709677404,0.0142475228644828,0
0.00127564665304117,0.0168765362506097,0
0.00138873979227287,0.0211454192015664,0
0.00174923489603595,0.0220779521653904,0
0.00227240297050994,0.0233554311065327,0
0.00227028296958736,0.0133550174409729,0
0.00243824660936712,0.0133928353774566,0
0.00264155598683695,0.0141134807480579,0
0.00295174757804965,0.0157158790801926,0
0.00343011939987378,0.0187394043430169,0
0.00365820985860748,0.0208199181856811,0
0.00322669884478355,0.0163585099251666,0
0.00308314894631318,0.0142448719848229,0
0.00288792398605635,0.0146855519751867,0
0.00221179789401307,0.0118844868501686,0
0.00207722075796515,0.0177269586853615,0
0.00215701673868432,0.01515367496146,0
0.00277794168595026,0.0184591959216265,0
0.00340795876683679,0.0196745934122622,0
0.00363570484151677,0.019829952379669,0
0.00390198051828789,0.0210777314285936,0
0.00445823422335319,0.0283847571567109,0
0.00463647290308473,0.0417598767600957,0
0.00332282151989734,0.028384917458954,0
0.00148293083207499,0.0123706077019543,0
0.000739949032120286,0.0108680220344043,0
0.000652534074138581,0.0146805161019452,0
0.000657033770051377,0.0157911915747448,0
0.000650600650188983,0.0166944854516914,0
0.000632660160708778,0.0167249285670655,0
0.000616382015897538,0.0143462749925095,0
0.00074584153855484,0.0174113678475461,0
0.000583383699852216,0.0106811070126281,0
0.000446454145726187,0.00782495810633544,0
0.000521360113742537,0.00881169677630553,0
0.000575891451443616,0.00638353651150163,0
0.0011212228639481,0.0111819835798817,0
0.00335565851475765,0.00956128550893174,0
0.0120463698000118,0.0112520252398695,0
0.0245656973378634,0.0221733391448498,0
0.0304779915363033,0.0186304261148921,0
0.0323208136830668,0.0209493671598273,0
0.0316290673531535,0.0231323309313899,0
0.0261006780549438,0.0233429073600997,0
0.0183687020227446,0.0201180128829338,0
0.0124495786019411,0.0154397012296216,0
0.00856768295131795,0.011571768231413,0
0.00829570971458858,0.0133182178297099,0
0.0141582708562463,0.0286613622157308,0
0.0178307121422135,0.0228233757208549,0
0.0175801272972155,0.0167312193005496,0
0.0174706258296299,0.0149222439106277,0
0.0176087591962161,0.0146652796312443,0
0.0168666796278388,0.0133521618231208,0
0.0151252478579715,0.0108998493275248,0
0.0146940809255653,0.0118003787107413,0
0.0145725017060489,0.0130509206723785,0
0.0136388233414925,0.0137610204726179,0
0.00888152679758386,0.00974698120411477,0
0.00545865831809385,0.00534292485255188,0
0.00697947537074825,0.0106129913242581,0
0.00639649578847845,0.0068089213886316,0
0.00625407808863752,0.00651809183665512,0
0.00780157113826927,0.00817137860277748,0
0.0103008668874731,0.0115754734026707,0
0.00968072172170511,0.00487858545002377,0
0.0130792846508113,0.00705239819703933,0
0.0140132778523715,0.00524561189605242,0
0.0150520477396609,0.0049296458346028,0
0.0157638668622801,0.00631383654966439,0
0.0132385722665072,0.00431580847574773,0
0.0133934030596109,0.00575716540111767,0
0.0140768657470603,0.00616704868746203,0
0.0139994727470467,0.00681595823981696,0
0.0110916416424339,0.00414765464255388,0
0.0111730986919025,0.00789455032959014,0
0.00873955720590201,0.00615173660863817,0
0.00774013319261918,0.0104114195040274,0
0.00679070677787234,0.0130527043919477,0
0.00542566172861668,0.0115862342696588,0
0.00575212892896171,0.0183497272744347,0
0.00670179163049225,0.0192604096073577,0
0.00983056903751031,0.0207257435313848,0
0.0107958563750503,0.0212083791732488,0
0.00803819509529127,0.00686774741872632,0
0.00931679769545313,0.00857273530865177,0
0.00978554795894874,0.00775445084342061,0
0.0092896866473736,0.00718123606606866,0
0.00995241128596752,0.00799810245135348,0
0.0101695780498777,0.00731365811417574,0
0.0103496961859083,0.00677342958270925,0
0.0168510663362745,0.00664471746060254,0
0.0260897301507039,0.0125575333940083,0
0.0221412090185187,0.00901586850399828,0
0.0187211363677959,0.00979352962783991,0
0.0187644334946809,0.00891326280918705,0
0.0183559174275468,0.00975083089481834,0
0.0163322464677933,0.00767833572287446,0
0.0167205562771441,0.00785835785978864,0
0.0147174625412521,0.0071577920668408,0
0.0109691770159223,0.00551804788314311,0
0.0110356845623383,0.0111552968718596,0
0.0072759205430587,0.00844551773630622,0
0.00622794623094514,0.006697914628832,0
0.00779869628329131,0.00821004792268309,0
0.00836649318655914,0.00508843729387773,0
0.0120301220102594,0.00703429092445119,0
0.0122202286306522,0.0056195897040223,0
0.0122639697779057,0.00575313438920497,0
0.0110682237702849,0.0053021136576535,0
0.0109593472950297,0.00534551673101427,0
0.0116122275025614,0.00580778677349323,0
0.0123580598827023,0.00588017597615213,0
0.0118568401391247,0.00651335896351827,0
0.00961693507518524,0.00535090401968682,0
0.00896807559901568,0.00939476475696973,0
0.00351715448825354,0.00467430438837534,0
0.00266850215702311,0.00808763273326225,0
0.00314204503986608,0.0100269520485655,0
0.00274703813560704,0.0126508731205467,0
0.00267342594339705,0.0120153160198342,0
0.00361389844546776,0.0166285492447898,0
0.004280874511153,0.0197113688138989,0
0.00427410817649112,0.0311593447790367,0
0.00292567926070981,0.0222333587084673,0
0.00164413058803085,0.0163750209675642,0
0.000925858989695518,0.0109217644021978,0
0.00108041866495455,0.00648795151782759,0
0.00477401783056231,0.0124687563376901,0
0.00871850912145202,0.0177248545825125,0
0.00986723237808803,0.0175298547068376,0
0.0102813332629609,0.0178412560562318,0
0.0102121127432164,0.0176386255865436,0
0.0097091468589353,0.0110430874592911,0
0.0131433659197882,0.00963841018548948,0
0.0193186214140187,0.0126047695729128,0
0.0200980513340291,0.0090462014016922,0
0.019851036443601,0.0106733421348928,0
0.0182105155829101,0.0117609816092076,0
0.0143014013852313,0.00919843498290685,0
0.0132041143073184,0.00812636867629738,0
0.0139372476475518,0.00844981546254156,0
0.0129515021043955,0.00726816734901648,0
0.0128753011720651,0.00771103797815004,0
0.01378388903789,0.00774348267246304,0
0.0183408275586533,0.00949792499286077,0
0.0237585622092271,0.0152059468216607,0
0.0260315269909117,0.0158380238890621,0
0.0460462716192767,0.0125217095343557,0
0.077976303664785,0.0204080511140972,0
0.0730428190487921,0.0125634824372624,0
0.0545003896239349,0.010746115208639,0
0.0396194848760922,0.00866339804688306,0
0.0296946136960839,0.00712872175658041,0
0.0253491019723933,0.00656153921551931,0
0.0288541412688881,0.00689022054490738,0
0.0347437976572763,0.00826073550122383,0
0.0348290340469105,0.00750697522131007,0
0.0305717978889339,0.011075252385989,0
0.0142246612252084,0.00530710617179276,0
0.0123016812144024,0.0108779933937572,0
0.013001028208056,0.00976089570077165,0
0.0133124681851738,0.00831767625888147,0
0.0136451660014505,0.00823876542009456,0
0.0140399020023545,0.00969569275964982,0
0.0167054646710314,0.0112020216613709,0
0.0174743305516407,0.00935255357074164,0
0.0183365358368916,0.00795790204548519,0
0.019165472141472,0.00745717667830042,0
0.0212349968803603,0.00448612519606858,0
0.0334034589635176,0.00690556713043082,0
0.0383806052458646,0.00628881951633456,0
0.0369959204805252,0.00451224867696029,0
0.0381868230237354,0.00507511970386927,0
0.0395919681234273,0.00387626395577886,0
0.0503611211863914,0.00478694470228123,0
0.0602735760352249,0.00593339850017861,0
0.0508109634721925,0.00586037985502155,0
0.03081080444684,0.0036712281214187,0
0.0312115805568412,0.00557598417242653,0
0.0387240283448649,0.00665723770386385,0
0.0443917204560324,0.00836826514378605,0
0.0380434283647138,0.0146442571574578,0
0.0156233972289795,0.00542672039289535,0
0.00765913762165368,0.00924696182758595,0
0.00726570758610519,0.00960701409309384,0
0.00697647265643842,0.00986355778307165,0
0.00466144857640282,0.00988234766310704,0
0.00127803690172975,0.00321376335626785,0
0.000981434995154031,0.0144998941173279,0
0.000860518009466648,0.0134083619927481,0
0.000839709790912622,0.0138542957665933,0
0.00110558560683924,0.0179255372797532,0
0.00123184322005258,0.0124014771323018,0
0.00135670217496322,0.00997536207481688,0
0.00155338598394375,0.0129607331558135,0
0.00167108381617494,0.0122132934042498,0
0.00252584260799158,0.0203584677970651,0
0.00272925690468543,0.0149357360961357,0
0.002474175182624,0.013645284471923,0
0.00231109120128,0.0126938745784797,0
0.00214787300965399,0.0126698276854376,0
0.00157179294138214,0.010777026603509,0
0.000922702442239729,0.00699682240139315,0
0.00100715355885358,0.00807299851101552,0
0.00126262347778345,0.00895865167856687,0
0.00129555444701964,0.0108361722332015,0
0.00087543469193138,0.00827296622369649,0
0.000873305937701235,0.0152912358102232,0
0.00122736711212389,0.0182434636700813,0
0.00170720263586713,0.0287595964382424,0
0.00181938842845774,0.0318651149357316,0
0.00131865603362518,0.0318156302719982,0
0.000709624751453582,0.0305354124892879,0
0.000647619542037734,0.0475534825542674,0
0.000700304024396048,0.062993767789867,0
0.000567584438056255,0.0601538482625346,0
0.000281689652734433,0.0180384926059328,0
0.000323277518279713,0.0149142090648459,0
0.000556029885491977,0.0194845365433561,0
0.000558007239050298,0.013346006176854,0
0.000618772850759857,0.0151224789608637,0
0.000630325029247011,0.0150197013888142,0
0.000630211722890385,0.0151095874448823,0
0.00062045053584549,0.0150437720785079,0
0.000580219748096484,0.0142199695291108,0
0.000499565391953352,0.0105092853539622,0
0.000632620757419127,0.0147071243824723,0
0.000615465545366615,0.018745920170316,0
0.000295821949152223,0.0118503407929414,0
0.000254470076936507,0.0157332478305938,0
0.00026155882735862,0.0158028672832345,0
0.000285416840698723,0.0120712285856035,0
0.000396929121124889,0.0150746807922898,0
0.000427944020239482,0.0129775173684816,0
0.000389825222739143,0.0123364327191742,0
0.000366896991142405,0.013764464365924,0
0.000313111740599903,0.0158277659797035,0
0.000215821636565833,0.0124286505941261,0
0.000254165021615243,0.0151385869728821,0
0.00030967090071394,0.0182591496837902,0
0.000303107602534068,0.012138619197663,0
0.000419328851347533,0.0140357370624804,0
0.00070356229099324,0.0186999809338224,0
0.00139603426433755,0.02872164559366,0
0.00305468001720306,0.0368271689649815,0
0.00547981081088584,0.0488358699704124,0
0.00766148770972787,0.0634231156558148,0
0.00981503664857399,0.0850281226767325,0
0.0126767557795755,0.102903936143497,0
0.0134123400345419,0.0771388598119756,0
0.0110666580917634,0.0414329801289433,0
0.00862561943437629,0.0360977981590819,0
0.00917300542074998,0.0130603287071856,0
0.0162997587520516,0.0155726686716272,0
0.0258113226977909,0.0208394541530654,0
0.0347647512252499,0.0271531820707398,0
0.0350804956660629,0.0129829286726989,0
0.0302478988681877,0.00877855321604887,0
0.028260845510565,0.0096482094373742,0
0.0272470264539921,0.00906847561840194,0
0.0283124206701283,0.00855303935949938,0
0.0321408387251153,0.00995392782211628,0
0.0337557666392138,0.00916238502481966,0
0.0332722507633762,0.0103496945736879,0
0.0289058445709537,0.00747990345729174,0
0.0225907930334498,0.00564873625286671,0
0.0171720399419863,0.00428345740260993,0
0.0175899650214365,0.00289501038575881,0
0.0279125849840826,0.00459769762190037,0
0.0355454707554134,0.00550488088063981,0
0.0331254693052071,0.0045406737225996,0
0.0278535813827389,0.00390069839439218,0
0.0266580891876153,0.00413375546059236,0
0.0281092848485677,0.0041398614877329,0
0.0292800383953832,0.00544526813214469,0
0.0228065545321152,0.00537136988681461,0
0.0131218569202377,0.00322710283276928,0
0.0114910744210742,0.00566236825407993,0
0.009436632078466,0.00560515976149703,0
0.00746017667788816,0.00473809804396348,0
0.00729781528717056,0.00946095926685431,0
0.00372008442473345,0.00549528043008219,0
0.0040612923771896,0.011553621790898,0
0.00442863699609307,0.00952047556165588,0
0.00461563531634459,0.0107673686219808,0
0.0042986076596673,0.00683213885139729,0
0.00493894127653837,0.00835879632514834,0
0.00504467115239668,0.00562607185840361,0
0.00470754819592495,0.00489521057063633,0
0.00821700310508775,0.0090600152172142,0
0.0141864345673315,0.0135869205099429,0
0.0186032451187962,0.0153797949800645,0
0.0173619652727226,0.00824650409819526,0
0.0203571977390979,0.00602058059143427,0
0.0292698074874097,0.00915635994985195,0
0.02982952845462,0.00698363204687382,0
0.0285462400447083,0.00690509347619025,0
0.0274584722991406,0.00704404904848502,0
0.0287547883301954,0.00725854781330083,0
0.0306264178490536,0.00800789537734289,0
0.0301684378115741,0.00806229158066256,0
0.0292773320278948,0.007811194284549,0
0.0307536145107708,0.0113398973374447,0
0.0246145247925692,0.022097191471497,0
0.00720896217283909,0.00876384715677169,0
0.00125510349777408,0.012247320745205,0
0.00266416525874798,0.00644544775523141,0
0.0106150927048987,0.0159391571019603,0
0.0174422535420597,0.0187009092538546,0
0.0183047128047151,0.0195717295941842,0
0.0206941993498915,0.0181638837812487,0
0.0245301662091371,0.0210774645169367,0
0.0235005055569772,0.0194519085893846,0
0.0187652756386747,0.0163515529231314,0
0.011715660384979,0.0105720756302511,0
0.00530847652222065,0.00577359564211359,0
0.00272954819484015,0.00594100262615373,0
0.00281709335574687,0.00649963255614473,0
0.00484612922002168,0.00985831769420146,0
0.00755428888650344,0.0132158212911616,0
0.00916371869838067,0.025635183714283,0
0.00765335216171026,0.0235002118271853,0
0.00610618838416173,0.0126740491070975,0
0.00672150167897805,0.0123140777790868,0
0.0108421109148577,0.0145436672866235,0
0.0249032001598971,0.0201943810645148,0
0.0366120013361996,0.0174532914531701,0
0.0373322275643114,0.0157622249661501,0
0.0352489557211824,0.0136312419197343,0
0.0376173839495777,0.0129561809994684,0
0.0371063937184052,0.0122559080799377,0
0.0285062711928844,0.00996679577631518,0
0.0215138547159774,0.0079761555196849,0
0.016941259828327,0.00473490107531638,0
0.0244159996429068,0.0061771895167071,0
0.0371831023245778,0.00983954646174823,0
0.0436137506566252,0.0112989837717232,0
0.0511475386500337,0.0121214237408092,0
0.0585962484542421,0.0194529859887576,0
0.0540233334448422,0.0185980899439157,0
0.0424255366914852,0.00814476055079502,0
0.0452040585965224,0.010197810636388,0
0.0402131016971279,0.00743412101518438,0
0.0367788711125987,0.00872297562093982,0
0.0362821664428127,0.01135146536926,0
0.0326840920165343,0.00938515583163658,0
0.0312658636202116,0.00885473192763822,0
0.0285100429873486,0.00838492400220832,0
0.0236516844380642,0.00728111521811721,0
0.0227255503128833,0.00767317421218423,0
0.0250515283234363,0.0165087526696238,0
0.0126550799280189,0.00340298839732949,0
0.0148083792056973,0.00805703246913149,0
0.0222783018440695,0.0114783230941962,0
0.0378007301462611,0.0149675429719025,0
0.0491065640040172,0.0163688443491962,0
0.0457134382275501,0.0114961064605229,0
0.0416215881697056,0.0116019870348589,0
0.0397337787018914,0.0112033971399723,0
0.036594988260262,0.0113524468361155,0
0.0276695154521079,0.00934957878152019,0
0.0274314959652469,0.0151134877867442,0
0.0318830152197999,0.0156198184914563,0
0.033960154751199,0.0150146621779335,0
0.0214013447347816,0.00891941593387406,0
0.00944931484617573,0.00561880314272916,0
0.00840230709086252,0.00848982962103837,0
0.0101435670368979,0.00683708426085736,0
0.0199203661363693,0.0103596153661074,0
0.028310417257915,0.0106922380307794,0
0.0285177450400485,0.00604938457078458,0
0.0387706189106082,0.00697838476550803,0
0.0461671288839228,0.00766487852472106,0
0.0428471775263079,0.00624753449096574,0
0.0430430766275071,0.00690717304949904,0
0.0517115477205948,0.00662345473822994,0
0.0704550694639676,0.00837280468832931,0
0.0855605707224351,0.0109591956520869,0
0.0776311002367548,0.0115909897778504,0
0.0486342116609861,0.00713627827505017,0
0.0376774355785268,0.0080280756637577,0
0.0451026591780063,0.00924473857415127,0
0.0561147209835768,0.0129338191846836,0
0.0465662527137406,0.0191602248777276,0
0.0205762252818137,0.00787112391578819,0
0.0116801893794621,0.0112968866531892,0
0.0101663358542107,0.00905169814238606,0
0.0106521638854091,0.00776137149893987,0
0.0131427334467642,0.00932617807262842,0
0.0121907828272023,0.00979472158248168,0
0.00922356632527713,0.0078424347471982,0
0.00940457403505807,0.0114359081108841,0
0.0100805793433567,0.0116452821309656,0
0.0103389237099546,0.0123626166776191,0
0.00965468149553001,0.0181438191291693,0
0.00581921614869139,0.0156096911363544,0
0.00142128288600782,0.00686442889135805,0
0.000266184663747944,0.0103752371857043,0
0.000225058502580977,0.0438425192304125,0
0.000187884559128619,0.0420349865096673,0
0.000242725323846508,0.0117276889333348,0
0.0011944265878149,0.0133504544015139,0
0.00301981962513053,0.0233258368380053,0
0.00384878403997411,0.0172207769415366,0
0.0038356104964596,0.0134038551072139,0
0.00377339660625214,0.0131150205652333,0
0.00372979858969911,0.0131643209035863,0
0.00347329626895452,0.0108496594864026,0
0.00327666981758918,0.00988066604466792,0
0.00288144801050255,0.00817770724072605,0
0.00261820915079237,0.00869502009700917,0
0.0025039172241814,0.0137740596106253,0
0.00169421953564829,0.0102966315049533,0
0.00122190496556517,0.00972366823676367,0
0.00119146405835972,0.0115893846419792,0
0.00111800638169595,0.0126844831051946,0
0.000859773950777744,0.0104398461622366,0
0.000796876143454584,0.0142151871399111,0
0.00101129496487909,0.0156258206309149,0
0.00153113480469237,0.0243795642669536,0
0.00169471847675051,0.0227720125673424,0
0.00161942933180479,0.0206231196977597,0
0.00147761960579006,0.0184467518015119,0
0.00129407002775176,0.017048927672868,0
0.00122855358067259,0.0182000007685539,0
0.00122640457516792,0.0178357276944293,0
0.00123752290391525,0.0166950210389889,0
0.00124790643265409,0.0180431692578855,0
0.00110007669309137,0.0234849145633912,0
0.00066092353418544,0.0183634100738715,0
0.000494089363066791,0.0167629123723037,0
0.00048100031928899,0.0168033085750759,0
0.000475204574126547,0.0194998567509075,0
0.000407560552510261,0.0111570296317059,0
0.000725846123721555,0.0171568362100202,0
0.00112203179840794,0.0243515423024682,0
0.00115407606159097,0.0218099122200972,0
0.000898161543831679,0.0157007184866391,0
0.000770314253129978,0.0146324665567433,0
0.000875646181288543,0.0141385246236415,0
0.00112462491940579,0.01811800111972,0
0.00113169721876625,0.0216355576107195,0
0.000673436170474695,0.0103540487608641,0
0.000679267732469005,0.0120921558724025,0
0.000833850678384998,0.014691711897832,0
0.00082514049939664,0.0142842028382483,0
0.000816820283143488,0.0159281978992599,0
0.000760474675630375,0.0167680189157231,0
0.000830020951150249,0.0175389815088103,0
0.00123546362559774,0.0290113928020697,0
0.00167191327699961,0.0367300794516223,0
0.00166794152640386,0.0360747057613677,0
0.00150140018249326,0.0384232012862689,0
0.00173664119955705,0.03769829048641,0
0.00317476574791868,0.0243149470423587,0
0.00641046101693142,0.0344214773949581,0
0.00901381903204467,0.0448163188332372,0
0.0107637374356827,0.0429219055672674,0
0.0165037399962859,0.0293521306996582,0
0.0250696101997868,0.0377206094303517,0
0.0279357524821796,0.0267953451953189,0
0.0254935450733085,0.0220068969230338,0
0.0193829608047512,0.0143088215054685,0
0.0129390652824816,0.0111649141213855,0
0.00888499490997461,0.0100181010574565,0
0.00725234599063414,0.00902765238754117,0
0.00614240513049527,0.00810969090228046,0
0.00534819988734469,0.00822176330218735,0
0.00536414441996296,0.00958923400551035,0
0.0144951377091482,0.00371934966179835,0
0.050614652165609,0.0145842278873916,0
0.0722313560003288,0.0106871021690374,0
0.0691795226382251,0.00652840512286273,0
0.065377538175335,0.00723914985457648,0
0.0616432179386916,0.00579455493251406,0
0.0595379771163656,0.00632018208864076,0
0.0536609619948798,0.00491453031793758,0
0.0521781472634032,0.005027408233261,0
0.0498443648092596,0.00458098859803689,0
0.0482993756926009,0.00635841031571574,0
0.0320884263757547,0.00441920973258391,0
0.0216348183193723,0.00473968082663311,0
0.0211871450068127,0.00798720947913509,0
0.017634835727334,0.00499802317624395,0
0.023406770322721,0.0100666875321803,0
0.0241549788778715,0.00800054444677481,0
0.0239402788836658,0.00922691663357996,0
0.0219555628993624,0.00829176377201291,0
0.0211731851457427,0.00878714413052206,0
0.0218964866099033,0.00968653007647874,0
0.0207028128810963,0.00939734779884662,0
0.0152682829445753,0.00665021316040614,0
0.012287184570234,0.00653939447778078,0
0.0128057541473006,0.00971364984987199,0
0.0120822447560003,0.00922874210729315,0
0.012173119355501,0.0130278554778872,0
0.0105786134482192,0.0132979513872673,0
0.008481980867945,0.00900803265488129,0
0.0107559528926174,0.0135465290388434,0
0.0123513838602996,0.0175558747053616,0
0.0130778329257881,0.0189510688953349,0
0.0169901971678388,0.0164890111848798,0
0.0221559448535283,0.0191770268379167,0
0.0192486089467327,0.00532128714716657,0
0.0241734230621173,0.006445067938872,0
0.0280376933026668,0.00683407096404129,0
0.0304033403364384,0.0082188233499434,0
0.0316717544810482,0.00884800818240036,0
0.0301633444538768,0.00804364877446097,0
0.0299129631973779,0.00699335257378292,0
0.0410047568292283,0.00509454431205059,0
0.0650260322149062,0.0101453396732768,0
0.0633462403826359,0.00619947386678754,0
0.0623140677956436,0.00925611917831362,0
0.0553495980015635,0.0087024312977383,0
0.0465921979727907,0.00759641464499082,0
0.0398037191406911,0.00677950683632021,0
0.0334493670055933,0.00568650095923299,0
0.0305429000047816,0.00508029783427795,0
0.0301004245008655,0.00555287883528103,0
0.028791406161507,0.00749081729878345,0
0.0189746164894627,0.00385478829701297,0
0.0212535876748868,0.00898260568222321,0
0.019128066115086,0.00518000654389786,0
0.0213197603515542,0.00596567039805302,0
0.0223739510994101,0.00610291677773916,0
0.0213679455313531,0.00574886370134124,0
0.0225761108722692,0.00676815627280147,0
0.0224502221860134,0.00641457366316871,0
0.0207491288027706,0.0051632911227912,0
0.0202256908654366,0.00580264471157033,0
0.0201121619519348,0.00602216499004172,0
0.0177997028095458,0.00526512647445036,0
0.0163678947126383,0.00514221276547326,0
0.0171669097126382,0.00465296303817855,0
0.0213970727912419,0.00589949299645659,0
0.0233708115956729,0.00589876967163277,0
0.02359078231692,0.00473805979028414,0
0.0267902311136855,0.00720708791108131,0
0.0234729021695956,0.00571087067349264,0
0.0236293102802221,0.00495668075566976,0
0.0315719688928762,0.010392795117223,0
0.0290455787387402,0.00840156654419482,0
0.0241015542564021,0.00763385324943617,0
0.0238211379992853,0.0087372834622112,0
0.0238671049731245,0.00802410132488484,0
0.0264799719560321,0.010096781699986,0
0.0234091405357265,0.0113423112686513,0
0.0136675230765149,0.0047764626130739,0
0.0124276090402431,0.00619180486835809,0
0.0130846977376392,0.00743524580975095,0
0.0112220313155804,0.00748707241875601,0
0.0100330711512624,0.00493937026564659,0
0.0148553114284643,0.00769607327509077,0
0.0156834421378654,0.00447014633814524,0
0.0206152927126401,0.005914168511537,0
0.0229722407164773,0.00616779216232115,0
0.0232047513718605,0.00637195255927735,0
0.023051235874779,0.00771107703597589,0
0.0200003331909412,0.00653507259181348,0
0.0190362649129897,0.00742370998486299,0
0.0217640315168369,0.00710229961415181,0
0.0226348573273443,0.0116643691933663,0
0.00961839426253813,0.00309100733553268,0
0.00636878715169104,0.00681402501303392,0
0.00658743688228939,0.00817700871415245,0
0.00617879792471098,0.00886328989605272,0
0.00634274444933587,0.00962372656785879,0
0.00734136696808466,0.00935479965240492,0
0.012497564844067,0.011191687607033,0
0.0214446963743558,0.0169034698890422,0
0.0200712172221931,0.0116049184808924,0
0.0126299211293951,0.00862667226153944,0
0.0108411906944308,0.00766545305768184,0
0.0121240171480123,0.00738419693217871,0
0.0115959921833248,0.00578132602716743,0
0.0111729670966312,0.00556027053710396,0
0.0118961646453352,0.00557829756096091,0
0.0182795159033286,0.0086454273873648,0
0.0206488598860651,0.0101593223857583,0
0.0148498757096737,0.00777188747540885,0
0.0139245547944217,0.00918791530439617,0
0.0175489146966815,0.00988915238178056,0
0.0231177426881105,0.016539286479295,0
0.030587188121555,0.0181613324952932,0
0.0408822686588058,0.0212492940498002,0
0.0445024026542016,0.0202796635162496,0
0.0426752057351305,0.0186113935396741,0
0.0429079660784926,0.0172133098120113,0
0.0375783776670302,0.0192481414875145,0
0.0231068217276626,0.0129656417076755,0
0.0116520877712081,0.00894710323504885,0
0.00428976038176505,0.00428767840354931,0
0.00182496531154888,0.00511346325429012,0
0.00225012343749092,0.0100497320388976,0
0.00227458332235348,0.0088758166094709,0
0.00205428672045703,0.00619491323464409,0
0.00217950460945843,0.00668093236927165,0
0.00223044975161029,0.00529857504544098,0
0.00261991351155802,0.00675181155738778,0
0.0026649883278548,0.00689837432494241,0
0.00301353221388438,0.00844559507695092,0
0.00288752825560655,0.00849362397797433,0
0.00214533373583983,0.00599188779383482,0
0.00214335388810487,0.00802438593568236,0
0.00206908918131139,0.00769311564510248,0
0.00194012564501459,0.0108865258532848,0
0.00146707135598503,0.00815897555010836,0
0.00198196851156478,0.0124760367697992,0
0.00209660355108454,0.0070224426693195,0
0.00291675018182064,0.00764169609120272,0
0.00384394263268074,0.0105434768643235,0
0.00388574458349548,0.00975689174526745,0
0.0039375393246253,0.0115280426219918,0
0.00381228181711005,0.0114306817639221,0
0.00404882432205808,0.0122259387642126,0
0.00439921742685653,0.013935013559915,0
0.00376233146763034,0.0156963063735854,0
0.00158404521809823,0.00815888414312803,0
0.000575034530068439,0.00728973230011884,0
0.000745482668002965,0.0157918869178749,0
0.000751782460884021,0.00759890088930916,0
0.00141739801289868,0.0114088981863576,0
0.00213999615854756,0.0157873912701532,0
0.00263867400118025,0.0176214905688047,0
0.00322232128786673,0.0208708261190897,0
0.00343992426090275,0.0166350178742306,0
0.00338062137746156,0.0144250468846899,0
0.0033649700253716,0.0142681350724517,0
0.00296675658802117,0.0160396194658125,0
0.00178510274668775,0.0110431276599869,0
0.00136005601175392,0.0144157817062957,0
0.00148938795861702,0.0158077961314135,0
0.00191868626681834,0.0177982505322309,0
0.00235479237119027,0.0203606941535497,0
0.00246897698944177,0.0197959255990931,0
0.00250432109642292,0.0276367160177605,0
0.00227834922716711,0.0364582055013557,0
0.00181180190597541,0.0323056856319718,0
0.0012784906769696,0.0238025705974007,0
0.000777334137318918,0.0124236602418488,0
0.00123504846510429,0.0137180492022787,0
0.00258002871176046,0.0317182133734911,0
0.0027447211009742,0.0222656563461542,0
0.00220457511658007,0.0185971233017906,0
0.00178070828291879,0.0160720831681906,0
0.00195718136582667,0.0115315225552518,0
0.00341290196672692,0.0150511524143578,0
0.00429913175922915,0.0171713432824444,0
0.00416676244181898,0.0179232133444343,0
0.00479129253060698,0.020142133481164,0
0.0058213855130827,0.0239516350557871,0
0.00641852762122045,0.0251305002186599,0
0.00602326382264469,0.0311889506330676,0
0.00453125600674912,0.0235877582451444,0
0.00460046736587617,0.0168794687613652,0
0.00767174100322134,0.02363981404254,0
0.0135598323359894,0.0305979541040957,0
0.0194284187168092,0.0379980012782608,0
0.0184773923801227,0.0103396820432707,0
0.0196735727006194,0.00825907590202905,0
0.0235197077865464,0.00971079599782176,0
0.0228268507514082,0.00758781613427595,0
0.0212792739784629,0.00729943676768572,0
0.0198814331549221,0.0071519040852961,0
0.0208886573234717,0.0070308201354984,0
0.0294155138324123,0.00756455980624931,0
0.0395917649238744,0.00964905104585647,0
0.0403515989163756,0.00821418854306554,0
0.039893630492188,0.0109399492371913,0
0.0329888998354828,0.0121584919097798,0
0.0206797319093693,0.00867652819887279,0
0.0165886318123516,0.00847112681930655,0
0.0191968526591148,0.0091483850047977,0
0.0244049831684587,0.0106497754118474,0
0.0303786465789024,0.0178697364331789,0
0.0277112582489567,0.0433842942759777,0
0.0152186917422069,0.0234242014885718,0
0.0087385901848638,0.0150273847772123,0
0.00748913011412294,0.0159760462319382,0
0.00643061198633694,0.0112893702143736,0
0.00505812893912628,0.00892349492879989,0
0.00423656140927463,0.00910663649813372,0
0.00418640004642846,0.0103510948506562,0
0.00435766093262493,0.00993930829011544,0
0.00408683291191602,0.00945646224451944,0
0.00329316310285608,0.00727452270744653,0
0.00276485736792282,0.00653845782042759,0
0.00311119863962667,0.00712856179660904,0
0.00543262759814372,0.00983139452983534,0
0.00759484059042158,0.0123864027471098,0
0.00732621101838512,0.00795522192027889,0
0.0068619306411495,0.0075465574511284,0
0.00601934942342041,0.00697272933047743,0
0.00601529002479136,0.00776774770425496,0
0.0060361981003935,0.00804758281609661,0
0.00567141152755513,0.00843054981569827,0
0.00523922312753124,0.00890251269366417,0
0.00552362877775129,0.0100245613607695,0
0.00572230632928202,0.0120997790381617,0
0.00399147056511806,0.00341939541201863,0
0.00973143617988058,0.00656013544367686,0
0.0149245173452839,0.00792009283791911,0
0.0149403059351184,0.00772582234504618,0
0.0168690202846125,0.00685973866994031,0
0.0245469326161108,0.00908327778830327,0
0.0309435236188916,0.0102257668727589,0
0.0327842156690284,0.0102392484402827,0
0.0290687752700669,0.0101213933229245,0
0.017287776067752,0.00695663227672074,0
0.00848626799727783,0.00496756654061348,0
0.0110788192753899,0.00623453433063288,0
0.0176545246052514,0.011010311893944,0
0.0140538521805395,0.0070669981347914,0
0.0112906972466483,0.00841775405487557,0
0.0146470197607345,0.00856672576483922,0
0.0215962576563164,0.0117143622052973,0
0.0255348654688021,0.0142451683657278,0
0.026135990378894,0.0159347320714363,0
0.0234351519314087,0.0175766933635114,0
0.0178204342250154,0.0119970999684028,0
0.0152239014550254,0.0124124125082631,0
0.0153330298457933,0.0125116077871806,0
0.0121973703384714,0.0139886016591567,0
0.00713847362375792,0.00943036012971993,0
0.00995050788873131,0.0167913055659715,0
0.0141918276827498,0.0220623617496829,0
0.022064113592031,0.0258763234034066,0
0.0281602276294971,0.0335324063516668,0
0.0232004632303129,0.0220813088357353,0
0.0155711480052348,0.0199522494820892,0
0.0147198477644924,0.0174527986675615,0
0.0156601655163271,0.0199762383443752,0
0.0104338071634535,0.0138791071510605,0
0.00629776552790527,0.00989366285073407,0
0.00774774094920872,0.00437697189409222,0
0.0222514737574091,0.0119097810552918,0
0.0254226220078802,0.00653811003655123,0
0.0273910998878872,0.00634123054933781,0
0.0294119923488286,0.00638384139555725,0
0.0292472471305224,0.00644945174785277,0
0.0287491786356984,0.00672390349110271,0
0.0268233961788994,0.00620317199822232,0
0.025963523636342,0.00613097844876719,0
0.0261825275694044,0.00612120266200119,0
0.0251639681125298,0.00922315008628847,0
0.00960208518604352,0.00342032072617678,0
0.00608724892827602,0.00365597372257328,0
0.0122856081819215,0.0099758121652968,0
0.011387401031128,0.00677094372748792,0
0.0140508690027836,0.0062658621762775,0
0.0225565462540039,0.00889245554735584,0
0.0279971563265476,0.00913738098923476,0
0.0290975428723296,0.00969020847480843,0
0.0371351367998008,0.00961139195747094,0
0.0504437459090193,0.0115386892347135,0
0.0559537724908501,0.0120144737911968,0
0.0470213980796276,0.0145522544000647,0
0.0224193915129331,0.00664544864931527,0
0.0124153055078483,0.00530821244258846,0
0.0141385598991177,0.00894814741489486,0
0.015247358092137,0.0100325425047423,0
0.0195044573513656,0.00943418015040146,0
0.0326483689970745,0.0148493491859722,0
0.0336489035234964,0.0154054125633656,0
0.0228485341703356,0.0128973697389558,0
0.0149366061522458,0.0101275818934404,0
0.0112704465729818,0.00803574707067267,0
0.00990990620872677,0.00750464613510992,0
0.00954508045443392,0.00788611584702199,0
0.0119900137254777,0.00738108279239141,0
0.0193399763093729,0.0103559896568099,0
0.0228136637648289,0.0181666746962692,0
0.0143047719577231,0.0130136465448082,0
0.0100198146101732,0.0155024939035776,0
0.00916229451177063,0.0128462118856359,0
0.00686854199492548,0.00833000081514687,0
0.0063030866221828,0.00805753371419001,0
0.00689920700781286,0.00416940515450638,0
0.011104927254215,0.00543719765874361,0
0.0184090793682537,0.0101760007254191,0
0.0268457752846943,0.0120550573454289,0
0.0340018162421501,0.0165890203802321,0
0.0372180131231851,0.0178549058077448,0
0.0381364604596893,0.0181954359760231,0
0.0375125914213645,0.0190868478409612,0
0.029023235420395,0.0222241926388707,0
0.0118935663218618,0.00883501770301998,0
0.0029434549314282,0.0150488583421482,0
0.00138710907601134,0.071522897488122,0
0.0011769781489572,0.080702474675791,0
0.00103951250368236,0.0160243018900071,0
0.00209688329075172,0.00427988579384584,0
0.00653430845926165,0.0116469043928142,0
0.00935827060189626,0.0118972348802708,0
0.0097110500839187,0.0117094606476438,0
0.00941022978863467,0.0115166483676831,0
0.00889651621223718,0.0110927823776438,0
0.00797435173939973,0.0103048245477965,0
0.0065621023799217,0.00943713554540817,0
0.00519839933028127,0.00524852641830372,0
0.0074987668329025,0.00626390033270795,0
0.0112524927572308,0.00971311764344257,0
0.0113787890399148,0.00576140399944497,0
0.0128256170736454,0.00665799489150481,0
0.0148929968658047,0.0076762122241911,0
0.0158226729171951,0.00745219832657539,0
0.0155848184643201,0.00662057537744903,0
0.0152248246959366,0.00680498898636016,0
0.0147802936999593,0.00616222613030629,0
0.0152217976374197,0.00872377347274132,0
0.0118483901775734,0.0101891918379949,0
0.00563528362547538,0.00511720679078126,0
0.00455931254940733,0.00992026415449711,0
0.00470981345628427,0.0116835131304445,0
0.00444843609414036,0.0108479424531398,0
0.00433199153810469,0.0143843766665247,0
0.00374318256995552,0.0284505036321093,0
0.0019382230921477,0.0193619647144692,0
0.000682764451681099,0.0125701569015212,0
0.000389299301117172,0.0139153604922642,0
0.000448013792461122,0.0143037556000387,0
0.000896714589733866,0.0181433646768332,0
0.00148054202237686,0.0258737943270428,0
0.00197939271134001,0.0350106368765636,0
0.00215748941766018,0.045919718671558,0
0.00183245396945965,0.0343979111221956,0
0.00137762684413041,0.0251046980426995,0
0.00123660620934549,0.0241298908699299,0
0.00106044651453452,0.0215940447255049,0
0.000637818680652922,0.0166075149187605,0
0.000515301802040735,0.021554845899139,0
0.000733593460179661,0.0271248296399334,0
0.0012978720810482,0.0349238515198461,0
0.00185941141504304,0.0426309253450965,0
0.00206511589292775,0.0411659229582049,0
0.00282569794229288,0.0358241470868736,0
0.00458217928711775,0.0431650264179723,0
0.0053281492476725,0.0310045505774076,0
0.00476637975857983,0.0286469252629992,0
0.00413596804650291,0.0133973221794873,0
0.00941280328383036,0.00648801220767782,0
0.0224640947769779,0.0153608533273344,0
0.0273461092341671,0.00933648991571969,0
0.0251154492261478,0.00741393215794317,0
0.0222943645123668,0.00723216164227725,0
0.0207538807344614,0.00646427001786978,0
0.021552981520034,0.00686575267458978,0
0.0207645950631548,0.00727400472667447,0
0.0204186813780198,0.00649203710180508,0
0.0233519820477318,0.0080416784864489,0
0.0242148886362467,0.0107677930546189,0
0.0253452691923539,0.0103438260618441,0
0.0285370525142489,0.0168698237382872,0
0.0228907909122778,0.0110800081014169,0
0.0172798087251554,0.0091168377561843,0
0.0165028215160165,0.00932249752900524,0
0.0165815124901774,0.00945543623915206,0
0.017718363038165,0.010138136071777,0
0.0189690943375905,0.0155866705196716,0
0.0144557177319089,0.0129407477819597,0
0.0135349386770461,0.0132861901459436,0
0.0119459304701846,0.0154039491651256,0
0.00469989638191437,0.0069678705844729,0
0.00225726050280655,0.0121929141231944,0
0.00269815623138368,0.0087141591275144,0
0.00534293540804868,0.0142499461071956,0
0.007005570938189,0.0116177838308965,0
0.00706424244639649,0.00787419609054363,0
0.0081397357636835,0.00839223561674286,0
0.00924199096341985,0.00911364631000837,0
0.0096009767491201,0.00869347686556173,0
0.00942700984251182,0.00678744254858903,0
0.0106272709694666,0.00794128871666235,0
0.0111016607473959,0.00695420655128337,0
0.0109759495024703,0.00940628613443126,0
0.0093964224678963,0.00844709669216309,0
0.00836766823279989,0.00925519010597192,0
0.00872301245744502,0.013953563548107,0
0.00827237277702058,0.014929604240386,0
0.00566057112155673,0.00761922971435159,0
0.00424141512621666,0.00575203271268798,0
0.00418803488096456,0.00252204727719066,0
0.0151334293258707,0.00574549009725915,0
0.0297440788391439,0.0106800041237317,0
0.0364303152147819,0.0118626479188749,0
0.0401889911442719,0.0126533161558203,0
0.0395200438115392,0.0117516898823114,0
0.0359674207116787,0.00958104298769094,0
0.0360840747917735,0.00924428553752504,0
0.0389219335680454,0.0105415540626249,0
0.031571763066927,0.00742068125405093,0
0.0285225150131094,0.00489217239573022,0
0.0403464285510206,0.00866162046504505,0
0.0455738179956326,0.0085106249226136,0
0.045839209186906,0.00825495465174435,0
0.0451115274303511,0.00884194180919066,0
0.0461849851098252,0.00695709472143004,0
0.0590487610387479,0.0107764474766739,0
0.0553863758792424,0.00711860370733381,0
0.0414396120829006,0.00541177582448569,0
0.0300839354572781,0.00409718808477171,0
0.0287627170940387,0.00586031860770436,0
0.0245556704447973,0.00497043697597843,0
0.0221538519910545,0.00474945134091285,0
0.023440124106866,0.00478780226922365,0
0.0302519344199025,0.00528279741575593,0
0.0380524064790935,0.00812867269353578,0
0.0254154763648153,0.00301704525790082,0
0.0273475921365818,0.00574253297561514,0
0.0371746594823197,0.0071573320326428,0
0.042602237261225,0.00830193547662487,0
0.0443623281927229,0.0087846856339687,0
0.0473406891580767,0.0100030179780445,0
0.0489784817277935,0.00949525471882938,0
0.0509049438875743,0.00813957541230695,0
0.0513046685546632,0.00958910932693761,0
0.0495570367486965,0.00994737610168234,0
0.0648241562485701,0.0203163973541279,0
0.0848431717909979,0.0321420256961863,0
0.0886719501694838,0.0294651652688404,0
0.0737819042238824,0.0165050911343518,0
0.0602095621703523,0.0132309942325033,0
0.0403741529057853,0.00975715053921011,0
0.0200874835803578,0.00550263619758235,0
0.0170294064343478,0.00723470095360868,0
0.0187220121785833,0.00392663709830239,0
0.0336687143362039,0.00679651936128512,0
0.0435163285129149,0.00785418943223294,0
0.0365925499512028,0.0078971923475802,0
0.0310619440090615,0.00481463989846628,0
0.053972044489752,0.00866622890778806,0
0.0676929148565078,0.00741942877695646,0
0.0666678136947573,0.00731095162164637,0
0.0562310631637802,0.00715107139245514,0
0.0367218905735108,0.00488573826330281,0
0.0317825974873167,0.00513313593309597,0
0.0358063205226223,0.00623447097818243,0
0.0362663393109526,0.00552129012699605,0
0.0370408259583521,0.00554054656299817,0
0.0380902684344304,0.00777872106540132,0
0.0273703910265176,0.00629542556913367,0
0.0200935144135125,0.00729673157177976,0
0.019373886680915,0.00811060556294401,0
0.019244730099901,0.00817080205285507,0
0.0192229611583711,0.0077215512021091,0
0.0157357326413169,0.007658769246623,0
0.0112961197636749,0.00549658618325266,0
0.0140013053050389,0.0166935840730445,0
0.0130463291915592,0.0206601065967255,0
0.00828936470552823,0.00813182564148498,0
0.00983939378518559,0.0103155646087469,0
0.0111935702149749,0.00868479057690466,0
0.011058253019515,0.00936381220334279,0
0.0103862603558782,0.00852967265351697,0
0.0162648677790451,0.00957241650038413,0
0.0237485390539367,0.0116867234990915,0
0.0257416394089326,0.0120158820738598,0
0.0298676461730611,0.0128769175585054,0
0.0343743300202715,0.0134171829419576,0
0.0342122132770263,0.0174151172529391,0
0.0238151044082492,0.016192380315982,0
0.0179389327353243,0.0123473120979745,0
0.0210650036018666,0.0131837964862146,0
0.0223804094511875,0.0127803710416882,0
0.0254783582062494,0.0161919930053427,0
0.0277147117158185,0.0184021724553592,0
0.0263231010873102,0.0178512490515063,0
0.0276003526572553,0.0187084406459441,0
0.0293880003327179,0.0223030018746984,0
0.0210879438625126,0.0188588801634707,0
0.0108301321623838,0.0122805430821901,0
0.00737212708178582,0.0218167636871192,0
0.00690343137945996,0.0267167494425164,0
0.00681854400597426,0.0271006984201452,0
0.00563755914203885,0.0304116268211313,0
0.00298807725171017,0.0205188592588792,0
0.00101214567009472,0.0145695982696824,0
0.000318420337183067,0.0171355769040173,0
0.000242783983457886,0.0297601767633685,0
0.000270441764531004,0.0303117820456227,0
0.000425831066623814,0.0353979335929382,0
0.000980933565384327,0.0284367028394834,0
0.0022896304740189,0.0452110457293449,0
0.00339921191269072,0.068811339688054,0
0.00490020866624553,0.0440823994957163,0
0.00952926401804104,0.0366213117112304,0
0.0129795000487775,0.031456083382126,0
0.0116400512864966,0.0135827460760697,0
0.00947753299502573,0.0128445998253929,0
0.0086979457938749,0.00678126338149129,0
0.0127133117133636,0.00907952835119749,0
0.0148106987936383,0.00891669605250378,0
0.0142336819866663,0.0092105474435763,0
0.0172769269392972,0.00709750529028171,0
0.0338784284536919,0.00959449501918667,0
0.0549907030966669,0.0134855067779824,0
0.0585473214028875,0.00820117975411944,0
0.0537373240607167,0.00561084023206697,0
0.0558205671952887,0.00546320306547289,0
0.0688461444431772,0.00776839980192182,0
0.0875354802620121,0.00961243844765391,0
0.105364110782258,0.0107688365535408,0
0.118814663288978,0.0106467906702131,0
0.121412550239685,0.0148256874243465,0
0.0942530592222122,0.0180890890090239,0
0.0434482683788238,0.00781184615486438,0
0.00976985638123641,0.00381935056993242,0
0.00222355756441688,0.00726873687086306,0
0.0016228474989604,0.00941566168081508,0
0.00160828012683288,0.00851663380537441,0
0.00176755311352717,0.012181445831027,0
0.00137094603280564,0.00774764365190649,0
0.00129034080801231,0.00676618109712851,0
0.00166373862685931,0.00985759688884988,0
0.0016834865926329,0.0121100982906506,0
0.00118483346368764,0.00848594328441256,0
0.00109023900523082,0.0101767576377339,0
0.00153933069665269,0.0114619533767575,0
0.00293119858344898,0.0146511726477575,0
0.00549680830694225,0.0229887167424116,0
0.0073292068506626,0.0195914289050266,0
0.00750789436576126,0.0186736795991724,0
0.00665157543469151,0.021768776602206,0
0.00634706543571165,0.00748739956046669,0
0.0138327904885837,0.00772279316735224,0
0.0230329064072326,0.0118432565042237,0
0.0221407225560125,0.00769419743101515,0
0.0197782145443505,0.00789460424668012,0
0.020716396312846,0.00722788472166966,0
0.0247971056483432,0.00850138823779495,0
0.0255285477616287,0.00856813299729185,0
0.0202497962587884,0.00799878530247901,0
0.0132125094454644,0.00467041785018339,0
0.0140167788364016,0.00652568182603287,0
0.0152156705531403,0.00608821775246841,0
0.0151195991880622,0.00650529506496448,0
0.0138753866343064,0.00796247568189028,0
0.00880043449583022,0.00485609701205243,0
0.00716614136537739,0.0049435457851496,0
0.00756746137850453,0.00520090930111626,0
0.00718649469584291,0.00463991788308763,0
0.00717466369294232,0.00398321871427251,0
0.0108621012509876,0.00911030541063266,0
0.00997137696945557,0.00841827726905472,0
0.00974472942844784,0.0135306089736717,0
0.011295313423291,0.0149295225376863,0
0.0110674751533238,0.0172557014610235,0
0.00995891454834991,0.0150305660322261,0
0.0101293872589376,0.00812671621531084,0
0.0128149981362817,0.00892345348415112,0
0.0144948500432808,0.00829222791181029,0
0.0146587323495602,0.00670711788309286,0
0.0152721910604284,0.00654087153642853,0
0.0180409454641983,0.00706781125571581,0
0.0229089070000934,0.00897539339152943,0
0.0240906622061461,0.00679814106217619,0
0.0242704159756951,0.00619357865273772,0
0.0251427797588327,0.0066244846152677,0
0.0249079385398091,0.00920292241923797,0
0.0209348762976645,0.00680342692437325,0
0.0216647357513864,0.0107576402938904,0
0.0248410623492388,0.0180886015954965,0
0.0240936747194005,0.0185913144345682,0
0.0187605516787837,0.0200581469771034,0
0.00938626321599037,0.010706773340259,0
0.00479564849201624,0.0111789102951338,0
0.00460758294917277,0.00856844385761816,0
0.00609729826195365,0.0105703763149786,0
0.00667094094229639,0.0107003571804889,0
0.00676576588382921,0.0116045415070073,0
0.00621769022327624,0.0105512387280386,0
0.00801743363658085,0.00603627232310219,0
0.0263599543375305,0.0069300962054994,0
0.058345419228782,0.0155657957459341,0
0.0600227157546764,0.00888739126133301,0
0.0493379937799886,0.00939332234494376,0
0.0540225817012539,0.00849374856927921,0
0.0631191476698469,0.00890312360185356,0
0.0574256198579263,0.00670360778038342,0
0.0502007081020459,0.00619751860438713,0
0.0376742725038281,0.00472566518786433,0
0.0286069731917212,0.00408880307563149,0
0.0292011850173053,0.00561257279767612,0
0.0257628637968894,0.00483574193067348,0
0.0251259590496194,0.00521095096786653,0
0.0257917038184209,0.00509540662575786,0
0.0216382068296622,0.00545908857314652,0
0.0129152808835289,0.00338243404800609,0
0.0123366940065068,0.00445180310366743,0
0.0120594851804732,0.00367883095279875,0
0.01864166991405,0.00575741900478771,0
0.0244891221471858,0.00660989346570513,0
0.0240131676276581,0.00579650480110227,0
0.0217735043372502,0.00500536984674596,0
0.0214138661346621,0.00552801935570628,0
0.0215632992059622,0.00563383993252181,0
0.0214199315491296,0.0057064319144974,0
0.0240859619084291,0.00482634010263876,0
0.0377325362980789,0.00779698291329602,0
0.0526321075038727,0.0121972239680637,0
0.0494765064053955,0.0121055800312386,0
0.0397457482067032,0.0103691489233385,0
0.0414755956485101,0.0124850934971973,0
0.0458850161665312,0.0114034771541681,0
0.0416065659965342,0.0123440605834158,0
0.0222538122880175,0.00703093625222311,0
0.0101507717714916,0.00554772246831194,0
0.00938819722207366,0.00882210145707455,0
0.00927108158965317,0.0099380971441943,0
0.00993801021640001,0.00499266183056871,0
0.039416210215093,0.00447572253735938,0
0.102803100389523,0.0134360365238011,0
0.121019137776494,0.00994197092795195,0
0.105698059507998,0.00700891271918826,0
0.0994887978803138,0.00594197674370732,0
0.110164503495723,0.00585631490807592,0
0.132968168517782,0.00732465983902001,0
0.139680622733913,0.00563956058613375,0
0.140266252423112,0.00394371303357851,0
0.156111818867186,0.00541113121939339,0
0.153967986466281,0.0058430581410027,0
0.124498684395162,0.00483875219767929,0
0.101621917643101,0.00438853323227993,0
0.0990164773456558,0.00481850677966232,0
0.104472773373272,0.0053169620945847,0
0.105971403333902,0.00601533122835452,0
0.0922015600308016,0.00492505792889679,0
0.0875998969314525,0.00633843426556487,0
0.0770537830980082,0.0150011478990994,0
0.0279749680900895,0.00517013554789619,0
0.00728210098090179,0.00747420368819226,0
0.00622304373634085,0.00735741993463311,0
0.00540527590260324,0.00608037665976851,0
0.00721897533709914,0.00671739511773296,0
0.0145047391282216,0.0140260047818805,0
0.0181935291510668,0.0133621599446399,0
0.018503085828334,0.0170266386516586,0
0.0174637811504229,0.0159423969880308,0
0.0169932940794615,0.011386989971169,0
0.0190687693357849,0.00692634470094097,0
0.02655034099031,0.00984159638053875,0
0.0281088783161404,0.00654884982694784,0
0.0289278937744184,0.00561184774782612,0
0.0316319277800303,0.00711296197925088,0
0.0302310382635338,0.00652523633401291,0
0.0301674219552112,0.00704139568570495,0
0.0331790803949356,0.00744561480821097,0
0.0340693349129349,0.00713541471636478,0
0.0339579206388491,0.00734499087969173,0
0.0292097003504512,0.0114550377157834,0
0.0142389915444128,0.00571691220676665,0
0.00624305162536279,0.00384558432146358,0
0.00809583220222924,0.0069679920198575,0
0.00974148574824808,0.00723196588002987,0
0.00919892806620126,0.00561579768771962,0
0.00984290270790335,0.00465670448610123,0
0.0137176951473157,0.00610252212024901,0
0.0175309945851863,0.00816463382200198,0
0.0185984990047696,0.00968495985738294,0
0.0214499989461306,0.00954956877234886,0
0.0296293472263978,0.0121194965436867,0
0.0370061306623354,0.0177792277287153,0
0.0348381093845966,0.0332085595748314,0
0.0247986658592153,0.0244992560228321,0
0.0158374332807846,0.0197463259625761,0
0.0108835507326009,0.0216580450267432,0
0.00907814988506115,0.018931748566587,0
0.00625139978697179,0.0192054132029989,0
0.00201622573636236,0.00896974394487842,0
0.000679249480649279,0.0140630632328987,0
0.000621537130084074,0.0143507286352293,0
0.000698253656580567,0.00918010960349426,0
0.00109972091794822,0.0135322246278225,0
0.00121076290890128,0.0116074849518156,0
0.00106493753096238,0.00902588632745108,0
0.00109710477751072,0.0106584919002418,0
0.00106873675990036,0.0104494464619983,0
0.00102396100974234,0.0105352838719623,0
0.00101664312121182,0.0125449550263166,0
0.00077586886161879,0.0113338409378777,0
0.000520915957114355,0.00988559780540929,0
0.000495790992762283,0.0199266758501042,0
0.000336648709958552,0.0179030774674959,0
0.000198592085121528,0.0218107222189228,0
0.000187407183049979,0.0354142913158036,0
0.000158469886058872,0.0241510177059567,0
0.000284300341315369,0.0409197371108031,0
0.000356597255499744,0.0458564903195109,0
0.000435978647942693,0.0450513003608492,0
0.000658206452866038,0.051885278707468,0
0.000891532049888121,0.0696029392860593,0
0.000834498542877144,0.0505740577056243,0
0.000598257234273218,0.0242371856289038,0
0.00053332064524797,0.023029993261838,0
0.000487490966815717,0.0211588046585403,0
0.000473347231929801,0.0196612180051883,0
0.000519526814953105,0.0196517254538495,0
0.000580356214927038,0.0212629870612628,0
0.000600996848757803,0.0232353330425502,0
0.00058027951872013,0.0194596682756812,0
0.000589914515706133,0.0185925733394953,0
0.000556376715241802,0.0140431211580515,0
0.000613494497216102,0.0174890457873676,0
0.000553012311898062,0.0141508727547952,0
0.000461619037880835,0.0112380398823578,0
0.000490398179980081,0.0136373476485553,0
0.000458777777342926,0.0132177202384804,0
0.000389989943070774,0.0118471108260101,0
0.000341344355380551,0.010435818853557,0
0.000331054320619556,0.0135574622662635,0
0.000220062855198971,0.0114456598348995,0
0.000168113353916595,0.0152702692229345,0
0.000146512204621275,0.0209207990592773,0
0.00013578619615882,0.0267337579881836,0
0.000141009326332778,0.048268721245666,0
8.30368237057839e-05,0.0428740312283088,0
7.24755623861661e-05,0.0537988928513142,0
7.2837099367485e-05,0.0605571154989272,0
5.78789792670012e-05,0.0495293346229272,0
6.71245625965875e-05,0.0454329049960686,0
0.000125764386937855,0.0675760804037921,0
0.000160933806430048,0.0675980666313536,0
0.000164416029962075,0.0549148960873276,0
0.000165835898131705,0.0537061337051434,0
0.000164336493603805,0.0527690800852019,0
0.000159564312474851,0.0505987342613998,0
0.000137312495630977,0.0484921054614612,0
8.87100409261363e-05,0.0338815678274059,0
0.00012362870182754,0.0181609575648027,0
0.000442743636535161,0.0364819307754786,0
0.000613078273089089,0.0301325007945199,0
0.000584013413525752,0.0270469306858653,0
0.00056869377003319,0.0275705055278825,0
0.000565842583840225,0.027407264182134,0
0.000545061636321882,0.0281797190922905,0
0.00046774305246088,0.0255881191494809,0
0.000354936260940233,0.0210945781032916,0
0.000217743450896323,0.0148500485881493,0
0.000184032613117613,0.021838425480781,0
0.000126099645632635,0.0173029321645459,0
0.000296077086049541,0.0191512201309308,0
0.000938999465077609,0.0343220623839622,0
0.00146646543009417,0.0372430295640465,0
0.00154302628265347,0.0284834798726533,0
0.00132932254581974,0.0252467447528714,0
0.00111633427774831,0.02280853225855,0
0.00107684335732556,0.0205602033744019,0
0.00117274506991212,0.0221005135394579,0
0.00106299639126213,0.0144373475019666,0
0.00115164438812134,0.0108184100148262,0
0.00150846675196863,0.0133690886945788,0
0.00142722519847962,0.00887844556937872,0
0.00151990012412933,0.00905891573245252,0
0.00177002234876067,0.0102740616758754,0
0.0018922840151838,0.0102499933075013,0
0.0018990539752348,0.00950651403147497,0
0.00190343095222157,0.0102185322940388,0
0.00179753182824346,0.00879207939601191,0
0.00184951041013422,0.0100777179546406,0
0.00164840099304809,0.015622683829618,0
0.000770962004500875,0.0079619384755035,0
0.000626654327350098,0.0127224489121602,0
0.000667236865990543,0.0154196000510394,0
0.000552782947179876,0.0108026162069236,0
0.000614022088845605,0.0126958240826989,0
0.00064002554951291,0.0138181104091177,0
0.000534019481881152,0.0117165202983461,0
0.000409741533131654,0.0107006901437009,0
0.000408470874827838,0.0135447738257086,0
0.000437293356322018,0.0129363836142186,0
0.000538705426788761,0.0184176192535194,0
0.00046580060305162,0.015932144736571,0
0.000310491092941721,0.0128572533463375,0
0.000299246173803805,0.0139310972254333,0
0.000338622565572793,0.0155058418598954,0
0.000356494661872321,0.0189364248076652,0
0.000277319463022602,0.0186947392285756,0
0.000182487663697698,0.0155442211386258,0
0.000169815036499944,0.0161443089004992,0
0.000265469511578236,0.0159776408907644,0
0.000608005047668618,0.0239827409145182,0
0.000957753393667389,0.0341031912945613,0
0.00105699174641112,0.0274131677299203,0
0.00101159649911784,0.0283968559071948,0
0.000879265079897061,0.025463066451166,0
0.000785431061408211,0.0233981693369482,0
0.000769842065937727,0.0220830747435979,0
0.000743102690944178,0.0204049716078396,0
0.000695688096032497,0.0211063860290492,0
0.000687532742614368,0.036190012757695,0
0.000490285330515773,0.0378432761381794,0
0.000262937271481739,0.0270604262485178,0
0.000218986125647498,0.0434857790842622,0
0.000225405139877768,0.055993903887732,0
0.000231106553304019,0.0404003358686112,0
0.000293579282558761,0.0451308313562466,0
0.000332261485949532,0.0455070066181861,0
0.000320931318564817,0.0405959299269525,0
0.000324989490856688,0.0391821347717159,0
0.000334645516274895,0.0401028631909115,0
0.000332647837252132,0.048167236198553,0
0.000302885950995599,0.0460682705069635,0
0.000269030026032963,0.0394588612717525,0
0.000272372349431069,0.0319355657160973,0
0.000342558711989936,0.0417633438586705,0
0.000333472882308046,0.0403547716622763,0
0.000307245058130506,0.0423142354760089,0
0.000328579738937927,0.0528775301032125,0
0.000332032054019694,0.0597505927336602,0
0.000342592508799496,0.0568230374210687,0
0.00033768606854073,0.0527244558291157,0
0.000210152788470089,0.0259979153288434,0
0.000139614342634296,0.0190046391478672,0
0.000202860402170261,0.0377993787476458,0
0.000208954601221072,0.0278743390764907,0
0.000225393871458793,0.0227158847535524,0
0.000278989491489142,0.02463131247774,0
0.000291046995450836,0.0243472960782391,0
0.00029593802955039,0.0239636441379927,0
0.000311126438804723,0.0262907205445779,0
0.00032362988362521,0.0274600662793243,0
0.0003702616736165,0.0471749850862288,0
0.000318428057341043,0.0597738160556765,0
0.000166118724760238,0.0402094539301322,0
6.20148934027816e-05,0.0317993133619862,0
5.57708652575011e-05,0.0537589165828721,0
5.71343641537709e-05,0.0479741938462796,0
4.39601386062699e-05,0.0507060694154763,0
1.98214097445827e-05,0.0354950122141709,0
2.88914876598083e-05,0.0346548605470612,0
3.95136269425726e-05,0.0286541524679016,0
5.19001146752114e-05,0.0235254696138294,0
8.0049063437443e-05,0.0290805916354162,0
8.42710308907293e-05,0.0244216534485108,0
8.56911183245983e-05,0.0265302417666441,0
8.43399467062692e-05,0.0234660234013681,0
9.48396300331922e-05,0.0282671530116198,0
9.24097106774687e-05,0.0261232087529699,0
9.19717874708462e-05,0.0264984352351737,0
6.83473610628263e-05,0.0264374412519643,0
4.21177001340958e-05,0.0246587532269654,0
3.86948219192001e-05,0.0359072419588498,0
2.56582792556819e-05,0.030082414034585,0
3.88874082749023e-05,0.0385589593916701,0
0.000129029700841957,0.0491846404315342,0
0.000239109567658144,0.0845182338558483,0
0.000246210589532128,0.0714529172370879,0
0.000276509050640995,0.062830150082907,0
0.000435017727004569,0.0632205228967516,0
0.000955871728932974,0.0271332686681718,0
0.00307172744967997,0.0240250445298911,0
0.00599155969338845,0.0342084699655817,0
0.00686638486378926,0.0246373708091447,0
0.00629300733414531,0.0148398420095584,0
0.00573957590397919,0.0133779501145882,0
0.00521475713008118,0.0108728555247881,0
0.00548419916904557,0.00670802199454609,0
0.00760418213178895,0.0097561559900627,0
0.00769914959177187,0.00811085692509904,0
0.00717485460194496,0.00872729902309318,0
0.0104055622875047,0.00826599185636472,0
0.019223232941354,0.0121755336673752,0
0.0284942123513007,0.0179832310067658,0
0.0386601858693358,0.0256300168609865,0
0.0451587730221165,0.0323764771045343,0
0.0374582681294335,0.0155500199879965,0
0.030191581011741,0.0140900010020353,0
0.0265670002699917,0.0123312863617845,0
0.0205385315289596,0.0116250745831058,0
0.012057391565082,0.00724498160589581,0
0.0101814642798208,0.00765464246775978,0
0.0141327569288864,0.0119068902634467,0
0.0146943689201454,0.0064802477743272,0
0.014487347257334,0.00940587502389701,0
0.00921999654442917,0.00484470552989404,0
0.00723698433067762,0.0055374254028291,0
0.00739225111217387,0.00520378500882855,0
0.00780413501191507,0.00538382076366955,0
0.00973987269065427,0.00412200624108891,0
0.0190518976525942,0.00688978465916899,0
0.0301285553480242,0.0101221184412584,0
0.0353519235345992,0.0100826482003317,0
0.0349980373565453,0.0131665880571251,0
0.0270186509238342,0.00841217454164062,0
0.0258561448805489,0.00972764719949913,0
0.0293491690222988,0.00926470633628758,0
0.0297677423706128,0.0095286940107631,0
0.0268843711471898,0.00717357072251265,0
0.0263555151838898,0.0128862024248258,0
0.0219880957993302,0.0166521224832476,0
0.0130797966739453,0.011268622558396,0
0.00679099231500353,0.00751293843484254,0
0.00634364250167068,0.0072864651113998,0
0.00862603492248063,0.00975536633326409,0
0.00945231185888079,0.00331274655448363,0
0.0162077666126724,0.00506992612373513,0
0.0257229591314579,0.0073940034128193,0
0.0337896302105118,0.00921683934205799,0
0.0366616455953721,0.0079622466262546,0
0.0367588432760401,0.00793861472588611,0
0.0362979436441287,0.00807806476884326,0
0.0341083441193729,0.00850219751285921,0
0.0259880245632833,0.00744355007240304,0
0.0166050971702592,0.00351497330590585,0
0.0212975832612118,0.0139299895446616,0
0.0266096895115642,0.0317414847631345,0
0.0228139880617808,0.0294583973029659,0
0.0154758058245032,0.0228375743129635,0
0.0104435392269186,0.0231815782921975,0
0.0084066979949849,0.0229471866424073,0
0.00682670199276692,0.0131768170806686,0
0.00612387370479154,0.0128676832766075,0
0.00537081697710931,0.00685352161073563,0
0.00642236521405478,0.00860618980368478,0
0.00697846611177818,0.00903812602925517,0
0.00702209936890581,0.00550292210786539,0
0.0105512503975824,0.00717718423506887,0
0.0142163625640623,0.00917601409242038,0
0.0174155081191193,0.0102648006167141,0
0.0173495817900486,0.00659618163524261,0
0.018088675512037,0.00766319541445312,0
0.0181207785545636,0.00654976507369775,0
0.0184219800387078,0.0075568584226182,0
0.0174971221169755,0.00755500442680305,0
0.0146361953525782,0.00587063462779335,0
0.0144366000571679,0.00803905466034866,0
0.0160746787053819,0.00915224249571178,0
0.0170111088813175,0.00845758423949308,0
0.0168895842953244,0.00750891109281166,0
0.0163432021505882,0.0112340859290343,0
0.0107472109856896,0.00902078473030835,0
0.00490405399833623,0.00500768499597868,0
0.00303777961737519,0.00636749498543059,0
0.00295381723267083,0.0101268612098447,0
0.00247870427720688,0.0083033363824994,0
0.00231394463043227,0.00790344687950031,0
0.00246777295955369,0.00682467691753976,0
0.00337899123231542,0.0135471096725666,0
0.0027935632159,0.0114287504663009,0
0.00199449638763687,0.00500291051986597,0
0.00379658233743774,0.0105527341643781,0
0.0042659840643707,0.00731731511700196,0
0.00432546589387516,0.0069788564461075,0
0.00453563266971424,0.0072551328846399,0
0.00466827376716915,0.00723228812317759,0
0.00519590436657458,0.00583580569742671,0
0.00577910666475096,0.0076568893106333,0
0.00451576402964449,0.00493515883967196,0
0.00390691770548982,0.00523738164479083,0
0.00373356969698837,0.00767724969463147,0
0.00344339594873299,0.00505168732329285,0
0.00563139832375422,0.00898355421410567,0
0.00736158637290769,0.00988240585528571,0
0.0076239068691424,0.0089498204974004,0
0.00761965125215755,0.00941239465507808,0
0.00692704411544799,0.0114746559750523,0
0.0051378066133827,0.00922027161668658,0
0.00426714177955463,0.00586594887458612,0
0.00437557673412707,0.00585562449958546,0
0.00360377308549608,0.00381062329593213,0
0.00355480637265623,0.0050687416622431,0
0.00333601801527257,0.00483466542077199,0
0.00298306771428751,0.00462057946573459,0
0.00297099631955061,0.00518836028008399,0
0.00321199094925341,0.00498864141540821,0
0.00385793040605174,0.00784473697893244,0
0.00318302475639413,0.00759333624041087,0
0.00684697026670413,0.00508420813261483,0
0.0206866424438744,0.014230662989189,0
0.025145091614863,0.00775821782140884,0
0.0244748877753681,0.00568245552660536,0
0.026114355414058,0.00614961286140548,0
0.027722302289731,0.00634306370182143,0
0.0282374762794513,0.00650782995631784,0
0.0296411484174419,0.0068187148696537,0
0.032672348241135,0.00732109823734284,0
0.0359808725760702,0.00733405838127222,0
0.0341122946938912,0.0121752388913318,0
0.0146736529218533,0.00380399506960237,0
0.00240341250292667,0.00197625928939994,0
0.00152521499673816,0.00859516064211476,0
0.0013927060682409,0.00816909851332675,0
0.00141200742728288,0.00971804936903804,0
0.00122444577055624,0.00933018609038763,0
0.00105286345547225,0.0105277041644507,0
0.000981369155648825,0.0117565878649568,0
0.000792747377626829,0.0101696882638175,0
0.000472392357836629,0.00673721037211655,0
0.000406358541175379,0.00862633895512683,0
0.000407754117658589,0.00831078323064109,0
0.000736064611863414,0.0123920296411049,0
0.00141374953675628,0.0186655041640946,0
0.00177264830430291,0.0233616178142371,0
0.00165487456220441,0.0221437708918393,0
0.00171237793595293,0.0232360329006735,0
0.00172245093400823,0.0142263729058817,0
0.00234789885665857,0.0130839588435725,0
0.00308404956958547,0.0147521862619997,0
0.00348225158646434,0.0165352251467317,0
0.00492658230114226,0.017212644933476,0
0.00672044855981457,0.0259836920821163,0
0.00615838399908543,0.0197563669851359,0
0.00478894161138542,0.0167272275794732,0
0.00362607511899264,0.0138626924792024,0
0.00207018987016379,0.00866231812167818,0
0.00170963624121264,0.00816560980520291,0
0.00326750643631275,0.0164397719975204,0
0.00517345569268057,0.0222491196819698,0
0.00683261921399075,0.0259478551358027,0
0.00684387688681495,0.0310382050841014,0
0.00526919365674987,0.00830840500947063,0
0.00713954745769923,0.00855051289309565,0
0.0113781364992546,0.0124027062190211,0
0.0151885667014821,0.0150156820676741,0
0.0173421573839055,0.0146028414029469,0
0.0171978173364482,0.0115302751145852,0
0.0159261538118703,0.00984586389243579,0
0.0146954256239303,0.0100667787605035,0
0.0126117930922294,0.00866262696064165,0
0.0104379547085104,0.00658554662745114,0
0.0101801935006829,0.00979715176395284,0
0.0097341575083887,0.0118613400973436,0
0.00857408166946592,0.00848468359890186,0
0.00789605019909546,0.00799385511813607,0
0.00703484320078801,0.00722024544116382,0
0.00629840699480313,0.00545105327947038,0
0.00745049867132178,0.00557600576499708,0
0.00875992550473283,0.00681201885113313,0
0.0084832064132743,0.00446195426827884,0
0.00960393144970338,0.00600497237521452,0
0.00969157707219581,0.00635392888722575,0
0.00885448298723226,0.00554114775230495,0
0.00877498295263558,0.00699564713663327,0
0.00840919600451796,0.00716889923815223,0
0.00805982136264577,0.00650402632312193,0
0.00866759366885346,0.00969842561994702,0
0.00716919944996773,0.0174378934525148,0
0.00255435501900003,0.00707882266541042,0
0.00086973506273574,0.0105076128670357,0
0.000891181344266407,0.0133926657794415,0
0.00142043441493686,0.0156772168967308,0
0.00195941104000393,0.0170739284229073,0
0.00198044694996312,0.0111601942327934,0
0.00207855276801916,0.0105826353612472,0
0.00229922237291082,0.0120740501018887,0
0.00239669546305276,0.0129373840836964,0
0.00244175851877968,0.0128325492197145,0
0.00255426292067395,0.0135354565112632,0
0.0026504513126225,0.013996615879696,0
0.00255288332330174,0.0183787814367906,0
0.00175918769688762,0.0196021809279811,0
0.000589049518649054,0.010374469788802,0
0.000225362563683989,0.0140833387370181,0
0.000251716029943462,0.0228859406222458,0
0.000279647652585896,0.0244433142363587,0
0.000285134766253041,0.0250959598879173,0
0.000286457462535116,0.0264576946153357,0
0.000295614985746855,0.0267056891681143,0
0.000309153382752038,0.0440407146053009,0
0.000171261540316422,0.0468116018469265,0
3.72986853388964e-05,0.0362226525475231,0
2.20729908801192e-05,0.122968023541446,0
2.44696294501619e-05,0.141517489071563,0
2.8746822844183e-05,0.156417713716108,0
3.30458919779461e-05,0.189544484781494,0
2.91457956134273e-05,0.243907430458658,0
1.34673377623385e-05,0.169987904599306,0
4.70102272137729e-06,0.173643061269947,0
3.61412841766175e-06,0.201975058544998,0
3.52192725408714e-06,0.194486955491807,0
3.16378391024217e-06,0.18627982445335,0
2.35921710591168e-06,0.159647588462956,0
2.21281507110331e-06,0.153127243300098,0
3.07185159327263e-06,0.193864780006227,0
3.51945474678478e-06,0.205880026386274,0
3.53246405771123e-06,0.198157741655883,0
3.49237616413648e-06,0.196362808712669,0
3.39739104254762e-06,0.215752047496581,0
2.57095951677862e-06,0.203210772326568,0
1.61089800632595e-06,0.162056611628025,0
1.11420023069244e-06,0.137520677880166,0
9.61276462050441e-07,0.13517962183326,0
1.27384957178258e-06,0.128313250645474,0
4.01998689203156e-06,0.160373480692425,0
1.0116399520013e-05,0.243535218711621,0
1.36427561321017e-05,0.19966085153351,0
1.34505179547897e-05,0.147480167859854,0
1.36856838097617e-05,0.146693931420597,0
1.4902565814305e-05,0.15716373280532,0
1.65744901635978e-05,0.165178301055365,0
1.7542546922337e-05,0.168821944472283,0
1.79959923476345e-05,0.169651676722679,0
1.88616582157348e-05,0.197794266839167,0
1.75783912999624e-05,0.274444884558107,0
1.06301613422559e-05,0.245562028043028,0
3.1800807156522e-06,0.112483035607871,0
3.38926981832454e-06,0.13493684177552,0
5.61415360451334e-06,0.174062309839156,0
5.72881447791473e-06,0.160966242664972,0
5.1274310663029e-06,0.15211940789535,0
4.46442889427345e-06,0.140322388662972,0
4.01208933936926e-06,0.128702852236362,0
4.50155910791565e-06,0.128157019032425,0
4.63735602561832e-06,0.129633399793543,0
3.76050768130958e-06,0.113487192312509,0
5.46405492888526e-06,0.132495069199604,1
8.8058916852542e-06,0.167584934083866,1
9.14854880354896e-06,0.115309660617278,1
1.04726568975778e-05,0.115938229208009,1
1.24335873072756e-05,0.126675583986647,1
1.39305982923817e-05,0.132854566971414,1
1.59577589897829e-05,0.147451822638653,1
1.8303777637225e-05,0.175225328518188,1
2.04434238276426e-05,0.185757803418291,1
2.16785815249022e-05,0.20442765019601,1
1.67224292517426e-05,0.241512774040147,1
5.91379820421127e-06,0.147446619984212,1
1.1718748057387e-06,0.134370519898892,1
7.00073621386397e-07,0.154423813072177,1
5.99094542700912e-07,0.144535093119553,1
4.27643864023226e-07,0.124413719336275,1
2.84933328159595e-07,0.102341121403745,1
2.64279150997461e-07,0.114351235177995,1
2.43090586116235e-07,0.119583945067874,1
1.41949905646282e-07,0.0816695641251275,1
3.7798106471875e-07,0.0955700642726475,1
2.69522688171306e-06,0.164135111519729,1
7.29460648798142e-06,0.264192091987117,1
9.25098229829466e-06,0.216587726700906,1
8.91104008997896e-06,0.187795443502698,1
8.1804027965515e-06,0.180563629029438,1
7.5853909025691e-06,0.174520437296449,1
7.49477233465192e-06,0.175052300493852,1
7.37851711273605e-06,0.173557342514297,1
7.28872712124104e-06,0.170088904477589,1
7.93154523039046e-06,0.202611989150376,1
7.8915561342703e-06,0.308688797409284,1
4.66836446984346e-06,0.279195947641745,1
1.8684941889821e-06,0.223416223253921,1
9.5161414444639e-07,0.192361339450838,1
4.31685377742055e-07,0.128553476160346,1
1.89487274208222e-07,0.0969533187936011,1
1.9019942389023e-07,0.105145796619189,1
2.27018554097334e-07,0.114745601909183,1
2.77680713528031e-07,0.121753009810756,1
3.34505777375481e-07,0.144026005112169,1
3.31837511547846e-07,0.148470348882462,1
2.56072718560753e-07,0.129142572996144,1
1.65105604976623e-07,0.101381878288805,1
8.48879482738731e-08,0.0695201121713434,1
6.17171905954348e-08,0.0572657813266729,1
1.18632237254692e-07,0.0773479310889453,1
2.10252736235569e-07,0.102889367729802,1
3.01420015666369e-07,0.120444582975762,1
3.74081687114895e-07,0.132456373469261,1
4.13590385203041e-07,0.138282647403131,1
4.00834127979995e-07,0.122328361317666,1
3.8308180467941e-07,0.123171764629192,1
2.75760590507125e-07,0.103133130203819,1
1.69207352087845e-07,0.0792792301885676,1
1.53692111671792e-07,0.0816378840775794,1
1.58186110387132e-07,0.0825709937598119,1
1.63301541419108e-07,0.0806370653083474,1
1.82679064483945e-07,0.0855131801497654,1
1.97663957225517e-07,0.0914794593541545,1
1.70779663995362e-07,0.0846325839675049,1
1.61961715715156e-07,0.089597598982858,1
1.85307664419029e-07,0.0903881300361869,1
2.99320661575418e-07,0.120024812208597,1
3.13157814370485e-07,0.119588465097193,1
2.3768978102396e-07,0.0951551889989919,1
1.85526194104844e-07,0.0856696812539594,1
1.97396579727579e-07,0.0892410439143892,1
2.07335089472357e-07,0.091445905333383,1
2.05799872519912e-07,0.092078226152564,1
2.03437548252416e-07,0.09350634118694,1
2.14880423699878e-07,0.0942023676772248,1
2.34281452478819e-07,0.104943151382947,1
1.80374402671362e-07,0.0924723323843506,1
1.517073479371e-07,0.0858148189857834,1
1.54589736129155e-07,0.0949795852998155,1
1.25999809519298e-07,0.0862318819231366,1
1.02161709926364e-07,0.0744504789443906,1
1.37275206753765e-07,0.0898901177147313,1
1.65239661002375e-07,0.0984005737127328,1
1.8503881781396e-07,0.104507365529863,1
1.92303552579359e-07,0.110997771100882,1
1.28109080083387e-07,0.0879153323674092,1
5.57544520253509e-08,0.0586452498916828,1
5.79537054012463e-08,0.0635501675070979,1
6.23360519745903e-08,0.0635525726250629,1
5.16218536643664e-08,0.0584894579761732,1
4.87468110079687e-08,0.0608416151919221,1
4.95797947515445e-08,0.0635712321129169,1
5.24078259797332e-08,0.0677811536962406,1
5.64111429131433e-08,0.0700371680679813,1
6.55754331996066e-08,0.0706872402450896,1
6.86028957209003e-08,0.0765192404531286,1
6.27235289805305e-08,0.0804607701742601,1
2.69702359973492e-08,0.0627553915721417,1
1.15559966965886e-08,0.0500011815324314,1
2.72254933614519e-08,0.0629836257723659,1
5.35023107927206e-08,0.0808732149554855,1
6.11383623856132e-08,0.0834691193644353,1
6.16393279174638e-08,0.0798313758431023,1
8.13753131223927e-08,0.0840991685607905,1
1.18764089619746e-07,0.0923126312240703,1
1.22641063339845e-07,0.0910402799813316,1
1.02047119570104e-07,0.075467396618261,1
9.11849087163793e-08,0.0715279116197059,1
7.77484548914365e-08,0.0615554242286084,1
7.80492545766165e-08,0.0630291922579051,1
9.21075079949779e-08,0.0622238177468352,1
1.53222364666487e-07,0.078143234840078,1
2.13223638132299e-07,0.0920390287934613,1
2.41649024743425e-07,0.102506043218766,1
1.89664668894354e-07,0.0951577833263841,1
1.31736672867909e-07,0.0811204259673943,1
1.21454392054354e-07,0.0820582228530994,1
1.23779621366778e-07,0.0777071571064735,1
1.30486095422197e-07,0.0819301277517866,1
1.06348665251214e-07,0.0727994026592001,1
9.6077035464363e-08,0.0754292317999521,1
9.49645540890144e-08,0.0722856407992423,1
1.16539861422615e-07,0.0770589610780439,1
1.61249198756366e-07,0.0923889892148236,1
1.78255950187701e-07,0.0939244719011824,1
1.76325543416875e-07,0.0912332968686635,1
1.72166501127523e-07,0.0870349593690435,1
2.27147468248125e-07,0.0980236222240881,1
2.94656246432821e-07,0.118592680026267,1
2.69669305063033e-07,0.112457058651222,1
2.21066833830736e-07,0.103211705107324,1
1.85639315353971e-07,0.101483266291535,1
1.78768301299821e-07,0.104989896154291,1
1.81723043018104e-07,0.0973231651731995,1
2.13990144778172e-07,0.104123009978205,1
2.28431467881079e-07,0.108885873956359,1
2.39297351502633e-07,0.114650741558148,1
2.98435891805456e-07,0.147520920229237,1
2.9614739017132e-07,0.139031288377369,1
2.33023896774232e-07,0.120348650094129,1
1.71677288452725e-07,0.103128970141715,1
1.40066510303666e-07,0.087936238338895,1
1.44031263174873e-07,0.0835269982527562,1
1.54830669698725e-07,0.0899603505406654,1
1.58663570204879e-07,0.0939530726450631,1
1.44466486162588e-07,0.09215062186925,1
1.25202084346879e-07,0.0857263328954516,1
9.36515395902124e-08,0.0725698321863105,1
6.15423668467831e-08,0.0579243599125637,1
7.20229771230942e-08,0.0659360716004274,1
7.83107556460282e-08,0.0647729638369137,1
8.82801166405681e-08,0.0668041572944694,1
8.37626122111236e-08,0.0669141449749802,1
7.49391547791746e-08,0.0619396550343208,1
7.19822094001943e-08,0.0592334044153643,1
6.57498896714753e-08,0.0581884154998862,1
6.93099035279473e-08,0.0596274458286119,1
6.68609019396924e-08,0.0586410579143597,1
6.34889337960559e-08,0.0589600261894721,1
8.64881732168885e-08,0.0623240912104775,1
1.81972791230463e-07,0.0865948701350896,1
2.46501485598857e-07,0.100706825336279,1
2.54509955849592e-07,0.0964358797061854,1
2.59247826348765e-07,0.0982742090888759,1
2.60652292766505e-07,0.0994989446138951,1
2.51961054976393e-07,0.0944138992058474,1
2.16753902569357e-07,0.0875699312864535,1
2.09127400172819e-07,0.0829295474584666,1
2.98818226936436e-07,0.099961212535999,1
3.7131278744875e-07,0.11370835558683,1
2.79462740478572e-07,0.102639038600776,1
1.80007125888481e-07,0.0838024149661495,1
1.53699824484233e-07,0.08163989798787,1
1.5375675238558e-07,0.0797128834996806,1
1.48732405995758e-07,0.0803328857456459,1
1.0319485951661e-07,0.0678208250844684,1
4.97707786786429e-08,0.0453021903566615,1
5.35724606582509e-08,0.0484344458527613,1
9.32295385666814e-08,0.0609266772504365,1
8.63427316108674e-08,0.0603327467544456,1
8.63467716554791e-08,0.0616097363270128,1
8.33527313214278e-08,0.0586099954935637,1
8.11490706241378e-08,0.0598209785204521,1
9.78351894240176e-08,0.0686497517844851,1
1.02029490284526e-07,0.0698291072715644,1
9.40096344535222e-08,0.0708577173240807,1
8.20011527604232e-08,0.0664167997017103,1
1.10447474148174e-07,0.0807002546126125,1
1.27433290802885e-07,0.0919603753426465,1
1.39330120353988e-07,0.0888810814769009,1
1.42290371224014e-07,0.0887705331229258,1
1.54910001483828e-07,0.0978811678285507,1
1.44210494244919e-07,0.0947133526866956,1
1.16568141734897e-07,0.0783577311267376,1
1.03338832015499e-07,0.0738827370676193,1
1.00181353513066e-07,0.0692727096135788,1
9.97909382928622e-08,0.0746653637538982,1
7.75189069021352e-08,0.0684270950425137,1
4.33606969870092e-08,0.0501887836902645,1
5.47565610062615e-08,0.0600517838232401,1
7.51844956701396e-08,0.0775791986618478,1
6.28190209440798e-08,0.068623128566657,1
6.59129605630749e-08,0.0698254037677927,1
5.70777502740736e-08,0.0680078699995421,1
5.34255499450983e-08,0.0592732766155597,1
1.28228445037824e-07,0.0903621169416192,1
2.07719995540817e-07,0.107268379511583,1
2.27360856058979e-07,0.108723000405403,1
2.34691700645298e-07,0.116974262226319,1
2.16078113288855e-07,0.11594037962617,1
1.82311787701063e-07,0.103264733967167,1
1.63528151194146e-07,0.0911090891971069,1
1.33176397856806e-07,0.0883289169410351,1
1.10405237318143e-07,0.080685438698647,1
1.05278053429114e-07,0.0851889488072396,1
7.99359554102797e-08,0.0827516827857253,1
4.22985325309155e-08,0.0647721207031299,1
3.4373066833112e-08,0.0590395613917253,1
5.46067120788457e-08,0.0641292495128524,1
7.8988014033662e-08,0.070897181147959,1
8.62968220130072e-08,0.0678631316091297,1
1.24122290605207e-07,0.0807743290590286,1
1.3555010770457e-07,0.0801273236891681,1
1.39803172850339e-07,0.0814075314767241,1
1.47347405247512e-07,0.0819162043690773,1
1.60406298539652e-07,0.0872809963523939,1
1.92778074182842e-07,0.0912989029434503,1
2.01546807374142e-07,0.0980614192218558,1
1.40602734406673e-07,0.0781489788397519,1
8.08772858048054e-08,0.0590560282718884,1
8.54627364390829e-08,0.0685144647996502,1
8.71782862919231e-08,0.0703994013259042,1
8.91575408748724e-08,0.0750476913928674,1
9.34352135650951e-08,0.0792784160128107,1
1.01054370425975e-07,0.0856229130238291,1
1.11586032175107e-07,0.0845123415094848,1
1.1352121354411e-07,0.0892337213980058,1
1.16583934636561e-07,0.0870049522428989,1
1.04700694326424e-07,0.0836840897474537,1
1.03035828669622e-07,0.0858356593518044,1
9.91133126284457e-08,0.0800903641220295,1
9.7948677949928e-08,0.0837962409016088,1
1.11132445348248e-07,0.0860123855665593,1
1.0627667900177e-07,0.0841942539123694,1
1.07998839836702e-07,0.086232680372189,1
1.15449783931022e-07,0.0908312298086561,1
9.26051680357826e-08,0.088642082103643,1
3.84906068459984e-08,0.057063876113505,1
4.55661940682136e-08,0.0639198987812573,1
6.69104843053815e-08,0.0701477981783251,1
7.53358137046868e-08,0.0645728968181565,1
9.8637321917831e-08,0.0742520973809501,1
9.17431694263593e-08,0.0698613807335137,1
9.03328265800938e-08,0.0692902364845226,1
9.03328265800938e-08,0.0692902364845226,1
8.94998428365181e-08,0.0673500507840887,1
1.09717695180588e-07,0.0725375474591574,1
1.29077588959846e-07,0.0801908172292425,1
1.23391777084055e-07,0.0784555994700001,1
1.24800650823189e-07,0.0855933180076318,1
1.1509132179093e-07,0.0878367900577967,1
1.12740750380487e-07,0.0771058583263314,1
1.74199378120773e-07,0.104278969424272,1
2.00545243587223e-07,0.104866933194064,1
2.05046220561438e-07,0.100650383065559,1
2.31815188881768e-07,0.104415261795759,1
3.378652581085e-07,0.124668293638119,1
4.28619351158559e-07,0.136727375767363,1
4.10220620720102e-07,0.129465772724198,1
3.18296751116565e-07,0.108620686688374,1
2.69402294841878e-07,0.099001004137165,1
3.08652062798092e-07,0.104735166309621,1
3.00542591432065e-07,0.0947938621704311,1
3.42323998252683e-07,0.0969669315881997,1
4.51957587049991e-07,0.113291912536929,1
5.44336879864302e-07,0.124478773362605,1
5.4124587845957e-07,0.124120257636207,1
4.95889766711164e-07,0.11873918050984,1
4.80429250535761e-07,0.118472205149463,1
4.6440826998968e-07,0.120668272370139,1
3.51435400682411e-07,0.1044207643062,1
1.79484123749657e-07,0.0801558069547744,1
1.31679010412997e-07,0.0739766208842245,1
1.27205579197499e-07,0.0797516480581556,1
7.934206885236e-08,0.0636213424207268,1
5.71677330858797e-08,0.059311926906762,1
5.60332151035581e-08,0.0606772498234125,1
2.41594667779558e-08,0.0441408429897313,1
2.12682639431113e-08,0.0401196985084501,1
5.64919438053773e-08,0.0585563804423956,1
8.4466314527125e-08,0.0792164375065893,1
8.65260027255253e-08,0.075424291654151,1
8.39642471649257e-08,0.0808791012532654,1
8.10451312945823e-08,0.0768233221135671,1
7.68802125767042e-08,0.0749591249002169,1
7.13853846280116e-08,0.0750128117586005,1
5.41854456088803e-08,0.0689719435908509,1
2.21736012129147e-08,0.0476534930689544,1
3.05445736483536e-08,0.0563583258273412,1
5.05391217084313e-08,0.0663686043010307,1
8.77894348586383e-08,0.0814044628364443,1
1.47778955467398e-07,0.107845538692842,1
2.25424572859627e-07,0.124642164612068,1
3.46227783177933e-07,0.150035345721703,1
3.47057461430462e-07,0.140170759558956,1
2.8494544829343e-07,0.11196291486622,1
2.47404986484746e-07,0.103066913615452,1
2.49744172314919e-07,0.105884196187376,1
3.13751700928404e-07,0.11748852339446,1
3.82665680084405e-07,0.138020699120165,1
4.10069302685555e-07,0.137600482006534,1
3.89984771813671e-07,0.135780334047106,1
3.3651551593141e-07,0.131321580424137,1
1.93387753642426e-07,0.104100101541125,1
8.32576066346614e-08,0.07532663586988,1
6.08430718521764e-08,0.0755546034014535,1
6.25795564816408e-08,0.0733846595633758,1
7.95833696987133e-08,0.0788831646459667,1
7.46177875941532e-08,0.0739277854202643,1
6.54590064594331e-08,0.0653830836079565,1
6.74588285422238e-08,0.0680284371397517,1
6.77948867985605e-08,0.0661778410523497,1
6.64054787289192e-08,0.0584559086690403,1
9.380542856224e-08,0.0688729928456448,1
9.94982186969057e-08,0.0631846410233977,1
1.039073764754e-07,0.0645204091332663,1
1.069025186398e-07,0.0667554616487771,1
8.13756803991758e-08,0.0586576049765972,1
6.58762328847867e-08,0.0548187027260225,1
6.21902430917863e-08,0.0567154429691668,1
5.89875895450581e-08,0.0568132634235554,1
5.55737518481731e-08,0.0568494007048958,1
5.30689241889203e-08,0.0590959660923785,1
5.70134768370693e-08,0.0566927319454496,1
1.5724771820687e-07,0.100576384704586,1
2.71119681078632e-07,0.132851524281149,1
2.61083842986391e-07,0.108425789457019,1
2.86605539352055e-07,0.102641865424049,1
4.04494041121411e-07,0.122411736010041,1
4.8716510673381e-07,0.127041703019083,1
4.93202769767602e-07,0.120864401127459,1
4.9524813417147e-07,0.118661363501443,1
4.88327170474848e-07,0.11934050423657,1
4.80026715181723e-07,0.124157183911393,1
4.0751709632131e-07,0.118990347425393,1
2.60541742454858e-07,0.0946698942191701,1
1.96238923307936e-07,0.0877063853117513,1
1.93624279890601e-07,0.097993225057315,1
1.36102859262807e-07,0.0826845868385935,1
8.8957375028202e-08,0.072793543695644,1
9.40173472659626e-08,0.0736211002547301,1
1.37297243360738e-07,0.089897127817239,1
2.12493124611147e-07,0.111363261589524,1
2.51424463596603e-07,0.12103738732941,1
2.88096683090554e-07,0.130111131680264,1
3.19034242896591e-07,0.142618046691672,1
2.78602945529847e-07,0.133323301769838,1
1.84235216213015e-07,0.0979838251279468,1
2.52661819078132e-07,0.104443797345406,1
4.0792881359492e-07,0.130179745052818,1
4.64277519454974e-07,0.131887844884706,1
4.45164435673812e-07,0.136025669247131,1
3.97623027067261e-07,0.123475609695096,1
3.71680064231632e-07,0.121548058868683,1
3.40707980408004e-07,0.109963932106917,1
2.93266471086397e-07,0.100534537039722,1
2.25944636784188e-07,0.0900214695655468,1
1.91028000312411e-07,0.0869768692788246,1
1.85072607277985e-07,0.0912448054044326,1
1.73080285763333e-07,0.0892501649755438,1
1.83676955503034e-07,0.110803872276909,1
1.45097834952361e-07,0.0923465473833839,1
1.01059879577719e-07,0.0772683333443921,1
1.33603540755297e-07,0.0806477082935709,1
2.35794632824291e-07,0.118563595119012,1
3.4227257950308e-07,0.14917853387946,1
3.39984077868944e-07,0.135875822359958,1
3.07968927981932e-07,0.126446585637685,1
2.95691966960547e-07,0.123905840474343,1
2.52990531798811e-07,0.117862040665033,1
2.05150894444559e-07,0.0995755509828918,1
1.7014464243776e-07,0.0919417918274852,1
1.71212683322379e-07,0.0890458584057289,1
1.97800584188749e-07,0.104156004218639,1
2.02319557725325e-07,0.105324060470523,1
1.82676126269682e-07,0.10611052463606,1
1.9125865013206e-07,0.112085100544277,1
1.89299228495387e-07,0.111519451194384,1
2.03083860710502e-07,0.102810438714544,1
2.30855494648098e-07,0.104177428320796,1
2.10603852840003e-07,0.0996111042406116,1
2.09717981239693e-07,0.101941602569011,1
2.30783508398654e-07,0.113605769761649,1
2.04752766411916e-07,0.10707506427931,1
1.69567283335069e-07,0.09052913781966,1
1.71514217561125e-07,0.0858597942288291,1
1.28019464548364e-07,0.0721137647302389,1
7.9872783803624e-08,0.0551605661621692,1
1.04211114374843e-07,0.0692237451147601,1
1.09701535002141e-07,0.069060068906133,1
1.09445910361255e-07,0.0691781390257565,1
1.10090481115213e-07,0.0677113511108166,1
1.24996409348465e-07,0.0679870939290237,1
1.64106612127185e-07,0.0762267701406492,1
1.73732202052948e-07,0.0831427512714359,1
1.53866935420444e-07,0.0808313984145759,1
9.85800267397016e-08,0.067400554936448,1
9.49645540890144e-08,0.0692775835631211,1
9.25805604913294e-08,0.0636474375837605,1
9.92337794132309e-08,0.0674142064861211,1
7.78479868995973e-08,0.0615924689974122,1
3.58329920450667e-08,0.0423447670355999,1
2.91738966946392e-08,0.0444262449393733,1
2.36394028533954e-08,0.0409028167830445,1
2.58562855148691e-08,0.0436587317542744,1
2.03765159142747e-08,0.0398983888123116,1
2.66881674280961e-08,0.042876525258524,1
3.56497209304087e-08,0.0515914956295104,1
3.91711707246781e-08,0.0553510133836704,1
3.97705664343409e-08,0.057788752607165,1
4.25012693150661e-08,0.0573162511734422,1
4.96925487238891e-08,0.0691520735642873,1
5.56718147492026e-08,0.064538848221596,1
5.81344055784241e-08,0.0659563187892186,1
5.58954863099774e-08,0.0561865656879244,1
1.03572052772629e-07,0.0745303252861542,1
1.47277989935547e-07,0.0940741827050045,1
1.5487327380554e-07,0.0957776850987291,1
1.34786539272959e-07,0.0920192026762326,1
1.08847616481941e-07,0.0830132057090786,1
1.08663978090501e-07,0.0882369446838051,1
1.10678123967824e-07,0.0831818518794227,1
1.03341770229762e-07,0.0831644565300884,1
5.04832956374333e-08,0.0572231310438816,1
2.26113951381096e-08,0.046150977656834,1
2.35204051757417e-08,0.0470147568349355,1
4.17347626691921e-08,0.0554581031103615,1
7.87294511785134e-08,0.0737750409491766,1
1.04256656695921e-07,0.0813202677793428,1
1.17871239760561e-07,0.0826590537772011,1
1.13593199793555e-07,0.0803068252368981,1
9.78223347366166e-08,0.0785754311085494,1
9.37731082053463e-08,0.0768611971281117,1
