Activity,Complexity,Tag
4.28353835227412e-07,0.0932557520563957,0
4.15875106773591e-07,0.0969779305304093,0
1.68161266093273e-07,0.0710076908750658,0
3.02001202199832e-07,0.0954733318170306,0
2.32240554031659e-07,0.0881258328930397,0
2.31970751714551e-07,0.0902153787717112,0
2.28530978442313e-07,0.0898024720592447,0
2.27482792314932e-07,0.0919991281137163,0
2.19265785354457e-07,0.0926925969190946,0
2.63699339189709e-07,0.100315187412572,0
2.08406860903525e-07,0.0920063861784631,0
9.84067235432859e-08,0.0754066520000388,0
1.28690589742433e-07,0.0766451049461895,0
1.04901781158796e-07,0.0700851938309716,0
9.40040777815534e-08,0.0684798143179794,0
1.07508550090509e-07,0.0715762579699431,0
1.00162501313332e-07,0.0702807581588695,0
7.52964636617576e-08,0.0661662816290175,0
8.73798120839054e-08,0.0672359859038441,0
8.20093433314463e-08,0.0665546141121852,0
7.64834288403238e-08,0.0673467263536709,0
1.22868305244261e-07,0.0691337420698337,0
1.50901838600351e-07,0.0734476401723347,0
1.62179905488868e-07,0.0793669331726739,0
1.83287522605614e-07,0.0762064020560592,0
2.1617188710158e-07,0.0804360702283927,0
2.10088711188517e-07,0.0777964812883943,0
2.1058376131165e-07,0.0761840711764899,0
2.01063122360257e-07,0.0757500876234122,0
1.86167889238712e-07,0.0736541266285836,0
2.34073064570792e-07,0.0802857266422264,0
1.49687315631597e-07,0.0710143112698671,0
1.44999520998939e-07,0.0743098609248641,0
1.50022629581666e-07,0.074177702030485,0
1.43020640640067e-07,0.0807604439773566,0
6.11896803696564e-08,0.0620802441978815,0
7.24119716109672e-08,0.0664514752028579,0
7.22623014570738e-08,0.0685653102418944,0
1.69902852426455e-08,0.0549748223804699,0
6.70073444000125e-08,0.0674339179387557,0
8.3013965047992e-08,0.0734928355592657,0
8.36331077353241e-08,0.0723417014537072,0
1.43356779673675e-07,0.0888869741613277,0
3.52964302142506e-07,0.120538501029581,0
5.12617966853024e-07,0.130579921053122,0
5.30631850733603e-07,0.134961024704311,0
5.07921426334858e-07,0.12643018745939,0
5.13283809268638e-07,0.122138787081281,0
2.36864800730177e-06,0.0610519231961886,0
0.000169651079174766,0.0750122396241203,1
0.000319567551033111,0.0693658684770752,1
0.000345552524075331,0.0715038462682382,1
0.000451569399530867,0.0822296764665496,1
0.000465525376033992,0.0745224597660096,1
0.000445303193686279,0.0728805522368614,1
0.000405039734992334,0.068687967974911,1
0.000331232294807123,0.0568169022288872,1
0.000254242609394028,0.0486999181336642,1
0.000163016868415195,0.0380335516486976,1
0.000138162428137838,0.0558321159864946,1
0.000123381970737174,0.0691164285242818,1
0.000229517450961278,0.085324927767726,1
0.000297344302655258,0.0932339017132342,1
0.000320039088750646,0.0692407082146038,1
0.000338518195654405,0.0662020937484158,1
0.000339996639744804,0.066950739796805,1
0.00030629133643493,0.067944760874049,1
0.00027686702823983,0.0596250912925205,1
0.000274499970003491,0.0448537600752515,1
0.00028273943705802,0.0461645498766238,1
0.000295586786434196,0.0495089127466241,1
0.000244666050735842,0.0513730391157156,1
0.000170322215326364,0.0439019190647108,1
0.000149282661825964,0.0618387773903252,1
0.000131116175114563,0.0648510448075336,1
0.000134404234005932,0.0687668757698303,1
0.000135997170483525,0.0670200700291655,1
0.000103613080044609,0.065343080391195,1
8.12856434178413e-05,0.0921126267486461,1
9.23606077425076e-05,0.0770094905143727,1
0.000100753232249014,0.0540532852787706,1
0.000112694860197162,0.0548810045454812,1
0.000129166023504437,0.0551392048186109,1
0.000172228531898254,0.0551146725887475,1
0.000175775830057237,0.0552585996002235,1
0.000180702955186773,0.0539153529694745,1
0.000176807277054805,0.0569003185283745,1
0.000186959907389443,0.0590802631256837,1
0.00021428583342628,0.0451847248695349,1
0.00017649344828008,0.0423012890820146,1
0.000151285598815536,0.041283989346824,1
0.000170942917091551,0.0442400585978678,1
0.000182013558803559,0.0492172525872311,1
0.000186826079664573,0.0577107257402459,1
0.000286481236449981,0.0577672560377419,1
0.000913505286759131,0.0800156586494959,1
0.00140468917338148,0.0720839257113726,1
0.00143709195443779,0.0650471260083317,1
0.00130826782244939,0.0749074558322657,1
0.0010013652108287,0.0455911002146753,1
0.000997038971763042,0.0452661480391699,1
0.000955620200570321,0.0447308877668553,1
0.000923655057024192,0.0399239476431191,1
0.000998905096370552,0.0325932103925885,1
0.00108298379459629,0.0337027207234409,1
0.000958712781329802,0.0381312493340722,1
0.000777387857874611,0.0350070140308801,1
0.00149741732877767,0.038072456855978,1
0.00198012065745037,0.036774766342832,1
0.00183429931760342,0.0379227462448196,1
0.00141611587411896,0.0247681446860701,1
0.00182261696506154,0.0203019508652796,1
0.00150044738932707,0.00981171586188285,1
0.00152879165508438,0.00924571670387936,1
0.00189307417911604,0.00958172923751594,1
0.00291572877709045,0.0110516594750742,1
0.00256551247755437,0.00939470101021379,1
0.00271746171284217,0.0102184646613437,1
0.00480057865204218,0.0146003671223917,1
0.00759964566546704,0.0183731483659021,1
0.0076979651124987,0.0146061709739175,1
0.0183592815179911,0.0203724358381988,1
0.0200925914888592,0.0130476820151104,1
0.025376362995928,0.00915228958827909,1
0.0285807976869989,0.00612494806120176,1
0.0267109404596468,0.00594109533966584,1
0.0214467946029927,0.00479831345638007,1
0.0255110658512639,0.00344826421028762,1
0.0353499816687456,0.00457353045614386,1
0.0358662558698672,0.00420299595920016,1
0.0423707706283748,0.00523038908726925,1
0.0449915578416189,0.00581423667137774,1
0.0464474860530764,0.00473532003156013,1
0.0666230439810167,0.0069516659997692,1
0.0620700829391716,0.00799795444287155,1
0.0482043492132571,0.00614677439152174,1
0.0283076846515656,0.00237595363753149,1
0.0330239847653635,0.003962683488834,1
0.0359097012686731,0.0042834077114411,1
0.038137770576833,0.00450910364859114,1
0.0382446236013525,0.00441572431568161,1
0.040609559229101,0.00343002510606795,1
0.046321501357142,0.00490046576540445,1
0.0344962863043625,0.00323505682569669,1
0.0348319908007938,0.00303289005545385,1
0.0325222473929555,0.00268809106343371,1
0.0279854674241214,0.00223513026079123,1
0.0236493364530381,0.00198026685065725,1
0.027166398223109,0.00280110225122046,1
0.0266943031332607,0.00351142685016329,1
0.0281243341585843,0.00385744249205397,1
0.0270120391603896,0.00622622886722242,1
0.01061747656791,0.00289214587378839,1
0.0199709644084322,0.00805028595472688,1
0.0200836842513338,0.0050440288297188,1
0.0197145379086873,0.00379045660413303,1
0.0222326115340992,0.00475078086997503,1
0.0170886175009144,0.00317529152847331,1
0.0169811885091741,0.00352514128192498,1
0.0218492369076788,0.00421961691774246,1
0.0237327056462525,0.00396914562306645,1
0.0233595220285975,0.00426065891977679,1
0.0226637940647731,0.00437501439260865,1
0.0189003728265052,0.00377053851158846,1
0.0213430040443436,0.00695972056438636,1
0.0227617066779634,0.00911623818800153,1
0.0200363869011832,0.00752138525191895,1
0.0278022258157646,0.00807752636218789,1
0.0310569747526676,0.0050638022908625,1
0.0319413523916681,0.00616454660721373,1
0.0294802751006305,0.00387531551232112,1
0.0317109403864544,0.00455160672314474,1
0.0328719887559249,0.00446770028531513,1
0.0351677529619836,0.0028380836593529,1
0.0383944833120838,0.00290121542328196,1
0.0358824035954769,0.00279357412169841,1
0.0355993670514472,0.00304062007925937,1
0.0267635370837415,0.00188138758927745,1
0.0294160311268429,0.00427071171220319,1
0.0267748335204549,0.00262523007449395,1
0.0276905231833741,0.00386689872857047,1
0.0241427237168343,0.00303605176086875,1
0.02310796628609,0.00366424634617276,1
0.0214927802645417,0.00703464910951888,1
0.0163100453793498,0.00758151070813131,1
0.0163804797321546,0.00849601508040021,1
0.0181887255380164,0.00902209282771709,1
0.0178214710436068,0.00998980753424391,1
0.0120802053721831,0.00772411328436795,1
0.0121135541456748,0.023125279682882,1
0.0120342129682164,0.0291005106180456,1
0.0126208845265521,0.0264485242796413,1
0.0091294775362068,0.0217943570402622,1
0.00558557882981855,0.00881157116308943,1
0.00556091238565054,0.00426078239367495,1
0.00925338779258716,0.0062510311690541,1
0.010104033009267,0.00469287393172465,1
0.010303124447317,0.00471899193476811,1
0.0112785372191375,0.00443214664358221,1
0.0116134350011951,0.00317316611142789,1
0.0133610701470472,0.00387415878032107,1
0.0148470183268495,0.00494430206053173,1
0.0148005218442006,0.00449776870163423,1
0.0140272116085796,0.00578437310785554,1
0.0141556240633212,0.00920287424302809,1
0.00945367009697569,0.00541672722122508,1
0.00767501418070392,0.00646870533011825,1
0.00819422619671521,0.00720396294123569,1
0.00590953996175059,0.00643093905571178,1
0.00535088510440672,0.0103722463674417,1
0.00420659082070905,0.00907531267907949,1
0.0085287424032138,0.0081281487904276,1
0.0108334052291303,0.00434189324955938,1
0.0137028579982696,0.00519085772326,1
0.0120164572839982,0.00366141985240437,1
0.0326494216489562,0.000869221472369999,1
0.095578985613531,0.0065709397094742,1
0.0993028306400028,0.00707089866075517,1
0.100363352651435,0.00739395040546476,1
0.105394886428016,0.0076264014312875,1
0.11137306870106,0.00774117770617825,1
0.111143704398804,0.00807684364409171,1
0.104361824579587,0.00840976217507758,1
0.0659452671965391,0.00563688912624482,1
0.0406374619028878,0.00219364151526318,1
0.0355118158535057,0.00688239072214691,1
0.019553235916506,0.00541089050064991,1
0.0206494016574309,0.00344839158882321,1
0.035035314378122,0.00615183775462001,1
0.0578670296898767,0.00931427020666305,1
0.0637575252925326,0.0109172337599208,1
0.0654877658636933,0.00964516837330209,1
0.0632413140914896,0.0101294217469798,1
0.0644175835779869,0.0088055778388916,1
0.0806737428499486,0.0130412958019491,1
0.0587573668399494,0.00800728055719847,1
0.0522364300457536,0.00694664510292505,1
0.0576092463607148,0.0103925429950924,1
0.0710102260150238,0.0138424257619916,1
0.0648001205753085,0.0144829839461012,1
0.0681856937262354,0.0155748162234701,1
0.0870767698944319,0.0196498940631092,1
0.0913276087958073,0.0125240116238398,1
0.0887134797243757,0.011763433879609,1
0.0459473423684671,0.00670884775731622,1
0.0264582109805251,0.00368065893417732,1
0.0278897638136896,0.00419286742045532,1
0.038055482686124,0.00587882427386238,1
0.0498052865379697,0.00764281179928649,1
0.0721909029877179,0.0101314673838833,1
0.0924970590582777,0.0117207342386509,1
0.111894433067118,0.0130110790972414,1
0.0904338934172587,0.0190871587379027,1
0.073370679365228,0.0232696032725682,1
0.0598843065813489,0.0264284773214263,1
0.0262709275129956,0.0146061601038308,1
0.0179903575053252,0.00949335991258542,1
0.019696564570732,0.0112054611157541,1
0.0180377762551323,0.00830651153753185,1
0.0203844683959083,0.00923865949504362,1
0.0199342715749891,0.00754202483844469,1
0.0168161290014095,0.0068718812302931,1
0.0191135522057445,0.0070983763864954,1
0.0188933963849552,0.00366898508463951,1
0.0214967772687078,0.00454006629278856,1
0.0252681648362304,0.00664152934756684,1
0.0263029896883461,0.0073695292369135,1
0.0238613847668387,0.00679586028474096,1
0.0252983242204259,0.00810740610926898,1
0.0254928776622151,0.0107605551831841,1
0.0234169565353011,0.0106729932700571,1
0.0215836639158194,0.00976093141780867,1
0.0105966895861772,0.00713792653483457,1
0.00211586825270475,0.0115145373930585,1
0.00270265270425074,0.0146079187407084,1
0.00301294449254583,0.0190747476687608,1
0.0157099633179644,0.0134298700613151,1
0.0354433638789189,0.0230574080656342,1
0.0466250135024827,0.0277075525236934,1
0.0659289844106948,0.0239134752197412,1
0.0688332419191703,0.00889065781239215,1
0.0646040083599556,0.00856225093840455,1
0.0614796065384609,0.0051859871785338,1
0.0616411715487925,0.00498448786426509,1
0.0544105847070508,0.0042079170472221,1
0.0511315871075246,0.00376868735237707,1
0.0501026658979295,0.00419817323052247,1
0.0574286360898022,0.00499031901919943,1
0.0667294181810109,0.0059484812345638,1
0.0661056144317527,0.00464929258060666,1
0.061535828045465,0.00825573221709323,1
0.033416542265462,0.00412693881926678,1
0.0261139474369372,0.0061965320987559,1
0.0411792855642966,0.009125334920818,1
0.0538481418339206,0.0117965042642197,1
0.0505471355988258,0.0115259283782947,1
0.0488441954115908,0.0118445258752219,1
0.0434541348513339,0.00877912310647222,1
0.0554081142657301,0.00966601369579064,1
0.0603040878659375,0.0111770183797933,1
0.0593725007711206,0.0106274884208783,1
0.0604560148167091,0.0099863089425482,1
0.0644621366303212,0.0106521188701473,1
0.0585281887663096,0.0108072144786659,1
0.0479637418500977,0.00952916626192845,1
0.0494495868330715,0.00783839470748385,1
0.0496424754336729,0.00676309212066011,1
0.0606824020305932,0.00570405218080328,1
0.0779320395957792,0.00673219430432466,1
0.0774656895126098,0.00796521333770908,1
0.14788839992666,0.00670645574293863,1
0.271079065779402,0.0104013126334324,1
0.259685256797839,0.0102751907721985,1
0.236449840358705,0.0100393091675619,1
0.194392833406459,0.00675773699700622,1
0.180993732336179,0.00376462481467244,1
0.223656647104939,0.00430797117890408,1
0.192437386708697,0.00372709788704323,1
0.187708046509969,0.00297643286819061,1
0.17014132637177,0.00237523577906614,1
0.177904799756005,0.00327636317394722,1
0.162572423730832,0.00339543957471401,1
0.210360022538037,0.00349278715549855,1
0.250397851719045,0.00285095829783343,1
0.276380602983078,0.00350787670180229,1
0.276529803079619,0.00529765420427736,1
0.221179604342315,0.0048337256683755,1
0.220056972527417,0.00491719657879642,1
0.230458340878107,0.00607161949282705,1
0.216951864907243,0.00596257020329585,1
0.217059481000208,0.00697353342868966,1
0.235417455288513,0.00641761526243359,1
0.142325543732641,0.00833530350580081,1
0.0314108946403268,0.0012057899522683,1
0.041647351088882,0.00164894211978394,1
0.0540176429848554,0.00283620662779464,1
0.0779596828131364,0.00478779758166219,1
0.114442114227192,0.0073559868505237,1
0.14498494352463,0.00935775172182665,1
0.161830403189233,0.0109902192928464,1
0.174362842649401,0.0120112077557142,1
0.186832706326478,0.0133944961387809,1
0.184682145572366,0.0133110343940695,1
0.147456861568479,0.0254879004857764,1
0.0414446727513035,0.022870225750135,1
0.019047258466196,0.00884561448165544,1
0.0117080848778029,0.00496003331432911,1
0.0114260349175134,0.00403227399266205,1
0.00977506900244088,0.00327242462788571,1
0.00885894542561353,0.00336905754861669,1
0.00929296791197895,0.00317426523788217,1
0.00933969531686342,0.0029918259547821,1
0.00929651240501892,0.00281454431557253,1
0.0091470670657621,0.00335971959073288,1
0.00872196047287343,0.0041393713096146,1
0.00796891215298304,0.00689365423803516,1
0.00428750073081942,0.00214975032468817,1
0.0166953689575438,0.0107504664931492,1
0.0168572189378682,0.00715099596013271,1
0.0197647058794193,0.00527481923004116,1
0.0348510205559099,0.0103089000791859,1
0.040966701470454,0.00979192846890785,1
0.0397140873808673,0.0077679827895937,1
0.0653774307910963,0.0104260920767798,1
0.0678717376087771,0.0101688884542991,1
0.0938016528792745,0.0102072131468526,1
0.110164586345954,0.00817158269828118,1
0.108039062135152,0.0082140951012121,1
0.0874092865735161,0.00682022311987801,1
0.075868667914404,0.00387660890410089,1
0.0990675365770426,0.00484652371184227,1
0.0974839715370595,0.00524753650258784,1
0.093058802170303,0.00381028499907031,1
0.0995535471411983,0.00312500099420466,1
0.109788079739661,0.00356080445726468,1
0.0958560006269391,0.00400916135511985,1
0.0805689872331637,0.0038814372445587,1
0.084179243724395,0.00298654989000849,1
0.0701035117210682,0.00231134251129293,1
0.0715595759935867,0.00331540838161704,1
0.0838871110188416,0.0043839037488572,1
0.0996558909447404,0.00485429066766028,1
0.126815873982446,0.00759582404910045,1
0.118484933552966,0.00913529839210633,1
0.114247890048025,0.00602942896484749,1
0.233018822892779,0.00913162866964501,1
0.235136421938239,0.00482884546210838,1
0.193681484051675,0.00360960316931076,1
0.257251800394098,0.00522723790661283,1
0.233867750200383,0.00234201545757211,1
0.254107908694636,0.00262636889827658,1
0.247889874143699,0.00259884474653144,1
0.25293481023355,0.00283994181671738,1
0.226054263617557,0.00258577729192127,1
0.215161648595183,0.00304894446093768,1
0.168138696194463,0.00200549401579908,1
0.166651385671375,0.00426394184317451,1
0.169252951408471,0.00519242826836425,1
0.105286219735225,0.00281391204009317,1
0.140019638639167,0.0102021152387457,1
0.271404253237618,0.0119662191247704,1
0.262947337559079,0.00800232263021223,1
0.245694053185214,0.00736548295105022,1
0.231944171467499,0.0051726568340282,1
0.196944203900677,0.00295160346348825,1
0.197360219811587,0.00160400974200482,1
0.316063388997465,0.00374419253923696,1
0.413567395802118,0.00529474814209935,1
0.536383418332412,0.00723965691264561,1
0.581962147586291,0.00930710588214084,1
0.399149535435922,0.00723374684455414,1
0.409129785746724,0.0084685406135416,1
0.341233786065406,0.0073745824655521,1
0.318953664190791,0.00781604106369736,1
0.162197562210586,0.00810726064100221,1
0.0287083333421308,0.00687533643823762,1
0.0303322011809559,0.0118948868671313,1
0.0252549207413093,0.0136925122547929,1
0.030893825671051,0.0154792931022395,1
0.0281622922535084,0.0159154238365512,1
0.0143639161042794,0.0130824904779892,1
0.0147111816930351,0.0104944816502827,1
0.0136048721808625,0.0098053190097299,1
0.0110112065831691,0.0063464966849033,1
0.0101046147723697,0.00653790823860206,1
0.0106116703779864,0.00590171533233051,1
0.0102821707975542,0.00510230814637334,1
0.0118205127442673,0.00559747172676172,1
0.0107361999742491,0.0053149774078893,1
0.0123349464559619,0.00713677865310462,1
0.0116282832373933,0.00793422572693782,1
0.00827760035445721,0.00717502606951407,1
0.00667345016979198,0.00686722445873044,1
0.00557219289231108,0.00848552517715376,1
0.00441500558970826,0.00694702957741871,1
0.008147408719111,0.0112076906336006,1
0.00766593379312736,0.00912451992090482,1
0.0153181905777567,0.0126033545923614,1
0.0198004944376408,0.0143259865121542,1
0.0381413664270328,0.0124829623105355,1
0.0522071094498993,0.0128428521731913,1
0.0570735650523556,0.0137368692147088,1
0.0673431087006437,0.0089963902915203,1
0.146283748391533,0.0136993821814622,1
0.140904959896507,0.00779234190998196,1
0.12918427114455,0.00706037899330867,1
0.10792645502556,0.00591375846953193,1
0.108241657161241,0.00469041683663723,1
0.10782313716057,0.00323452853611063,1
0.105040196679659,0.00335067335887966,1
0.103139903774532,0.00293070769889284,1
0.0998963856674951,0.00174508928934352,1
0.11702823759913,0.00336734720596365,1
0.0831846775357528,0.00146267899106841,1
0.0789367936504436,0.00173790197795612,1
0.0855972734951283,0.00211800246868067,1
0.0825620703292429,0.00180291794741851,1
0.0767238841240854,0.00292917249598236,1
0.0545977667138925,0.00167760695651705,1
0.0583622347901013,0.0024466711898807,1
0.0532022336192712,0.00217368172745026,1
0.0518447563157356,0.00242946658869941,1
0.0604964840131187,0.00384369109553502,1
0.103213433585328,0.0084869437428039,1
0.219585376133736,0.0141541562554008,1
0.433807214674329,0.0220337413430027,1
0.460205664760922,0.0142083329425435,1
0.441798280454151,0.0149798403062066,1
0.477388896769258,0.0186646556421456,1
0.463548435681503,0.00910733376349882,1
0.369683158678059,0.00680570173066532,1
0.255124389179125,0.0043074027977157,1
0.198305458780712,0.0028199641099867,1
0.205496337093495,0.00284612085771147,1
0.291208145696498,0.00624815406850471,1
0.256230442215564,0.00321925447112565,1
0.256068434472832,0.00364004051955506,1
0.258410638045791,0.00406928478053317,1
0.221471347238141,0.00301085333444691,1
0.187169204301623,0.00382728884134317,1
0.187058930684053,0.00504242131208969,1
0.146841580636464,0.00284505658086119,1
0.149717279999212,0.00185603869311765,1
0.156882543834961,0.00234160686054984,1
0.146309471955008,0.00152804291733504,1
0.14370464526714,0.00413853353953027,1
0.109772280543695,0.00308783728408538,1
0.132179134677719,0.00365675775392057,1
0.162907303060721,0.0050302466026274,1
0.177368129379084,0.00758335002192616,1
0.138675160136022,0.00650521771416551,1
0.144147689460811,0.0105818474973051,1
0.17084519494576,0.0205881478085795,1
0.132225527638621,0.0186978823051352,1
0.12685652193799,0.0241801922936494,1
0.122293845153979,0.0273121973912442,1
0.0991334808376069,0.0226958754514806,1
0.0797166233214334,0.0194372659518691,1
0.0636479047594418,0.0156179402837722,1
0.0515626181337188,0.00827522135318042,1
0.0596509487808726,0.00997818976786157,1
0.0572897676022018,0.00962263314080347,1
0.0655400059573098,0.0229762018537685,1
0.0611483939057246,0.0222735615503696,1
0.0562379258563944,0.0201670698798378,1
0.0456928833980768,0.0163991730638318,1
0.0392853103149134,0.0145699596714845,1
0.0356494197283058,0.0137037734821787,1
0.0336874505126636,0.0125593525876683,1
0.0323233727361993,0.0216223813820896,1
0.0264816978837812,0.0139987200697995,1
0.0220003449866358,0.0104715380067227,1
0.0146202353880488,0.00613926878297339,1
0.0111246499657531,0.00378542324067948,1
0.0102754462279359,0.00165891871592897,1
0.02938257942748,0.00633989373568721,1
0.0295025597819233,0.00474249745922312,1
0.0338184638472207,0.00348475220603352,1
0.0512001305185292,0.00577463783444727,1
0.0484654349425825,0.00545533702127426,1
0.0484128753536825,0.00593380826171137,1
0.047624058410744,0.0063432850406059,1
0.0864891641492861,0.00906022067998445,1
0.0877230761470371,0.00358151527574973,1
0.0784883037875965,0.00280931693221418,1
0.0792458687558663,0.00298642733103778,1
0.0816764813157924,0.00305901785920221,1
0.0807693514530011,0.00387352288158194,1
0.0815408585400008,0.00374579726731365,1
0.0953791818170007,0.00339029095653034,1
0.10610364899442,0.00350277146977799,1
0.107150915581874,0.00364702501780776,1
0.0724470382595414,0.00199999047868339,1
0.0636405687938455,0.00481751473632576,1
0.0606318804468784,0.00564326798090485,1
0.0594412864926588,0.0055049485810947,1
0.060635320272956,0.00704261540477795,1
0.100541949639305,0.00485494107398036,1
0.35779504403964,0.0118508878429902,1
0.557927407065189,0.0163441714154494,1
0.664497230479358,0.0143888010288764,1
0.623035296932408,0.012625650226286,1
0.572407514695583,0.0108429699439846,1
0.517160364638939,0.0102810837244358,1
0.471530281873079,0.00961053014818914,1
0.340096824237729,0.00553937321157582,1
0.251871262931872,0.00384871583267259,1
0.255111971473849,0.00564144578505288,1
0.240677719352861,0.0056576363444143,1
0.199066468200973,0.00469783704495128,1
0.192874769637543,0.00606069907744478,1
0.165390674947915,0.00573007407771785,1
0.157404281750001,0.00668425935382533,1
0.141239348749877,0.00585335190884196,1
0.0899528089584293,0.00285630773344233,1
0.123476905551432,0.00462680871833391,1
0.18259171282073,0.00451114739446927,1
0.142280121789453,0.00368213849351895,1
0.157716945266505,0.00495904136687803,1
0.172831788943472,0.00361852429484493,1
0.191305846859903,0.0040850923616521,1
0.217250233525534,0.00365908924165142,1
0.259547749352038,0.00417060178372049,1
0.307232448320353,0.00507662445111396,1
0.334187902614044,0.00582649828951202,1
0.4025558224675,0.00876436923665831,1
0.399155743416446,0.00951819911654504,1
0.472453359668821,0.0102581040404562,1
0.587879228171979,0.0123785772538649,1
0.639656128723444,0.0190750561943852,1
0.497705212972967,0.020803908501895,1
0.235806509330277,0.0199128830737275,1
0.19295737914532,0.020939302779193,1
0.146802114534376,0.0203642912471839,1
0.0694217534349192,0.00366282062143879,1
0.0928841929384022,0.00645738629301239,1
0.0886832706198211,0.00598262701641741,1
0.0904646512059969,0.00651287122273868,1
0.0882680913385039,0.00623118187786625,1
0.0857177816256431,0.00581638721993465,1
0.0847742579484289,0.00591548839948327,1
0.0656978036558413,0.00421707089596818,1
0.0519532995289993,0.0033780243281083,1
0.0518245733532389,0.0026009922625252,1
0.0558992683151865,0.00800692826696821,1
0.0365839230655432,0.0101597615642897,1
0.0382386693668546,0.0084327691765938,1
0.0389469858711511,0.00750092481819874,1
0.0405782230909608,0.00753052696274379,1
0.0402631208422033,0.00772308624755805,1
0.0339442796520201,0.00676520168503745,1
0.0331599266593754,0.00560051364829212,1
0.0284266789862957,0.00320751173012419,1
0.0280965183755001,0.00375242757787121,1
0.0251643578894421,0.00305159694473459,1
0.0205112713596962,0.00143144082022117,1
0.0234218180469823,0.00261278623425454,1
0.0283887103489492,0.00375148774607787,1
0.0456798345052146,0.00592596033560116,1
0.175692679619411,0.0132967599028364,1
0.183175663696296,0.0063778677334634,1
0.185332173135064,0.00608793263728024,1
0.184122838754967,0.00668370253938713,1
0.162014051753049,0.00513020533174513,1
0.143820587916376,0.0042439230468838,1
0.155355747142929,0.00500512741895397,1
0.15403997488289,0.00409622294822242,1
0.150564351159779,0.00377592930280897,1
0.162210985979164,0.00471242375570489,1
0.0800527167957431,0.00117287169245182,1
0.0703239925838476,0.00378338645243376,1
0.0684955761470226,0.00410920058812174,1
0.0733688842250326,0.00369399094196815,1
0.0818044624104245,0.00461166829055141,1
0.120769693650894,0.00761376374120731,1
0.131298083979342,0.00861594585004569,1
0.179899649895875,0.0133422133522291,1
0.27964004847238,0.0218126075243736,1
0.265385632083549,0.0176518700222894,1
0.244046478626192,0.0176766986440871,1
0.253497788797448,0.0133063380306558,1
0.319383942622481,0.015100375354043,1
0.454152985386766,0.0180430324352795,1
0.486751244893121,0.00977135632315851,1
0.453623210977367,0.00765181884506731,1
0.411192632831404,0.00505642236863034,1
0.405824338282321,0.00489452027266592,1
0.423396237650584,0.003630817879633,1
0.504595853516941,0.00474425796875758,1
0.502881752911149,0.00381189305386995,1
0.489836123746121,0.00399854800224134,1
0.465626940522039,0.00300704729133693,1
0.386736649533625,0.00205508364736966,1
0.274539516798913,0.00148279538588368,1
0.252864606239119,0.00143000393264305,1
0.272773485970519,0.00241948791440973,1
0.232865838838872,0.00147251770251998,1
0.236704500530006,0.0028873418048174,1
0.225472725935104,0.00231653849293949,1
0.240543433876429,0.0035021535729362,1
0.248674166325706,0.00168937540469049,1
0.350945861607007,0.00373007593478847,1
0.372474742417288,0.00373644813344713,1
0.420997248841203,0.00404408256322671,1
0.375078395092964,0.0032664147999393,1
0.419656148656798,0.00357647483400673,1
0.503148415784568,0.00481567253873214,1
0.59886856617784,0.0056567425684442,1
0.650739349239278,0.00625108922956678,1
0.822234413133841,0.00810345633548858,1
0.900232437758552,0.0135006016290947,1
0.661845652401758,0.0115211780015257,1
0.385974472196394,0.00851774369561922,1
0.398937095829884,0.0110780210305236,1
0.218467290697453,0.00824749713637389,1
0.138053874976542,0.0108355161715422,1
0.109732427343599,0.00861811593263345,1
0.0858797003303108,0.00894560173477916,1
0.0281907034548278,0.00744756433788769,1
0.0284789218502127,0.00977965010710769,1
0.0235854488579134,0.00813681625899018,1
0.0266740098762368,0.00811393430748083,1
0.0319224364076511,0.00821522256512512,1
0.024650477880089,0.00551863740514983,1
0.0226469180923795,0.00468286212624311,1
0.023111260632613,0.00534553989756369,1
0.0186745322839307,0.0050880115387387,1
0.0183225637922726,0.00659044133230119,1
0.0154320817498438,0.00572882997593586,1
0.0118524895115903,0.00462960337516713,1
0.0170552154464981,0.00613778966729958,1
0.0175957430455624,0.00689910614251636,1
0.0200240642785349,0.00794438898441036,1
0.0265726875873366,0.00629897258779809,1
0.0269197886821575,0.00310009770324859,1
0.0536536656100497,0.00440745081026664,1
0.0571651514498905,0.00373326337514333,1
0.10306930756509,0.00618092155962104,1
0.115768895128864,0.00686179371333912,1
0.132195936654476,0.00664222623627425,1
0.130385358855438,0.00586800471690403,1
0.137457966301061,0.0045892214541835,1
0.132846304143835,0.00268166963151515,1
0.137730873328482,0.00277851981812236,1
0.0927627288916772,0.00127461906123428,1
0.0969888799576037,0.00171253045229318,1
0.0936874613835451,0.00185099187181551,1
0.0911616414309685,0.00212090966933211,1
0.0875508405641399,0.00146184781600241,1
0.075710302134965,0.000452176225501757,1
0.0942930970053308,0.00139746923243501,1
0.0795326132817539,0.00189443664285432,1
0.0784500190487002,0.00129772359407169,1
0.159332277942197,0.00518806168105655,1
0.17381681787499,0.00569650735681843,1
0.176189732432339,0.00609812412066871,1
0.292050292144975,0.00739830647821939,1
0.352179884980804,0.00605927312055024,1
0.358324096640052,0.0060671352744243,1
0.446280507320044,0.00926359627130068,1
0.446754889063408,0.00945595384077225,1
0.34679930867117,0.00635678485200094,1
0.2735321467659,0.00514454135442928,1
0.280571137824991,0.00378492471134531,1
0.344050138978304,0.00420898683242282,1
0.322644268558427,0.00204745571795491,1
0.320047877597265,0.00293354875825402,1
0.308824788048851,0.00379720070258581,1
0.262236982879135,0.00305905214717677,1
0.261587088156868,0.00344436391480038,1
0.246731449885261,0.00297316040927014,1
0.247728665468466,0.00233489547393723,1
0.220631561335351,0.00234562204688167,1
0.185466367593065,0.00296650517658641,1
0.146415338015919,0.00347516118742422,1
0.0936850791812305,0.00131002240892696,1
0.427313101257192,0.00669280442642614,1
0.469225023001204,0.00258355797064134,1
0.485201401099042,0.00180441562592165,1
0.529403402289538,0.00183064439301987,1
0.51015928789584,0.00171721377364605,1
0.628730015690923,0.00291249162971608,1
0.643439766052797,0.00270275472674327,1
0.644920118784523,0.00255765265217108,1
0.730199795778604,0.00273569051865857,1
1,0.00488137396763568,1
0.643800208690516,0.00320439168095586,1
0.55911874835219,0.00519480699855716,1
0.453268582729417,0.00780992571100254,1
0.253565365239589,0.00487620639215748,1
0.226729476463519,0.00391806042256636,1
0.318299934799378,0.00640397180534889,1
0.299252085873204,0.0100675568063823,1
0.291413423087653,0.00979072207707916,1
0.322746327393462,0.0171213134093959,1
0.376060009996787,0.0257629014540593,1
0.34684677426724,0.0465636011655339,1
0.253377800225173,0.0174090625807837,1
0.163735422963464,0.0122064562868578,1
0.103409827635851,0.0079709201512624,1
0.0672138596176295,0.00577775793669212,1
0.064907187322042,0.00640984556739487,1
0.060051860410215,0.00590483221932005,1
0.0725410739545241,0.00837037738637758,1
0.0683176113985555,0.00572848414662965,1
0.0616200233771697,0.00507938984228617,1
0.0530091721385861,0.00399045203576374,1
0.0496833335242975,0.00667908444957478,1
0.0359021826276013,0.00495411180575265,1
0.0760896230563234,0.00594340326726296,1
0.137962760037847,0.00670947331388527,1
0.124783891376241,0.00424554538968118,1
0.11877088193776,0.00401120372649424,1
0.123043832800741,0.00484387498136903,1
0.127319775683464,0.00533455102994651,1
0.123721406528859,0.00472332948104768,1
0.128457937863795,0.00482262227492162,1
0.179746526158955,0.00474945309766433,1
0.196599013918638,0.00270578816733274,1
0.183277868274086,0.00318393229899451,1
0.156657261463875,0.00286706596830268,1
0.15393220119897,0.00255465382774377,1
0.138689755691376,0.00198374861736415,1
0.126249870517906,0.00131059775352044,1
0.117505893085361,0.00028283186940139,1
0.16564791271402,0.00129846572698593,1
0.149599495479689,0.000687941543612007,1
0.118976735570228,0.000488739879144824,1
0.104656820966604,0.00166529376446721,1
0.0951334256619333,0.00151127421471251,1
0.0886598881087745,0.00120235464931092,1
0.0994488699009139,0.000923825684720052,1
0.142337367381564,0.00181859070600075,1
0.135984154860177,0.00168286329548419,1
0.116815136567514,0.00239277093136322,1
0.09955897957884,0.00250160807043627,1
0.1050368125388,0.00276275969372981,1
0.121330165287404,0.00263179649069889,1
0.131109006401981,0.00155800084775037,1
0.164883946724225,0.00237059850851149,1
0.185137416767939,0.00232364997325166,1
0.177240629644789,0.00369122260699962,1
0.123577014027595,0.0025009795977604,1
0.148932354065918,0.00387304097539327,1
0.156398869111676,0.00349007275343949,1
0.186011597624404,0.00275164418609472,1
0.232004908109679,0.00395188795314967,1
0.264476654479836,0.00509780945155282,1
0.36553870861696,0.00990795125624104,1
0.287264858262835,0.00712650083655616,1
0.316951971088581,0.00296372476850835,1
0.570653052027509,0.00510475134208826,1
0.525248791021691,0.00279213458864458,1
0.569489529091417,0.00314798990682442,1
0.591396752547908,0.00335768299987183,1
0.572211880349639,0.0034954674879089,1
0.570805397467087,0.00362258313972705,1
0.572528170186183,0.00390259053389235,1
0.593295637082795,0.00318080727344085,1
0.687403135708839,0.00372788428101434,1
0.599244333854827,0.00448436673881018,1
0.320838323511049,0.00182388545528736,1
0.310117509998423,0.00423913242321391,1
0.36042196404404,0.00518061502591285,1
0.293977757637663,0.00338964651846793,1
0.292548640726188,0.00367945952453129,1
0.324677044473049,0.00349834322155356,1
0.323039498835461,0.00243929446540676,1
0.305993088356393,0.00366207906286297,1
0.194528999173852,0.001512121872421,1
0.175986885210062,0.00299390727670766,1
0.227809440831903,0.00305553496231933,1
0.256265395878519,0.00358066185842617,1
0.291335636408835,0.00419055721004715,1
0.298693601491321,0.00353611232414484,1
0.375447396450281,0.00513327262114671,1
0.375215846929291,0.00603595316849618,1
0.392534054297758,0.00810908285730725,1
0.446712832005775,0.008611605148481,1
0.562824636895513,0.0105231605653178,1
0.698611614157984,0.0130622743493744,1
0.636480634536333,0.0199419408622005,1
0.606856882320565,0.0227787576403156,1
0.350582160987167,0.0182856077471107,1
0.263074546035915,0.0243094697278156,1
0.268301290121937,0.0271457329910388,1
0.218381309200481,0.0229610827912224,1
0.140621921316172,0.0175865414251817,1
0.0614309764901115,0.0119708883561465,1
0.0367211079215032,0.00929367129065398,1
0.0249216132293894,0.00770147826320719,1
0.00814557520395016,0.0113792808599546,1
0.0077948362090419,0.0172654181042561,1
0.00818739744891403,0.00382216573386089,1
0.0479616083809319,0.0099449059537855,1
0.0480917707480898,0.00674040512494517,1
0.057472701239712,0.00780001690640377,1
0.0655776952259906,0.00844805727419513,1
0.0914478212587913,0.011069968568061,1
0.10757738823274,0.0109667879383119,1
0.116791296560186,0.00935471681459622,1
0.165718679494632,0.00954046757555772,1
0.129911630125431,0.00553277991446846,1
0.0947824731966265,0.00412844946929971,1
0.095097590971476,0.00453396344926687,1
0.0758270939166147,0.00305871280961415,1
0.0801716763701989,0.00288163551585403,1
0.0716626062237286,0.00223870094873627,1
0.0757880887081719,0.00261030826460476,1
0.0735416473160142,0.00250479894819656,1
0.0702317645756106,0.00321820396121938,1
0.0298288969222679,0.000226709002205659,1
0.0354996408019987,0,1
0.0740335719170929,0.00200848816508221,1
0.0789380401338483,0.00198922531892528,1
0.0774796741596107,0.00231535043041477,1
0.0691326421034357,0.00231708363025338,1
0.0874669273504443,0.0027166341870733,1
0.0904389620201227,0.001414795446368,1
0.102019270153549,0.00207836162180019,1
0.132318103713795,0.00312168588804424,1
0.158539042352322,0.00342866721574416,1
0.159601124369167,0.00419959301054954,1
0.117417260710657,0.00273140222482294,1
0.12531309398509,0.00316595393918436,1
0.132341037584017,0.00283506452122111,1
0.134020310919421,0.00249063731525137,1
0.0983360530088332,0.00128600689879188,1
0.089487604106888,0.00279482645700168,1
0.0895563394882643,0.0024288226877095,1
0.080092315958228,0.00285922710459441,1
0.0575507738560153,0.00270333304267562,1
0.0604552855608479,0.00530328347329572,1
0.0568589139565921,0.00698136534851376,1
0.069583953172611,0.00635907699490352,1
0.123255904936188,0.012758450982741,1
0.218930063153052,0.0184781606219756,1
0.269368839789009,0.00958278874914177,1
0.2545999445612,0.00988135199489092,1
0.228793532833538,0.00578706544266593,1
0.398448330352387,0.00826210376631554,1
0.405847967379319,0.00225839537976404,1
0.492653757599727,0.0032206654373172,1
0.467295089660384,0.00188899124928704,1
0.459641641924597,0.00222371983969394,1
0.459865851801934,0.00206954350580319,1
0.505973818226258,0.00262035202464327,1
0.484623891651983,0.00162162864658415,1
0.479351411395317,0.00126459638473418,1
0.490457560034832,0.00218034978620905,1
0.302359641479933,0.000429803176181589,1
0.300517349537663,0.00394138919204465,1
0.287901241742158,0.00321113434836577,1
0.282196853403747,0.00595285400533618,1
0.209297340870443,0.00338833678557066,1
0.336176225190152,0.00343039916468715,1
0.543260925282758,0.00487736274414956,1
0.540820332200303,0.00527197810251879,1
0.520693012352565,0.00443643230692183,1
0.538962540034221,0.00458054350740543,1
0.536032980848441,0.00501525806331666,1
0.470866468759008,0.00441775527893669,1
0.38907817927274,0.00244233438582637,1
0.364084271615121,0.00213632137668251,1
0.348081881136285,0.00203817853209684,1
0.301571670508348,0.0033866266153042,1
0.222860641382232,0.003270332566058,1
0.295511191785344,0.00646880959173525,1
0.362706650549138,0.00986150594384149,1
0.401396891272621,0.0108092623269211,1
0.4564225599022,0.0152903356905778,1
0.298840919540627,0.0127043481771803,1
0.283529271090677,0.0192374733566946,1
0.286442030339802,0.0191836493355837,1
0.207776580567962,0.0220693505321021,1
0.0774904237877206,0.0212037908381863,1
0.0479751950802413,0.0148915322088869,1
0.0349179703636044,0.0144275847277424,1
0.0175541744156017,0.0101156647993075,1
0.00680889105294719,0.00641014858953219,1
0.0116668193087816,0.016855985285349,1
0.0121618453559774,0.0157584403127241,1
0.0170949913113488,0.0107184619539253,1
0.0395700389582508,0.0184885828346115,1
0.0460173208705376,0.0130202072644813,1
0.0468335480704764,0.0144253816547711,1
0.0724778514952134,0.0134172846439488,1
0.11838229637513,0.0186761234008246,1
0.105670853923779,0.0124132616418072,1
0.0947704560890462,0.0115886077611793,1
0.0871837480187775,0.00855647435672358,1
0.0755466964164746,0.00750909221041587,1
0.0684853408807762,0.00818427359548424,1
0.0690161933060427,0.00778853924115046,1
0.0654540629225976,0.00866569724944417,1
0.0646153457074462,0.00821901404564475,1
0.0615329556075547,0.00994616166317998,1
0.0318504529633079,0.00562366904311926,1
0.0253953647152005,0.00502874591381267,1
0.0332080693886344,0.00424544706340981,1
0.0407741878425982,0.0032604853358791,1
0.0369952483767013,0.00191671413788489,1
0.039727637657854,0.00204124268364362,1
0.0616590516292057,0.00243688895960227,1
0.137678984050485,0.0055157763822925,1
0.134441745410035,0.00268367205355941,1
0.168077052526232,0.00422045690016627,1
0.197990522978862,0.00498794411465844,1
0.203187032310132,0.00508977335452843,1
0.205299091465176,0.00456572371695459,1
0.216803726376549,0.00580963358555346,1
0.211756124839805,0.00528558281465734,1
0.22206927483809,0.00551829267722033,1
0.212732579719197,0.00756817309130886,1
0.0889583497355973,0.00209777806738428,1
0.085685912087662,0.00522301019351255,1
0.114718620344915,0.00725348250697216,1
0.107951494093955,0.00402597212623887,1
0.12243695804952,0.00436622123703515,1
0.127265938782078,0.0065785551281039,1
0.0945257375788389,0.00465875969592325,1
0.0970308314911779,0.00607265214837589,1
0.0965890777263464,0.00625423771350468,1
0.0899920728046539,0.0057420617596778,1
0.0871558297408459,0.00609127064004563,1
0.0864578617867656,0.00631263400026069,1
0.0704531541169173,0.00540795124717602,1
0.180683685674922,0.0106556533609369,1
0.355680341524859,0.0190947192561372,1
0.372038955022448,0.0142299791381288,1
0.343323926839614,0.0141600935391305,1
0.309976779514933,0.0119620075057992,1
0.27559472362483,0.0095664171951882,1
0.237144675140555,0.00749363458241677,1
0.192000381463162,0.00610414655520598,1
0.167677045168646,0.00440448265379356,1
0.196410308893393,0.00274765258685563,1
0.200398165158454,0.00356147561809712,1
0.34757613306778,0.0019567221884251,1
0.592177276678841,0.0044523730747943,1
0.524398730115972,0.00342706459897887,1
0.506279028985106,0.00338470400859087,1
0.510128564731402,0.0016576798943864,1
0.643541081048124,0.00296089850526717,1
0.688013508349576,0.00311624579208139,1
0.79047336370148,0.00426871378199145,1
0.77436270674537,0.00383167066701391,1
0.727111998523446,0.00331511964015852,1
0.678643579218226,0.00632949144185374,1
0.435764338782931,0.0028121960862582,1
0.392376311255236,0.00245755651139289,1
0.260418614983406,0.000529828821600242,1
0.271443419621674,0.00385186655775856,1
0.232929540430135,0.00334241937024594,1
0.275886756759797,0.00473049747118509,1
0.251147125351218,0.00390160895214296,1
0.258980809437648,0.00414377067370016,1
0.274956136826584,0.00466087855791211,1
0.255683682432645,0.00709216490524264,1
0.253242001755267,0.0103878644184167,1
0.301586466834415,0.0101540653830331,1
0.505499038842793,0.0151318168477598,1
0.653978807198671,0.0191961063568333,1
0.719741172784637,0.0212818418704454,1
0.634309601999067,0.0200405699811123,1
0.403718322519807,0.0154661284157883,1
0.359907687615545,0.0221313991494935,1
0.320740821552497,0.0219322314587,1
0.22983990496542,0.017681126223276,1
0.147743171132767,0.0149377070521793,1
0.0254843869029326,0.00807533511854485,1
0.0139363770497724,0.0320363536867435,1
0.0108675738183323,0.0348128742233568,1
0.00570385989171083,0.0134669118333119,1
0.00302557397762355,0.00836830363301119,1
0.00352132314321402,0.0158831289063987,1
0.00441599391850017,0.0188102650685922,1
0.00776297783922646,0.0185204648503383,1
0.0138938177416769,0.028580331401245,1
0.0261498785651387,0.0287810860815239,1
0.0400387641197986,0.0354192081562713,1
0.0902426182199922,0.0201782110390149,1
0.142656823375362,0.0213194367792485,1
0.127819469829723,0.013499877531101,1
0.115243878792899,0.0126536205309558,1
0.0975061066061193,0.0113947769046062,1
0.0776927959513194,0.00849281596740068,1
0.0643853106348815,0.00704801911013445,1
0.062289616895158,0.00525816774415827,1
0.0626663893186145,0.00582213876508081,1
0.0609307788674809,0.00414981234822354,1
0.0614636870114861,0.008107067464181,1
0.0531758336709584,0.000153290172363253,1
0.146808135479189,0.00436482814685641,1
0.155537815252295,0.00231665483883769,1
0.168201594530431,0.00262127378316381,1
0.185699578506064,0.00311487632675973,1
0.195035449651816,0.0032548811911215,1
0.211567044240658,0.00291495373411031,1
0.222478419869298,0.00260299429525664,1
0.220698510727864,0.00272252620621499,1
0.213347532935291,0.00251123863852708,1
0.225267475394148,0.00549201839032492,1
0.111753734962547,0.00223542953463782,1
0.103680314342427,0.00524002354705184,1
0.101730763559454,0.0046628971760045,1
0.105979464208324,0.00502511505807036,1
0.101496565989282,0.00428585480597472,1
0.075248708486613,0.00589514785872422,1
0.06611121843347,0.00759781285507641,1
0.088251910494536,0.00840064242948776,1
0.158803973718132,0.0157213019659046,1
0.199761837867485,0.0145625658487152,1
0.406023778476747,0.0188247163131691,1
0.461100146139272,0.0184225776248968,1
0.491522124062697,0.013872945195989,1
0.377765823409887,0.00896226291270009,1
0.283383015092036,0.00632544351748439,1
0.279553377849961,0.00439367541357046,1
0.383287459800618,0.00630556288036792,1
0.401742820347331,0.00598275003561681,1
0.44251278783895,0.00545530915160767,1
0.556775771911764,0.00825169632473218,1
0.451156392055397,0.00731226197763781,1
0.353217992600551,0.00573184237168376,1
0.210011020878467,0.00354417571330142,1
0.216942315302744,0.00398467909274135,1
0.125050299002641,0.00138825979699695,1
0.103704841978336,0.00276642676163193,1
0.102051550309864,0.00245629176566856,1
0.080663571099128,0.00310361055478432,1
0.0538228015757099,0.00542122967359161,1
0.0591860657074558,0.00489210700455702,1
0.0620195433975136,0.00337623623216297,1
0.0638404022970135,0.00274024140268106,1
0.0686528986330795,0.00474970810004653,1
0.0524563704913565,0.00316358448008181,1
0.120854336578372,0.00157708218438763,1
0.22861254136941,0.00232157990396521,1
0.235253427499529,0.0023062755742545,1
0.248731447912252,0.00257993125796293,1
0.271869446801851,0.00307259463854811,1
0.291231895372525,0.0031235141284681,1
0.290432481519489,0.00327487760580545,1
0.311304972487016,0.00396272966689683,1
0.309654763592196,0.00359973488012709,1
0.306986662340331,0.00342501923159405,1
0.21639275750544,0.00572537507874001,1
0.069586125321363,0.00339153379331589,1
0.0735383087641555,0.00283765271538735,1
0.0715347100252422,0.00260524627495116,1
0.0625543676341755,0.00207041819688352,1
0.064019085873771,0.00214602616140159,1
0.0830440787570478,0.00444215114961695,1
0.0822764839620621,0.00460377373778053,1
0.0723009937312969,0.00334181256109811,1
0.0837612524611835,0.00437505126787446,1
0.0886438967686737,0.00556731241292255,1
0.0758536767905686,0.00621593352366638,1
0.0749071579241357,0.0110226364384229,1
0.0807790589088524,0.0114677053350653,1
0.0905953609678977,0.0121289000131248,1
0.0859481511161173,0.0219225141238123,1
0.0639897826820638,0.0151693259555549,1
0.0265924149228618,0.00741633480430771,1
0.0242513249856161,0.0195751132907867,1
0.0276758439285751,0.0213332624823102,1
0.0318934615194892,0.0240434725642792,1
0.0312452893470622,0.0236725311999247,1
0.0247711245998859,0.0241688982423159,1
0.0178870779888984,0.0276382006484085,1
0.0131992296870317,0.0295023256309041,1
0.00352656946379165,0.0282419497745873,1
0.00263671252042425,0.0753947112350339,1
0.0016808686700697,0.0714846951476767,1
0.00107687656848818,0.081088727511572,1
0.000182590641207346,0.081625920186464,1
9.87408388119903e-05,0.230280559041993,1
3.74612322574333e-05,0.155249640976655,1
3.49054272507468e-05,0.113823671410441,1
5.23734761262928e-05,0.135849645547981,1
5.25457448232577e-05,0.137864126006881,1
5.95173706906376e-05,0.153334683149716,1
6.17627617783484e-05,0.153163429491612,1
6.38123372750042e-05,0.153026128383524,1
6.50558462535512e-05,0.110748516435075,1
0.000105661257519717,0.119032545807556,1
0.000141730973188039,0.128680484460699,1
0.000191653014239955,0.138716603853837,1
0.000188163631664844,0.160457543395785,1
0.000174703918487688,0.135921610907413,1
0.000222908011189734,0.0682324596027769,1
0.000259249099969205,0.0543404473835568,1
0.000227084411619443,0.0512339929095793,1
0.000204059136827536,0.0479512468907386,1
0.00018140239236381,0.0433593415706035,1
0.000204243403724302,0.0451054456563509,1
0.000225053808423706,0.0490615020623174,1
0.000232783040517658,0.0533149826490537,1
0.00025862509605468,0.0622501598138228,1
0.000260831652605448,0.0636321540711261,1
0.000255771029619441,0.141145824269887,1
0.000201176499399524,0.194075029085578,1
0.000212844906214413,0.210689525668593,1
0.000150881321082981,0.258532339179148,1
3.37468117775487e-05,0.173798447232777,1
2.30454518798087e-05,0.312580337998812,1
1.90215895943736e-05,0.329026864618348,1
1.03841093365639e-05,0.172045040169022,1
3.96844363537423e-05,0.155648804573671,1
0.000114267895824822,0.159334246620157,1
0.000115274715563914,0.121740459357408,1
0.000119984634316608,0.124944470736344,1
0.000120664972624911,0.12705144578755,1
0.000122069394840699,0.129978914219559,1
0.000127949734691894,0.130129670029992,1
0.000129341643525719,0.124488125141645,1
0.000126263607173838,0.119942516314981,1
0.000126981597674373,0.130233155652047,1
0.000102158167996796,0.190653753864125,1
8.77155567275815e-06,0.104715403894204,0
1.09967810587199e-06,0.113866972696354,0
1.15495457753752e-06,0.121151592568611,0
7.64988579024948e-07,0.105228326890682,0
5.66555327935484e-07,0.0980873437989055,0
6.59548843399014e-07,0.103979503376321,0
7.29043814667771e-07,0.112049666267744,0
9.67011273540545e-07,0.12709540909654,0
6.78216853508959e-07,0.112150685125777,0
1.00399943854058e-06,0.131275291407933,0
1.38617070784771e-06,0.152156970868095,0
1.1614082159594e-06,0.140193589432079,0
1.16373759180545e-06,0.137865006751562,0
7.09806826949639e-07,0.108496134574578,0
5.05377528768783e-07,0.0969863706373499,0
5.49017352239945e-07,0.0974334026085379,0
5.74825965325966e-07,0.098715906180638,0
6.06226664602902e-07,0.103640532587052,0
6.54763853925515e-07,0.110065077569912,0
6.20704405453938e-07,0.114913446179935,0
2.81555632114423e-07,0.0844515806630892,0
2.45921264184451e-07,0.0818350350172413,0
1.96484733804812e-07,0.0759225118813979,0
3.56209190682938e-07,0.0941778467870326,0
5.60972482680201e-07,0.118451162770821,0
6.53462202135089e-07,0.129928466716854,0
1.0284898981654e-06,0.13707146717454,0
1.80070587895469e-06,0.172396534310796,0
1.92214761476078e-06,0.17367226643814,0
1.90330270674017e-06,0.174111606813208,0
1.8949444454779e-06,0.171834071784102,0
1.88884212762674e-06,0.169781805941254,0
1.92186197083974e-06,0.171797566701746,0
1.69407076229809e-06,0.16274952619152,0
1.18233959523231e-06,0.132378445841168,0
8.13700025990904e-07,0.11184704437787,0
7.19370700278453e-07,0.114941868727476,0
4.64764441750458e-07,0.0915075094462784,0
7.9200115401043e-07,0.116445305191101,0
8.20127921806377e-07,0.113918993678717,0
7.79750313629956e-07,0.109731690509018,0
7.14280759929103e-07,0.106725360948186,0
8.42463923295324e-07,0.115108368165081,0
8.86190710571451e-07,0.119081628268886,0
9.02897002060125e-07,0.115891440885047,0
1.01239878896308e-06,0.114379158798341,0
9.10783480555054e-07,0.10782249786269,0
9.122546045043e-07,0.105940985212132,0
8.03932357028068e-07,0.101444576186288,0
7.18183075033057e-07,0.100502888765945,0
7.85607581670163e-07,0.104196282597226,0
7.85423588041064e-07,0.102492621556586,0
6.58189765794305e-07,0.0980709273319177,0
5.4041387615001e-07,0.091122647711867,0
4.97650951463625e-07,0.0940750238997756,0
3.95106764007898e-07,0.0917301202117415,0
3.89500321363412e-07,0.0929843353306584,0
4.730812838191e-07,0.109828035682596,0
5.1816170314858e-07,0.114300543051195,0
5.20005434823836e-07,0.117074352504975,0
5.57106471251945e-07,0.122307362116419,0
5.71602033907414e-07,0.117065004815198,0
6.15220075173158e-07,0.119609852359931,0
6.10486075862341e-07,0.120520625900728,0
5.48621312141438e-07,0.11358072491059,0
5.68565726485529e-07,0.104926070564898,0
7.81133153640574e-07,0.119525297444921,0
8.01720638094615e-07,0.11570472849179,0
8.42558972918966e-07,0.118054189446746,0
8.4997152342935e-07,0.117614085837242,0
7.6441102054796e-07,0.115170198254251,0
6.80038637962091e-07,0.115988075524252,0
7.94205777225451e-07,0.122072612319136,0
9.70496261390696e-07,0.120807933548172,0
1.29812043288037e-06,0.134490488992477,0
1.10026540033473e-06,0.128809719074023,0
8.17525938359187e-07,0.109456435234729,0
7.61981149526914e-07,0.110139321116424,0
7.26295296384135e-07,0.107615668663625,0
7.31737712421157e-07,0.10600665182122,0
7.41288054379939e-07,0.104565053222642,0
8.20832873181719e-07,0.105798359050909,0
5.64235688075189e-07,0.0865733631186794,0
5.19337942241145e-07,0.0865643312637558,0
3.60610351294301e-07,0.0735674578922727,0
3.82480510617381e-07,0.076476095308334,0
4.77751256647324e-07,0.0869049269020329,0
7.13265577143265e-07,0.105217180570369,0
7.29080943427007e-07,0.10204414923158,0
7.38914454056221e-07,0.103209341270188,0
8.02976085206882e-07,0.104890137914771,0
9.25304125750097e-07,0.115464499374381,0
9.83883241803763e-07,0.125378111582512,0
8.75939047604897e-07,0.125165981260292,0
8.97420427564608e-07,0.127610517620548,0
6.77350020743353e-07,0.110515906540903,0
7.31211474140266e-07,0.117841588299952,0
6.53475403471707e-07,0.109145000848923,0
5.80843794622776e-07,0.109515493705869,0
5.0556515276545e-07,0.0994794393601532,0
5.20351309843199e-07,0.102619935171293,0
4.31782717396943e-07,0.0948456252176886,0
4.42182895400436e-07,0.0971956314687556,0
4.29052680984569e-07,0.098258988982817,0
3.18241486505929e-07,0.0909239722059816,0
2.52536453963174e-07,0.0885398315435455,0
2.47535622635989e-07,0.0857655402090888,0
3.26073014437193e-07,0.0957495386862146,0
3.70651287925108e-07,0.0999703006091154,0
5.66021993936161e-07,0.123093154913402,0
5.76493129123972e-07,0.121250809664206,0
6.64188288136313e-07,0.121130670675259,0
8.55467239862961e-07,0.123767757263854,0
8.55879121565409e-07,0.11755414640678,0
8.68704220088716e-07,0.119753205632473,0
8.14387815628646e-07,0.114124284730726,0
6.68288788306227e-07,0.105020511135486,0
7.47878986702628e-07,0.11091942837516,0
9.45745240384397e-07,0.12606672248426,0
7.84655930316792e-07,0.119143524442547,0
7.37888710201089e-07,0.118851299714502,0
5.73720353384302e-07,0.118965273267247,0
1.04706566393574e-07,0.0700499332955448,0
1.03617456122681e-07,0.0693704459823469,0
5.48809926238352e-07,0.119589607685955,0
9.85435058923078e-07,0.157659521240096,0
1.03283693329664e-06,0.148899960202984,0
1.08521274127403e-06,0.143164900408497,0
1.01540456829404e-06,0.135638115722853,0
9.24552969696595e-07,0.123890342483338,0
1.1569699265888e-06,0.136879577052306,0
1.25316988169986e-06,0.136987425605577,0
1.08345613842044e-06,0.124928529669804,0
9.03179510663728e-07,0.115111266761332,0
1.03711416636051e-06,0.127734517153799,0
9.21486299200492e-07,0.119035023010131,0
1.06320264778281e-06,0.134513760083777,0
1.35065779221461e-06,0.158716447879604,0
1.34251141240504e-06,0.150054614565119,0
1.4565074293425e-06,0.155575735736401,0
1.02578098389162e-06,0.128042103640909,0
5.48465371352652e-07,0.0952889928940491,0
4.53320863104107e-07,0.0869199816276606,0
5.37080043604122e-07,0.0859692543721882,0
1.10228206951967e-06,0.116455838165429,0
1.13437121850117e-06,0.116625902311379,0
1.12644183566224e-06,0.114418876656048,0
9.30704792560065e-07,0.108217826219251,0
8.94980655541099e-07,0.112656209870236,0
7.90110557590183e-07,0.112076042951163,0
7.07773326060517e-07,0.111294406808095,0
7.02476124726279e-07,0.110991630029586,0
8.92551609603591e-07,0.121721853035382,0
9.23466499693025e-07,0.131798884741215,0
6.85015541866658e-07,0.119036863633334,0
5.72463586138374e-07,0.11472737143793,0
5.87721691000176e-07,0.111889997439042,0
7.54049786487486e-07,0.123427982628739,0
8.38973984943941e-07,0.122825524952789,0
8.29239319322646e-07,0.113712960196613,0
1.34983270867606e-06,0.138297013811636,0
1.51065799201133e-06,0.139921560997394,0
1.47435976186623e-06,0.141460400530647,0
1.64217762819076e-06,0.152465846957954,0
2.07801975659739e-06,0.174952269146411,0
2.37032655725261e-06,0.190424993986848,0
2.1657164007601e-06,0.192186037636596,0
1.51523968090092e-06,0.166880427465313,0
6.18328989946436e-07,0.10932526076182,0
4.48768877221896e-07,0.0988190722324204,0
6.85172637772399e-07,0.121819152638486,0
8.95252768092115e-07,0.149496439745225,0
9.23456763707271e-07,0.16029040483375,0
9.94305036995967e-07,0.168173715025253,0
7.63882967083285e-07,0.147122593481874,0
4.62874505397043e-07,0.114397249091002,0
2.80524442707936e-07,0.0885719627218119,0
2.05954217576815e-07,0.0748047390789067,0
2.15758685265472e-07,0.0768814888254492,0
1.86402873030492e-07,0.0744578600719669,0
3.3570157431543e-07,0.0943646997847989,0
4.20101019641364e-07,0.0964032813302167,0
4.70808508703794e-07,0.0999270442080935,0
4.56321361900419e-07,0.0967771497072447,0
4.4374708877283e-07,0.0947146311455277,0
5.12696349789186e-07,0.0984208115208607,0
6.191585289361e-07,0.105624642402855,0
1.78979117885655e-06,0.17037996800001,0
2.0356461063245e-06,0.163750751401024,0
2.29089807522977e-06,0.168752311220565,0
2.62116185397599e-06,0.183482096269279,0
2.48912786071862e-06,0.180996096261898,0
2.4895148248982e-06,0.182152948570258,0
2.6248257199373e-06,0.182790695191316,0
2.6142390730541e-06,0.180002049453283,0
2.86055489218668e-06,0.184668553636686,0
3.44913450505025e-06,0.20862747788595,0
2.08817504980664e-06,0.163247283414493,0
1.43442835886746e-06,0.146612728022056,0
1.36153981900462e-06,0.147730941813051,0
1.1480634798235e-06,0.136504596756711,0
1.11240138908664e-06,0.142660023074097,0
1.11580815901733e-06,0.141662008016711,0
8.50354857241362e-07,0.131244690499267,0
7.01739490143058e-07,0.12514034196049,0
6.5647359203411e-07,0.130331254581189,0
2.5711979301985e-07,0.0878324888006074,0
2.37297986089589e-07,0.0898381990822626,0
7.52469751511152e-07,0.137304408254809,0
8.31622325598703e-07,0.131045025028167,0
7.93296205132547e-07,0.125756937543067,0
8.73126667855376e-07,0.122542316271702,0
1.2081904525955e-06,0.142905177799106,0
1.20668946062216e-06,0.141633296140812,0
1.19490726769159e-06,0.133654203746111,0
1.49807183768078e-06,0.151145523438198,0
1.58680330161755e-06,0.15249894606681,0
1.58370230764624e-06,0.152861547834696,0
1.10446606564622e-06,0.137204633603174,0
9.3074786192078e-07,0.137576851191789,0
2.49609701133539e-06,0.158083025724829,0
7.54389324865272e-06,0.23053536148915,0
6.82628723704653e-06,0.184378547585279,0
6.46582061530465e-06,0.179578911754951,0
6.19920510085627e-06,0.175585761312687,0
6.27109182428657e-06,0.176129343559833,0
6.41486098071282e-06,0.178615046698878,0
6.40638687772174e-06,0.178684090169878,0
6.39107992791446e-06,0.178465431793027,0
6.40985222858368e-06,0.178353760819661,0
5.57714491813178e-06,0.218609200683938,0
5.63255653848091e-07,0.0877723960023537,0
2.70128390122135e-07,0.0858134267079936,0
3.20792479790437e-07,0.0899585534996702,0
2.44851955918482e-07,0.0865633870357356,0
4.42887681759071e-07,0.109566193129582,0
5.15749983965382e-07,0.108195631074059,0
5.60264726020828e-07,0.108045594013594,0
5.65116217227535e-07,0.105556902537521,0
7.62407552699639e-07,0.114956460992296,0
9.22295046084984e-07,0.116668416827296,0
8.42796596978069e-07,0.110001341773028,0
6.37000135373827e-07,0.093466110552732,0
8.27476445834168e-07,0.106140331621105,0
8.75281621041374e-07,0.10659726078696,0
7.11351383333815e-07,0.0994144996231727,0
6.86444586555436e-07,0.100416502890229,0
6.84307125140453e-07,0.098889891920709,0
6.96720506978024e-07,0.0997149657918887,0
5.58324294554853e-07,0.0932739988460054,0
4.15653324318426e-07,0.0827724482455228,0
1.93912189338278e-06,0.134265309845103,0
5.11482173355519e-06,0.193561386347102,0
6.36135711852153e-06,0.169258433590043,0
1.27861019399594e-05,0.228357768169261,0
1.64525525579625e-05,0.259154626507297,0
1.73630553450978e-05,0.235903680397626,0
1.54574221073946e-05,0.20931017325591,0
1.36118810239381e-05,0.195651229354499,0
1.26385015906303e-05,0.186686080848322,0
1.29716333597565e-05,0.189856188222203,0
1.54451783627326e-05,0.233551173779824,0
1.73958963101996e-05,0.260423620809893,0
1.87360862675606e-05,0.362517813919671,0
1.45191311667476e-05,0.339553275340917,0
9.4626892090632e-06,0.288446206216002,0
3.3585480883021e-06,0.196426385420254,0
2.64213217719192e-06,0.201184726885335,0
8.33553021078925e-07,0.123001750583821,0
2.24704736040615e-07,0.0760575612753574,0
1.95955525223182e-07,0.072328410638787,0
2.01119723091002e-07,0.0752894827589228,0
1.89415418046467e-07,0.0736565428492996,0
2.3838660131036e-07,0.0817075210069123,0
2.64354125485906e-07,0.079852204379766,0
2.7397212429485e-07,0.0805995441710015,0
2.01507842387538e-07,0.0741641411234599,0
2.84438639014844e-07,0.086619684887873,0
3.02934536698646e-07,0.0878922891168309,0
4.27558289679537e-07,0.0950130762941591,0
5.86469379205356e-07,0.10286048013737,0
5.90730770665287e-07,0.103202561520815,0
5.88500569860573e-07,0.103890363008979,0
5.9264908989243e-07,0.100134431547882,0
8.85417772312532e-07,0.124536692325131,0
1.09389575541708e-06,0.144269072409289,0
1.20316981926339e-06,0.149468525109026,0
1.12434859872492e-06,0.14275628900793,0
1.13710125491355e-06,0.137975364984211,0
8.49147099957626e-07,0.127426275507321,0
4.49390165126428e-07,0.0960967943748577,0
5.6833998362938e-07,0.107807691031434,0
6.41480834038307e-07,0.113905723030694,0
6.46779850556327e-07,0.117131293429452,0
5.50714384062046e-07,0.106229230932677,0
4.27756309728792e-07,0.0901987996320132,0
3.58005232529665e-07,0.0848167122678088,0
3.4658871662338e-07,0.0876636420642815,0
2.58330520604327e-07,0.0861718236480209,0
3.99311554737085e-07,0.100924027847198,0
4.71021050223326e-07,0.109714167936789,0
4.15677086724336e-07,0.103879901918027,0
4.4295913399351e-07,0.101166820204795,0
4.65714277920043e-07,0.103423552390129,0
3.7462357011313e-07,0.0965841838340835,0
3.5485869394703e-07,0.0969529960165756,0
3.30631600987712e-07,0.0964461848383289,0
3.18855843708738e-07,0.090707803715334,0
4.82677335405917e-07,0.102246039616055,0
4.67677976741806e-07,0.103918212319865,0
3.64339728888573e-07,0.0980385280425764,0
3.23951559642858e-07,0.0922911633084663,0
2.90564884288619e-07,0.0893980700428145,0
4.46518874412255e-07,0.101687393407813,0
4.79891028296214e-07,0.102721480655421,0
4.85037734393017e-07,0.106357944990377,0
5.0933000895188e-07,0.106520049794225,0
4.80671227290272e-07,0.105931746762331,0
3.78552287890317e-07,0.0976239468716738,0
2.32129167753954e-07,0.0800289027387042,0
2.46534961320428e-07,0.0769071468553047,0
3.92143889020944e-07,0.0906235096331283,0
4.38571669768886e-07,0.100726258905999,0
3.21143140294323e-07,0.0943888039267844,0
2.88951020887204e-07,0.0900730313954229,0
3.07872331643486e-07,0.0875352908840359,0
2.78548367633095e-07,0.0807324221576042,0
3.45630959651824e-07,0.0846232704321986,0
3.64493029410037e-07,0.0885708330239293,0
3.40335243467958e-07,0.0840763259712642,0
3.55706054741126e-07,0.0921197931222736,0
3.24476477790087e-07,0.0851127513632247,0
3.21813768194461e-07,0.0824880384603974,0
3.36852730868422e-07,0.0833292829515039,0
3.46354227881721e-07,0.0859593599780506,0
3.36240683899521e-07,0.0844041824052964,0
3.63073885723721e-07,0.087633662788421,0
2.60519137198701e-07,0.0785767262448694,0
2.29997646940449e-07,0.0759637844270122,0
2.24713316909416e-07,0.0781550973862721,0
1.57526434331414e-07,0.0658601438652294,0
2.02178470287676e-07,0.075193700124652,0
2.24070246799466e-07,0.0771781459918756,0
2.10319734579313e-07,0.0761483318029584,0
2.43601789340863e-07,0.0765479045090711,0
2.39502114254488e-07,0.0753257865538331,0
2.22350277654993e-07,0.0749871605988404,0
2.11296633488962e-07,0.0754853060605634,0
1.81985210748358e-07,0.0723689418744267,0
1.46406783482299e-07,0.0677360422973867,0
1.54577090714493e-07,0.0683657405640129,0
2.49562027806681e-07,0.0824061948660173,0
2.60022766941905e-07,0.0789356467585957,0
3.48564131631389e-07,0.0895054091472661,0
2.94055812740248e-07,0.0877477275169178,0
2.72145719373903e-07,0.0874595641106342,0
2.63245213210088e-07,0.0858119146121094,0
2.64584653826579e-07,0.0859688913036578,0
2.90007127816556e-07,0.0867822465471038,0
3.10928606087004e-07,0.0856843239057391,0
3.39747783988506e-07,0.090714256571917,0
2.08075507354442e-07,0.0760004797055084,0
1.55885343173227e-07,0.072422982628029,0
1.384524831205e-07,0.0680071136471728,0
1.56195079533601e-07,0.0677793627033626,0
2.46901958478378e-07,0.0773160403747046,0
3.56330642979813e-07,0.0880344258900147,0
4.44334548252282e-07,0.0883317844409593,0
4.28116706218432e-07,0.0861398269644442,0
4.41904182181113e-07,0.0906920686195505,0
5.14575725073309e-07,0.0914903756631891,0
5.65099055489934e-07,0.0916961257183277,0
5.93905197071527e-07,0.0954851537961709,0
5.3930364374053e-07,0.0944454744347005,0
6.09882114712119e-07,0.0995238437164754,0
6.76063715506744e-07,0.105794961818884,0
6.70837306340117e-07,0.108274220237482,0
5.21885965224912e-07,0.102815855685254,0
5.24874582818269e-07,0.107983676634834,0
3.94327885147501e-07,0.0944743427536925,0
3.87017810012606e-07,0.104105515641914,0
4.08279222700939e-07,0.107882170747092,0
3.16985379326833e-07,0.0957491315177314,0
4.09554306801423e-07,0.103123385343614,0
4.13627744231272e-07,0.104703758615842,0
3.57353746567623e-07,0.101936076152747,0
2.4685855908425e-07,0.0888975132756333,0
2.55620121180172e-07,0.0900400165976677,0
2.48340904169619e-07,0.0878950865794968,0
2.53646521355947e-07,0.0886217973210586,0
2.28317116789119e-07,0.085117566624733,0
1.59152673985907e-07,0.0809321986481409,0
1.66721165285078e-07,0.0805447230779808,0
1.93330934487036e-07,0.0885141804453885,0
3.63654579518156e-07,0.118430046003109,0
4.02739941856492e-07,0.114420883489116,0
3.82306748024161e-07,0.122112060259009,0
4.00120136604869e-07,0.12302514718634,0
6.10697792298335e-07,0.140808698070179,0
5.59592282936905e-07,0.127908392032076,0
3.86471769726789e-07,0.107957026322878,0
3.5973378254294e-07,0.104731298388302,0
5.18289261063641e-07,0.121300369351268,0
5.40411400899395e-07,0.123587396576303,0
4.77529474192161e-07,0.116574654422549,0
4.67842993449517e-07,0.12198540999275,0
5.00977688291079e-07,0.117177528828385,0
5.36608095820069e-07,0.120128293264838,0
2.23971236774839e-07,0.0811181263908948,0
2.0751329543127e-07,0.0843586576973693,0
2.39977362372696e-07,0.0814620639413088,0
3.442758424481e-07,0.0912652293914569,0
3.21514592903381e-07,0.0891602500761052,0
3.94906268708028e-07,0.0874296611264084,0
9.07461364195416e-07,0.124167127665159,0
9.43503488410142e-07,0.118776720110738,0
9.21104945588971e-07,0.118683780425607,0
8.86500116898408e-07,0.118442626480176,0
1.09713420830591e-06,0.133082891895076,0
1.15370705122722e-06,0.133276686567855,0
1.11446096261558e-06,0.138229267375237,0
1.03245161928413e-06,0.135889611696474,0
1.02896234099958e-06,0.138007846594,0
1.01890292249751e-06,0.144920722648047,0
5.18551142578779e-07,0.11107222198424,0
4.50921520173987e-07,0.112633990841436,0
4.6812616211995e-07,0.117290850130481,0
4.68350419825729e-07,0.120386712212034,0
3.50011823208138e-07,0.107738842363662,0
2.39439407905558e-07,0.0937867385030828,0
3.77661197668677e-07,0.108721048687576,0
4.96000784386513e-07,0.117460258619675,0
5.65370507974118e-07,0.124541654359759,0
4.58061463083232e-07,0.116532311259927,0
3.41663957998448e-07,0.105202634004821,0
2.13205546763764e-07,0.0833459972938227,0
1.62602348260608e-07,0.0735842741075743,0
1.40981034132758e-07,0.0676388322320418,0
1.49417513314489e-07,0.0714407167808432,0
1.57872144334069e-07,0.0695145657235112,0
8.54704202606505e-07,0.133620237309258,0
1.17881153802144e-06,0.149570380678485,0
1.08661917867385e-06,0.141753214054572,0
1.12483655312962e-06,0.143486000899964,0
1.43510806268652e-06,0.156598862795452,0
2.07844219936913e-06,0.183961222021821,0
2.02972679200219e-06,0.173665038375262,0
2.06660324069111e-06,0.178759596456485,0
2.064953073614e-06,0.177397041534777,0
2.15981474322552e-06,0.181648129317865,0
2.07861332169503e-06,0.186222986226487,0
1.73923385499813e-06,0.168038570748477,0
1.71716386044202e-06,0.164314794942334,0
1.69265376382898e-06,0.168371536619038,0
1.37023685956783e-06,0.156230754227196,0
4.49928119593568e-07,0.0968087027585195,0
4.22277755032782e-07,0.102453575303988,0
6.84988314109885e-07,0.123259155695806,0
7.27494142765657e-07,0.120202296204687,0
6.66993572167403e-07,0.125003995248846,0
2.44861031837406e-07,0.0848262305956135,0
2.31040057483061e-07,0.0813210191190468,0
3.54016283654164e-07,0.101455925592597,0
3.92096859259246e-07,0.105964833426359,0
4.00367001599605e-07,0.105668172897618,0
4.22229735170837e-07,0.103280601579769,0
5.5297362780732e-07,0.109807628755509,0
4.03204463888698e-07,0.0966763638052865,0
3.97371618321233e-07,0.0984758519986893,0
3.88614346659711e-07,0.098589969220344,0
2.90805808681878e-07,0.0893474759011737,0
2.73496051093103e-07,0.0924710413566806,0
2.25117277809893e-07,0.0803439368162605,0
2.20070241804548e-07,0.0766517243071985,0
2.88008445452759e-07,0.086162143545228,0
1.93324333818728e-07,0.0763541243201059,0
1.87948914565038e-07,0.0817472960588463,0
2.66109903255953e-07,0.0938491070767934,0
2.46644037364225e-07,0.0898891185841809,0
2.03535567691893e-07,0.0805665021515759,0
2.12776503323716e-07,0.0799900782731642,0
2.37889570986734e-07,0.0829668530742607,0
2.23548794003099e-07,0.0877130945067501,0
2.29534280025197e-07,0.0924797479521307,0
1.80464911820215e-07,0.0839345125445721,0
2.09475674119371e-07,0.0888778384323989,0
2.1819565200495e-07,0.0885591145842066,0
5.31683832245262e-08,0.0599851743724317,0
7.43896968528851e-08,0.0640725424174201,0
9.03501128227055e-08,0.0692009951522856,0
8.77664462300726e-08,0.0697810676133725,0
9.52238812849538e-08,0.0702205782365086,0
1.07239242823524e-07,0.0720255038292028,0
1.07126206378742e-07,0.0759745952936862,0
8.39274975418807e-08,0.0748087855718287,0
8.11269989953152e-08,0.0762429456152505,0
3.19506999637367e-08,0.0638069552784884,0
2.25922724360232e-08,0.0574726591187468,0
0,0.0519768974708261,0
3.81743050950619e-08,0.057737357721833,0
8.64713951079554e-08,0.0623474480527358,0
1.36249180039141e-07,0.0718796970079542,0
1.55197553535487e-07,0.0740980098605294,0
1.72919192826708e-07,0.0724946713461047,0
1.91680272359802e-07,0.0709591062713575,0
2.12261651195657e-07,0.0740696175610085,0
1.85499406555774e-07,0.0719559038310254,0
1.81221348408363e-07,0.0745557620000175,0
2.22442521994602e-07,0.077933972237439,0
3.16977458524863e-07,0.0909600535835799,0
3.08370847117481e-07,0.0958930988707178,0
3.12028277427191e-07,0.0908740099578111,0
3.61060021822814e-07,0.0924210765116775,0
4.45185539413948e-07,0.100843549635242,0
3.99657429756446e-07,0.10089097343392,0
3.25196610702539e-07,0.0935314976171446,0
2.90405643165679e-07,0.0888739547961181,0
2.70941592457735e-07,0.0818303668821617,0
3.15053363712951e-07,0.0857220971776296,0
3.20792479790436e-07,0.0810367576588348,0
6.99301368286626e-07,0.111761401136992,0
8.06045395970309e-07,0.119286331364293,0
7.53665792608642e-07,0.122176384577194,0
6.67990273081978e-07,0.11667706023652,0
6.53114511931942e-07,0.1159062563873,0
6.43800143865187e-07,0.11305236737654,0
6.82496066773323e-07,0.116148990343522,0
6.41512517246189e-07,0.114986046428525,0
6.46791071692451e-07,0.123689834509739,0
9.34654632475839e-07,0.155259963912673,0
7.90972769887974e-07,0.137943925685123,0
5.66172324156887e-07,0.126052135348631,0
5.2066418152102e-07,0.115579884228256,0
3.94418974370158e-07,0.102768806324369,0
3.22657828654404e-07,0.0911537087122084,0
3.6155556699607e-07,0.0937355720539276,0
4.56902385728269e-07,0.102555152026044,0
5.07654759335196e-07,0.107475865824267,0
5.61145255173175e-07,0.106150032211124,0
3.63630817112246e-07,0.0913714326903019,0
2.54344377012857e-07,0.0865958490605928,0
2.58638771814332e-07,0.0871665226719314,0
2.9277676823878e-07,0.0931058631963238,0
2.25925859677677e-07,0.0818989098339388,0
2.05996296837281e-07,0.0789947087815697,0
4.23917361040599e-07,0.102846370257384,0
4.52997430356993e-07,0.101101839741759,0
4.62805858446635e-07,0.100171872708475,0
4.38299062167748e-07,0.100644601571245,0
5.25533494532159e-07,0.110508548173364,0
5.93653546592268e-07,0.111993794864691,0
6.02674019902589e-07,0.111700564667789,0
5.88353209940586e-07,0.113293537460667,0
5.70050381804805e-07,0.115039532977835,0
6.56915671794068e-07,0.125258701683654,0
5.91617900485943e-07,0.130206002029076,0
5.83277296011392e-07,0.138463914352022,0
5.76926297981715e-07,0.135792350084586,0
5.87744133272425e-07,0.138814349734613,0
4.00429542931828e-07,0.112846526054415,0
3.41885740453612e-07,0.102371086258247,0
3.89534479821908e-07,0.105668379182741,0
4.26088980914078e-07,0.0989023434940549,0
3.5792985454775e-05,0.0539043239660632,0
0.000235879721117243,0.0795962931711047,0
0.000244969986428907,0.0605684462082337,0
0.00024336007022714,0.0621795035612827,0
0.000241464879741751,0.0609142338571664,0
0.00023865292656042,0.060181253880367,0
0.000236371822556826,0.0581516640890233,0
0.000238054620697787,0.0578495415475924,0
0.000240389446055593,0.0576424286470219,0
0.000241128945328861,0.0544410074574691,0
0.000225269113148008,0.0851457513261643,0
2.54018469015128e-05,0.0565166615447345,0
5.04684458596395e-07,0.124256556387928,0
4.24716866989459e-07,0.120769182530607,0
3.84922757891505e-07,0.113664592356301,0
2.62083660604509e-07,0.101652065980124,0
2.57314677751658e-07,0.0978710206459046,0
2.93368188119216e-07,0.100174550598401,0
3.63160354478562e-07,0.103863479993982,0
3.63564810429161e-07,0.0990476478211169,0
3.30201072397294e-07,0.0903338158732269,0
3.69826204386552e-07,0.0945150930833746,0
3.12833558960822e-07,0.0900439840660303,0
3.13989831031754e-07,0.0901341208484763,0
3.18700893020198e-07,0.0897154000567902,0
3.33403716660552e-07,0.090517358799476,0
3.59133121726871e-07,0.0933915039145422,0
3.21885055412192e-07,0.0911104352332986,0
2.8196751381687e-07,0.084914940824863,0
4.78886571596377e-07,0.109717244819465,0
6.62895382231396e-07,0.133896560736531,0
7.03027940596867e-07,0.135059862173998,0
7.01253185905433e-07,0.138979896620284,0
6.85496565569636e-07,0.13861049439133,0
7.34654547746658e-07,0.147514055472211,0
7.37343494998813e-07,0.143358601027066,0
5.95680776846499e-07,0.131459289896385,0
5.21035139079954e-07,0.128035848093908,0
4.98680490703035e-07,0.139312087533828,0
3.88229692714035e-07,0.122471049746721,0
3.4647254486115e-07,0.113613799461481,0
3.14254682847629e-07,0.0990193995039041,0
3.16215576385361e-07,0.0904438205764368,0
4.03534497304121e-07,0.0961985927962964,0
5.36875917936684e-07,0.100101053277083,0
7.60104084476699e-07,0.121205075273623,0
8.12399694334142e-07,0.119761251269013,0
8.35598568187711e-07,0.121431732348226,0
8.40133062298905e-07,0.115244641620256,0
8.83179485689139e-07,0.119911587799805,0
7.28380612519482e-07,0.109550382511711,0
6.00528802702344e-07,0.104462565953848,0
5.97712957601961e-07,0.10733483816407,0
3.62591871920495e-07,0.0878074756745871,0
3.14958974156141e-07,0.0923044055758205,0
2.21489385490864e-07,0.0758918704196821,0
2.50495362305495e-07,0.080576363853358,0
1.79997584503977e-07,0.0697548375520955,0
1.50878901277979e-07,0.0684201920507424,0
1.42920310481779e-07,0.0675829418529247,0
1.68416216906687e-07,0.0691596072206673,0
1.60965382520114e-07,0.0715148875706511,0
1.67521001267354e-07,0.0752062426098049,0
3.65382634481307e-07,0.0904732038646457,0
1.07587857120235e-06,0.135273048050894,0
1.12097565721931e-06,0.139777030594044,0
1.17597325064881e-06,0.144318095144591,0
1.23963587140023e-06,0.148014030977057,0
1.19216469000943e-06,0.141839046048325,0
1.1534562258315e-06,0.13522541459587,0
1.21604112246486e-06,0.140840029574252,0
9.92603384706049e-07,0.127734999440101,0
7.78833480801913e-07,0.113793800976513,0
7.89495375303837e-07,0.126636917351984,0
3.50528490519982e-07,0.0960498006252627,0
3.4955901736218e-07,0.0932429316218714,0
4.27475121258852e-07,0.101641343566539,0
2.8801702632156e-07,0.0910165221956636,0
2.74427570408132e-07,0.0914882936027149,0
2.80709261420572e-07,0.0928112946654967,0
2.51059059379037e-07,0.0916967934202136,0
2.90004322532525e-07,0.0935336465062779,0
3.50537731455614e-07,0.102331511559339,0
3.24539844205849e-07,0.101670298505563,0
3.69829009670584e-07,0.103555843839915,0
4.2061174635173e-07,0.113425347857216,0
2.90284355885511e-07,0.0960692497620324,0
4.69109661697908e-07,0.112433972654244,0
5.55600693794081e-07,0.117937813495605,0
5.56636998718507e-07,0.122086507689271,0
6.01815933022492e-07,0.123803193591418,0
6.37579179001185e-07,0.12693046988062,0
8.29624963368568e-07,0.130265871957096,0
9.69615732238351e-07,0.128381015418107,0
9.0032719687094e-07,0.120943851194044,0
6.83004153216368e-07,0.105051558016519,0
6.41398325684453e-07,0.106319496391381,0
5.39248363143446e-07,0.0998710925127001,0
5.01112176907867e-07,0.0990851001622241,0
5.02331485361144e-07,0.100085297271256,0
5.30267328826269e-07,0.101927275246155,0
4.80400764906334e-07,0.0976672178436856,0
3.13337850019586e-07,0.0885251015168313,0
1.6333040197503e-07,0.079558599620371,0
1.74521670075291e-07,0.0847545042396799,0
1.80829433727549e-07,0.0858151546569201,0
1.82314584096949e-07,0.083645240521951,0
1.98578465792251e-07,0.0880862471812169,0
1.75103353969973e-07,0.0825031826072373,0
2.53228204001899e-07,0.0921203661056187,0
3.16038183424571e-07,0.100521826141801,0
3.67699469057572e-07,0.0975313132992621,0
4.63173020621293e-07,0.0996805500656899,0
5.77660952364443e-07,0.107659457616448,0
6.02241841145092e-07,0.105109035237502,0
6.4455262005235e-07,0.110167371926024,0
6.36882643477936e-07,0.110515031996761,0
6.13981789798494e-07,0.106815428254561,0
6.14130304835434e-07,0.108678408789218,0
5.27534652146572e-07,0.0990893133778352,0
4.98948642853064e-07,0.0961169162509127,0
5.00565146521801e-07,0.103681334721389,0
4.90978335870618e-07,0.110499192689214,0
2.57126393688159e-07,0.0841740799785699,0
1.6593156033868e-07,0.0777218396276359,0
1.67045753149147e-07,0.0779329986164057,0
1.75346753613847e-07,0.076316511949134,0
1.83808975401981e-07,0.0775874430313147,0
1.73322988710477e-07,0.0779133257772887,0
1.73143615549196e-07,0.0805033881847057,0
1.15115820315992e-07,0.0742093450725219,0
6.23969426032705e-08,0.0633095843278095,0
7.19235221561421e-08,0.0635585826000842,0
7.0874840978638e-08,0.0642269557257228,0
7.02061932789924e-08,0.0640847495476752,0
3.73769443634018e-08,0.0566597862111981,0
1.23527546991567e-07,0.0748584168640156,0
1.81437355278757e-07,0.0807608262359857,0
2.10446467410835e-07,0.0846577779284636,0
1.89957992981421e-07,0.079496062294004,0
3.6367520660662e-07,0.0970774638808291,0
3.98689606765722e-07,0.0975918485274887,0
4.27281886694122e-07,0.0986980174191684,0
5.38291266238722e-07,0.104652307268704,0
5.30218648897494e-07,0.103492866338846,0
6.33936270161757e-07,0.109566488307709,0
4.25987495638835e-07,0.0908579932792392,0
2.19416775642012e-07,0.0701455176941285,0
3.82974240606852e-07,0.086745443644714,0
5.60825782827046e-07,0.101628043877558,0
4.90931471125628e-07,0.0962402180455921,0
4.86886581586212e-07,0.0995772359425448,0
4.53380269118883e-07,0.0993415441134522,0
3.55238232374765e-07,0.0970488062954069,0
4.23948549198357e-07,0.107023440625021,0
3.7055887856879e-07,0.102238027163392,0
3.51749614157045e-07,0.0988049630103117,0
3.99178056220547e-07,0.106946177143606,0
3.5714632056603e-07,0.0961340375594459,0
3.0535087634966e-07,0.0910732578095552,0
3.14905508742842e-07,0.0932859995549051,0
3.0121836293845e-07,0.087658575873218,0
2.83964876047005e-07,0.0874546281087121,0
2.79667675961499e-07,0.085987209216412,0
2.32776528298305e-07,0.0820204505803084,0
1.45714538393451e-07,0.0699654708322046,0
1.78592467237817e-07,0.0782472460644422,0
3.47534427375271e-07,0.0898067839901734,0
1.75220416822423e-06,0.192208124129328,0
1.89387959266304e-06,0.189360619677697,0
1.82188742355649e-06,0.18663001117922,0
1.81019186439746e-06,0.172719057181655,0
8.46382839080073e-06,0.179515696998732,1
7.95711589336824e-05,0.184881918709971,1
0.000214333978700922,0.254618123745626,1
0.000312749971562714,0.264962334453604,1
0.000420522307296151,0.209234937792402,1
0.000410985187301074,0.185323587794944,1
0.000388380059898503,0.160334899587852,1
0.000327100590142797,0.15249824153018,1
0.000257264224883375,0.120423011206544,1
0.000239999537977945,0.087182023585228,1
0.000143819189492023,0.0541888403773981,1
0.00038718566500769,0.0353898574702557,1
0.00164117584080118,0.0507826664065891,1
0.00178178990417866,0.0417329050014693,1
0.0018295080206963,0.0357153570810812,1
0.00205374648932299,0.0379423446048544,1
0.00225170969230074,0.0411025674984861,1
0.00239421330919288,0.0411936703169193,1
0.00257822239920118,0.04294180759462,1
0.00264589789146523,0.04022389702646,1
0.00278187195564928,0.0377248567859025,1
0.00263484277023465,0.0445765026432714,1
0.00123106131102297,0.0389956759526914,1
0.000751396498685803,0.0341095279359813,1
0.000677561174307356,0.0447777046157482,1
0.00064096964676631,0.0432882541378437,1
0.000600759149689655,0.0393048728324866,1
0.000557897477025174,0.0389440857260667,1
0.000502794017951922,0.0357232976147188,1
0.000508958769049358,0.0442890896871801,1
0.000198077604440738,0.0355624465012927,1
0.000175910710753719,0.0827290990534365,1
0.000204543691888059,0.0813426449126413,1
0.000191001325802412,0.0693420459925655,1
0.00018889546838729,0.0672613261225986,1
0.000167202330242358,0.0670846782854617,1
0.000149019526018831,0.0661384356151956,1
0.000140913881573655,0.0575482612048937,1
0.000149443120772208,0.0578524599825843,1
0.000131866785952862,0.0604862649421638,1
0.000131021738527991,0.0776023597757227,1
8.35306812047809e-05,0.0787917385038524,1
5.12495400693372e-05,0.0666635226363709,1
6.86685215568788e-05,0.0707740309226013,1
0.000102963275272783,0.0673042242597046,1
0.000112263952233333,0.0586829396046442,1
0.000110357526585399,0.0546251511111962,1
8.60845008954569e-05,0.0514855895650568,1
9.75664756293586e-05,0.0644045794505584,1
9.92754269382912e-05,0.067714977810336,1
0.000126907633060559,0.0761005809838024,1
0.000121687812185988,0.0490513262508367,1
0.000171828329418312,0.0510568934909715,1
0.000175628770632676,0.0553707283536843,1
0.000225301874740074,0.0614024700272422,1
0.000223747659762979,0.0502336563554176,1
0.000227909239877152,0.0500771874720586,1
0.000272207809220413,0.0510160049609281,1
0.000263648370314182,0.0428530581980717,1
0.00027653960208839,0.041581436594028,1
0.000218697751806853,0.036995965778633,1
0.000166178310481788,0.0383303818899291,1
0.000164435607315527,0.0422377449051865,1
0.000164993728144481,0.0443884020842702,1
0.000141175476784804,0.0434544888724685,1
0.000280398960042991,0.0785724499131695,1
0.000521354622812235,0.0825274966617091,1
0.000712929310056692,0.0901083990867389,1
0.000960105144289607,0.120570354107857,1
0.000853655294531028,0.0902749616465614,1
0.00109016362880947,0.0639085956843799,1
0.000975265666851338,0.0504256241891765,1
0.00087433668735316,0.0346554654507873,1
0.000931308910311145,0.0250442830075174,1
0.000660975872243691,0.0194108312527572,1
0.000571202231427971,0.0173784653136491,1
0.00122558221837249,0.0150042039854017,1
0.00253222669341523,0.0218994881671094,1
0.00262696034322993,0.0212537472658796,1
0.00265275169540331,0.0200618861585583,1
0.00261816888472704,0.0190477714476555,1
0.00220707912716337,0.0169789262103467,1
0.00234711542678308,0.0183712537359373,1
0.00242516957969702,0.016720287861662,1
0.00194335080955464,0.013205223488794,1
0.00169233742680029,0.00994396207179929,1
0.00729870777433097,0.0203247955305419,1
0.0148885850639036,0.0311706531864575,1
0.0213258170593504,0.0321508834034774,1
0.0372538433299791,0.0434736698560787,1
0.046153954720199,0.053294872587457,1
0.0506479632415638,0.057089461246512,1
0.0520427833014663,0.0518122882287093,1
0.0561010895119257,0.0314896042407059,1
0.0802655501844514,0.0383940433868692,1
0.0771265841564862,0.0207779041274153,1
0.0632266792118285,0.0172629605073515,1
0.0518954180806486,0.0163815947916798,1
0.0414971658015065,0.0117111731500292,1
0.04555929170964,0.00837168866107075,1
0.0455398132325114,0.0082419897075767,1
0.0484667232908909,0.00823668896739859,1
0.0586980819548626,0.00968280321221936,1
0.0731603100637551,0.0147674903344467,1
0.0758130258143941,0.016329281362313,1
0.0718439716312277,0.0155576131143687,1
0.0727287651598565,0.0163286602695521,1
0.0669281024964402,0.0138995331389219,1
0.0564700192774041,0.0154264303909323,1
0.019657378766024,0.00669491871355637,1
0.0278152814663909,0.00563931466883714,1
0.027227480102684,0.00321888425988332,1
0.028373552636127,0.00290529132552912,1
0.0285803164309524,0.00328043731072783,1
0.0283288070431232,0.00332340887984194,1
0.0338186137127543,0.0046674461480768,1
0.0348977818260182,0.00396232874081896,1
0.0305033573616802,0.00333355891714313,1
0.0330468928489199,0.00433135834874125,1
0.0332020068437702,0.00582970031579995,1
0.012424418980065,0.00211374529511063,1
0.00831689233685553,0.0035356656982766,1
0.00847744297364322,0.00480472421787385,1
0.00737086809925806,0.00444834441507567,1
0.00786102719978224,0.00484914566568356,1
0.00698040639715619,0.00484407255692446,1
0.0125656544714462,0.00757760927685541,1
0.0143269006191132,0.00752730366962052,1
0.0156593671821763,0.0066633312643928,1
0.0183977528954043,0.00319976139944607,1
0.0228031228550935,0.00434161242193289,1
0.0220220934443217,0.00490144734179372,1
0.0224319545330244,0.00460492473057745,1
0.0227200418206548,0.0046311485466995,1
0.0232524704551502,0.00469397476949295,1
0.0246699351639568,0.0046599525272928,1
0.0181599038030159,0.00430855199224824,1
0.0147861986766449,0.00427687234827261,1
0.0219150151429533,0.00712042293702866,1
0.0226864461775479,0.00694343493307413,1
0.0188574929181743,0.00589945248228285,1
0.0198108300394911,0.00497736211601041,1
0.020529591264421,0.00414530467040573,1
0.0223272920061247,0.00463942831982677,1
0.0228215881507589,0.0036045929680799,1
0.0248597504780472,0.00331183025898384,1
0.0263342163464816,0.00285969815438012,1
0.0271660897034169,0.00290403791560562,1
0.0191507884685791,0.00177495742439109,1
0.0151271610885528,0.00339378579657828,1
0.0263052797458262,0.00441200801958234,1
0.0553235569924843,0.00937977911945154,1
0.107547707112343,0.0190537262348992,1
0.112239789619662,0.0164847186630393,1
0.101832963155225,0.014455886452279,1
0.10271952456725,0.013348146808192,1
0.102572994048795,0.0153885632556026,1
0.0794045877852512,0.0107746745554249,1
0.0642902355168186,0.00735789116446575,1
0.0528560024629953,0.0062368313691663,1
0.0648792876594801,0.00902893090384094,1
0.105313991451752,0.012170796202801,1
0.158657768071535,0.00906551335945369,1
0.167462490728284,0.00738653300429511,1
0.171040997031848,0.00408642844451757,1
0.16175668703035,0.00165622374250151,1
0.200780983766358,0.00268077146561143,1
0.189052703752776,0.00222862697419927,1
0.206554168425,0.0027897259567335,1
0.228861771757034,0.00233668943971754,1
0.230002622198973,0.00232008299871474,1
0.211258449141611,0.00202390797210918,1
0.155819068668026,0.00122510079866664,1
0.15015787094675,0.00155520963749974,1
0.115026794882876,0.00263348502183084,1
0.0625595177074382,0.00300061425582555,1
0.0548115245214119,0.00193096496063638,1
0.0625107656826988,0.00302852036593041,1
0.0620489516738405,0.0038651115662516,1
0.05783581620486,0.00954722126912088,1
0.0387801897750794,0.0103354670319144,1
0.049897929833854,0.0171842577460855,1
0.0670641103890493,0.0207141753931205,1
0.0664334468980569,0.017411447363899,1
0.0778487764576478,0.019213221834455,1
0.063069206890931,0.0158986025249435,1
0.0413053275632729,0.0141322865643399,1
0.0429472905642979,0.0146881298244883,1
0.0351646927058519,0.0122947986790816,1
0.0164790160471138,0.00758200090144044,1
0.0167133817721161,0.00763033604227926,1
0.0146036655761035,0.00645238610382029,1
0.0143627991721916,0.00653982208711363,1
0.00684393096468931,0.00327883622446364,1
0.0071470461946829,0.00567581349657487,1
0.00721966787035111,0.00564546189411872,1
0.007775089369697,0.00564013833065343,1
0.00902765338529377,0.00807437402903847,1
0.00942696274464857,0.00676463243287965,1
0.0222164371482252,0.0128696103729534,1
0.0239604918549529,0.0121870562411512,1
0.0321246367533787,0.00659856716643822,1
0.066130846970357,0.00906737018005517,1
0.0646769766477728,0.00712193642196942,1
0.0582454686437971,0.00472240685997785,1
0.0516537522678176,0.00310262700048851,1
0.0491667509166851,0.00227535450658514,1
0.0481068399603065,0.00186764731091629,1
0.0434437033954036,0.000986328677751879,1
0.0524927115063735,0.00115659417189032,1
0.0554108430942202,0.0011927196182459,1
0.0633969000064011,0.00182013199831088,1
0.0602759849554321,0.00150157076985759,1
0.051053701107956,0.000729185859926381,1
0.0711161381076752,0.00246614521271585,1
0.0769675328410427,0.00347054004580125,1
0.0756898957702091,0.00253205834863463,1
0.0850892127126788,0.00274928457677056,1
0.080411531453211,0.00302918504472281,1
0.0855636550703097,0.00350387266735603,1
0.0928042920161854,0.00426899539766233,1
0.0947936082494751,0.00579713266465879,1
0.0982345331394883,0.0070754639194444,1
0.109928426589009,0.0112646539567167,1
0.0692195943554147,0.00803932936687386,1
0.0391951704340364,0.00339406127594942,1
0.0348287312257664,0.00388314042475479,1
0.047372676611688,0.00632142253880521,1
0.043345015677285,0.0057074937506818,1
0.0434871572872894,0.00582014128498929,1
0.0442765146670414,0.00618299117159042,1
0.0445717267307305,0.0065731574466883,1
0.0471031318468822,0.00647227938394322,1
0.0478691758166639,0.00602486188397485,1
0.0485607343183512,0.00607804460249041,1
0.0454470736157147,0.00476290631590615,1
0.046944598092976,0.00927644042166212,1
0.0318680589775373,0.00939108656081457,1
0.0260382794163758,0.00128806933463141,1
0.0535295113098002,0.00589491563357941,1
0.0536357572959379,0.00581258994028396,1
0.0552951836672848,0.00608503924890258,1
0.0842684213035753,0.00772088135899662,1
0.125607852035506,0.0111728672843754,1
0.222924710355141,0.0170186917971804,1
0.268361656024215,0.0171348475608821,1
0.236621837115891,0.0174170187694602,1
0.180672889486028,0.0108682912032936,1
0.157172022271688,0.0123381087523972,1
0.19785967577075,0.0080123772359662,1
0.260426778589805,0.00900840228889235,1
0.205636921077628,0.00702278843249103,1
0.195038780716206,0.00695891671569973,1
0.189379268945386,0.00700233614486144,1
0.189280350648266,0.0071382841576094,1
0.200147932138885,0.00760162933380965,1
0.19624829255659,0.00597994340114032,1
0.176093792498675,0.00540696950463272,1
0.126919610340367,0.00323303127338737,1
0.17078276963497,0.00964225040198823,1
0.170401323345941,0.00879756210842336,1
0.163161301680701,0.00876256247667438,1
0.144542233085337,0.00730141504949287,1
0.108583262169991,0.00520653429795879,1
0.0985298008613326,0.00357333119940409,1
0.138823193481766,0.0058249171044906,1
0.111029114022049,0.00548455873702958,1
0.100083221350307,0.00373305385599622,1
0.0930631598490119,0.00381234366531145,1
0.123191996807539,0.00924360776981642,1
0.129234344681501,0.00906564236118419,1
0.129864101207994,0.009976180484243,1
0.132589430437591,0.0108358482173986,1
0.139054668345073,0.0059141345734418,1
0.169139633754757,0.00978013660602887,1
0.155926357312891,0.00892616342320189,1
0.195860736566203,0.0106265563808845,1
0.26153717401137,0.0190941550808776,1
0.289972888272315,0.0202253810215276,1
0.266875719560269,0.0205396913795401,1
0.229079694887246,0.0192089951210058,1
0.191441694423104,0.0158856788315173,1
0.105214535769804,0.0093212142543635,1
0.03229296155763,0.0165402659708946,1
0.0263346784830323,0.0182600773375566,1
0.00875004981570515,0.00871343060337001,1
0.00596793609919293,0.0128783014612999,1
0.00626108263951061,0.0097399019304995,1
0.0119243204176242,0.0135284647862861,1
0.0140446384437073,0.0139215430047147,1
0.0170173336798871,0.0153722871437849,1
0.0150301381779586,0.0116741127930997,1
0.0195453645601421,0.0121631171308218,1
0.0245539574145117,0.0144575269729423,1
0.0353833759888288,0.00895010207878043,1
0.0914465271185614,0.0170625093545885,1
0.100266173123318,0.0192737860893811,1
0.0928748863333815,0.0181597580750669,1
0.108227836654709,0.0190011828660889,1
0.10526028564756,0.0187935194179761,1
0.113637064956063,0.0191242882735688,1
0.156033925497545,0.0203758246125358,1
0.14523362083186,0.0155169905508707,1
0.106393696524103,0.0112328102495889,1
0.07659743615249,0.00957783522321152,1
0.0813031591387235,0.00753436221931099,1
0.0791311367578117,0.00734872332993959,1
0.0656645901199772,0.00601141350918338,1
0.080433929056592,0.00606840264336845,1
0.0910647330378441,0.00558373067329978,1
0.105066108459706,0.00496919920297359,1
0.116519402709113,0.00686462192449378,1
0.116944468575714,0.00678007384936399,1
0.120975157672479,0.00684248887826629,1
0.120972003408474,0.0084552941972843,1
0.0880080173568115,0.00746955113456468,1
0.102006865460666,0.00836709439713734,1
0.0732494376318169,0.00494941943322455,1
0.0628390085858192,0.00469464324872478,1
0.0452696354814365,0.00362864667063262,1
0.0249762659845995,0.00450633273813469,1
0.0274145956724791,0.0028781612693396,1
0.0285583083968697,0.00350493983798301,1
0.0264778830808327,0.00388899266488171,1
0.0262941490264814,0.00369611170849346,1
0.0287886771744716,0.0033910852126874,1
0.0237599471121178,0.00209419826391353,1
0.0230517089214504,0.00311733196296958,1
0.0278779726088665,0.00525052898904235,1
0.0318266555606542,0.00194911255524105,1
0.0614937598954086,0.00505463276171405,1
0.143534879238647,0.0116547461280772,1
0.252020783682279,0.0157857367610916,1
0.263155446036772,0.0137514964058118,1
0.30101931520821,0.00872031276894104,1
0.449663217424657,0.0128709188240547,1
0.446518434142562,0.00945983304099859,1
0.381126747854952,0.00750410140294515,1
0.272862760801471,0.0054829962697155,1
0.1770104031172,0.00404179038028293,1
0.170183158798925,0.00324621049561462,1
0.175394545359334,0.0035918073024105,1
0.200624924331384,0.00302451874506981,1
0.247037744849918,0.00404929537344866,1
0.247941571146868,0.00605986619971507,1
0.143828155810975,0.0036112673443029,1
0.126659808621721,0.00362304511004241,1
0.139757354041843,0.00225263092144896,1
0.19322142317933,0.00340196848918875,1
0.236227786984391,0.00372881229958664,1
0.214323015683932,0.00345530440486621,1
0.171934159937264,0.00255274619704884,1
0.201352059332282,0.00332558698649798,1
0.364047020566624,0.00672621983591307,1
0.379429963081344,0.0033060493779542,1
0.403351279579622,0.00346767497765253,1
0.411110805937146,0.00390095422977841,1
0.427960199305011,0.00518039127223957,1
0.419822009114903,0.00543813491813331,1
0.407566404847127,0.00568792459837656,1
0.48177081419075,0.0072022831494415,1
0.486620281402851,0.00686157269228923,1
0.450828534055398,0.00843995996992909,1
0.146302577995905,0.0020114814810549,1
0.095561399070118,0.00869808262779017,1
0.105982894854688,0.00981802805442565,1
0.0976946817260868,0.00917584521442963,1
0.0981443260314646,0.00915376644347034,1
0.0898262187454021,0.008846996215034,1
0.067949805944052,0.00796716271084128,1
0.0673375702249157,0.00855730453174779,1
0.0349179231303771,0.00775575843055308,1
0.0203981281022395,0.0182490945703655,1
0.028225413565333,0.0178524730808256,1
0.0253075859503082,0.0168833890016346,1
0.0205077574277505,0.0133496587145908,1
0.025832521191123,0.0124525808740563,1
0.0281054487925924,0.0135176347489894,1
0.0372603930997091,0.0163011755967331,1
0.0358947102400524,0.011510223963896,1
0.0334957983908339,0.0113533393700564,1
0.0382394780511977,0.00826120155281503,1
0.0559266480549869,0.00652128372363784,1
0.0561530724327788,0.00625786223922899,1
0.0451052889882587,0.00373029858828712,1
0.0333138112130864,0.00167813284781962,1
0.0338442415277598,0.00215400043627359,1
0.0366435055711337,0.0013482558014124,1
0.0432534784672704,0.00194341470549054,1
0.0436331493289997,0.00212879404047056,1
0.0506030090020948,0.00290568819617401,1
0.0608463376993306,0.00468419861679374,1
0.0664471728736128,0.00422927226789217,1
0.0557849730107466,0.00303265435517848,1
0.0683969394456344,0.0038032657838271,1
0.0756436743567156,0.00168563591780258,1
0.105746970605132,0.0029927844822567,1
0.126763363738492,0.0045479437779555,1
0.128587021716075,0.00437354590273699,1
0.13623105340743,0.00489875976446975,1
0.137067252626533,0.00504847701736228,1
0.120636119761984,0.00455410533662451,1
0.103083478020904,0.00541724497128947,1
0.112169941162968,0.00363705828482784,1
0.0896502309348822,0.00245606395605629,1
0.0579920845782145,0.00289971974628548,1
0.0505014831657457,0.00254841850706876,1
0.045142989758274,0.00183859193308869,1
0.0548348110176521,0.00271364150922903,1
0.0556544425799278,0.00239894809501378,1
0.0546477964846169,0.00212863878519446,1
0.0554345511680495,0.00211905702908721,1
0.0537192660906467,0.0018475952736258,1
0.0444202756906192,0.00552370996940884,1
0.0205897154008858,0.0057163478805624,1
0.0247120901959699,0.00823563148467726,1
0.0233741882401459,0.0104886646666078,1
0.0265455684500068,0.0154205607009688,1
0.0349649010873897,0.0244091615746603,1
0.0365715497439867,0.102261577781475,1
0.0309565960096651,0.113322113820307,1
0.026660066476647,0.101189591234107,1
0.0195456076441091,0.0856789222374337,1
0.0129791941784388,0.105558719904912,1
0.00747449699037851,0.085929182075455,1
0.00229790848002346,0.0584691579034183,1
0.000489000987031811,0.170541979495533,1
0.000275637413668073,0.116185270576391,1
0.000331160773925733,0.161524975960491,1
0.000682890150433744,0.168577033662666,1
0.000886910906355268,0.0489393442970205,1
0.00468547062464021,0.0358177296089789,1
0.0105878544855406,0.0628075635120479,1
0.023713818773988,0.021771988688574,1
0.113303084164754,0.0145469385861057,1
0.314585628973102,0.0222521882396361,1
0.585925360501107,0.0386982997076085,1
0.748696524379616,0.0324216999736195,1
0.74669556486578,0.0303820496861544,1
0.649637386240783,0.0221221618319404,1
0.530364707549353,0.0179478249677235,1
0.40882798292827,0.0140373480199504,1
0.300511616428193,0.0100577447127675,1
0.165130785012657,0.00542181921755138,1
0.143275044730686,0.00567141077464113,1
0.151168732165311,0.00629543365686034,1
0.133190968195349,0.00550873668670771,1
0.117150257212886,0.00452524954881496,1
0.139491828162418,0.00517896988036361,1
0.219184116642738,0.00851737976141613,1
0.282259297028752,0.00796769195779745,1
0.279150471128193,0.00849398727996862,1
0.262188453491803,0.00865515588926705,1
0.280097794275003,0.00845017204057855,1
0.238107569531067,0.00654615349558984,1
0.177662993670557,0.00518091037974042,1
0.157171943822745,0.00384739378351362,1
0.186836880256278,0.00537693346159974,1
0.216992089573975,0.00608956084733616,1
0.158400701944754,0.0037532654569171,1
0.142228736459115,0.00693133447114508,1
0.170268878622137,0.00834132237882601,1
0.171298700704145,0.0080749897919094,1
0.163933606391634,0.010507038160694,1
0.189923778835727,0.00903727417865052,1
0.283203142954554,0.0120988148964098,1
0.291076353892487,0.0123284494198819,1
0.219314070046599,0.0099366514802594,1
0.165584838581627,0.00821431370826158,1
0.167708279400388,0.00986353581750191,1
0.184973787223676,0.0101238359443006,1
0.188926432551368,0.00992521361799384,1
0.15855275442489,0.00926595408858136,1
0.0754960756971575,0.00412715108256433,1
0.044203623810344,0.005490628828816,1
0.0449430338536329,0.00487984391762443,1
0.0272724959410748,0.00335459972313323,1
0.0284793298766298,0.0194800585992319,1
0.0295552328670046,0.0114675597505129,1
0.0471211248218257,0.0141488299464633,1
0.0458091713102854,0.0125399367169237,1
0.0394175843553352,0.0115628911426043,1
0.0358717853195113,0.00957318362740401,1
0.0308489498856404,0.00654435208482532,1
0.0278646104494416,0.00534291566101195,1
0.0318345131237665,0.00723540881370721,1
0.0478588456618502,0.00693806969453012,1
0.0850117659096982,0.00923346963045706,1
0.0728292215255631,0.00905605724539975,1
0.0759553327222947,0.00988816061681594,1
0.0737076111866242,0.00909252327759085,1
0.0905790565589241,0.00868453349334952,1
0.0741596726582217,0.00465103480623573,1
0.0476710105287804,0.00232290270569316,1
0.0449620383666383,0.00238204304797327,1
0.0460775513351881,0.00183317402477377,1
0.0639415356700012,0.00397007917184344,1
0.0597322894522469,0.00312590569362901,1
0.0586146884289446,0.00207881293012911,1
0.0752783253264016,0.0030276872228584,1
0.0766665496348335,0.00182324499808739,1
0.0834219458716403,0.000341512289330162,1
0.107197892802252,0.00137395956062071,1
0.104476784115879,0.00148377933489174,1
0.129343262805629,0.00222825580245785,1
0.171598773894696,0.00400900895274541,1
0.157435608682684,0.00332642348888152,1
0.171915968944252,0.00415517370378034,1
0.175191232598521,0.00547007180166447,1
0.139840569657308,0.00301910131413582,1
0.143369755465455,0.00410728533007474,1
0.126061459106394,0.00711558931938435,1
0.0673492105140387,0.00486136116380672,1
0.0741868756385605,0.00429312186034848,1
0.0734975964478053,0.00441778455666692,1
0.0802007558401746,0.00463814247775748,1
0.099380730689589,0.00682664660947896,1
0.119162693393198,0.00858205874983393,1
0.128953587430581,0.00770301496136046,1
0.110416876002085,0.0127990279651929,1
0.0687771751514684,0.00780212973891428,1
0.0404853787888849,0.00453521220021956,1
0.0426474448723805,0.00791643002580511,1
0.0420129192943872,0.0163310964370709,1
0.0184678257847214,0.00993238656826386,1
0.0146489857843463,0.0160868628009768,1
0.0147532088169677,0.0157313945647131,1
0.0147345037691878,0.0151839665971237,1
0.0102326931291694,0.0230449354285426,1
0.00136170239346506,0.0129344637011128,1
0.000909488594449646,0.0456001416208862,1
0.00190145712044214,0.0223257002466328,1
0.009720671907451,0.0477140258953864,1
0.0193604812822435,0.0524394101177042,1
0.0617795681465297,0.0156146795902876,1
0.171668131063317,0.025724623697201,1
0.304882126071414,0.0421058860972449,1
0.384351522462841,0.0289871414659418,1
0.356307359575161,0.0262339859702198,1
0.30897803390688,0.0287527878303031,1
0.35596459157618,0.00884961510911967,1
0.587092233918611,0.0147648389369937,1
0.799615624808601,0.0189685200051098,1
0.814432790989098,0.0114580669057839,1
0.683676215722917,0.00979503462839796,1
0.683957046016997,0.0091778327732749,1
0.74164268403218,0.010278515208398,1
0.827867531363617,0.011449973536792,1
0.830550723439442,0.00995790105013383,1
0.758449874763517,0.00821384161313813,1
0.731231337139491,0.0142265058073974,1
0.637878839609044,0.0111791134354838,1
0.457508237932999,0.00891680868875736,1
0.264253094642915,0.00676611627991032,1
0.254702165026634,0.00684292711071252,1
0.259158482893838,0.00656439102849435,1
0.25659989374374,0.00599712513535504,1
0.235200349776484,0.00567622162215464,1
0.217018687812634,0.00656901267232788,1
0.224267704298347,0.0069486102239075,1
0.208183342562365,0.00668945432995225,1
0.146720644722577,0.00644460571722028,1
0.178372789735777,0.0102400733247998,1
0.229520459965695,0.0123941503398284,1
0.194808607556835,0.00523476156758237,1
0.205319509567901,0.00473039293308178,1
0.297594227451835,0.00725938944590446,1
0.358835997585052,0.00772409243036561,1
0.374413613373064,0.00866551075775865,1
0.418032577187815,0.0107355503932267,1
0.470431992963661,0.0118515842452228,1
0.513078106573488,0.0137115986808233,1
0.487690722277494,0.0150136881062541,1
0.305696630778938,0.0117428917784588,1
0.118989026414784,0.00821247860178829,1
0.108330436595369,0.0161535359281339,1
0.116156982629487,0.0160586150092205,1
0.110866564448771,0.0265553807242857,1
0.0438261165645177,0.0203014685512749,1
0.025919552436435,0.0323637358902904,1
0.0152041327653626,0.0215362836143685,1
0.00536860865525148,0.00910506799159245,1
0.00312875553336693,0.00988735149292153,1
0.00350284843615074,0.00669108982582266,1
0.0205891357143534,0.00980992900167631,1
0.0588186429573907,0.0228879740092389,1
0.0849909782929811,0.0229903179915594,1
0.0918694486059161,0.0258155074061251,1
0.0840827755616883,0.0189252744389949,1
0.0694195512075817,0.016225786946638,1
0.0626067488943049,0.010257180550348,1
0.103543588423344,0.0105747481917775,1
0.118608367779544,0.00964974956525178,1
0.104456655239259,0.0079282555749202,1
0.145651432931151,0.009352214841985,1
0.148914639027295,0.00896818504688638,1
0.162411799629266,0.00945836308035412,1
0.156925621711361,0.00867373041168927,1
0.125188692436347,0.00748744179218813,1
0.0797123926956885,0.00478326842983459,1
0.029884222308846,0.000416244047359288,1
0.0456939899420328,0.00327575693090948,1
0.0954476123920558,0.00793424298262068,1
0.102219598304529,0.00717808025387944,1
0.0906286257653769,0.0076349662672701,1
0.10633388811361,0.00956272636153733,1
0.201205417702301,0.0131190800159858,1
0.227951702894038,0.00402985395476777,1
0.280022705785858,0.00451820120071739,1
0.280233039043887,0.00417747936670911,1
0.318621533088756,0.00441013649702373,1
0.372988088107822,0.0054987226049249,1
0.369926648691023,0.00514128826259657,1
0.374177610757734,0.00627135371103214,1
0.357075404065098,0.00623113353334701,1
0.31783826455027,0.00514177439869322,1
0.127304445328512,0.000564584381003506,1
0.0659623151381244,0.00300202869288569,1
0.070654637149868,0.00411704126194738,1
0.0702069259183562,0.00435164382860378,1
0.082379323009457,0.00683068275671375,1
0.07510936599182,0.00594673619413553,1
0.0898294936749042,0.00797446359187026,1
0.107804279689003,0.00933636074310979,1
0.113478659796541,0.00955232984988512,1
0.114344764378895,0.0119430412282576,1
0.0564303236246997,0.00778574612330444,1
0.0261104136648677,0.00798663702183885,1
0.0225306227262011,0.00729247388165667,1
0.022438867809644,0.00816699874666047,1
0.0209344679442592,0.0153197797815055,1
0.00278657987588462,0.00641187904310763,1
0.00071273337449849,0.0172221385815477,1
0.000762475296843639,0.0213969658983225,1
0.000632118885219068,0.0241583709720484,1
0.000528472415858838,0.0211017874765595,1
0.00109328424062706,0.0311035567913266,1
0.00383136488334208,0.0226647540581702,1
0.00897054164004935,0.0373927129525564,1
0.0484259413724737,0.00301544522545808,1
0.222958699098574,0.0153480946370374,1
0.400368429324161,0.0242178070245987,1
0.462125302366443,0.024847167334029,1
0.451024987482067,0.0231838071620732,1
0.405198559580266,0.0223603509674428,1
0.340995023376992,0.020562864594537,1
0.279066707174089,0.0176892105941495,1
0.19702455176025,0.00920492417662063,1
0.102405868976239,0.00399617652025136,1
0.0560996268559738,0.00456343326964862,1
0.0562709694420463,0.00444508176327235,1
0.0554903944567595,0.00164307119456315,1
0.0850556218590168,0.00284418200213858,1
0.117780703528359,0.00208350301566526,1
0.143433095522108,0.00275562077659421,1
0.154311754851973,0.00297930758970873,1
0.171629929319739,0.00386101160127169,1
0.166061222402408,0.00406502054625039,1
0.164435047015157,0.00470024325154914,1
0.13972160093053,0.00377375124740712,1
0.134640795259914,0.0037872659098869,1
0.110263740617461,0.00519387759133448,1
0.0353319916738387,0.000712728814107765,1
0.0506578143913239,0.00732132323521673,1
0.0989003405293164,0.0129047255878516,1
0.10127314422184,0.00934634003348353,1
0.086100845338309,0.00794137748807776,1
0.0948841725940834,0.0101960755858376,1
0.123666788700755,0.0114203264354183,1
0.128921102277145,0.0106929444313878,1
0.154650197536642,0.0118227538165235,1
0.22177749352984,0.0155080194024364,1
0.292182603001944,0.0181156893546944,1
0.322856958827815,0.0360832394902501,1
0.228898639489045,0.027481156918145,1
0.166816983094498,0.0261874298622511,1
0.137550901445,0.0234241377953997,1
0.108217152582786,0.0178034524707235,1
0.0912470585275652,0.0195737256074261,1
0.0351287492022224,0.0135730972592442,1
0.012753661804401,0.00517294337797383,1
0.015664829802694,0.0171845694326832,1
0.0392028096600774,0.0197001966895993,1
0.0522647134203458,0.0197538010064358,1
0.054392971398753,0.0205877201375784,1
0.0681924375777259,0.021068204114202,1
0.0730949498922041,0.0207873722303784,1
0.0651393099194907,0.0191252277471198,1
0.0587424372940787,0.0113987972558281,1
0.0452597022173824,0.00724744892962038,1
0.0348977600094893,0.00591340544021481,1
0.0305026078236155,0.00486228616997997,1
0.0369288427228217,0.0066056545143972,1
0.0825748065814506,0.0127764303818223,1
0.110524753170622,0.0151714076528396,1
0.110553631573515,0.0131233879602252,1
0.117315952308408,0.0119659024067147,1
0.123215589601357,0.0133620837779008,1
0.129911712465962,0.0152722625034312,1
0.0916596183900999,0.00690822132530692,1
0.0778207999362441,0.00589083578684328,1
0.0715991422764926,0.00478859780380624,1
0.070891541505103,0.00407167344775209,1
0.0737277866119829,0.00364273334738054,1
0.0735761884020509,0.00327382102340772,1
0.0960710239362038,0.00298178703607592,1
0.17925856762471,0.007668621542056,1
0.229569894624125,0.00846504453784756,1
0.189689483603221,0.00810749267833832,1
0.162023840067087,0.008853411108083,1
0.180232353223047,0.00934227739076818,1
0.175647076596129,0.00950995315546352,1
0.10077341248032,0.00660465605552805,1
0.0752029513509269,0.00654424036884156,1
0.0407009368192794,0.00301430467069434,1
0.0229280257424163,0.0086814067607656,1
0.0298755454056016,0.0101288381947023,1
0.0335181147990641,0.0131650811649454,1
0.0280432866910414,0.014208145934877,1
0.0239411872399226,0.015751882840657,1
0.0267205492196653,0.0209857344273666,1
0.0159381333712035,0.0306994547534689,1
0.00747062112811288,0.058409336694518,1
0.00497358409200629,0.0457115790945818,1
0.00277133720586058,0.03080917476355,1
0.00179026753671212,0.0430113311223305,1
0.00174341944190796,0.0446060193314889,1
0.0015460015767399,0.0199931118068909,1
0.0141394220920993,0.0150835682496653,1
0.041043328047988,0.0317247108003786,1
0.0511249732629621,0.0294391902081296,1
0.0759549869872095,0.0206184256648794,1
0.143305784349434,0.0169038914719619,1
0.381973871789347,0.0237792041015321,1
0.409509124437411,0.0132061415012295,1
0.381537902463587,0.0121666381130412,1
0.366180107857333,0.0124225969170481,1
0.339290835699255,0.0116091775541229,1
0.28849228720282,0.0100611900972097,1
0.239092685497183,0.00848395492997631,1
0.158575393696724,0.005631802974861,1
0.120536386301966,0.00416013568166619,1
0.116283595077195,0.00520417890904129,1
0.111333327164469,0.00427736680707675,1
0.0979018647174753,0.00562707818887131,1
0.0795324142022974,0.0047575772072633,1
0.122390559245706,0.0015868243696648,1
0.245370475686269,0.00544593189482915,1
0.327229852020382,0.00702025971883573,1
0.354569118121567,0.0074012264083197,1
0.371616036873217,0.00808870435683933,1
0.346167765355811,0.00626866267303919,1
0.294015875128661,0.00357541500861462,1
0.288866025851201,0.00393188031296717,1
0.276946971132561,0.00452746357472943,1
0.174613679870714,0.00205533905113797,1
0.16270281997947,0.00611804445906346,1
0.160193795043245,0.00564295233001695,1
0.161543465688187,0.00527287132861772,1
0.183951992201857,0.00509016607508943,1
0.190358020560319,0.00336188672680385,1
0.133378775638945,0.0035156209329186,1
0.0907553568270949,0.00387979355437672,1
0.0982041846476308,0.00444445658760495,1
0.120990295099797,0.00610189007278291,1
0.135042079275035,0.00642085062005983,1
0.143985862612528,0.00700101197277746,1
0.164494480420231,0.00788259379832338,1
0.182336185764848,0.00996364619123901,1
0.0909972804171453,0.00893307749982171,1
0.0284949763417125,0.0111165484538306,1
0.0217424895268557,0.00914817427675713,1
0.016704168004835,0.00790656996036706,1
0.00811217190811312,0.00592664344181014,1
0.00841007527565791,0.00658865522475605,1
0.00990510177207715,0.00679037747312387,1
0.0241151542888432,0.0127457909114736,1
0.0274952669044036,0.0151655361615435,1
0.0267928370921114,0.0141470848391731,1
0.0271637579161817,0.0137043667408779,1
0.0369638588490555,0.0191802584145438,1
0.0504987237152702,0.0250026130265864,1
0.0633223528883946,0.0254713557942013,1
0.0732823655532979,0.0275874392127329,1
0.0701646001783742,0.0232845374880164,1
0.0559442716439907,0.0210554606363132,1
0.103624681587809,0.0126481314913801,1
0.15372334735401,0.00750776461899993,1
0.132833680427577,0.00530337615046287,1
0.127702888991076,0.00422389947501777,1
0.11177481385702,0.00249659424410906,1
0.101048272632126,0.00219618394405888,1
0.105096154866863,0.00136226680480708,1
0.184656930641705,0.00374008036746101,1
0.189611687928518,0.00162852711390816,1
0.217012514431163,0.00195237849167539,1
0.270122436613215,0.00442751012148884,1
0.284732035634682,0.00463449183132713,1
0.278781276521955,0.00455669592189042,1
0.318082561440974,0.00602217075625256,1
0.357396930747125,0.00716306560037106,1
0.407212322922467,0.0080562268006168,1
0.416149424797491,0.0113315772833374,1
0.179216515211802,0.00531120906550122,1
0.113289331104511,0.00796633205511598,1
0.116293568556316,0.0082302443089811,1
0.117405118677013,0.00806124778362404,1
0.101229238879886,0.0150872422699007,1
0.0217630060051154,0.00936338553071059,1
0.0158748319964477,0.0140767238852143,1
0.00890119442886609,0.00664075852177659,1
0.00912509881126702,0.00909731950095896,1
0.0100597414108895,0.00481243732532536,1
0.00998772455924393,0.00452287344642969,1
0.0100910622255783,0.00513232347327127,1
0.00920426436177341,0.00447369754490618,1
0.00897220275317973,0.00505165047794016,1
0.00874431547372604,0.00517219465469525,1
0.0089072207887016,0.00684763966256551,1
0.00911972196973432,0.0072733093755231,1
0.0106622720231873,0.0107323864090833,1
0.00849969358558659,0.0130024388493103,1
0.00780395214781796,0.0356951897992202,1
0.00829347679589972,0.0623288001665528,1
0.00622193741785661,0.0618099507997842,1
0.00339656638264129,0.042805280882056,1
0.00179199620867274,0.0366219447965755,1
0.0025479864868573,0.0455582745319503,1
0.00287020935325238,0.0234357815631249,1
0.00325708429559483,0.0250206611949912,1
0.00365817418209052,0.0286054639376295,1
0.00375283886927786,0.0296128009280796,1
0.00399213672585154,0.0323273022658055,1
0.00432742631070861,0.0340203162383255,1
0.00459201451041421,0.0460369415255564,1
0.00438632684052997,0.045487253196129,1
0.00376900346949605,0.0476094351030705,1
0.00155204445111749,0.0340175870871587,1
9.51899850380061e-05,0.0764001463572812,1
0.00018558725088989,0.156113387714198,1
0.000530720553979682,0.241665761928492,1
0.000795574328274333,0.271213113747751,1
0.00120756006583472,0.261849153084542,1
0.0012683911310701,0.176789206730402,1
0.00245646389666289,0.0456717773552192,1
0.00364632050441722,0.0274779765696202,1
0.00326924348569584,0.0243154633807791,1
0.0031116883978633,0.0221559671230234,1
0.00267908817977556,0.0178117645300409,1
0.00207197908634797,0.013294979794107,1
0.00205407449913853,0.0130926628449237,1
0.00606335100728408,0.0134028494965291,1
0.0107074457139204,0.0149548371514123,1
0.00988221593112272,0.012407098531113,1
0.017882684067405,0.00886687302986836,1
0.122363911994774,0.00966275477129664,1
0.236953920137833,0.0172210844233054,1
0.312713092715342,0.023045131927291,1
0.304888911079887,0.0122778695921033,1
0.268542130860965,0.0103036775736133,1
0.369430464561688,0.00598291776171235,1
0.562413612479945,0.00889739617581822,1
0.592596720074724,0.0100012554421001,1
0.471836814434073,0.00776082625755946,1
0.402726270915328,0.00637617691766112,1
0.427681849243731,0.00772246853895322,1
0.431770901274762,0.00438787610224025,1
0.487562438872584,0.00430195096685267,1
0.406536645175263,0.00405780385256477,1
0.250566075342477,0.00118558909030619,1
0.274786519578475,0.00467811832581433,1
0.328812227649969,0.00525839854519812,1
0.431052376587916,0.00658056111621477,1
0.508386491342825,0.00615283036277,1
0.441045892565448,0.00456999763412482,1
0.327232846797224,0.00277657547926713,1
0.303161854462537,0.0046301850240861,1
0.290174850583092,0.00481838351358402,1
0.234657598688339,0.00470938453840217,1
0.201538703873106,0.00345382556271457,1
0.233011495971419,0.00496612943822568,1
0.236363656741514,0.00566125548618057,1
0.203149384447444,0.00501641504199175,1
0.188160587727215,0.00621169746571027,1
0.171683297508659,0.0130549658162344,1
0.118970944533293,0.00832363617254297,1
0.110835863550534,0.00570164136709954,1
0.134237123432405,0.00880897334354463,1
0.0922389283852826,0.00616761731964442,1
0.0880023501906589,0.0087733441503043,1
0.100077225890675,0.00912099901507207,1
0.113021965506783,0.011331750241311,1
0.0922673800665206,0.00825456772801199,1
0.0784967859749211,0.0078609622053079,1
0.0754120364339645,0.00644795187379018,1
0.0354621874350977,0.00379218590445381,1
0.00883205010077446,0.00508425692838097,1
0.0105381617691975,0.00720011050152362,1
0.0113228819690665,0.00776745580576073,1
0.0132617942210984,0.00701621633663758,1
0.0490206882762068,0.0151591416241926,1
0.0801509172914711,0.0198311064602094,1
0.0880231370681012,0.0207841198185424,1
0.0937503883650941,0.0213970574656052,1
0.084331572798936,0.0172766081072353,1
0.179836233481372,0.012583991005905,1
0.231887685898614,0.00700548992985167,1
0.204835363384951,0.00533764383596933,1
0.242719094091587,0.00577782366774476,1
0.188070053955417,0.00299895208431282,1
0.263808913757066,0.00109186840461111,1
0.430902804038104,0.00220911675718657,1
0.392929495489742,0.00214729923601667,1
0.355103354249409,0.0014564050522262,1
0.352737819124542,0.00123248035247697,1
0.494904399063796,0.00346087920987112,1
0.64183215638807,0.00540832606934537,1
0.769941546032299,0.00721253322629773,1
0.79454491118425,0.00776412910503609,1
0.875567054401104,0.00882235460542221,1
0.778952221738307,0.0200638461107254,1
0.381876953457101,0.0234934436420662,1
0.27223950883574,0.0215345120801584,1
0.06581547805625,0.00936706303795179,1
0.0123328308696568,0.0100662540973094,1
0.00632858573502474,0.0265130531532876,1
0.00640855833406366,0.0289383393308086,1
0.00589961207146557,0.0412698227705027,1
0.00288779143197329,0.0403920269500751,1
0.00253011695893256,0.0510613837744505,1
0.00254106502540899,0.0538776528786598,1
0.00240214210853273,0.0802055224347751,1
0.000747823627062542,0.0678993361762067,1
0.000290225545416033,0.166743223164613,1
0.000313039284630258,0.1600591697167,1
0.000366293073902027,0.172536319817998,1
0.000472775690863239,0.17384255777376,1
0.000572864473767686,0.140034939775195,1
0.00124768129662829,0.107823524109475,1
0.0026442271540654,0.114617897895665,1
0.00760240102072291,0.0689288387531669,1
0.0192190136925527,0.0749031614897335,1
0.0345102846987404,0.0529911480243245,1
0.127103130020193,0.0217169709013468,1
0.193973027622334,0.019982381930789,1
0.264337215204724,0.0185856263171933,1
0.373400698227185,0.0246036009056575,1
0.485680493633932,0.0274347046429516,1
0.58946947506387,0.0294450462480519,1
0.511342308674101,0.0158463381318517,1
0.396625055082213,0.01171471229908,1
0.322285633955475,0.00959739451260628,1
0.253042836875377,0.00582328217442639,1
0.237017010198298,0.00380124678206701,1
0.254011145041626,0.00418944286707649,1
0.252613442813273,0.00326544085215567,1
0.274760625420727,0.00344296038684943,1
0.256326962288732,0.00323959451852307,1
0.200812494023528,0.000627357365223149,1
0.259335682489204,0.00227756018168913,1
0.263835051660167,0.00155159985751467,1
0.241874061285051,0.00120284865278549,1
0.27953518094803,0.00235235279842686,1
0.304477349169093,0.0034426946775404,1
0.283946181353033,0.0030668995914758,1
0.314735278058983,0.00559823532614508,1
0.257816876501705,0.00413371888388176,1
0.262817737173976,0.00471613482848303,1
0.233462481751574,0.00755977588914757,1
0.0571604896511648,0.000660357201366745,1
0.043625053615095,0.00225241990752079,1
0.0490750821099715,0.00169250493437338,1
0.0756423525836129,0.00436478943669645,1
0.0902416833579338,0.00738941316733383,1
0.0677248421872259,0.00673462021327137,1
0.0753801379591485,0.0098168167209302,1
0.0788195925181177,0.0130082591823835,1
0.0898023798880762,0.0150457802544095,1
0.0922925714093639,0.0151114361204852,1
0.0859247611951604,0.0148476004768825,1
0.0292790597478821,0.00704896660694573,1
0.0192690729951622,0.0039395955693752,1
0.0616169871119921,0.0128528134782431,1
0.0810282984563884,0.00952014201421063,1
0.0811566784026736,0.0088703959963948,1
0.0813079880041594,0.00899871272989061,1
0.0783163592850959,0.00887596522413629,1
0.0720884160269013,0.00766232661551663,1
0.0689369022378878,0.00689056552540987,1
0.0579183991058383,0.00548228340409668,1
0.0530667102541649,0.00440561793665962,1
0.0488407778371912,0.00607832652426135,1
0.0868974363398,0.00597342399617594,1
0.122074969307231,0.00963308608425188,1
0.147791913982413,0.00855342871417687,1
0.126430837768142,0.00740602567300935,1
0.103661056775146,0.00604118328535784,1
0.0897996916088116,0.00537097768548662,1
0.0918829301189555,0.00475354680819802,1
0.129579289069998,0.00643991282290659,1
0.127434952506002,0.00446641772827572,1
0.0916201282039887,0.00294768043970534,1
0.0942312650289445,0.00468402461742286,1
0.135600683074889,0.00677455737018955,1
0.16574077098509,0.00779407946376682,1
0.164808144497556,0.00691210385761502,1
0.187003098956414,0.0058165464632323,1
0.252334067495267,0.00782106672118311,1
0.296503786037365,0.0111010778265657,1
0.197552145533758,0.00895293073364835,1
0.153016234981416,0.00892156809099956,1
0.115936683469905,0.00650218658949522,1
0.0892224712495716,0.00495640495398733,1
0.0867841766298876,0.00622676988133462,1
0.0885933211926473,0.00968028203346187,1
0.0319521711708544,0.00423938046491091,1
0.00596644385574536,0.00994948478166287,1
0.00573034787115674,0.0159132961258828,1
0.00557933578307879,0.0289707014799533,1
0.00247612348952921,0.0379946753842398,1
0.00235064943961194,0.0626669259208677,1
0.00214250223002275,0.0667516678546333,1
0.000861767283373565,0.0601366444405541,1
0.000101099753968855,0.0732563433798082,1
7.50023999282155e-05,0.409840493688362,1
9.82549809445599e-05,0.595458336679857,1
0.000141530708746544,0.670194949728279,1
0.000180271015373471,0.788946946061353,1
0.000200922961129128,0.921332624244335,1
0.000237291269249519,0.977112067199637,1
0.000279381560257684,1,1
0.000366829015165331,0.477115954663656,1
0.00104277983696675,0.161905618774922,1
0.00149783225470834,0.100000607860311,1
0.00233242037394451,0.020525580554471,1
0.0146603354105651,0.0233093791736512,1
0.0467409739887049,0.0203346538182492,1
0.131067506515175,0.0410945589603272,1
0.438366092608051,0.0158255785941601,1
0.807950944530679,0.0115229074922725,1
0.765023204398879,0.00764676614061991,1
0.707729375044576,0.00610510468731732,1
0.742573000575905,0.00536339302699805,1
0.79210708130442,0.00549961028425872,1
0.635059452518759,0.00342405860500855,1
0.513803125317948,0.00242517836480741,1
0.428213738471777,0.00176372346045743,1
0.444215940455493,0.00163030312461438,1
0.422757992593029,0.00298288501478012,1
0.313578271919808,0.00265228085897384,1
0.269478944719735,0.00384777041780403,1
0.243115512585286,0.00496648257332953,1
0.209325421318049,0.0076402227459002,1
0.0983631729649759,0.00377982756445408,1
0.125294933155812,0.00692278275498845,1
0.127861246433046,0.00742626038095424,1
0.0606673646390433,0.00413908488473838,1
0.0587606309537614,0.00530580549684987,1
0.12327024555162,0.00798954371437346,1
0.188155592873288,0.00796888522290297,1
0.188594393024695,0.00774333523014311,1
0.190908866419793,0.00762002286569187,1
0.190445060886006,0.00804306858004549,1
0.174353703282048,0.00869174276488526,1
0.126306484135135,0.00604469815612021,1
0.117893142013319,0.00526819611406683,1
0.134249068816959,0.00626434499379578,1
0.164388156461554,0.0108654951259749,1
0.152632954991252,0.02051063837421,1
