Activity,Complexity,Tag
2.15221578952039e-07,0.149736227469587,0
2.65218083394366e-07,0.17125778353594,0
2.70244842048751e-07,0.16129532042547,0
3.22811290193787e-07,0.169927983916171,0
3.95999188597854e-07,0.194101804344302,0
4.21647931137456e-07,0.193821654953433,0
4.22887544763161e-07,0.190576638141148,0
4.30812960849672e-07,0.189531243440978,0
4.24131961024522e-07,0.190865112160447,0
4.14932245610339e-07,0.201027221554111,0
3.27304422664055e-07,0.177507722417626,0
2.22575481395361e-07,0.157082606328494,0
2.11422694147308e-07,0.160854763894908,0
1.88370042993437e-07,0.162554245131672,0
1.2346775835016e-07,0.129239672970111,0
7.70422803319474e-08,0.110567688639,0
7.57210219000728e-08,0.112989897677611,0
7.41078699454859e-08,0.112367605291413,0
7.23549079306604e-08,0.115387681978323,0
7.15480651402749e-08,0.114454340875727,0
8.13112898048865e-08,0.127132215501288,0
6.97449422641422e-08,0.104827039023974,0
1.04656901733838e-07,0.123887879519543,0
1.55752142489262e-07,0.15076299709912,0
1.63167411943757e-07,0.140737334289456,0
1.59805566983817e-07,0.13950936514111,0
1.61868032185431e-07,0.144372310121376,0
1.74772714195942e-07,0.147858664750644,0
2.0727054880869e-07,0.161253720163956,0
2.27858380618123e-07,0.171604336876884,0
2.17516171543744e-07,0.167752872824422,0
2.14335759486405e-07,0.177008252575515,0
1.97258120716096e-07,0.175638952957011,0
1.62787470100665e-07,0.159405077682573,0
1.47382749417565e-07,0.157231700982939,0
1.48548189003677e-07,0.149495308307621,0
1.47837932552617e-07,0.142353001498869,0
1.90830593328402e-07,0.155187168776224,0
1.97249049070966e-07,0.14840951123534,0
1.42800501374549e-07,0.121635490468765,0
1.2126975209778e-07,0.111934736917852,0
1.13625557010299e-07,0.11100503080923,0
1.11132455478103e-07,0.109766774366699,0
1.06498445695227e-07,0.104613017193906,0
1.07683629450152e-07,0.110911067815545,0
1.09179917270417e-07,0.108787948185396,0
1.00788645525171e-07,0.107277506172461,0
8.1386531096847e-08,0.102211448282054,0
4.54350678204905e-08,0.0757569867280963,0
4.27455918525389e-08,0.0798102039779535,0
5.07152989123321e-08,0.0866257188887224,0
4.90994788268247e-08,0.0824004116296081,0
6.04870615958896e-08,0.0883344379563735,0
8.06175757655339e-08,0.101731560202722,0
8.24751285124464e-08,0.0970262956932152,0
9.27436971734174e-08,0.0988837352305679,0
1.00071451933717e-07,0.0978669787898308,0
1.51816649381396e-07,0.114892437811,0
2.35025513897004e-07,0.147119554325277,0
2.63043556694087e-07,0.149221049545284,0
2.37608264628132e-07,0.137429173250008,0
2.32594313002165e-07,0.139873712999421,0
2.3318983982364e-07,0.146126185561212,0
2.29565984407299e-07,0.144954228282351,0
2.33501477515164e-07,0.160195852135736,0
1.81673568008948e-07,0.14160950904591,0
1.51078110742578e-07,0.135344825420568,0
1.75889060173115e-07,0.150262797455734,0
1.53426065952694e-07,0.134534625453356,0
1.00750758066099e-07,0.104465861355829,0
9.68446143983595e-08,0.105147278130293,0
1.11501724797512e-07,0.107524683292418,0
1.31402246081801e-07,0.11121870634848,0
1.75945090922448e-07,0.11501617710031,0
2.86861961422166e-07,0.140495064084753,0
2.93176360058828e-07,0.135455518548669,0
2.88646941008039e-07,0.133164956104782,0
2.75327631452469e-07,0.133643895329258,0
2.45307956838762e-07,0.125484132929388,0
2.38037833706346e-07,0.127130495564683,0
2.99364289289853e-07,0.124820493714831,0
2.46352530094172e-06,0.197920230137367,0
1.41597473160027e-05,0.282508188320262,0
3.88563022341989e-05,0.442702766977944,0
6.80541343591117e-05,0.607077173359504,0
0.0001129887056435,0.435691140679133,0
0.000210001700447996,0.436776293754971,0
0.000318498892109443,0.547971378917869,0
0.000445694194246154,0.404463507253616,0
0.000784304488703457,0.239240076684102,0
0.00118548410695607,0.26948211030511,0
0.00129248400384464,0.181793736324748,0
0.00115969312795797,0.129328650996138,0
0.000949735832679258,0.0761075446393214,0
0.000837071966639078,0.0638689480452021,0
0.000858980203078491,0.0656238916730218,0
0.00100020932422252,0.0781521417682405,0
0.00116718733940201,0.084676431278311,0
0.00129252606159234,0.106996240863125,0
0.00123462221231423,0.250613827225646,0
0.000857978354069886,0.208316480031666,0
0.00043850100720246,0.114696988535329,0
0.000209474811294453,0.0577782813576695,0
0.0002965014467127,0.113525726156087,0
0.000374007268366622,0.121906196289361,0
0.000359818684425256,0.11004993299251,0
0.000323222888876625,0.106582123167306,0
0.000276894741606264,0.0961947541321146,0
0.000236928158056474,0.0881247237221728,0
0.000195861812564061,0.0710558618859078,0
0.000187245438617438,0.0612286328181489,0
0.000241093449809764,0.0836769539035632,0
0.000296969313074897,0.182441682891985,0
0.000213749729076502,0.186670532428027,0
0.00013694807946789,0.233222486146299,0
0.000135020162772339,0.259075448247238,0
0.000155049290101506,0.251130688214364,0
0.000175228897880089,0.292052740146088,0
0.000151995277544772,0.375158910830459,0
9.90196528461484e-05,0.322136625953985,0
7.49092798876909e-05,0.404535655816534,0
6.33798870274491e-05,0.327221031290965,1
5.68183815800827e-05,0.264498418854309,1
5.1941189807086e-05,0.265095034927883,1
3.4453128466049e-05,0.211951650229341,1
2.59879281492555e-05,0.183008045509523,1
4.39583726192015e-05,0.265924126497675,1
6.43938450814237e-05,0.314078272190383,1
6.06875017295417e-05,0.255913539782519,1
4.61509273464841e-05,0.211029123621602,1
3.27588157042412e-05,0.164380183075625,1
2.77915718445439e-05,0.140491049207941,1
2.83823686035228e-05,0.140014110111849,1
3.0730067673071e-05,0.149203972080167,1
4.08437881543084e-05,0.151585250172117,1
7.6440155756332e-05,0.196573797253335,1
0.000143422549417374,0.286432697182341,1
0.00017984088437672,0.255415839788496,1
0.000171288852407247,0.237000840223187,1
0.000134234966528113,0.181642177870205,1
0.000112480115065436,0.124128057091134,1
0.000141368048052932,0.144919898782483,1
0.000147743828108674,0.111531357510172,1
0.000144440799426748,0.082809482708327,1
0.000167462374859787,0.0965367223557099,1
0.000186383870860993,0.111553435977348,1
0.00021227482846007,0.112398911257569,1
0.000271166198883743,0.133143393789221,1
0.000286382717616099,0.107666545408491,1
0.000282192617047884,0.102204948197889,1
0.000256268158396967,0.109095747960504,1
0.000198369652851463,0.0953638603658953,1
0.000152896273339083,0.0717617442391735,1
0.000177937757819179,0.0661348656275905,1
0.000193177427389906,0.0552965212263011,1
0.000219953397611828,0.0456699899914001,1
0.000264837381133962,0.0561869640598935,1
0.000240320419708909,0.0525130230975951,1
0.000229134197578663,0.0573597851996713,1
0.000239554023648775,0.0631396805558214,1
0.000241786279630529,0.064419350298114,1
0.000239094760941545,0.0625349206907276,1
0.000251643599667439,0.0835487046018343,1
0.000151568341911776,0.0471343648892407,1
0.000233807842446364,0.0495500761290563,1
0.000479914550701681,0.115464369597399,1
0.000737445959696179,0.126912328717507,1
0.00128464277689395,0.134358054843501,1
0.00174098612199558,0.133657471916251,1
0.00179243460193984,0.12288926074189,1
0.00179137040564877,0.118978752718986,1
0.00173462807006893,0.132477599964488,1
0.00127702599258266,0.114679376900954,1
0.000766146384980595,0.0970463938584262,1
0.000527192219063406,0.0941560860020052,1
0.00035609499822239,0.0623713528884013,1
0.000668492825304685,0.034277167602794,1
0.00219790077102532,0.0584543410952156,1
0.00386726315755322,0.0904749663202386,1
0.00513203156137952,0.0910364459595046,1
0.00785646085977164,0.0990037157306864,1
0.0101971615003581,0.0695486711459876,1
0.00923607857006112,0.0307240436304929,1
0.0080577234245021,0.0262590188974998,1
0.00660801223080456,0.0230996993070283,1
0.0050912774704505,0.0189838263920374,1
0.00437166620712654,0.0163127788640624,1
0.00488982169301942,0.0185351740566656,1
0.00507631797810599,0.0107194481258635,1
0.00761531705059163,0.0124135704005529,1
0.0102294014910677,0.0184033561058775,1
0.0093681392126669,0.0130932551618777,1
0.00880808111647794,0.0124192408157752,1
0.00889493846059015,0.0132185499362278,1
0.00890578280923565,0.0124479154585167,1
0.00906738942862601,0.0125321253810324,1
0.00871643022436258,0.0148799110811508,1
0.00538679818534358,0.00877672413606708,1
0.00316438089953832,0.00625683535014366,1
0.0038561025921699,0.0175695763982252,1
0.00353235578110132,0.0164280206610776,1
0.00296623468664267,0.0159297550430709,1
0.00342253414792781,0.0267549806421494,1
0.00404568380864793,0.0289919567160709,1
0.00539183206630664,0.0392523666658689,1
0.00738263400622756,0.0605907340284006,1
0.00781284596685199,0.0610267115135534,1
0.00488680691852963,0.0310071499645044,1
0.00309700827572136,0.0204290383683558,1
0.00527258396181003,0.024320060144816,1
0.00603264145004135,0.0166229205460627,1
0.00509358199916175,0.0104284676918593,1
0.00470615570945167,0.00923779596780338,1
0.0042926596253313,0.00684414047520601,1
0.00453883880749319,0.00782548778409991,1
0.00464653158809878,0.00742808514242088,1
0.00519961856364606,0.00752456193950024,1
0.00607039809385641,0.00942235559190133,1
0.00616442198319145,0.0103610106717159,1
0.00473711287188629,0.00971380554975505,1
0.00354942747527594,0.0083443715491999,1
0.00407690948750939,0.0121544958212946,1
0.00461562006991344,0.0147992936778788,1
0.00430330477345678,0.0176439675667781,1
0.00277097383268102,0.0118648280681434,1
0.00180786629209029,0.00940293309145459,1
0.00191013553682591,0.0132431953950486,1
0.00209083355452549,0.0145257201332902,1
0.00274431484986106,0.0274151312184307,1
0.00258515565840418,0.0253524346137086,1
0.00211905022366082,0.0249628500226556,1
0.00211412893782261,0.0286894462078727,1
0.00220632086552165,0.0225103295584316,1
0.00277587615397827,0.034832782197454,1
0.00245668116678945,0.0308778918449805,1
0.00187835319620522,0.0271314758490228,1
0.00164697488920638,0.0225527990309003,1
0.00147721418263621,0.0203607597595601,1
0.00156579368679265,0.0188610082395806,1
0.00225054711635077,0.0226959837021828,1
0.00302066565615896,0.0420829549333558,1
0.0025136522044129,0.0374830736908044,1
0.00186796677353336,0.0365649692765754,1
0.00178607558948606,0.0438006895530577,1
0.00178843405286299,0.0407744953745266,1
0.00180965820454755,0.0428982639038111,1
0.0015968984929199,0.046317680376335,1
0.000862599176348873,0.0311315589531791,1
0.000351565034872894,0.0260122711030939,1
0.000536940773276964,0.0192620123192774,1
0.00299839722257889,0.0192500016067012,1
0.00814583924005574,0.0381219213684399,1
0.0101370931394759,0.02705294951025,1
0.0102295846166326,0.024959825089253,1
0.0102794981555439,0.0226431114777837,1
0.0126389743250924,0.018614023116025,1
0.0163222226126778,0.0247855765058696,1
0.0136864510939326,0.0107363524181432,1
0.0116111274068608,0.00810859227882582,1
0.0113112498614991,0.00840139529486283,1
0.0115807312952608,0.00565013360294983,1
0.0238594848726114,0.00341996658273782,1
0.0534461073104685,0.0165848040458436,1
0.0580955271438853,0.00862480526213509,1
0.0557322345092174,0.00858367607310249,1
0.0559604551841271,0.00843568632532048,1
0.0598520838439855,0.00731797143946929,1
0.06514196339671,0.0100725233734638,1
0.0558427985594248,0.00912436286981559,1
0.040349934997385,0.00644980359512413,1
0.0304364993645799,0.00515162693747709,1
0.0301545720638026,0.00852532263557424,1
0.0263563315342452,0.00604403249544657,1
0.0254590364119069,0.00843056006543507,1
0.0237512688742004,0.00873879512958097,1
0.0200021341149225,0.00722545385853589,1
0.0194638622266045,0.00767214830496439,1
0.0209999064201239,0.00798133099370927,1
0.0254378099144016,0.00919192940260147,1
0.0295847270504801,0.0126339670062673,1
0.027716692968008,0.00594541745914505,1
0.0355979353418562,0.0126452812092895,1
0.0336461338456735,0.00678508289351423,1
0.0377481410426523,0.007480034260289,1
0.0464836000997885,0.0117704625191647,1
0.0472824111693481,0.0111400944149449,1
0.0495721158471289,0.0122766657776652,1
0.054146537890751,0.0132261508951428,1
0.0601491691647247,0.0145340768360714,1
0.0645714578817082,0.0136303656863867,1
0.0611386965339557,0.0214256939892172,1
0.0316887685521128,0.0121220146063264,1
0.00589006627712568,0.00301456967004007,1
0.00272685690424735,0.0169577539277856,1
0.00377530947260034,0.0204410365787166,1
0.00420712302523532,0.0196999669326754,1
0.00399425418278401,0.0103000050683188,1
0.00552057931347462,0.0154358908117297,1
0.00691149325186495,0.0191939264667204,1
0.00774545643188763,0.0214493793385346,1
0.00779814355799332,0.0210883057653036,1
0.00751456515856988,0.0224500175417323,1
0.00721980476120108,0.0372079760714352,1
0.00547487437755217,0.0324846189868513,1
0.00331378940281054,0.0202523459317192,1
0.00195686260275373,0.013387909149988,1
0.00294050671929165,0.0533326421847339,1
0.00419690735387073,0.109588483784896,1
0.00498347126706586,0.0896635757824544,1
0.00414059812904609,0.0293857930388571,1
0.00366013907845954,0.0283599617786111,1
0.00353825476242617,0.0217803864357872,1
0.00355729937292519,0.018069833965861,1
0.00351740556851615,0.0176868307314415,1
0.00304140985965088,0.0135296796236824,1
0.00275607320090549,0.0110396383666198,1
0.00299849091399617,0.0132094679394035,1
0.00292394232485335,0.012025481237935,1
0.00279308934180374,0.00985879884961168,1
0.00301023283735852,0.0172451751590379,1
0.00205431973890027,0.0114777860926782,1
0.00146139751267787,0.0113325585643584,1
0.00146989967194418,0.0202882210080738,1
0.00115989723730526,0.0176678056475719,1
0.00104693606623924,0.0169765993396941,1
0.00202490644079561,0.0231920460684247,1
0.0051019972803499,0.0301952502757666,1
0.00933994984544802,0.0584103325004473,1
0.00979236880753895,0.0339597933574295,1
0.00800436678697263,0.0245089818882312,1
0.00700709937111809,0.0235871139901691,1
0.0063370215645187,0.021103343694981,1
0.00561440385714332,0.0151110319740495,1
0.00603328803154799,0.0135498858290082,1
0.00755539899673037,0.0164997094060562,1
0.00744088582673683,0.009124306990967,1
0.00832580667921829,0.0137993725569507,1
0.00770785114740432,0.00763851390666425,1
0.00983201667004324,0.0109160611619273,1
0.012023511301952,0.0144799337723937,1
0.0103479854129316,0.00801247064716811,1
0.00987974258226512,0.00636933599230769,1
0.0122591188648739,0.00971670035335246,1
0.0142603327438699,0.0137968288392726,1
0.0134541989948687,0.0119268258038918,1
0.0138526778509596,0.0162018400956027,1
0.0134219291258954,0.011724896257316,1
0.0138066825049952,0.0182847619894668,1
0.0111643665093477,0.0163961342597889,1
0.00610296636712546,0.00934851303450987,1
0.0041298274901854,0.00826105934770093,1
0.00464377919280108,0.0141374207948619,1
0.00416752494898675,0.0104013526646673,1
0.00383741401119103,0.00970634135774932,1
0.00335751798532234,0.00635355672884039,1
0.00383922839091152,0.00611037791265295,1
0.0075736691213963,0.0118678551192531,1
0.029058291084844,0.0099860086134179,1
0.0746129577345734,0.0388444045715896,1
0.091358582940003,0.02718723855741,1
0.093606419442919,0.0297877622810774,1
0.104331968145607,0.031974658560609,1
0.103786677598025,0.0321345908411602,1
0.0778943978093374,0.0199012948429017,1
0.0512882233030648,0.0145588514962793,1
0.0319733428836977,0.00956103602375831,1
0.0183659036688675,0.00472159014931592,1
0.0170601966883342,0.0103497681979406,1
0.0193006455566949,0.00890934054507621,1
0.0398447605340645,0.0227813698620036,1
0.0537068967036914,0.0232567116427899,1
0.0587239648410474,0.0265363322816999,1
0.059896010800964,0.0222815522688238,1
0.0602878503131569,0.0196534565572419,1
0.0598371275101744,0.0201578756029425,1
0.0532435269878939,0.0157553827648894,1
0.0507612207539578,0.0170335118187291,1
0.0538488088588804,0.0129497418896816,1
0.05998623116935,0.0170759833991789,1
0.047576668979967,0.012059696945231,1
0.0328732107710204,0.00826195554789384,1
0.0275608324583142,0.00541588267796928,1
0.029977121948532,0.00707085274601067,1
0.0335160904514546,0.00985355862437337,1
0.0317119621526188,0.00878686413164873,1
0.0325108350587806,0.0120744072190613,1
0.0296355993400813,0.0106237668988193,1
0.0319185280336435,0.0146522073190484,1
0.0413223865283004,0.017776176923286,1
0.0436494629309218,0.0316417920128048,1
0.0347819896742675,0.0285800241946279,1
0.035438831482632,0.0388677738841538,1
0.0358909577144744,0.0346860591395086,1
0.0337658732779411,0.0390567851072998,1
0.0249870602545469,0.0372271585844613,1
0.0145273569507205,0.0257222558386501,1
0.00868141405837165,0.0180666319156487,1
0.00391644525452037,0.00719264711173096,1
0.00337713818263321,0.0121147563639694,1
0.00650507736851543,0.0333750941333693,1
0.00808872405772656,0.0302568480590735,1
0.00733951324741903,0.0178686076536092,1
0.00720985672311199,0.0185847721043824,1
0.00756348181333065,0.0142683852348747,1
0.00995606038180645,0.0165407299860995,1
0.0131368316229306,0.0209927157991415,1
0.013202246632154,0.019767334411809,1
0.0140079834203722,0.0126035515834859,1
0.0408868123582616,0.00967104664703836,1
0.100606201911099,0.0281809548411314,1
0.136050811702965,0.0314721532645717,1
0.134199491046052,0.032014740564829,1
0.110341118036958,0.0175668747883448,1
0.0985418631906428,0.0174611312497734,1
0.0906605216359648,0.0137488917007389,1
0.0841723266102424,0.0134600591258707,1
0.0717595905766731,0.0103304494126939,1
0.0689579254069075,0.0113394787050828,1
0.0687353108107128,0.0154636334094352,1
0.0610729209118968,0.00801201228554623,1
0.0690191156682818,0.0098241477557995,1
0.0693096613579781,0.00683587948967816,1
0.0708047433965177,0.00863381776690578,1
0.0619102923927742,0.00699230919177904,1
0.0560918822304858,0.00778542495466969,1
0.0559881462821655,0.0072488787007317,1
0.0603481176877899,0.0083871763880448,1
0.0633147546853517,0.00819448011368496,1
0.0717041300938996,0.0133444326860762,1
0.0612949338451025,0.0252105550022414,1
0.0277881754264771,0.0122430933167911,1
0.0173620111729429,0.0201017113538321,1
0.0225198269864288,0.0297053429692937,1
0.0330644754036136,0.0497995815933583,1
0.0358493938191297,0.118854587833051,1
0.0310718231645265,0.119271886417911,1
0.0291090249326025,0.114498270258291,1
0.025620292600583,0.0690442155148756,1
0.0213512131350991,0.0543164698578043,1
0.016049737232769,0.0432827218807946,1
0.0101900168583556,0.0301936568099121,1
0.0059374326645759,0.0200434732041182,1
0.00377395206899888,0.017121996373131,1
0.00345842745929075,0.0145340588476737,1
0.00796634408087756,0.00446726072162383,1
0.0315028387469736,0.0114669097237645,1
0.0619105452904962,0.0225447912268163,1
0.0783372263802803,0.0241576188319595,1
0.0869498379970931,0.0259407713583516,1
0.0920225582589278,0.0302723534917986,1
0.0936895172875742,0.035854652534775,1
0.0917738732872039,0.0385449017691029,1
0.0792364043871342,0.0349269564395191,1
0.0446408426612505,0.00620274317616547,1
0.0369962525836675,0.00673230916640121,1
0.0475058348447604,0.0119880946604444,1
0.0495932797625562,0.0116401358582658,1
0.05584886127007,0.0117095253127021,1
0.0751330507002767,0.0149495151684973,1
0.0894112084685443,0.0168093061891839,1
0.0905462963898488,0.0185829837024054,1
0.0740698618436723,0.0204894920136877,1
0.0339993075420366,0.00909801568615477,1
0.0131705970182396,0.0075512495961247,1
0.0125533420314137,0.0107075198179452,1
0.0121313426540714,0.011541142878264,1
0.00699871610590011,0.00732566611107689,1
0.00400268219629291,0.00938532418433881,1
0.00532181976665174,0.0150609616018202,1
0.00651154101385777,0.0230610923501222,1
0.00831246043861646,0.0224323067164289,1
0.0138011762511968,0.0297362444334308,1
0.0192595434929338,0.0343715906578754,1
0.0193936888038595,0.0495473076788426,1
0.0128686270237546,0.0376602286999118,1
0.00920705183716775,0.0386498562074478,1
0.00877174966920202,0.0352126711940151,1
0.00637312012932348,0.0134502616846062,1
0.00713247729989142,0.00889785916503028,1
0.0108173325093457,0.0140012266531536,1
0.0118724499486724,0.0110633783684444,1
0.0119856658328568,0.0100523641441525,1
0.0117827524229526,0.00915307668014694,1
0.0152769467877022,0.00212473738359112,1
0.047850487316461,0.00556694434507533,1
0.0890035924860544,0.0168044139105592,1
0.0844130781139943,0.00522953583719724,1
0.0840521627066275,0.00624684036619519,1
0.087703639948324,0.00629814509479427,1
0.0889597145837301,0.00512973980671959,1
0.0905261000865078,0.00661277077758755,1
0.079539014918742,0.00499070199722885,1
0.0707621416894949,0.00376094259564014,1
0.0791935307362036,0.00740996959443208,1
0.0695276638764261,0.00999069874562363,1
0.0370954213135262,0,1
0.050958678367621,0.00937051868140071,1
0.0641898377634561,0.0124704544388223,1
0.064966490812563,0.0119277121398948,1
0.0646965906930292,0.011885261292641,1
0.0653838206272779,0.0129550045318288,1
0.0659905624760246,0.0113052904927994,1
0.0705063732906963,0.0139736031958496,1
0.0599007489036057,0.0117203738759843,1
0.0378568701952124,0.00460219667323568,1
0.0359536114413896,0.00793044872156872,1
0.0382565352718939,0.0104402787606699,1
0.0373903962521006,0.00453406295559513,1
0.0588000629915134,0.0113762402634438,1
0.0620988629511426,0.00713168632410161,1
0.062278800359958,0.00356901619572397,1
0.0892727465257441,0.00850698596862108,1
0.100296155874398,0.0101943379698549,1
0.0949184285428169,0.00935457851379935,1
0.096880390381867,0.0105268340625586,1
0.106116416893492,0.0114511616162141,1
0.117385383393875,0.0117540217662825,1
0.111035447757659,0.0178498894152807,1
0.0521083920754676,0.00609237698812757,1
0.00962503025583255,0.000197687751714433,1
0.00938053626676098,0.0231481236404645,1
0.00963182508666079,0.021136720229468,1
0.0139292068442694,0.0210041444670988,1
0.0344341017064131,0.0171455227958518,1
0.0718017913441961,0.0384579160050756,1
0.0971566322766615,0.0673454739032502,1
0.119758138584736,0.068882472630216,1
0.144540715900297,0.0606953552213671,1
0.12613358233805,0.0204142592477842,1
0.106357340970351,0.0203368714330266,1
0.0876997920958461,0.015394888076122,1
0.0666909323755392,0.011505843580283,1
0.0520464828958221,0.00962651919359562,1
0.0568317004968894,0.0127799359510523,1
0.0693899285756026,0.0150137376486211,1
0.0706537574729001,0.0136907540211494,1
0.0704497589699035,0.0163367485787396,1
0.067537015262783,0.0155239173179221,1
0.0651996738838721,0.0226216380544149,1
0.0474258156112281,0.0183020308479379,1
0.0341997227510768,0.0103947338425271,1
0.0357031481139817,0.0134215627933852,1
0.0389809384866115,0.0096784623371181,1
0.051932361302857,0.013284602371237,1
0.0470541904031883,0.00898179903234974,1
0.0436012860090552,0.00629894991295412,1
0.048436349666133,0.00738723168756568,1
0.0474088372311971,0.00591372623336605,1
0.0461330351545586,0.00786754989797659,1
0.0417233659817705,0.00615565003957691,1
0.0425177399666852,0.0101129325298138,1
0.0373177311339285,0.00649434149657124,1
0.0464071205709578,0.0131177741736246,1
0.0469264705257012,0.0134165606653864,1
0.0523875403636732,0.019186484742959,1
0.0543826542390245,0.0318362223151551,1
0.0498289698849196,0.0310838135370238,1
0.0470754662499094,0.018576688838653,1
0.0623158095236939,0.0128948091374782,1
0.0749910311923066,0.0140085841862054,1
0.064332033839259,0.00903801660868034,1
0.0662968464267823,0.0110154761873091,1
0.0759414730577856,0.0116953346709492,1
0.0912037337341064,0.0136968675851496,1
0.103968358278203,0.0154763854593262,1
0.122776643364352,0.0175075860981284,1
0.14277985609041,0.0181825984085589,1
0.15738581445764,0.0259324067211031,1
0.122611728213526,0.0584734373273928,1
0.0546401343201173,0.0383234831516079,1
0.0298137977636189,0.0828772520332096,1
0.0190088682684381,0.0378951275967395,1
0.0128086064496309,0.0230677172431233,1
0.0111426432811064,0.0205448197489066,1
0.00805691235699322,0.0122457884167903,1
0.00714736160484022,0.0122570768022372,1
0.00704532495708573,0.011272160571078,1
0.00933971253387956,0.00595379385454493,1
0.0213747855360218,0.0179733245902503,1
0.0260157317084787,0.0151387429638546,1
0.0210143483703111,0.0135706926467156,1
0.0172677933867985,0.00780758743821717,1
0.030104453980105,0.010361447489589,1
0.0589194086503472,0.0191784582867266,1
0.0977896034004071,0.0331240631433621,1
0.111639821151412,0.027889636567519,1
0.092153649539687,0.00904864540657346,1
0.101073854427938,0.0106169142349238,1
0.125937641001843,0.0122895688751342,1
0.142424752850858,0.0143815264628003,1
0.143999137055275,0.0121990528011865,1
0.140969303931265,0.0121347545089524,1
0.139202281180794,0.0151284340814369,1
0.133320426073908,0.0121674582107552,1
0.108007126626622,0.0119191536796227,1
0.0601753483514355,0.00486967899508006,1
0.0464264878390626,0.00902871463430171,1
0.0516253713353082,0.0110849603497718,1
0.0617413385754199,0.0129612032093292,1
0.0718907646991621,0.0148143954206845,1
0.075198794346921,0.0181973754571576,1
0.0530960674107138,0.0219310115997811,1
0.0144131995178199,0.00414385385367262,1
0.00435065877170788,0.0179372452221468,1
0.00422890060863982,0.015769741963556,1
0.00372770731682857,0.0144207852953772,1
0.00385443733748832,0.00484055520806162,1
0.00758764283381749,0.0197363169245109,1
0.0078378930885591,0.0185695271524992,1
0.0064826582170223,0.0160245050441498,1
0.00839552853254469,0.0136916409068292,1
0.0166369956019012,0.0176792594760052,1
0.0385504975976859,0.0186656796031188,1
0.0909562323191113,0.0319800374543299,1
0.135710781833187,0.0450844244595726,1
0.134260547907817,0.0228224730935736,1
0.120842195323906,0.0159352855401109,1
0.112693683820529,0.0157315186787525,1
0.096395923525421,0.014758671660888,1
0.0738406425012333,0.0120949288117034,1
0.0689669609575624,0.0103695296904943,1
0.0849825073834258,0.0150198805132527,1
0.096761402935618,0.0212948240429109,1
0.0767844823206432,0.0168358982056627,1
0.0441337602153743,0.0105979214194012,1
0.0269884995772651,0.00673023319267328,1
0.0250658062602729,0.00765197901033469,1
0.0277485457659619,0.00788103491575405,1
0.028355930934692,0.00793115904722565,1
0.0266426049657525,0.00652223345821317,1
0.0261634537331551,0.00885634194928836,1
0.023338222574519,0.0064989312641992,1
0.0268907488938882,0.00841611706599472,1
0.0320448574515215,0.0284117521687825,1
0.0218004710029342,0.0160614685779086,1
0.0164849415331589,0.0275151274889098,1
0.0181480282500377,0.0382642625972986,1
0.0180310590548592,0.0235582970538196,1
0.0170635984202505,0.0207398975721201,1
0.0150256963029738,0.0192046346888953,1
0.0123760357001176,0.0174620347983703,1
0.0113458694856036,0.022632690619607,1
0.012180891172395,0.0363874644474928,1
0.01272445108168,0.0432901565663168,1
0.01599536106346,0.0278931535270311,1
0.030732522184892,0.0291270116058835,1
0.0430921440115763,0.0322809587165761,1
0.0393222538447912,0.00881198183683847,1
0.042756709515978,0.00799497909026996,1
0.0529726551217382,0.0106448327981549,1
0.0558245569133211,0.00852658552508988,1
0.0547684027509138,0.00689904791132198,1
0.0545423664214262,0.0079254703319096,1
0.0549542188291069,0.0056913622535595,1
0.0635109969531072,0.00885727121579691,1
0.0576562358192281,0.0107892770481207,1
0.033611469817467,0.00300606470514619,1
0.0294931899888342,0.00463055521677312,1
0.039941983775451,0.0107043556945085,1
0.0480773079088806,0.0120696880699869,1
0.0665509942471508,0.0189653165480121,1
0.0814348494536656,0.0218966450862735,1
0.0830437867277949,0.0196364770581917,1
0.0803138865833026,0.0314676705906054,1
0.0619649405609544,0.0299677602666557,1
0.0353568055718475,0.0144152369910353,1
0.0233807037610008,0.00958999939209267,1
0.0314672672495535,0.0164685780177048,1
0.0430485009906869,0.0221706667078713,1
0.0433249299476067,0.0183611925581047,1
0.0328747818625592,0.0164374291507129,1
0.0231226585036095,0.0129904586097027,1
0.0224713383468268,0.013537758274998,1
0.020357159457858,0.0132427098118035,1
0.0146362883246585,0.00787710007381013,1
0.0311413556248485,0.00642294514506993,1
0.0920172374573044,0.0278508338401056,1
0.114007207178109,0.0214191232402337,1
0.0998177501005039,0.0172849271330919,1
0.0907891494362477,0.0176050282675366,1
0.0886293808618051,0.0167871909293961,1
0.0788866026580861,0.0176936415913333,1
0.0581926198475001,0.0117886730151622,1
0.053101818524223,0.00809296531832837,1
0.0651546113725083,0.0107033683772156,1
0.0772852329476561,0.0207646952014207,1
0.0530423253035076,0.00988005035450818,1
0.0406556969309962,0.0118078309840474,1
0.0424877519174272,0.0119143848970206,1
0.0441910548204362,0.00911928681956806,1
0.0457004006735365,0.00935834936739733,1
0.0528691099725273,0.00281016870599192,1
0.101230242155499,0.0101296589567812,1
0.130841632356953,0.0154323975170968,1
0.111648476222329,0.0120955774104191,1
0.0885151123919682,0.00835720574701283,1
0.0929335881577607,0.0100610854937172,1
0.100937538147998,0.0101042326588951,1
0.101450344887865,0.00926348286173515,1
0.0910566510869832,0.0105906165256297,1
0.0690573328544397,0.00850003420586498,1
0.0761290774389886,0.0143417501428898,1
0.0909563972736373,0.0180591413352516,1
0.085705907541005,0.0129690852202352,1
0.0851784371250022,0.0138577426505836,1
0.0823176930733744,0.015108525042273,1
0.0657535977368259,0.0142863518621332,1
0.0423273339439585,0.00934970832285151,1
0.0381733639751953,0.00945020407682681,1
0.0398069763764834,0.00977697012990134,1
0.0375981974105046,0.00894780110801968,1
0.0332757695808316,0.0155182609000674,1
0.0132667178663727,0.00555339140888754,1
0.00980620595914974,0.0105385244328244,1
0.0133553416049381,0.0128379156872867,1
0.0236791721666352,0.0284323269835188,1
0.0209278798865364,0.0143839107671371,1
0.0197234550853099,0.0148965463073225,1
0.0196158318217882,0.011256880503689,1
0.0252762486110805,0.0128392284767374,1
0.043723439040558,0.0165315680587052,1
0.0707601312421737,0.0255094303456213,1
0.0779772987011061,0.0198911107749438,1
0.0735981458258753,0.0193804012099067,1
0.077644663182636,0.0187308740931308,1
0.0971036114009961,0.0196470433462236,1
0.115760300279807,0.0360070340596377,1
0.094477268770367,0.027976353899481,1
0.0612411611792593,0.0139140954186637,1
0.0421531160916007,0.0076975869633774,1
0.0383642384427349,0.0109862617069549,1
0.0387969767401975,0.0105468192975073,1
0.0388542120439153,0.0124581463389928,1
0.0337339892713935,0.0106728145571618,1
0.0302374189445971,0.0108946079926511,1
0.0297757124935891,0.0158918304749814,1
0.0237023188533952,0.0160655718440783,1
0.0126223415704718,0.00772405027180331,1
0.0105134109350457,0.0135147241566293,1
0.0117806600426671,0.0252226999828293,1
0.0102327555136014,0.0238509494307021,1
0.0113253327538376,0.0251094524717343,1
0.00986443417897375,0.0307260462640505,1
0.00418891208611672,0.0160583480410274,1
0.00307656642695986,0.02382870152833,1
0.00289693334942627,0.0190121178029372,1
0.00336278210570605,0.00964227473609041,1
0.00824803888446179,0.018100511149198,1
0.0151082281132595,0.0279448041917178,1
0.0184984836407447,0.0298252670756613,1
0.0179581902014117,0.0225654137675669,1
0.0172146377219616,0.0215693912012849,1
0.0165343051788255,0.0202638238272621,1
0.0146436262076438,0.0199301670149371,1
0.00995813587389047,0.0141705715983527,1
0.00499309827457533,0.00818002794777404,1
0.00390623789278272,0.0219891559769737,1
0.00410804802681586,0.0469733892865292,1
0.00293784025595288,0.0361069045867264,1
0.001438159417887,0.0230820749968852,1
0.00257387087711861,0.0116662112223324,1
0.00757012598227657,0.02704838739075,1
0.00856401841102551,0.0159272301432074,1
0.00759242320872465,0.0160121322946308,1
0.0121945949857639,0.0061677420567479,1
0.0363330368074417,0.016567465956059,1
0.0566341847606621,0.0262299038938268,1
0.0718888699297242,0.0302687084246231,1
0.095930104563092,0.0447645263938694,1
0.0883800578690059,0.0188912994140487,1
0.0792111085508007,0.0167186258350531,1
0.0764587953290821,0.0147843447661325,1
0.0651230807076057,0.0138877977302589,1
0.0432996233768489,0.0084636597148147,1
0.0395894107628728,0.00960856489790242,1
0.045931425233868,0.0122274079547272,1
0.0446030020913774,0.00863205333692251,1
0.0421173072436574,0.00872036368117775,1
0.025455430319839,0.00350856287755466,1
0.0188189905793911,0.00515221010206636,1
0.0164657284061791,0.00554758728732477,1
0.0152307307979832,0.00430709283420902,1
0.0241227708231297,0.00802968768669105,1
0.038600118217445,0.0128721676352117,1
0.0561588271918709,0.0191910455106853,1
0.076021203638507,0.0288308422453967,1
0.0770195370366995,0.0431359277310306,1
0.0601035782246958,0.0306656173493776,1
0.052827877567369,0.0288703440971538,1
0.0434250947627776,0.0282427487521283,1
0.0227324539382654,0.0151223209623913,1
0.00788574332287485,0.00499173718994808,1
0.0108661047579239,0.0191082153279821,1
0.0159055985372683,0.0252729661322803,1
0.0153375609910727,0.0132371476099323,1
0.0133293775080006,0.0116358190926962,1
0.0113989464795331,0.00779374421949584,1
0.0145639021803855,0.0039388181758024,1
0.0327302356885035,0.00716990805969339,1
0.0578053791657839,0.0175701495144929,1
0.0617874877519388,0.0115587497095693,1
0.0591127883973022,0.0114456775599951,1
0.0587386759117263,0.0116371064520403,1
0.0635095534814722,0.00857362672946945,1
0.109005069024636,0.00769910414833809,1
0.192917256654598,0.0230376756962378,1
0.197695353229824,0.00972278351212227,1
0.178098127783367,0.00636633130602372,1
0.185489493738968,0.00830314625785687,1
0.186366480853996,0.00767049425415977,1
0.183722756910743,0.00863339308309079,1
0.168456451463743,0.00825470538449149,1
0.150309727880632,0.00644406751571355,1
0.147876447131315,0.0069183003718381,1
0.1433366923961,0.00916128223822661,1
0.0985805793220855,0.00535920503684169,1
0.0688810172759292,0.00547363585138421,1
0.0649868387126994,0.0103039240359665,1
0.0591276088464073,0.00770031505519388,1
0.0752899262155327,0.011363194324854,1
0.0850429302071016,0.011565514250833,1
0.0894985319111151,0.0125071891244734,1
0.0775749399824371,0.0229244285143232,1
0.0325288386947992,0.00710400295397126,1
0.0201502201708437,0.00433799738067154,1
0.0391357228318462,0.0135294664006682,1
0.0420691143119381,0.0085819065275013,1
0.0422165901497753,0.00851656217815124,1
0.0420541974728681,0.00900181487957736,1
0.039680092565291,0.00794380226587559,1
0.0384404444673348,0.0078630588369523,1
0.0380242060627791,0.00777103672317533,1
0.0381513096980763,0.00740062023491412,1
0.0418275461141229,0.00871239802421785,1
0.0517288128740583,0.0172101171660923,1
0.0660055418112588,0.0165782012434249,1
0.0810370755177639,0.0409813883128631,1
0.0612858800700462,0.0228077796902299,1
0.0414568721518542,0.0183758244198564,1
0.0391097808483777,0.0148846219797149,1
0.0349989072927957,0.0113886860025835,1
0.0212498131786236,0.00751081496862313,1
0.0260470615634447,0.00602454526782444,1
0.0521648261287974,0.0131840243122675,1
0.0565301345251963,0.00688783224805623,1
0.0652275484666059,0.00667904156920969,1
0.0788321887662086,0.0083456048512405,1
0.0781184771288299,0.00950803856599773,1
0.0832911282806587,0.0092603666341926,1
0.115280438105583,0.0156231148984676,1
0.131395074185909,0.0151038202796732,1
0.1338087412108,0.0132622398864291,1
0.114340094944344,0.0185292556639158,1
0.0547961474191512,0.00889116739782046,1
0.0203396621279638,0.00613710505563666,1
0.0178806383849161,0.00686489754789287,1
0.0269211216262579,0.00912704802764991,1
0.0312836720210824,0.00905371191622042,1
0.0327807529267213,0.0135109295008678,1
0.0428908000533776,0.0142998363119651,1
0.0581893192734987,0.0192994254587765,1
0.0735448653965684,0.0236622099809946,1
0.091488021497758,0.0275995634716371,1
0.090327146600719,0.0255617280661471,1
0.0651100414637485,0.0230165962422344,1
0.0382024845985485,0.0174714102145522,1
0.0360987369733934,0.0108991583314943,1
0.0604769907805545,0.0147972205270552,1
0.0832414163659975,0.017725268084867,1
0.0860661862341469,0.0171403503016433,1
0.0800391721945273,0.0159019751620487,1
0.0730439282362539,0.0138040774172648,1
0.0614495632930639,0.00873752761025106,1
0.0766771321856795,0.00995391663398203,1
0.0995898226243666,0.0127005829509086,1
0.0869539496386035,0.00878187728470525,1
0.0785873040048169,0.0119320879675701,1
0.0816393429050869,0.0140058412035816,1
0.09192376319867,0.0167449320790157,1
0.103153547467017,0.0316724290615183,1
0.0855871849078172,0.0317549638377243,1
0.0584162671704489,0.0242472994906762,1
0.043275248752204,0.0263938963510963,1
0.0419281578118735,0.0342009807331876,1
0.0416874048347797,0.0325950731435207,1
0.0366563813396088,0.0291014143277724,1
0.0355641960179218,0.0192358951573843,1
0.0480778163612495,0.0276440547254923,1
0.0582269117242723,0.0289542262776611,1
0.0579836086228859,0.020957142736176,1
0.0556559459673325,0.0176880405588655,1
0.0526984966124261,0.0170012939884285,1
0.0513374479086938,0.0165307645428841,1
0.0565312675101716,0.0195574091246183,1
0.0626826011457579,0.0211556717986397,1
0.0650806893240072,0.0307017483020812,1
0.0601354463974873,0.0435443201284973,1
0.0455985866994506,0.0360380061978985,1
0.0271573259817626,0.0227375215012867,1
0.0186028740500958,0.028420316168095,1
0.0190302944712738,0.0392476733620856,1
0.0198384962794799,0.0344713127428072,1
0.0177881500678938,0.0201451085481498,1
0.0164543807573255,0.0185201795831386,1
0.0138325949015598,0.0163420659001194,1
0.00812636172371398,0.0082063259577176,1
0.0057475784700225,0.0111230830255603,1
0.00576301302681281,0.0132032655846716,1
0.00597680323303626,0.0137708016049743,1
0.00565219131520237,0.0128321550805321,1
0.00428912028296187,0.0101265107487859,1
0.00284098884742595,0.00656720317510363,1
0.00272542668415132,0.0120541531563536,1
0.00209375042408565,0.0111181833454777,1
0.0025652086449386,0.0130098742042879,1
0.00467701568771942,0.0382684820456599,1
0.00651463976776829,0.0354128854115126,1
0.015696099896363,0.0348976051168302,1
0.0302816429878147,0.0566775985807376,1
0.0402674726140003,0.0825392409383523,1
0.0477274294593288,0.109696652030083,1
0.0492771912764628,0.0849280390096769,1
0.0436049013584702,0.0707896180401716,1
0.0329087660019135,0.0592529837392196,1
0.0360114054437177,0.0267307509162228,1
0.0558127952436554,0.0395392765254378,1
0.0496735228378648,0.0166594138726991,1
0.0415526211975445,0.0147568132907431,1
0.0385114633652714,0.0123166009851621,1
0.0388424684257561,0.011957201339351,1
0.0387516945456063,0.0094780991429516,1
0.0393347132077466,0.00698591493671299,1
0.0453201331183628,0.00833138094961783,1
0.05455772416166,0.00982539358402445,1
0.0610754199692309,0.0180082686738255,1
0.0466162639022047,0.0134649537910424,1
0.0461010148876321,0.017811121104095,1
0.0538071957664032,0.0189617897053303,1
0.0525810510555566,0.0248922956202354,1
0.0379305429746496,0.0224358513761862,1
0.0239279458590484,0.0175609802976434,1
0.0258079458555409,0.0264878935372721,1
0.0295589262693026,0.0277503261871231,1
0.0326335351409014,0.0298934265054605,1
0.0305055253261385,0.0343852183095847,1
0.0219372572079664,0.0269110480739113,1
0.0179018084450489,0.0206678133622977,1
0.0167108993491588,0.0151498582821515,1
0.0122316983110418,0.010230736700704,1
0.00998688320384922,0.0104428458544961,1
0.0108954876436051,0.0116692276744913,1
0.0122204790446437,0.0132300194229503,1
0.0127949495681512,0.00670019716414132,1
0.0223101836020892,0.00603377545661919,1
0.0463130991912667,0.0142801570001062,1
0.071043933371312,0.0214551357660771,1
0.081657366886671,0.0191358913522528,1
0.0821954549220918,0.0179070274865118,1
0.0837218949190202,0.0167148023759511,1
0.0919905868043892,0.0220633911300344,1
0.079955745978197,0.0180457673482901,1
0.0469630709125695,0.00817654413091914,1
0.0240599220558442,0.00463627999211685,1
0.0217873849493881,0.00354865259328055,1
0.0341014420205467,0.00815162381322549,1
0.0357284842220161,0.0065595866653772,1
0.0362560838134429,0.00705029204190704,1
0.0317564854053741,0.00654991714901814,1
0.0299035690690286,0.00760165115673924,1
0.0300107916326486,0.00903362025271249,1
0.0278782723313738,0.00975813825187111,1
0.030656800050915,0.0101935762037359,1
0.0380631811816858,0.0141030176193235,1
0.0371354702526723,0.025154588928639,1
0.0174362363536678,0.0123041323808587,1
0.0134628973108513,0.00376963904605529,1
0.0465583616847554,0.012238133242196,1
0.0856878267783931,0.0216112579621945,1
0.0971359623283204,0.0168728336642876,1
0.0951187557478276,0.0137464912688299,1
0.0969353391950393,0.0132673972645537,1
0.0909756063226458,0.0148611057787792,1
0.0729409995240065,0.0120623190552266,1
0.0603966264995289,0.0100992051405879,1
0.0488170949896364,0.00882096276575695,1
0.04870907371142,0.0119188775023947,1
0.0572846124372571,0.0178056139760073,1
0.0667536076865663,0.0192964533083879,1
0.0906515577582435,0.0380825982992851,1
0.132589186501573,0.066915852625957,1
0.190436028966695,0.106560099705544,1
0.205257036500925,0.0440572250857982,1
0.175247841850291,0.0091517935501869,1
0.197621182069145,0.00867718392187611,1
0.246274406441189,0.0111247591447097,1
0.270426673348122,0.010638890975264,1
0.272798495074704,0.0100477819833681,1
0.272461201773404,0.0102233280399177,1
0.270989859641046,0.0100958767500089,1
0.252718248027882,0.0113098390002076,1
0.173216099135123,0.00798950643107452,1
0.0806149592528077,0.00118696047020675,1
0.0625525413457357,0.0091700962974944,1
0.0540758359539607,0.00952500596088688,1
0.0793519735841356,0.00554599768068222,1
0.149119548704251,0.0150041049583599,1
0.172963669690855,0.01527469181133,1
0.186946577279365,0.0162730772588183,1
0.214169736297094,0.020939449630139,1
0.209250579949129,0.0160766600599162,1
0.197916631209825,0.0105998601894785,1
0.21517880591846,0.0114475491238494,1
0.22264251793447,0.0115143761286191,1
0.237727876798026,0.0155478853105796,1
0.257205308098988,0.0355083938186829,1
0.211417433922395,0.0230367742947615,1
0.186442754343354,0.0168997204942722,1
0.176197687172924,0.017688403789354,1
0.120200072637572,0.0125219698679223,1
0.0900074335932438,0.0100625980179645,1
0.132224397232788,0.0300550430513433,1
0.150246471523264,0.0283450102195811,1
0.125394787409781,0.0161686527860712,1
0.125216921746994,0.0143562853355265,1
0.119190151521178,0.0126347271470093,1
0.101101142311628,0.0105055358714611,1
0.0999379788893274,0.0127665175012131,1
0.0962830978847333,0.0119998256859941,1
0.0983236097761047,0.0115600700831017,1
0.104722149056369,0.0146016536110615,1
0.100278434524496,0.0150229098633669,1
0.0922216880713502,0.0133881050578673,1
0.104470282996484,0.0181155199960939,1
0.115757601098246,0.0192089168119933,1
0.12975374219509,0.0260120019565249,1
0.130800134432747,0.052663158590585,1
0.102528400148394,0.0429206122470883,1
0.070485190011042,0.0320116568210974,1
0.0456505682932979,0.0247551834296897,1
0.0286187669769701,0.019057020633066,1
0.0237138261434589,0.0297186407079411,1
0.0242302881533158,0.0281900829451226,1
0.0223439813997137,0.0347114536604337,1
0.0158879121404153,0.028030633204247,1
0.0110101485421378,0.0249695709551041,1
0.00835274113374876,0.0180699778362911,1
0.00456210164332846,0.0109371145969224,1
0.00218176833791142,0.00375480670167882,1
0.00952217664773522,0.00847000375951854,1
0.0194857180753605,0.013783302308888,1
0.0203600885234446,0.00484956839619698,1
0.0284654354268871,0.00793063999518791,1
0.0367521660870253,0.0102467635878954,1
0.0412092364215476,0.0110935047565451,1
0.0433784803853592,0.0115605264667814,1
0.0463667864998664,0.012276755737798,1
0.0505574873991395,0.0128340377701987,1
0.0537446093788435,0.014779675396282,1
0.0415895986083879,0.0246464188349271,1
0.0130082540560821,0.0062441559514274,1
0.00475163454742629,0.0298710332118547,1
0.00531810597014294,0.0512157222435187,1
0.00554097686699383,0.0449853528270859,1
0.00491096831415568,0.0393420836107396,1
0.00339929310111689,0.0320550791222778,1
0.00304331971043197,0.0316699204329151,1
0.00553194172829834,0.033194341040886,1
0.00882303146567141,0.0401756739870672,1
0.0090212064516909,0.0213028904624449,1
0.00845854183812782,0.0210030859814321,1
0.00714077012774459,0.0135946674673195,1
0.00659012117230115,0.00945759990003234,1
0.00864391999225763,0.0104916851176109,1
0.0183709931953018,0.0151435882714664,1
0.0318077441081031,0.0253720643956885,1
0.0356756018538294,0.020645506575752,1
0.0366696839359923,0.0221568843107358,1
0.0370056780229576,0.0222758761962236,1
0.0334500013565638,0.0221038549806349,1
0.0250333405307459,0.0168835187805343,1
0.0187736353676618,0.0150448083682852,1
0.0165265636503221,0.0153037474648816,1
0.0166479585756475,0.0191298249065791,1
0.0161316258756884,0.0383543747921535,1
0.00898653622274811,0.0172361811279699,1
0.0053624060556254,0.0149337298666188,1
0.00391521317836451,0.0116205683483824,1
0.00314623295659163,0.00680831365617483,1
0.00794913993854954,0.0156392325495787,1
0.0145945881748048,0.0274151446925317,1
0.0170052097283604,0.0312176650239088,1
0.0227870685349551,0.0350203819125186,1
0.0298148343687681,0.0501683292841423,1
0.0276344049181632,0.0484803001493237,1
0.0224889165845895,0.0384026695380247,1
0.0184457087587457,0.0249501657230779,1
0.0147227215843024,0.0169211334061689,1
0.017663315434611,0.0172444067812357,1
0.0318215778786584,0.0467790820676843,1
0.0441437341177909,0.0531828290167348,1
0.0504251455446063,0.0485844881534665,1
0.0483743760473903,0.0663701675279013,1
0.0380970364204337,0.0559774961875223,1
0.0270655718046985,0.04341318540556,1
0.0150219057299305,0.0274244757171816,1
0.00564508380290979,0.0154782079044359,1
0.00226526427463717,0.00833202264437154,1
0.00310218347477226,0.0278254466191634,1
0.0049658382237596,0.0663738034065498,1
0.00593895899768483,0.0731833246314313,1
0.00937420294520621,0.0471284173555826,1
0.0205951603646324,0.0554846093448786,1
0.0288820441557412,0.045256658801563,1
0.0269955626881237,0.0447671579112487,1
0.0333091932888913,0.0144396471756522,1
0.0686475810155381,0.0267149446713384,1
0.0920082525120214,0.0249650502293662,1
0.0835069331770651,0.0163962518551956,1
0.0760277416478599,0.0111278926504444,1
0.0829180738509375,0.0119955574325497,1
0.0919969426102833,0.0137578531588327,1
0.10066989999355,0.0153808370069388,1
0.106155736871522,0.0157481677217276,1
0.105500611123854,0.0131114276091931,1
0.105410571043743,0.0198174173834871,1
0.0817811049400241,0.0197276700547823,1
0.051861114648996,0.0125802801376311,1
0.0545291014819752,0.0185578083071108,1
0.0647210720407763,0.0434088230536846,1
0.0524492009839776,0.0246088652849671,1
0.0381655325728362,0.0188325552890373,1
0.0366011190733486,0.0117617310844415,1
0.0348787450199424,0.0107247355639469,1
0.0274645909679733,0.00685099194289787,1
0.0275924254230065,0.00784449239326534,1
0.0295860417453099,0.00794800245241467,1
0.0317676266065305,0.00843765182609608,1
0.0335094719819457,0.00623495173136504,1
0.0401293874427701,0.00865557958760629,1
0.0364281950857225,0.00775810578967712,1
0.0304547898668289,0.00742433172566341,1
0.0267815627369269,0.0126306497054332,1
0.0183120995414917,0.00819058196905033,1
0.0193166443100462,0.0132824895181649,1
0.0219521314188423,0.014361776561487,1
0.0253068490673569,0.0164037284219997,1
0.0330149226520334,0.0211566781912907,1
0.0424600130011464,0.069509937022622,1
0.0310188114693659,0.0315015463404862,1
0.0294418567956253,0.0122889637603399,1
0.0567668920637512,0.0166979371119928,1
0.0923758711228652,0.0250361094495494,1
0.158984100367966,0.030100032324971,1
0.270506300041431,0.046226957173808,1
0.348352702631286,0.0467957467232333,1
0.352402812704774,0.0439740798866576,1
0.301881474863757,0.039323673110777,1
0.20917089415512,0.0321231500693875,1
0.109085897429704,0.0173550302625305,1
0.0844463603262687,0.0113135505290211,1
0.133016771323373,0.0207772142696113,1
0.155561986601674,0.018992024082714,1
0.158700335592127,0.0281510146254832,1
0.136626023512219,0.0278263779334155,1
0.0982491089497071,0.0206120714046001,1
0.0690973300985491,0.0127261776686202,1
0.0549779316249442,0.0110649341185992,1
0.0392749091209632,0.00771958073870434,1
0.0207797127663944,0.00315889498966274,1
0.0201320526198029,0.00993688704068603,1
0.0166573272584566,0.0074581356268618,1
0.018338923285665,0.0177859300882126,1
0.0193041309441208,0.0187607312038895,1
0.0193611349342284,0.0123822260203716,1
0.0387644785085669,0.00887902175207321,1
0.105940100155412,0.013807762111097,1
0.213950578744771,0.0293459903752377,1
0.254177103807539,0.0268161112910694,1
0.268679546661022,0.0282810310153716,1
0.316019650170507,0.0360199589836188,1
0.299765806680673,0.0260447857235934,1
0.238224002207814,0.0189139057032101,1
0.153716991210695,0.010352960816114,1
0.139375127489524,0.00956081838184134,1
0.199355929100499,0.0187140646223517,1
0.272860754590078,0.0351423717124863,1
0.304465496321052,0.0338863011270191,1
0.303173137911466,0.0266200024736599,1
0.281304578072996,0.0269000858401252,1
0.184298542552246,0.0170454986165366,1
0.103843687235498,0.0135485464998446,1
0.0721978414407319,0.00696447804217244,1
0.0757352304843235,0.00854292174595461,1
0.0946126159184535,0.0115610067895163,1
0.103162931910475,0.0110940323951252,1
0.102097280496034,0.0107322059976982,1
0.096981053507841,0.0101792461274111,1
0.102571526905695,0.0150973118494898,1
0.0943113971821211,0.0168335120570376,1
0.0587333830486355,0.0110583049398416,1
0.0278059105802209,0.00474962141827231,1
0.0250449610648239,0.00970494918662459,1
0.0252855316484879,0.0111715593075253,1
0.0250547214249831,0.0106719075395483,1
0.0315494785895671,0.0145707567052727,1
0.0337949813717515,0.0207260335209107,1
0.0256937569477671,0.0161599959970134,1
0.0278331754096591,0.0261532342450248,1
0.0306926250442521,0.0280721905660161,1
0.0255189518312557,0.0291004937365191,1
0.0201466115456523,0.0252816407644198,1
0.0197980215962881,0.0174110121936434,1
0.0163043031017599,0.0163586593658883,1
0.0103523605120926,0.00764015759413239,1
0.0108785159504438,0.0100730479290711,1
0.0125782427960009,0.0114525108198977,1
0.0146278858803818,0.0127839509328988,1
0.0217229387891965,0.0159045588176607,1
0.0302097907514805,0.0196562418282342,1
0.0329025341728572,0.0163177643191339,1
0.0325407911870538,0.0202561670706101,1
0.0248554567380091,0.0243505072202286,1
0.011860943380605,0.0130186891353541,1
0.00544609549267628,0.0116859346634687,1
0.00437863553585149,0.0100955906192163,1
0.00386592910489995,0.00743575590204877,1
0.00458342317271997,0.0120307408956737,1
0.00425748872055401,0.0186343101729855,1
0.00204290306923516,0.00775832469245275,1
0.00215730556942712,0.0196179272091597,1
0.00237968068006024,0.0187099577672943,1
0.00271523698330585,0.00830263692880594,1
0.00687113270224232,0.0101444859558976,1
0.0142742090860549,0.0198238488562635,1
0.0217142985216038,0.0286627722357648,1
0.0336807567190279,0.040603496019846,1
0.043172706890658,0.0411908547575835,1
0.0447149070241196,0.0472388066400294,1
0.0410173221812537,0.0528637551306406,1
0.0310237263303449,0.0462206969777652,1
0.0168341069983626,0.0291473374842957,1
0.0141227022733767,0.0116495711505906,1
0.035370813275723,0.0264211832000711,1
0.0476255595868328,0.0254815478457734,1
0.0503629164603324,0.0260923041737234,1
0.0508342754459256,0.0224240617763044,1
0.050559457581697,0.0154064173322476,1
0.053607210613642,0.0158286955894721,1
0.0543490234546559,0.0144013022495561,1
0.0509458044651688,0.0139880478398051,1
0.0476519632225865,0.0127026994528936,1
0.0483603675665551,0.0267508563568494,1
0.0358921091543776,0.0146674167243916,1
0.0370248753615395,0.0133123615348776,1
0.0443629487702505,0.0144028214709344,1
0.043501125609641,0.00698691504414089,1
0.050466942127115,0.0114214770735134,1
0.0497509479224107,0.0102514538327551,1
0.0462860491826542,0.00904107132698322,1
0.0462143978453721,0.00907770040510964,1
0.0452899327451161,0.00831093935342562,1
0.0491246622788157,0.00716657233031931,1
0.0657937789907189,0.0116361676210575,1
0.0675005990724673,0.0155406981417015,1
0.0477683349079886,0.00803912287528145,1
0.0431959781102942,0.0149698386962356,1
0.0438491589399361,0.0131948509379888,1
0.0460538340708219,0.0160559978575529,1
0.0427752507083375,0.0250258170899121,1
0.0258917810797989,0.0129197307137348,1
0.0107894659929054,0.00120758312442364,1
0.015928174498551,0.00574503364199783,1
0.028165815733433,0.0219660687215231,1
0.0259845355092621,0.0116233863885945,1
0.0235658643087762,0.0123194041819719,1
0.0230569669623603,0.0128131093652002,1
0.0229469703083364,0.0124537639040609,1
0.0216842306178556,0.0127498056612073,1
0.0184620846657433,0.0111792658088199,1
0.0179540140322223,0.0107692443488332,1
0.0203855642729133,0.0165669607072972,1
0.0199089185091686,0.0144864513511589,1
0.0195681765355255,0.0119328390523535,1
0.0210044396860859,0.0119958476485927,1
0.0306211976239876,0.00262900489576971,1
0.0717152433933437,0.0125892380623228,1
0.0851109277568074,0.00812462514845615,1
0.0797032003619084,0.0076610859367492,1
0.0777103084478224,0.00748306669431799,1
0.0810017232078326,0.00753880091716223,1
0.0985987942223113,0.00814463330910206,1
0.133001560887445,0.01208846096353,1
0.172780728187011,0.0169509192791133,1
0.19097538622986,0.0175451353817547,1
0.185519952800848,0.0178812736621233,1
0.185516602221804,0.016906160126165,1
0.188311501306651,0.020022006750598,1
0.16804095632362,0.0192859540521694,1
0.133475869654527,0.0104148582608796,1
0.124970647459305,0.0105435218311226,1
0.120904129269677,0.00986985213883194,1
0.119735377703303,0.0117967591055185,1
0.106773401437789,0.0129649205544559,1
0.0773996570826544,0.00748765838090637,1
0.0835117249443577,0.00746294021152593,1
0.126005930790862,0.0124241171214125,1
0.161004935805553,0.0249058650509986,1
0.131011741797306,0.0181708750937481,1
0.116866000506391,0.0202972337985892,1
0.123326042358091,0.0170396339929903,1
0.162262077351807,0.0177544649738115,1
0.251178767779076,0.0229613145219223,1
0.335028515862598,0.025955649469437,1
0.354346525711376,0.0203690540982474,1
0.351132328114873,0.0246702821446008,1
0.314768265702636,0.0247971046693295,1
0.229720029407052,0.0180370459399476,1
0.152914745417247,0.0110214613422972,1
0.130409716991111,0.00866152096106363,1
0.18374261552743,0.0156354042354976,1
0.226396616851114,0.0255075308226313,1
0.176802876406405,0.0233955498749578,1
0.0873450890311084,0.0124460001696981,1
0.0543386983002744,0.0122743201413758,1
0.0578782125907218,0.0144274316226063,1
0.057194510151274,0.0106901896862077,1
0.0594549997800147,0.00923386809944597,1
0.0662708640371392,0.0104473241130829,1
0.0732377598989508,0.0146806160019535,1
0.0733095184817552,0.0183395053363027,1
0.0695079867310625,0.0214411760643893,1
0.0710748694805928,0.0279235767603621,1
0.07034878380922,0.028459932118909,1
0.0542504317716103,0.0344519732835442,1
0.0263073567745302,0.0186409737188302,1
0.0282419588008158,0.017983090219106,1
0.0643816873458662,0.0536818637097731,1
0.0787449393509301,0.0400451330973315,1
0.0695241852479094,0.0197351660293632,1
0.0627301168754329,0.0178828187944153,1
0.0669677716098834,0.0102927400560584,1
0.0908813430203224,0.0138966577547782,1
0.0942713057978148,0.0121088863826526,1
0.0879650509114608,0.0112651137130235,1
0.0839971121709638,0.0107240540131788,1
0.0859321094557648,0.0132073424768136,1
0.0910741027101939,0.0140614912507089,1
0.104306733296343,0.0193750080271825,1
0.0848443229497209,0.0270047510867896,1
0.028933218261644,0.011265871714577,1
0.0194549581651767,0.0311289533816637,1
0.0234672976938879,0.02696392543387,1
0.0232527386139779,0.0157264939790089,1
0.0249444714740848,0.0167548641477489,1
0.0243756983540774,0.00853938204333558,1
0.034974957549323,0.00838692348843089,1
0.0652937558621527,0.0119665122227709,1
0.107593746639816,0.0179054982542381,1
0.13293725115199,0.0183522700287876,1
0.137997059986779,0.0159177847025742,1
0.138288781634901,0.0157510499970695,1
0.135882049295188,0.0160574085774193,1
0.107117219578014,0.0211213762959738,1
0.0500590590684553,0.00629364383403189,1
0.018038802504417,0.00201438533959718,1
0.0164593677736362,0.00971447806026992,1
0.0184164153360279,0.0223616359410615,1
0.0116100674571669,0.00499123913741955,1
0.011904838787469,0.00697955104598638,1
0.0177794507983212,0.014769199953657,1
0.0264463993559813,0.0199856264422653,1
0.0386826370953002,0.0268711741275312,1
0.0461672981354729,0.0235763295284217,1
0.0466020038011485,0.0201803366970657,1
0.0421392344425033,0.0219785890834045,1
0.0284573394003707,0.0186179791071194,1
0.0127750249653845,0.0099087560256015,1
0.00734298418478154,0.0140335800194532,1
0.0067304280625305,0.014520198807382,1
0.00690441229921481,0.0151401646494916,1
0.0079093882137129,0.0251775174177809,1
0.00670668448019782,0.0286430893982298,1
0.00467078335278548,0.0226720928656203,1
0.00406021419350088,0.018309664585948,1
0.00492329856091965,0.0188093696052932,1
0.00714769136607783,0.0225087499507779,1
0.00971313434868618,0.0283881038021822,1
0.0107902285847444,0.0256292128563867,1
0.0108257953697117,0.023858330962166,1
0.0107968388924408,0.0256135913106233,1
0.0108170325431261,0.0176586180357792,1
0.0151665509711537,0.0160424077770299,1
0.0219837667561218,0.0237167462326776,1
0.02556562770589,0.0333407340104091,1
0.0305525080059456,0.0386747124841072,1
0.0365653725801586,0.0520718732322086,1
0.0377749553741933,0.0548899838380373,1
0.0483126880349866,0.0382236393463884,1
0.0742128386658106,0.0539801132563521,1
0.0803574428280365,0.0350242778028041,1
0.0648848610285038,0.0214383191012703,1
0.0570131850737144,0.0217531118564119,1
0.0554991367738068,0.0195576591114604,1
0.0451416715589512,0.0155354800603684,1
0.0326483578056224,0.00819753051222893,1
0.0339368374785815,0.00879518364760002,1
0.0365355596947629,0.00989940685583542,1
0.04071476962653,0.016014537630542,1
0.0319586590130127,0.0109142253415585,1
0.0249555925772782,0.00958978007634597,1
0.0316152636557422,0.0135771513620538,1
0.0605364490855751,0.0136016143826754,1
0.115005823206073,0.0277010344241602,1
0.126059660377597,0.0126358925220524,1
0.132060952708767,0.0111315925058137,1
0.145654990470828,0.011864332222512,1
0.163500386398633,0.0131451143679282,1
0.168561761169599,0.0123442043613402,1
0.169730354064361,0.0136833918464399,1
0.182077625125821,0.0132080836017311,1
0.203177996186991,0.0167505557716556,1
0.180399151772316,0.0239247840544039,1
0.0843761016215215,0.00864704351220983,1
0.0348742600065945,0.00944297873147612,1
0.038188063927239,0.0199697734906747,1
0.0457405126285986,0.0221283747279442,1
0.0489006496593944,0.0219809740521686,1
0.0419197543051471,0.0284089576779807,1
0.0225905249951967,0.00845477947500935,1
0.0194463359683012,0.0213518204026429,1
0.0206196783100641,0.0196278294026719,1
0.0213214699434175,0.0188007485099897,1
0.0297317988457813,0.0244220380197524,1
0.033058473127201,0.021713197635625,1
0.02596440612638,0.0190337864082918,1
0.0228877975899107,0.00780526979936421,1
0.0379797389731124,0.0137499057857906,1
0.0395524280990132,0.0108722043801836,1
0.0384389009237142,0.0117541759742579,1
0.0397571951192341,0.0116451015173287,1
0.0364252975702504,0.0124903357549917,1
0.0284660885597224,0.00935086371993747,1
0.0277150002225063,0.00892583554992002,1
0.0278012852023752,0.0108009205641216,1
0.0162637795960413,0.00519069191441894,1
0.0149479465816026,0.016286233758175,1
0.0140101044136937,0.0195782684659799,1
0.0124439703288927,0.00313965509361402,1
0.0421422337354302,0.00862832786323555,1
0.0830868195428738,0.0163158647248493,1
0.101502614007505,0.01668658016164,1
0.108978738074639,0.0179698208243868,1
0.108995591675792,0.0202664329570699,1
0.103373251514453,0.0199054512406097,1
0.0963534888284524,0.0194965837185808,1
0.0802566210352537,0.0200263515928803,1
0.0370301352081111,0.00892832525022966,1
0.0144935283868783,0.0039426930590349,1
0.0250151150748606,0.0158410229702096,1
0.0216725654827675,0.00786549306929942,1
0.0250234016731617,0.0103330910661277,1
0.025954930472866,0.00754668050869372,1
0.0330118053759581,0.0103670345518814,1
0.0352912212617128,0.0109756769823869,1
0.0345367835487798,0.0102122053362347,1
0.0307096311242847,0.00909470680608296,1
0.0256380092358974,0.00800104028704191,1
0.0251882883406223,0.0112896617483903,1
0.0206123986414265,0.00829431208360297,1
0.0222089167357193,0.0188837596713294,1
0.0134223787827977,0.00633948901038521,1
0.0235841817767572,0.0123275932405264,1
0.0376044392060971,0.0168404769442208,1
0.0356030499524566,0.00557336764167576,1
0.0428951039150439,0.00823120854768945,1
0.0452532568538781,0.0061020627273158,1
0.0493768803452136,0.0056388575210977,1
0.0731042546576914,0.0085845075377468,1
0.115694304966516,0.0147521784636299,1
0.183264922449726,0.021983372701976,1
0.245341948707158,0.0267389389802079,1
0.25780281597352,0.0184088696735476,1
0.259457341200439,0.016941653260033,1
0.240445075004839,0.0212610375046782,1
0.175278814222672,0.0175715238252614,1
0.121295543734206,0.0144323065300258,1
0.101157591240322,0.0153478092435483,1
0.103192017560502,0.0166942226033033,1
0.108505672088788,0.0242767436837819,1
0.085078628187268,0.013526333440562,1
0.074053530306091,0.00958219094467332,1
0.135345444258161,0.0311250482077341,1
0.189077179927725,0.0461333119180556,1
0.179466254019739,0.0270909153635696,1
0.168240304096724,0.0220558367855843,1
0.167920645942285,0.0202275086319233,1
0.217439331707846,0.0206640083887519,1
0.268898094428566,0.0234071357444025,1
0.26946901270022,0.0186823554056688,1
0.270010597272118,0.0240598850725947,1
0.250178719560334,0.0238639413664105,1
0.214469224441022,0.016310479034616,1
0.193017360174798,0.0146416138544139,1
0.205645127897509,0.0233889942832527,1
0.22660292051677,0.0319384760140634,1
0.245320851921371,0.0413804398273542,1
0.212036071268385,0.0631658499576859,1
0.119725569980085,0.0193428400799125,1
0.102389619369819,0.0156603984062505,1
0.127484258092104,0.0195616749281424,1
0.180659424017732,0.0290025920235403,1
0.255860710933092,0.0490948650803265,1
0.261254172523539,0.0422761397225793,1
0.246388189492631,0.0414267099302081,1
0.221067303098208,0.0313798360646543,1
0.165921419936622,0.0300846440565134,1
0.0904395992607173,0.0106847736984844,1
0.0804001791854879,0.0125123363057427,1
0.11001831856605,0.0168497048815862,1
0.123020989485608,0.0164546990845864,1
0.123967736705355,0.0168588176298018,1
0.130341868912767,0.0160928947351883,1
0.143109449523936,0.018909531594393,1
0.158118233718981,0.0186432165071191,1
0.161661206505297,0.0229708856844938,1
0.0944944132618256,0.00782843029266535,1
0.054537611069318,0.0134194056594069,1
0.0525432417860609,0.013648713990528,1
0.0522045226697495,0.0139453392526745,1
0.0483619240324674,0.0166565612853319,1
0.0327945454799901,0.0115211052968568,1
0.0184448195475521,0.00724241235070538,1
0.019578843915585,0.00724184875168034,1
0.0290067581718967,0.0146445156246097,1
0.0350013959518899,0.0173580725612851,1
0.0427029552372922,0.0232745003047848,1
0.0523715913976449,0.0426283005253393,1
0.0496141610679554,0.0390151160184044,1
0.0377632716523716,0.0241655290862795,1
0.0292847284530858,0.019630743096819,1
0.0178981633513104,0.0121339884299569,1
0.00898333810764211,0.00748304736951738,1
0.00961230059894142,0.0308124966120351,1
0.00972680319619937,0.0262882738281579,1
0.00950932869819248,0.0179154747616624,1
0.0103477811050754,0.0187618213312143,1
0.0107409426334493,0.0195412963811566,1
0.0102335449943303,0.0140217594964584,1
0.0114591281425948,0.00839943210683672,1
0.0148496812643311,0.0139565566634339,1
0.0150272976922064,0.0104771582209898,1
0.0140694098545567,0.0109512151825962,1
0.0132636335801353,0.0105276431781129,1
0.014601001740397,0.0113151166035282,1
0.0199606483483211,0.0178470606220127,1
0.0213285593060164,0.0185272854882677,1
0.0142689530132877,0.0105672359907459,1
0.00959196864515628,0.00556043340756763,1
0.0350375479737649,0.00449167082771168,1
0.108759258949038,0.0185402842326882,1
0.142085325863405,0.01693143952943,1
0.131432022431413,0.0150783927510324,1
0.12009520819314,0.0142603426136596,1
0.109604038011951,0.0132924758479242,1
0.102191799801784,0.0120581179801115,1
0.0908463943985994,0.0107776762693032,1
0.061785035091267,0.00622677712136154,1
0.0394236104227942,0.00323557065021864,1
0.0464580021584616,0.0202850386109462,1
0.0363322001029301,0.0203289593708617,1
0.0281717422882901,0.0358032887535132,1
0.0368541330560072,0.0375317311359872,1
0.0476726339996492,0.0721412220989786,1
0.041992417827777,0.0339918517326235,1
0.0276882238611364,0.0206006322383511,1
0.0145899629378364,0.0132088971774158,1
0.0105381097669469,0.0158977743220242,1
0.0100594947459525,0.0118476482293917,1
0.0124073049244765,0.0118775534604719,1
0.015840139891831,0.0139042053067116,1
0.0169723496901725,0.0134489484736323,1
0.0182401282035285,0.0184801955779193,1
0.0188257968532992,0.0155003279385839,1
0.0215187475644353,0.0351421552985622,1
0.0190488175523606,0.0372641247040225,1
0.0120866977863079,0.0214335741681741,1
0.00581109237246346,0.0124641953895912,1
0.00236844806927218,0.00938017739665927,1
0.00370690498223466,0.0139271706684339,1
0.00827015236847315,0.0270732257800458,1
0.00934000233291949,0.0180162533880509,1
0.0098067632778028,0.0136936307896237,1
0.0256411480976855,0.0106029932073928,1
0.0515572300635286,0.0218329999461596,1
0.0492819512460383,0.00897110409705951,1
0.0483322770978778,0.00881594543823935,1
0.047462522982142,0.00802559554464567,1
0.0427412808552234,0.00613479653909631,1
0.043569035432803,0.00615985264917138,1
0.0536500556670117,0.00788107468742807,1
0.0548717278065386,0.00790199430851551,1
0.0467114710782536,0.00490799085363577,1
0.0460836197418159,0.0107643900506523,1
0.0400573542089722,0.00569235345239933,1
0.0459368933931604,0.0167400165852995,1
0.0409360828045143,0.008320395338762,1
0.0400859582517625,0.00917387791806137,1
0.04337670048963,0.0110120086890547,1
0.0429936819762139,0.0127059514364102,1
0.0372512501082151,0.0109208714739248,1
0.0390457407483628,0.0102822008178121,1
0.0526476285635522,0.0181550480857605,1
0.0542046565571194,0.0119739778658296,1
0.046789248385964,0.0107105903664586,1
0.0317424396427455,0.00634727144839451,1
0.0273070467700149,0.0112659437566236,1
0.0340001657303385,0.0155113876047503,1
0.0385688503725097,0.0162955048774674,1
0.0392017252380961,0.0116403343828528,1
0.0417304083260326,0.0126643946807706,1
0.040676974461308,0.0157630975208362,1
0.0312377382683867,0.0116795755077681,1
0.0640208815271743,0.0114529597128817,1
0.148023138454349,0.0331720044154756,1
0.165547246222778,0.017949805860834,1
0.155414660521223,0.0155761267415294,1
0.134485201156145,0.0141887691202721,1
0.107371491334131,0.0119137608151664,1
0.0927065017266505,0.0104357292057765,1
0.0888836015584343,0.0104690479501987,1
0.0855725594377154,0.0105189119747616,1
0.0842940961374137,0.00608858114987946,1
0.155880545510187,0.0103489675581515,1
0.268113042105456,0.0148086036296594,1
0.352469637711262,0.0243245681885297,1
0.346374596525427,0.0203616721693159,1
0.295411512016543,0.0197164442804281,1
0.239474105011782,0.0156584114773256,1
0.215345260060008,0.0143400818467073,1
0.194156020734077,0.0129852189956181,1
0.122799271056958,0.00766774343252556,1
0.0744970558349869,0.00652692044084478,1
0.0849124221328025,0.0164449481851628,1
0.0760643122711942,0.0124975814299799,1
0.0702797905589464,0.0137508842313516,1
0.0721213917165244,0.0190683400144359,1
0.0645978002507724,0.0175390931444852,1
0.0699404242186425,0.0217115266915522,1
0.0853042466746464,0.0287646990098697,1
0.111709247417989,0.0341891353152471,1
0.118478852165511,0.0283359948626586,1
0.110736893662332,0.0121803346872562,1
0.157007294677634,0.0162297749417948,1
0.183046429774283,0.019419422499527,1
0.191410392228357,0.0198532151760049,1
0.219147093983998,0.0252659015604832,1
0.222304838456973,0.0287245300782967,1
0.20005004622186,0.0216749431975919,1
0.186422619207982,0.016451005862046,1
0.188452265052933,0.0166708323158029,1
0.203506436535445,0.0191910347123441,1
0.204987976933882,0.0186989363607832,1
0.203510136688733,0.0175559071340261,1
0.229132194287803,0.0185282132965083,1
0.298561287602641,0.0217654332992088,1
0.374073881125429,0.0247629589417294,1
0.410470200920854,0.0239411193193685,1
0.415512406863818,0.0275715885670703,1
0.387568599988287,0.0319022423944567,1
0.287761056044593,0.0307383354300506,1
0.130335949514904,0.0149529335907292,1
0.0912495650428482,0.0229296706110528,1
0.123146539409038,0.0258735169872932,1
0.133714082290831,0.0186085689282214,1
0.134437263466901,0.00874169335117411,1
0.154306578942968,0.0143208500775028,1
0.150241561056696,0.00794077608700739,1
0.157263223460451,0.00786462935030042,1
0.169136974917516,0.00815713302505709,1
0.16851880288769,0.00775696741246957,1
0.170795393866886,0.00835245221203494,1
0.182117847333389,0.00959358773302879,1
0.206339089610383,0.00996389262163275,1
0.248168575644055,0.0143489886771453,1
0.234415588231665,0.0242227605715447,1
0.107847445791557,0.00864424273614642,1
0.0312722188748659,0.00668365131270529,1
0.0330954769157204,0.0151515940576362,1
0.040929273939851,0.015897081486118,1
0.0363752460089265,0.0149797342648791,1
0.0233208722031413,0.00826969766785859,1
0.0171326561635174,0.00356599431800673,1
0.0262331227105302,0.0132335967752203,1
0.027639583106588,0.00676815431146798,1
0.0297131730870122,0.00698460937121652,1
0.0345369412774737,0.00764867732397664,1
0.0394084123173669,0.0107958877744216,1
0.0426736440715038,0.0117062087878973,1
0.0456786062921134,0.0126234112544476,1
0.0496637126087378,0.0147354223265737,1
0.0517899497386621,0.0168421547048817,1
0.0440901300233919,0.0292547296964612,1
0.0192914246243036,0.0114256861969026,1
0.00300596074832887,0.007685343428032,1
0.000421903834775807,0.0375585800095194,1
0.000288825095311364,0.0760200381464569,1
0.000292373041335762,0.0627358046054539,1
0.00035524687144227,0.0718417030630861,1
0.000479210454431291,0.0839958304290076,1
0.000647957995382363,0.10519344623764,1
0.000685677666907252,0.0659379521312522,1
0.000730861364777452,0.058634241024453,1
0.000827969221241446,0.0649717278009291,1
0.000864904520974562,0.0650576813726188,1
0.000839447390257022,0.0581446626035532,1
0.000823076398490264,0.053721503033496,1
0.000933882658954539,0.044524815894507,1
0.00177359938368734,0.0230215707291957,1
0.00556826796151281,0.0278090985245779,1
0.0135202332100418,0.0399132209388467,1
0.0225941409230624,0.0742309748499988,1
0.0264132403265088,0.0509510039433456,1
0.0247989012206873,0.0550711766663358,1
0.0262252056745092,0.0272613537526133,1
0.0372654775059906,0.0355451953803516,1
0.0459213550354047,0.0431903234665602,1
0.0460929575063239,0.0395077351256782,1
0.0382795312199294,0.0247786170753706,1
0.0305601591728592,0.0220645003718915,1
0.0280264086596842,0.0149683199549932,1
0.0424835547809978,0.0118525670073833,1
0.0633918831783299,0.0214096665291811,1
0.0566643022831074,0.0141398326937684,1
0.0449859765080601,0.0102884171391058,1
0.0441387315991059,0.00949841072105122,1
0.0462053364463985,0.0097531457478333,1
0.0459925992788762,0.0106476327518056,1
0.0459672387691837,0.00999202052450568,1
0.0425406607908265,0.0101156075789308,1
0.0419406848823865,0.00483698286439024,1
0.0592760596352917,0.0145815546682916,1
0.0527900268964858,0.00596949624770862,1
0.0604650134938929,0.00684375613057414,1
0.0751138637305852,0.00905254035826203,1
0.0829949514222114,0.0100436833081735,1
0.0858328142490297,0.0103424526945683,1
0.0881333145842012,0.0105048260946768,1
0.0955067618522698,0.0111356563401263,1
0.111804473749083,0.0127875110673739,1
0.108281923230117,0.0270846973006437,1
0.0484622765880024,0.00876688821607634,1
0.0176049418576826,0.0124409449583171,1
0.0157726466300753,0.0194282819549926,1
0.0160057054390567,0.0177306580660434,1
0.0152895275116598,0.0201560489765884,1
0.0116746556147525,0.0137390362539272,1
0.00831645965896411,0.00840180127861807,1
0.00768278440959868,0.0113911867818455,1
0.00817040623907445,0.00665903409315929,1
0.0173067438276287,0.00459396458844257,1
0.0452482691123695,0.0181842875531035,1
0.0613704354927447,0.0133073676034907,1
0.0608520600546767,0.00794746222316692,1
0.0632496227925675,0.00950801652489028,1
0.0657647852850173,0.00983377806221757,1
0.0666206930131403,0.0108069821216042,1
0.0597678804704894,0.00952214187957042,1
0.0508649379245062,0.00837955951152968,1
0.0479221887772505,0.00913472263282811,1
0.0460857502891806,0.0150397272099222,1
0.0279577962280015,0.0111978067670213,1
0.0123561190403766,0.00543178533598745,1
0.017893590077259,0.0397126162429674,1
0.0243900358629479,0.0502912148224376,1
0.0289547323190938,0.0577635546030413,1
0.0221576973505676,0.0216956089385934,1
0.0168633880703024,0.0206520114447206,1
0.0246805693326047,0.0136243638093314,1
0.0351247614546561,0.0173826279262251,1
0.0309705355955952,0.00754053306018403,1
0.0295478872063324,0.00774039993215886,1
0.0286666808856966,0.00473800635666726,1
0.0623728232631518,0.0024757555229892,1
0.15945763494431,0.0125925976714804,1
0.199520226826619,0.0110623517250248,1
0.195775075553187,0.0117519937356463,1
0.181662124243879,0.0106923305642028,1
0.18367399607376,0.0116183226262883,1
0.184361638752921,0.0111366828915131,1
0.160608695276509,0.012704638194024,1
0.0986952014473397,0.00683446362253535,1
0.0488776917439643,0.00270499734744144,1
0.0444955959539465,0.0120574360878223,1
0.0430692507006674,0.00510428830779499,1
0.117565199059612,0.0209865984317129,1
0.172192144934524,0.0212822567729873,1
0.164477449924583,0.0147403167729675,1
0.154335254543962,0.0139647900386977,1
0.16341987132979,0.00995884423216716,1
0.203849951699798,0.0132351435838182,1
0.233985300106575,0.0151793718885774,1
0.222717267899727,0.0113777507427031,1
0.184488147788305,0.00789618210302197,1
0.175841883656265,0.00941677527342931,1
0.186134433704207,0.0116768509879476,1
0.18539446768205,0.0123552335156293,1
0.180062290656998,0.0116946699928409,1
0.212382558200693,0.0115212775021924,1
0.300113082895734,0.021138803717427,1
0.351485532744479,0.0198451527305414,1
0.346088845785036,0.00834241810843255,1
0.452933440153337,0.00999043915020637,1
0.591164499243792,0.0126630264470191,1
0.723905857130223,0.0147826621134727,1
0.870964310665258,0.0172862082253102,1
0.95219907515352,0.0161937328738772,1
0.941538861042589,0.0182000950043228,1
0.788329698897644,0.0184653964792748,1
0.526325813118459,0.0122700043820828,1
0.318979714400974,0.00446143568166802,1
0.414085662730302,0.0223865704941764,1
0.561797678805793,0.0582073705993682,1
0.565086097383384,0.0499688373140802,1
0.4823821018808,0.0489398657485479,1
0.321843430611171,0.0213361905019293,1
0.241009169749916,0.00975850513466293,1
0.325831196555383,0.0175901829556671,1
0.398719110780635,0.0177890417281547,1
0.405221839602149,0.0110136349909622,1
0.424789370006549,0.0130101614288063,1
0.395738261592577,0.0117374825905718,1
0.327987623882836,0.00891077460582413,1
0.29364221370259,0.00827346002565151,1
0.262917720819596,0.0072992060553624,1
0.245278821222647,0.00814107276614343,1
0.2490124509646,0.0116464352022893,1
0.231960049242095,0.0103536090169781,1
0.218814418195428,0.00865949191238116,1
0.244571776282845,0.00593879919767413,1
0.36499278923511,0.00963376282465485,1
0.453574742976401,0.0108536419882914,1
0.462841940698596,0.00576873064680291,1
0.52485274041931,0.00602478676321567,1
0.613775931858562,0.0070895021015251,1
0.65087059465235,0.00642489859892063,1
0.63805803571842,0.00612985613054274,1
0.589579798811493,0.00534268608681309,1
0.550999910959815,0.00492407624094381,1
0.53534853841008,0.01020573837823,1
0.368370996481772,0.00690561864664427,1
0.180286017409137,0.00167589204275599,1
0.159701090236418,0.00819390386755063,1
0.193931015563017,0.0130325932686262,1
0.217101732069364,0.0134421383650263,1
0.238427942291017,0.0178342879888373,1
0.227406420117767,0.0294253801770257,1
0.161312755642929,0.0274615690247512,1
0.0767533739824443,0.0148295365963842,1
0.0342663460415309,0.0158412626209043,1
0.0410564616660968,0.00928575136924516,1
0.0750944876400386,0.0161188634424127,1
0.108090293411512,0.0236972814420793,1
0.145137529561315,0.0286603585731898,1
0.188032239968671,0.0348993440017464,1
0.216169571865549,0.0526538223549726,1
0.193528843425676,0.0479639729969414,1
0.152010887143758,0.0392303526664833,1
0.102877961692297,0.0290469717809521,1
0.0361122454192792,0.00950728419971508,1
0.00943438989330165,0.0230792608224802,1
0.00701152047899503,0.0289969870331183,1
0.00507708376369777,0.0223221939398144,1
0.00341875751106594,0.020182832985968,1
0.00368193841673631,0.0459515271561347,1
0.00432902636664304,0.0515463207500754,1
0.00432533216915673,0.0439288755187036,1
0.00477527636030851,0.00742612600929372,1
0.0114659529376005,0.0199856375706739,1
0.0157163088541153,0.016790597822733,1
0.0159296080079189,0.0123424047356803,1
0.0161250720453864,0.0120049694932202,1
0.0169535638392792,0.0123059426135489,1
0.0182042430486418,0.0130553778252735,1
0.0194448829148743,0.0139731803339006,1
0.0206313065288928,0.0146006916789942,1
0.0222633534262419,0.0161901266220087,1
0.022090171963982,0.0359882631649958,1
0.0124322609199074,0.0241604385923696,1
0.0032563349452225,0.0124767986342691,1
0.000934306294109586,0.0268273895642342,1
0.000661831281490208,0.0253793753408326,1
0.000782747226087264,0.0312761174094158,1
0.000855708741053486,0.0315185168152432,1
0.000858808949095353,0.0277981498243629,1
0.000893031976349932,0.0274840758073164,1
0.000853122455582514,0.0275825379218119,1
0.000857262391554039,0.0256590506356832,1
0.00109273220474644,0.0355405775793337,1
0.0011456178942225,0.0368290048733206,1
0.00114045510731664,0.0438589082910993,1
0.00157707687093506,0.044472476281936,1
0.00467798063380926,0.0156171096099174,1
0.0146365242082433,0.0295621860862619,1
0.0241366700440037,0.0373906098422104,1
0.0291954574905279,0.0441670716675498,1
0.0323229589038966,0.0497341123445356,1
0.0384088448621982,0.0445224847998583,1
0.0535135530298665,0.0580835875546635,1
0.0828765305722404,0.037969577106566,1
0.162071473549607,0.0481849245335062,1
0.212151540543883,0.0286123861339845,1
0.186449496048494,0.013119215950102,1
0.174486273644987,0.014174835025126,1
0.163840528279216,0.00876864659970811,1
0.193922596307914,0.00944015734374552,1
0.206296901256072,0.00882895465889931,1
0.176065683436214,0.0043016647384483,1
0.1882092560879,0.00493221373002658,1
0.216516549028492,0.00705566671529105,1
0.217702410270418,0.00806191204317981,1
0.192257770896584,0.00648388705555342,1
0.197853707900831,0.00929884409464288,1
0.208923584182254,0.00845055219716386,1
0.219527962853703,0.0149654679648775,1
0.154753077929279,0.00758391747756658,1
0.105130793410156,0.0057302179971825,1
0.110091542993835,0.00935323846522187,1
0.108999309460623,0.00784987835192101,1
0.107437968000118,0.00809547055328379,1
0.105710139816985,0.00673286967973461,1
0.115064451912882,0.00843385265228487,1
0.112785181564597,0.00845257543827279,1
0.0875227751825808,0.00622615361238169,1
0.0662317629861884,0.00428821704500317,1
0.0685790119975474,0.0127313538882459,1
0.0454265318805523,0.00296705694936357,1
0.0656626603840299,0.0117952383772305,1
0.0734289457955341,0.0112255908365986,1
0.0628235981854037,0.00457323199749377,1
0.0944493574341298,0.0104410816686767,1
0.116414698791039,0.0112542605018923,1
0.116418174814392,0.00830894367274394,1
0.118181306511077,0.00817967224911995,1
0.119362442830927,0.00806448821231993,1
0.122606322665662,0.00612719254576846,1
0.133655821200168,0.011872880737289,1
0.092425934522686,0.00500383451449958,1
0.0808833525976995,0.00190352747922313,1
0.165350547869525,0.0128371436945345,1
0.217345990749032,0.0187604058222778,1
0.196960029658881,0.0144216486380817,1
0.183754064618621,0.0165382751625889,1
0.18345333554568,0.0169873557084763,1
0.181604032841006,0.0180712222310029,1
0.152343306917695,0.0217886931630715,1
0.0824920855831832,0.0117122909818353,1
0.0510440735706525,0.0077566943466783,1
0.0676475327738501,0.0254716969631458,1
0.0549955863057249,0.0198222654486774,1
0.0287708776997372,0.0101821444211617,1
0.026677459666599,0.0112765040538261,1
0.0264415403203056,0.00994194016411812,1
0.0302008735164231,0.00892008949427483,1
0.0492406343502454,0.0129515201743282,1
0.0594659523635255,0.0117596254429225,1
0.0553441595115003,0.00584177786498512,1
0.0635897101643025,0.0110265870241188,1
0.0605784234632567,0.0101167593689829,1
0.0687115195286028,0.0123826688321143,1
0.0954085927584719,0.0163299939423502,1
0.127462558894117,0.0220035328494388,1
0.135498098527757,0.0142736282130782,1
0.148233501847158,0.0103985458818165,1
0.172702761303262,0.0130601881615044,1
0.178366041216353,0.013613460348277,1
0.180984091589041,0.00902082940222724,1
0.227533628432911,0.00937918963815622,1
0.270999011475784,0.00983547294003146,1
0.272377042520654,0.00720538313218874,1
0.270269857592595,0.00675809854717537,1
0.273156374684843,0.00633118902632201,1
0.298123453393373,0.00769957089317189,1
0.346008070063815,0.0111686226600941,1
0.39101993756416,0.0114120739811227,1
0.439074984864555,0.0124543538867426,1
0.44980328031891,0.0232017929078901,1
0.317954864835405,0.02355160366143,1
0.139813622942745,0.0101996260698094,1
0.0545846425572441,0.009736037347775,1
0.0272250663231141,0.00868596664295995,1
0.0208150927720583,0.00880244873536933,1
0.0187932416714813,0.0065464873703404,1
0.0194428893258716,0.0102231453580494,1
0.017381105577702,0.00797859950484525,1
0.0165402403741577,0.0076388021867824,1
0.0188652519396091,0.016547474707233,1
0.0158256688590167,0.013196895379666,1
0.0156759429250071,0.0201652953659052,1
0.0191487689464073,0.0274917651772657,1
0.0230459462641352,0.030689413191611,1
0.0269425669137004,0.0347938581793496,1
0.0275580506073847,0.0671449657186356,1
0.0188155452779641,0.0691942785262909,1
0.00971151095110886,0.0611695755679399,1
0.00478511583375132,0.050641843885625,1
0.00185591157958336,0.0675434417170528,1
0.00117969234447226,0.223521883649841,1
0.000982201092615223,0.310117047058911,1
0.000568719800079052,0.241040611121065,1
0.000294869280589921,0.438150998248055,1
0.000202533333587302,0.572474805117052,1
0.000135289554879746,0.457419148463989,1
6.10797553959532e-05,0.314700187656309,1
2.69377357978803e-05,0.321481461529991,1
2.20751013471864e-05,0.323015465393057,1
2.36228707535643e-05,0.337720298138098,1
2.59436451803665e-05,0.326336107250953,1
2.66674882877006e-05,0.234383121231268,1
3.24576973856842e-05,0.253845879918582,1
3.86712577495849e-05,0.295089684387032,1
4.40260380202261e-05,0.315334316528828,1
4.52525009622494e-05,0.208038555640319,1
8.12966102821876e-05,0.0688689341746861,1
0.000314896036484326,0.0851378095168683,1
0.000600145834227598,0.0948561567080417,1
0.000646536886953421,0.0525714902043104,1
0.000671400459930106,0.0490146714287155,1
0.000703132231465459,0.050650837878499,1
0.000707195154506092,0.0514007057580651,1
0.000719622646637717,0.049892194004528,1
0.000747357920919837,0.0517512786706544,1
0.00079314863831864,0.0546827079693832,1
0.000821406763804967,0.0769752707814829,0
0.000602443500506124,0.107670425302476,0
0.000183617320595138,0.0615337123563834,0
1.84254952657045e-05,0.0711308911459222,0
9.40363745868707e-06,0.185362323101399,0
9.21688963929334e-06,0.185825748326592,0
8.72717662111935e-06,0.168553043828073,0
1.34960166646833e-05,0.242710645872831,0
1.81585967934563e-05,0.260781226920023,0
1.42876591132142e-05,0.159666313418461,0
1.45343528972531e-05,0.161316247748907,0
1.85484784914794e-05,0.207882260520178,0
2.22749037975484e-05,0.232077746213272,0
2.74207550092007e-05,0.287317060848158,0
3.28530967784511e-05,0.315690885099551,0
3.61275764595269e-05,0.351996917849553,0
3.69163656088513e-05,0.41992495829969,0
3.09086723568951e-05,0.524655286623526,0
1.34254029789914e-05,0.370341346506287,0
3.53088225990857e-06,0.255388363806884,0
2.98309363686471e-06,0.219787905115697,0
9.37655059358127e-06,0.338257796385578,0
1.65153803396563e-05,0.423150688263579,0
1.77763496852493e-05,0.361053367766423,0
1.64716736870461e-05,0.316102185943371,0
1.63237338318924e-05,0.312559582144823,0
1.59506650940522e-05,0.268257198842976,0
1.44664905881665e-05,0.253451532279972,0
1.10836287609655e-05,0.174560077045782,0
1.28407664006819e-05,0.173502851993475,0
1.83728647824173e-05,0.256697491196427,0
1.9983961208943e-05,0.340070671168117,0
1.69389898806466e-05,0.300749659017411,0
1.57623308040131e-05,0.311637298905257,0
1.61994949837062e-05,0.326908806825535,0
1.68048682755305e-05,0.32220935358346,0
1.48085273625217e-05,0.452282993857978,0
6.40136636401754e-06,0.310006430034829,0
9.21922478747504e-07,0.184565381929499,0
1.09638302162574e-07,0.115736593889587,0
5.99283549811189e-08,0.0938566535090852,0
6.08867476077936e-08,0.101780214554564,0
4.93449468715187e-08,0.0960811268050359,0
2.02692569775148e-08,0.0648267341583999,0
1.09585473170346e-08,0.0566752711562529,0
1.11949437165986e-08,0.0555439531182749,0
5.74453923464206e-08,0.100878956877443,0
2.9755209476859e-07,0.203440490620648,0
5.60949979248931e-07,0.28546018693177,0
6.38357793516999e-07,0.273248906969166,0
6.01396709500292e-07,0.268561696462229,0
5.51085899235522e-07,0.263227364069218,0
4.91403012299096e-07,0.231876117193587,0
4.54815466611272e-07,0.214895322199386,0
4.88287169010035e-07,0.222862213931546,0
4.77101830564751e-07,0.210847968428613,0
4.73112974838473e-07,0.224556135337981,0
3.83237518404687e-07,0.227064547777565,0
2.2070778975095e-07,0.167109082989914,0
1.53555737115434e-07,0.145695957155127,0
1.14963891480065e-07,0.121462197607558,0
8.56341955224214e-08,0.0992130627577296,0
7.23511725473714e-08,0.0964354328433621,0
8.04446808818799e-08,0.0942626437886849,0
1.72932771113105e-07,0.130240032467718,0
2.82031577203536e-07,0.159852171735216,0
2.89492204883681e-07,0.150925883675052,0
3.48690559244927e-07,0.16072720367354,0
3.88488400056402e-07,0.166566049442218,0
3.8037888293637e-07,0.170471722250455,0
4.01374405150469e-07,0.171372138883845,0
4.58853949572672e-07,0.187908941475724,0
4.66267084522431e-07,0.183145277975672,0
4.55023047196893e-07,0.192520519574503,0
3.26685416290479e-07,0.16727397192365,0
1.70382037953024e-07,0.120309300512941,0
2.60492823534006e-07,0.166425234550579,0
2.63086246788817e-07,0.159086561799456,0
2.5200816720654e-07,0.155278505707355,0
2.57220627772998e-07,0.139573126355757,0
2.77067252812692e-07,0.149127227227685,0
1.99802450361968e-07,0.118269302420247,0
1.67812094250315e-07,0.109696634298637,0
2.04792922435833e-07,0.11979200761392,0
4.2525524414209e-07,0.171181304969217,0
6.47693583608132e-07,0.213919201842513,0
5.77316827941996e-07,0.196938946945828,0
5.28964425772935e-07,0.199325914331446,0
5.83605078895635e-07,0.213064494869375,0
5.49408178512657e-07,0.219405334506131,0
3.54167698398708e-07,0.178230860759777,0
2.34515367264988e-07,0.153215420825334,0
2.07580051995479e-07,0.143711962464448,0
2.42673977993958e-07,0.165945904244188,0
2.26028576432785e-07,0.172361929850935,0
1.40228423167103e-07,0.144228417546144,0
1.41103570109055e-07,0.143903631960126,0
1.3672356638982e-07,0.134672397084632,0
6.10489699677653e-08,0.0969085052703202,0
2.24101652281937e-08,0.0635490513754081,0
1.79832024047558e-08,0.0590073381100138,0
2.45420018337427e-08,0.061004170484554,0
2.62069155281889e-08,0.0665203381843671,0
3.32507811585384e-08,0.0739196586977366,0
6.77657227472508e-08,0.103368134979657,0
9.05158078547273e-08,0.119143192228097,0
7.20843594553128e-08,0.110447448772487,0
6.40239359442197e-08,0.108469909983571,0
6.37448494499264e-08,0.108242082639156,0
4.80002088875429e-08,0.0912305736871893,0
4.25935083900655e-08,0.089705707052595,0
4.31015205173452e-08,0.0863069459989843,0
7.10662006960168e-08,0.0991792538272602,0
1.27736767823099e-07,0.132781289418819,0
1.11359246606352e-07,0.10987994658255,0
9.9774755775348e-08,0.106733618793941,0
1.00526635068769e-07,0.104348701429915,0
1.00853214293449e-07,0.110371235222854,0
1.0434739854705e-07,0.10632978639906,0
1.44305327213759e-07,0.119499235703469,0
2.03520223986714e-07,0.139143374468285,0
2.08212399023658e-07,0.134789336831986,0
1.91129423991508e-07,0.13502114242604,0
1.30463063997755e-07,0.105535222315701,0
1.52817198476616e-07,0.123047591476261,0
1.84028460359458e-07,0.138770942359763,0
1.85029009454678e-07,0.142938024605799,0
1.39986690505698e-07,0.120694229271767,0
1.36002103788893e-07,0.114564932875579,0
2.87455887365089e-07,0.165884025694566,0
4.08264052813608e-07,0.201057869887841,0
4.266122555283e-07,0.199074652462346,0
4.29929809514958e-07,0.192203699168812,0
5.76251710078497e-07,0.223766818582762,0
6.89018128932367e-07,0.236289552320122,0
6.15174403948019e-07,0.218297260258243,0
4.61519945988523e-07,0.18824767325238,0
3.76673382713859e-07,0.158272508763034,0
5.21547021813704e-07,0.18660622918261,0
6.10681271477751e-07,0.198195391276997,0
6.02770796924394e-07,0.188435881305213,0
4.89215678570399e-07,0.17670743877033,0
4.3729545173433e-07,0.171594918287262,0
5.85888998963657e-07,0.210796192354159,0
6.47426770516074e-07,0.224755119746926,0
6.5502614100409e-07,0.211447769505363,0
1.00794035149631e-06,0.1874815693792,0
3.86324225704096e-06,0.285667104626215,0
9.32645163291159e-06,0.446387047964755,0
1.70444813737323e-05,0.561270015061649,0
4.32732793108533e-05,0.301177879706865,0
9.76885420740364e-05,0.443278492077457,0
0.000121305141652685,0.207002847410784,0
0.000109443626792589,0.133672609232361,0
0.0001037655490983,0.131658805081029,0
9.95633731031645e-05,0.127751382224399,0
9.1928678696265e-05,0.0819607122099677,0
0.000164329754363497,0.0539270307961297,0
0.000402609026169595,0.086050448777016,0
0.000522171522402471,0.0725443704423244,0
0.000523408576756997,0.0620281478258587,0
0.000524687915650352,0.0645952772250019,0
0.000523254873205429,0.067301799079161,0
0.000487292562376002,0.0704348357530738,0
0.000394535140337129,0.0630301598080943,0
0.000279295729120185,0.0509360607882675,0
0.000201977299372461,0.045123615361355,0
0.000232090319613678,0.0942126500904376,0
0.000159086345079238,0.0996453344826861,0
7.86815458174803e-05,0.0953756914401591,0
9.03212045242772e-05,0.189332820343246,0
0.000119890202476057,0.22332776669991,0
0.00013296292710733,0.28703728753179,0
0.000126960128274734,0.281858311049496,0
0.000113641765905641,0.289658886173739,0
6.5133162814471e-05,0.235673589485227,0
2.05189465389513e-05,0.167321941917531,0
1.37455167888245e-05,0.196980739369315,0
2.03457656316626e-05,0.196312786561485,0
4.88023557675081e-05,0.236764216784551,0
0.000119038883010478,0.355910373614051,0
0.000256246524657837,0.363591831920904,0
0.000474212105501321,0.422391247216917,0
0.000561426876167041,0.22680211984359,0
0.00052183489979938,0.212595102852813,0
0.000484011907572723,0.18316375617436,0
0.000390570852760368,0.10493605423212,0
0.000303731929424028,0.0534920240921145,0
0.000363401098432138,0.0554094028400018,0
0.000512281403032155,0.0720727748880036,0
0.000673929483576138,0.0888867846357723,0
0.000758939024291824,0.114498754232793,0
0.000661210975203247,0.107249351353624,0
0.000550592049013542,0.0975939310663251,0
0.000490865571221389,0.093715912241482,0
0.000320659976232517,0.0883067528485583,0
0.000139860261122026,0.0665914431757504,0
0.000110241564429214,0.135822856698574,0
0.000109431381138916,0.168252905045948,0
9.537290326563e-05,0.154237187133518,0
7.57336853830481e-05,0.132307481198467,0
6.2412424890149e-05,0.121008448317595,0
6.00272887420279e-05,0.13817197181915,0
5.6255696248483e-05,0.160841006606289,0
3.58661850094988e-05,0.130154426727082,0
1.40709753985177e-05,0.0908656519828236,0
1.12760863805293e-05,0.127286105061107,0
8.75158201464996e-06,0.113048313851495,0
1.10279032458105e-05,0.128794628218842,0
1.77958697310644e-05,0.184202898446168,0
2.06895724440705e-05,0.201963905627972,0
2.22144583587948e-05,0.216697261509543,0
1.97586167412782e-05,0.256469461612785,0
1.1286423786968e-05,0.149236337539359,0
3.81020296273417e-05,0.1172046449293,0
0.000156511099800389,0.165537962099754,0
0.000316530701578525,0.245868096061829,0
0.000491709195797393,0.34023623983286,0
0.00059834687523658,0.317497346593375,0
0.000560935360025991,0.200811924839085,0
0.000475749512954456,0.179032036069884,0
0.000375973961008841,0.166015556210222,0
0.000253119129429142,0.129668783701904,0
0.000144706705354293,0.0677537510447047,0
0.000157569753849919,0.069362250016093,0
0.000162940159762484,0.0328628573778177,0
0.000257422543383049,0.0379247507990092,0
0.000343238228906072,0.0483370052163106,0
0.00037904438203711,0.0516498705074632,0
0.000434839240313868,0.0590952248637451,0
0.00049440551925654,0.0644772000667034,0
0.000528431288390402,0.0630183649655083,0
0.00053081026222335,0.0638350003438543,0
0.000453893550536039,0.0814057351582935,0
0.00017142646766299,0.0560269374181192,1
2.26181812527816e-05,0.0478637291439838,1
5.09691336819669e-05,0.176373391012711,1
8.98379633244642e-05,0.176119400953251,1
9.11424936427191e-05,0.0870170739853721,1
9.7904860788423e-05,0.0847633346974086,1
9.20199207693563e-05,0.0697343278413255,1
9.14546863054751e-05,0.058935000915942,1
0.000111885318778207,0.0662846969543593,1
0.00011402801787836,0.0527825123096912,1
0.000136434914646176,0.0521014773993268,1
0.000179604539205269,0.0647542394819845,1
0.000172191734570119,0.0620817996360164,1
0.000144197899724878,0.0507206084935547,1
0.000163559338497318,0.0696567716402388,1
0.000153248389244804,0.0688774366580104,1
0.000144505976528876,0.0686997568132925,1
0.000174688665937439,0.0752913740378215,1
0.00025114379897988,0.0889531508928731,1
0.000325891059819175,0.149052268617158,1
0.000337631105350981,0.229725432645795,1
0.000245390557369427,0.144846301856193,1
0.00015795549514238,0.0861654247374819,1
0.000174139191055653,0.1024917937095,1
0.000219388204770789,0.121173579973218,1
0.000226775866007397,0.0909963595007591,1
0.00027138119046981,0.0430053972603859,1
0.00067252494744197,0.0542326274862136,1
0.00122198673831009,0.0756771520893747,1
0.00157926103759235,0.0782068699614179,1
0.00169920939625083,0.0700467125212637,1
0.00171470970272417,0.072367886256677,1
0.00161827310957871,0.078431227561314,1
0.00134130930553807,0.0745155939830384,1
0.000866745836010318,0.051075175385977,1
0.000363873877890612,0.0231936457860495,1
0.000361185671952978,0.0370886179395228,1
0.000514341829781746,0.0885643022171346,1
0.000476645099913765,0.0741550517256036,1
0.000392174409582538,0.0686931415937423,1
0.000388884766379814,0.0741510930684347,1
0.000509389736636668,0.0685946390289866,1
0.00078320282545074,0.0964791699998593,1
0.000990452127399283,0.140389451031619,1
0.000952272160600499,0.140649223941921,1
0.000946551318103815,0.170441184596654,1
0.00101287309535595,0.191366288619544,1
0.0010085032689553,0.194120772031615,1
0.000873487861325883,0.232619668965643,1
0.000585064012883012,0.205504719845314,1
0.000250190369610344,0.134433914657539,1
5.63601882597259e-05,0.107539257284214,1
1.31547813968567e-05,0.204385990555272,1
1.17074377701988e-05,0.330915945897611,1
1.28410625632141e-05,0.338482254991486,1
1.3083252542259e-05,0.34135817235881,1
1.19552137481391e-05,0.359074649375492,1
6.77735937334665e-06,0.306607637565629,1
1.45215213220298e-06,0.161983888509076,1
6.64405154816137e-07,0.171648379406952,1
1.11618535569215e-06,0.233719818022118,1
1.74953346659265e-06,0.289383755326617,1
1.92098755954957e-06,0.295147882166288,1
2.0330431883262e-06,0.235872279201521,1
9.56580218703087e-06,0.206452964163417,1
5.07540609847202e-05,0.23859875838408,1
0.000129072421354916,0.3636508107592,1
0.000213681573806641,0.504398846411988,1
0.000312239563694983,0.618242942386968,1
0.000406864116003521,0.62228475226245,1
0.000425613462596853,0.437208895770252,1
0.000381253346303181,0.386243384143908,1
0.000305233077511579,0.345446820024372,1
0.000221571196383226,0.286111702657807,1
0.000139458067067056,0.198299388050486,1
7.72963392245795e-05,0.126327421932962,1
5.91963111065872e-05,0.0850751542757421,1
9.47819736337312e-05,0.102863744613584,1
0.000167843418107322,0.170879697243936,1
0.000237146344462505,0.212932235920604,1
0.000264738291554207,0.180166699706976,1
0.000268283432305755,0.176421288125514,1
0.000281068048424839,0.185671831854346,1
0.000263311637148333,0.214222486402699,1
0.000164044613880144,0.131903070286746,1
9.80553455068488e-05,0.0459848063899038,1
0.00031287460019913,0.0524991474298368,1
0.000853007378028657,0.0976034559407365,1
0.00120169526914266,0.106489482235573,1
0.00134141642992728,0.0955579756937273,1
0.00215633962278819,0.0532849607985338,1
0.00423778483358143,0.0720341768995242,1
0.0053915534515379,0.0684321863302611,1
0.00491479454036521,0.051970096273673,1
0.00371149979450618,0.0345265884695726,1
0.00265320313951203,0.0288107543026386,1
0.00213241526924938,0.0225464285133874,1
0.00208735753757533,0.0231741622621434,1
0.00173365188421077,0.0173215871114449,1
0.00125840282296782,0.0103198520379273,1
0.00178211751598621,0.0240917004353556,1
0.00206661506516675,0.0344628727500068,1
0.00191243109794914,0.0345335897541167,1
0.00207432785896745,0.0370933515283512,1
0.0027396943643002,0.0450393779623925,1
0.00370553256612776,0.0571058128129803,1
0.00421036106892055,0.128926384761968,1
0.00335546772361793,0.142810342632943,1
0.00206051478457009,0.116952593908686,1
0.0013504205473318,0.169311164010891,1
0.00111786177650163,0.20601231027432,1
0.000910004812538559,0.207863762727756,1
0.000502928270623664,0.149087321046613,1
0.000138061687409113,0.100740293473038,1
1.9883045560386e-05,0.116348344214064,1
1.38418144363841e-05,0.291322089111428,1
1.55578046946693e-05,0.277965978958561,1
1.55319238247396e-05,0.260391510648574,1
1.61008979409191e-05,0.264943270995213,1
1.63951543603746e-05,0.2245684844035,1
1.78875333688411e-05,0.239720927481314,1
1.44078408015226e-05,0.191861095011621,1
1.07290555066669e-05,0.159447244944724,1
9.78752119840071e-06,0.165197121656101,1
1.03703156991227e-05,0.207752567879275,1
9.58366959255367e-06,0.210017159483549,1
1.13368194437961e-05,0.269318128251656,1
1.48620100468249e-05,0.326885914402141,1
1.8313237392604e-05,0.37103404095059,1
1.95680396203873e-05,0.555116845432296,1
1.37078940083395e-05,0.610794385481003,1
8.94704128149939e-06,0.56416919279358,1
6.72014610839033e-06,0.484913916647316,1
3.24413983075165e-06,0.312732741092365,1
1.05289782388201e-06,0.199165893985347,1
5.72610778624264e-07,0.151040093465622,1
5.11546867123344e-07,0.144504377172117,1
5.04214843353571e-07,0.148337103153974,1
4.58817662992153e-07,0.146481809083478,1
4.39481184584475e-07,0.152594735976927,1
5.60676229016479e-07,0.115109926026375,1
7.24491676598228e-06,0.180531459718435,1
3.59890711153083e-05,0.25925882222127,1
7.69105813897072e-05,0.39068337298225,1
0.000110226492157643,0.478996384789139,1
0.000147329309956982,0.512336175060214,1
0.000231847306249431,0.356870031031248,1
0.000412402430596675,0.366610650852291,1
0.000650663646093581,0.521524738769904,1
0.000988718323098094,0.411542241185845,1
0.00148230160551609,0.472336898777675,1
0.00161926533143732,0.127160378859838,1
0.00141237702973684,0.0555777524247692,1
0.00138079002724985,0.0454379441444903,1
0.00153044892447007,0.047505289479908,1
0.00175432859893194,0.0517367412267238,1
0.00202945425127284,0.0592288761821391,1
0.0022136843919132,0.0628509327111972,1
0.00218339250657858,0.056355554795533,1
0.00191408023551908,0.0612157290706868,1
0.00121033306337794,0.0527593401707412,1
0.000541332023168029,0.0415636251229405,1
0.000373990830545646,0.0715533137343856,1
0.000367600262641091,0.110080208263576,1
0.000322526613431588,0.113723429947872,1
0.000255335860090696,0.0920965472103538,1
0.000206130296378468,0.0813628490663454,1
0.000178925008416264,0.0746559185599526,1
0.000191826980139386,0.0696415271955105,1
0.000255769877476781,0.0821865072452946,1
0.000395862603774272,0.094124397833606,1
0.000688877291641724,0.162514031628722,1
0.00101382765921475,0.252259720867041,1
0.00131001365601047,0.291091919977956,1
0.00144440715433986,0.190268141262339,1
0.00123852276784857,0.114921009484075,1
0.000866133128560219,0.0932117550318791,1
0.000505981476337607,0.0744933627257211,1
0.000330804463998652,0.0719523530923017,1
0.000288815369974158,0.0681390104542856,1
0.000278322808520647,0.0735922216305053,1
0.000273958013147659,0.0772930817391302,1
0.000295318085291194,0.0575722261198725,1
0.000418774714867285,0.0677612805556152,1
0.000604219879638787,0.0906041239055964,1
0.000899113820695555,0.138931948207521,1
0.00120201292400304,0.164257096466019,1
0.00137701649609238,0.19616131826935,1
0.00139485679553954,0.194860792865007,1
0.00128593282619844,0.184769605289329,1
0.000949162022842597,0.178472632483765,1
0.000430863390658576,0.11485191506557,1
0.000100566595131941,0.107876503117257,1
2.34422516308951e-05,0.168517955746692,1
1.42865070142827e-05,0.247872690256455,1
1.41988487746439e-05,0.291440937529789,1
2.77357139900952e-05,0.128681764531275,1
9.72548763476064e-05,0.179067325890811,1
0.000174673457591191,0.190094218940349,1
0.0001803989757205,0.129635946046768,1
0.000166672308743004,0.109414201044007,1
0.000163485026248543,0.100430621098509,1
0.00017249704612323,0.103282125861786,1
0.000178908490017735,0.100700601793152,1
0.000170679671158972,0.101236646142182,1
0.000155860620154474,0.0895801985877011,1
0.00017104590894803,0.106027584607128,1
0.000174032068267322,0.125841733279469,1
0.000127117396449213,0.103451030951836,1
0.000110623311529686,0.117585754913474,1
0.000109729485536785,0.131150457311744,1
0.000108383165884799,0.0953152815758734,1
0.000159856997341816,0.090088714159928,1
0.00021555458250235,0.089517592191464,1
0.000191585953999049,0.0713823986503712,1
0.000168831567864528,0.0714390665359069,1
0.000169173000574043,0.0817128807882872,1
0.000171221013577712,0.0873363546303998,1
0.000161873007715972,0.0977831334487711,1
0.00012144328946736,0.0816969176214733,1
6.67295722475311e-05,0.0598803396791959,1
4.13493589417958e-05,0.0579197298945365,1
5.64102109118513e-05,0.110387998465189,1
6.55813298324543e-05,0.162507445187914,1
9.87411090496842e-05,0.30962726365608,1
9.78698228931738e-05,0.119065152912189,1
0.000104290246649105,0.0862774770823729,1
0.000124575444107991,0.0958128187801112,1
0.000141385525377715,0.103900507344787,1
0.000154899733892641,0.107183881786532,1
0.000157062104588445,0.0687015687736513,1
0.000206570191656972,0.0773488114270866,1
0.000290203139573621,0.091557381548893,1
0.000369519289124413,0.10343178879584,1
0.000405573101902884,0.101412861693346,1
0.000422548380498555,0.13284217326715,1
0.000375897210088406,0.165592115786584,1
0.000317147861605504,0.0689155708965027,1
0.000533026226064077,0.0570904761333182,1
0.000669925227398187,0.038304626339044,1
0.000578832961853674,0.0198094350526208,1
0.000670683501134173,0.0221495762784674,1
0.0006907425227358,0.0213248209292902,1
0.000704714796500798,0.0209190308331889,1
0.000770081002941518,0.0227628324152148,1
0.000893485549534787,0.0253977101009058,1
0.00101241698157683,0.0270285158218967,1
0.00103587971164617,0.0303714866184101,1
0.000715932939615752,0.0341806433716221,1
0.000210575795241038,0.0158614115850111,1
0.000208649180593377,0.0325215757126032,1
0.000360253856578403,0.0508376123819627,1
0.000455961010478736,0.0745529806127726,1
0.000457104562853281,0.0737894777857711,1
0.000481584698201741,0.0801428302313949,1
0.000502445245008829,0.0785986383027633,1
0.000499919795057352,0.07586517530609,1
0.000426454502287621,0.112877364240713,1
0.00021829851235426,0.0781785247964913,1
0.000129857696575818,0.0882662086614002,1
0.000156034737575716,0.138696519410788,1
0.000147464471065905,0.0952648462161025,1
0.000144565790154227,0.0904219965429119,1
0.000143246458646504,0.0909532871449143,1
0.000132185365986546,0.0861217431794956,1
0.000133195726866413,0.0910993511721832,1
0.000158412765823064,0.116051643633048,1
0.000184259451659403,0.125668154131898,1
0.00018298443086913,0.117113798199544,1
0.000124001166281168,0.0674930681428588,1
0.000211752747812072,0.0622371335449916,1
0.000525075790913923,0.141456912148296,1
0.000670839104928583,0.0974028349333711,1
0.000651799198878,0.0637441315842816,1
0.000668754583889527,0.0621358020813484,1
0.000691480322302353,0.0644374994597509,1
0.000675952332369843,0.0650593966088388,1
0.000641977808959319,0.0634719996415321,1
0.00063380496481914,0.065726644382682,1
0.000688757259902374,0.0829333998629963,1
0.000662645722583829,0.149514855880431,1
0.000370727209623791,0.124133489222537,1
8.81614192473351e-05,0.0629454950819926,1
6.84306209726611e-05,0.0878583373529425,1
0.000188172056472979,0.17070025465864,1
0.000247332307790175,0.141605288729936,1
0.000249810326911903,0.113774560579383,1
0.000244671833871704,0.104239486253031,1
0.000243542723556206,0.0986868727052668,1
0.000231210513047886,0.0910162060276846,1
0.000227843906007879,0.0441341353985008,1
0.000435454276508634,0.0500892539714875,1
0.000604549575240382,0.0458020217176613,1
0.000612426429209634,0.033301532514134,1
0.000618143982434519,0.035885876829146,1
0.000616590434390193,0.0376188926487467,1
0.000602820594386271,0.0390558865361738,1
0.000552664832944678,0.0377562622817013,1
0.000457889692927861,0.0349627692753698,1
0.000358145844781097,0.0267503362078297,1
0.000436875717920315,0.0449215699142685,1
0.000410870402629103,0.0744665847007683,1
0.000262328855670539,0.0711737977889982,1
0.000282119131919695,0.155291869057392,1
0.00033351126574155,0.169879036960978,1
0.000349960109299561,0.206828172554035,1
0.000341438673320981,0.202195218041624,1
0.000287977929058376,0.217831587066746,1
0.000132788559415408,0.166764443905271,1
2.48464120922295e-05,0.133397644644465,1
3.37015031786913e-06,0.289838298460828,1
1.18203322593368e-06,0.224773382395134,1
4.78139733492859e-06,0.124319009789727,1
5.05073319813532e-05,0.129671469081733,1
0.000169133352682189,0.213112894403936,1
0.000251317528988512,0.241671012009664,1
0.000287495943480974,0.264271848693648,1
0.00028977949801506,0.21106698824425,1
0.000254811774609124,0.147332782676935,1
0.00021889941119053,0.136230659733722,1
0.000173596351815467,0.119060126912375,1
0.000120599570973147,0.0950335762388756,1
8.05203890967515e-05,0.0831448698651735,1
8.17023710945716e-05,0.145891005565969,1
6.94114253654426e-05,0.197224232116825,1
5.64107893626348e-05,0.176208922363087,1
4.29032783899457e-05,0.157245137816371,1
2.11764513735806e-05,0.124258581048944,1
1.86500985265995e-05,0.212929751027663,1
2.13572866148543e-05,0.227958912837722,1
2.56608579884863e-05,0.442824071690791,1
1.80348739617901e-05,0.322012161862656,1
1.02470416470774e-05,0.235760616022678,1
9.28907592134982e-06,0.196327341277958,1
2.02505885990896e-05,0.20703348541517,1
4.74771463673663e-05,0.387523352124799,1
6.7882396910651e-05,0.401979082265493,1
7.52855695931784e-05,0.384216853615391,1
7.38476796879983e-05,0.321911001123262,1
6.55512141051275e-05,0.309889973670598,1
4.91335556613162e-05,0.230656066324079,1
3.65693335597866e-05,0.177833678253754,1
3.05558088408903e-05,0.162104597605625,1
3.75599171860183e-05,0.0800967248568806,1
0.000206855441000066,0.0686370769857174,1
0.00058176089828727,0.0917442695387389,1
0.000665943348834267,0.0513921943466769,1
0.000669530408057082,0.0405262558374117,1
0.000709250872538234,0.0403547231500231,1
0.00076094340108154,0.0417905481779375,1
0.000836654404150006,0.0450752746273307,1
0.000917334725816773,0.0484749365851181,1
0.000967708136836455,0.0484446325812988,1
0.000995487610308153,0.0586506669447369,1
0.000861560987930757,0.0984654617498892,1
0.000345677537183526,0.0755588099534922,1
5.64198076451464e-05,0.0660949663506459,1
1.96775397133682e-05,0.0765904700967202,1
6.45509963917677e-05,0.101580089758942,1
0.000157247966588373,0.150051915759685,1
0.000183840207180599,0.133013682749692,1
0.000180292530103797,0.128081416658077,1
0.000176615405987253,0.116606089174682,1
0.000174990220228588,0.109455948999934,1
0.000165190375467091,0.0953042154683345,1
0.000154270464820291,0.0889462789833005,1
0.000107861550558834,0.058058318518187,1
8.78061907000823e-05,0.0472302954134966,1
0.000126650627222451,0.0815456109837154,1
0.000118116128074883,0.0727436869624782,1
0.000108158908413672,0.0626704564897936,1
0.000124687764415355,0.066446475044504,1
0.000151893085462383,0.0805170542913414,1
0.000198680208349086,0.0932477347988142,1
0.000258943932979015,0.12167191739037,1
0.000269463333161457,0.097222948416473,1
0.000270582053241523,0.103638115559627,1
0.000258742446404416,0.128626421458882,1
0.000200302374850801,0.116012802254537,1
0.00016111752751306,0.111248043104461,1
0.000157903176296784,0.103031450743809,1
0.000170676552113926,0.0919862587903865,1
0.000178249115890583,0.0757632032156154,1
0.000168467545157761,0.0680345215563409,1
0.000142668434763868,0.0599156595700258,1
0.00014112929089113,0.0744425128915115,1
0.000177160274607817,0.0906315456668248,1
0.000227642293497501,0.105074896754056,1
0.000273165266626553,0.113115353355178,1
0.000301937901672578,0.121614936295649,1
0.000300740284427563,0.169681541134882,1
0.00019091281178272,0.214856863326681,1
5.46475454384937e-05,0.179577654293443,1
1.80454867193399e-05,0.259290227482591,1
1.59932244503665e-05,0.212021703645375,1
2.07162777664546e-05,0.235447157210422,1
2.25653672020871e-05,0.247581195756183,1
2.08049664382549e-05,0.235486419602828,1
2.72553196859744e-05,0.094762958190049,1
0.000118773749773647,0.111828446147545,1
0.000230060580638684,0.133065850073685,1
0.000259308471702302,0.129043313657985,1
0.000289995576597664,0.121643731355115,1
0.00034724961059446,0.128191060391255,1
0.000355567024206815,0.106755492847541,1
0.000323296441241713,0.0950655529919877,1
0.000254210544390993,0.0808504715556671,1
0.000144550483620762,0.0586603318595943,1
7.15109114172057e-05,0.0484848359923011,1
6.90055556933172e-05,0.059587585416402,1
0.000123059500167234,0.0664904680242371,1
0.000232822853890673,0.0984617013956493,1
0.000282994705762595,0.126580153930417,1
0.000223280275648801,0.0976708914770307,1
0.000170110065229391,0.0871497223470995,1
0.000150541090162303,0.0818088014394566,1
0.000161302533042962,0.0853090273246853,1
0.000201929138008466,0.096756204593694,1
0.000229573455173877,0.109111380229848,1
0.000242315613859248,0.138451372856017,1
0.000225733414449695,0.195240756022479,1
0.000160015869062978,0.155822481586733,1
0.000118918960130869,0.144788238314119,1
0.000104756492922206,0.125832725606024,1
0.00010543343669147,0.118092889160487,1
0.000104007335122324,0.113131084557628,1
0.000103518410270024,0.109189025737065,1
0.000112995929341154,0.0961912897992057,1
0.000137548699751292,0.092592024848174,1
0.000136410763258709,0.0663306254420963,1
0.00016355145790583,0.0715026638819565,1
0.000194105875583259,0.0788625627600344,1
0.000217594495060544,0.085809849334064,1
0.000258490784026977,0.112499391675109,1
0.000270389719423234,0.111063621868497,1
0.000258453100946733,0.101134939877815,1
0.000250226642850209,0.105434495083983,1
0.00019960289337965,0.111748487456121,1
9.35134694864184e-05,0.0820336887060426,1
4.97542248140821e-05,0.0808779206590492,1
4.68289549105284e-05,0.10081306256731,1
4.78398963756841e-05,0.0950440858522999,1
5.45902553313668e-05,0.101212915001166,1
6.1040978382032e-05,0.109162287646042,1
6.29292439839714e-05,0.135267938963514,1
4.38801083349079e-05,0.135660248259586,1
1.61374406620075e-05,0.0909686778883407,1
1.29721857228016e-05,0.137065640022557,1
1.19096484755297e-05,0.137057835852829,1
1.28666723510422e-05,0.175927378169656,1
1.13102688730053e-05,0.179598218428075,1
1.0136114104054e-05,0.16737237427686,1
1.11993146486727e-05,0.181594181916823,1
1.20748265909352e-05,0.0966238423285541,1
4.12669371759018e-05,0.100184846366916,1
0.000111515481146912,0.150804966136119,1
0.000133515023694558,0.130452925980426,1
0.000120831860585598,0.114027132784137,1
0.000111778725347051,0.109769107531205,1
0.00010952326889969,0.102739628800123,1
0.000107123896138603,0.0976355230279281,1
0.000102665931234746,0.0979072853678044,1
9.84087789356181e-05,0.0906594672664932,1
0.000111598385310876,0.121705548535369,1
0.000118696886258087,0.22225661933722,1
7.52542329291423e-05,0.155170810845398,1
6.09695018228003e-05,0.165076197266181,1
6.9189704219568e-05,0.175583510250866,1
6.42594652012345e-05,0.140707349490768,1
6.06140491525503e-05,0.136095081650229,1
6.04216256850623e-05,0.117220299152757,1
6.39661356904608e-05,0.115847794532264,1
5.95812012652841e-05,0.103042941830103,1
4.94143454903893e-05,0.0853128404541087,1
4.44974866149964e-05,0.071175746295793,1
5.11848878198507e-05,0.07793079517853,1
4.50583058558302e-05,0.0682571803164799,1
3.78257777553384e-05,0.0642097161613756,1
3.69957755885622e-05,0.0727136570512095,1
2.96732845169424e-05,0.0660073972610084,1
5.48850304354733e-05,0.0616850404594425,1
0.00014616127908212,0.102639267798911,1
0.000184360004442155,0.0873573065535104,1
0.00016782957531048,0.0776358843974272,1
0.000163676600183146,0.0846771100397635,1
0.000168387396639411,0.0908815317126823,1
0.000180378616814324,0.0998769648367706,1
0.000201977520827328,0.106522865527653,1
0.000226316050997066,0.114367195793931,1
0.00023486208073922,0.116382370300611,1
0.000220686826779933,0.203494885268973,1
0.000127586775641641,0.194875350356812,1
5.35466682171453e-05,0.196216278711355,1
3.57127290604798e-05,0.206016756004411,1
2.27565286436497e-05,0.146836234860059,1
1.38821869925959e-05,0.105803803265519,1
2.42096679842933e-05,0.157687676459057,1
2.89373414358835e-05,0.192645686153619,1
2.61534333775119e-05,0.172216167958309,0
2.68770320840536e-05,0.177519018044342,0
3.56526640971956e-05,0.195410184946171,0
4.60271639592279e-05,0.207720988140941,0
4.59888031737303e-05,0.157009802413326,0
4.73515280954941e-05,0.153127495080008,0
4.73472830991995e-05,0.147708880171946,0
4.77057411521185e-05,0.156125816781073,0
4.29653583257012e-05,0.164928320364667,0
3.68567579632068e-05,0.149885016302036,0
3.27203375209831e-05,0.133691784528953,0
3.23837554734819e-05,0.148557965221561,0
3.27918967922732e-05,0.168809734860955,0
3.48124403208626e-05,0.179461956664289,0
4.3971384560075e-05,0.224534982611422,0
4.20774870673884e-05,0.203046176423508,0
3.97796356205772e-05,0.193214456280936,0
4.28175374691864e-05,0.202377734349018,0
4.47082684240965e-05,0.223924734424252,0
3.09519830588766e-05,0.1306898407402,0
2.90731813173124e-05,0.110773373755707,0
4.72925693392895e-05,0.154713022940646,0
5.79362302485907e-05,0.166692644444098,0
5.41134085741181e-05,0.167090828183261,0
4.34091725549007e-05,0.158825191186619,0
4.15435236315226e-05,0.164353864647697,0
4.24211956925783e-05,0.170865806013252,0
3.75247234719234e-05,0.180660856707561,0
2.25085525558903e-05,0.141749345406137,0
1.55946014218213e-05,0.161554413214108,0
1.44819209229065e-05,0.246774436671253,0
8.91981727446428e-06,0.196588732073427,0
7.19689681292593e-06,0.215773617705893,0
8.10450103390119e-06,0.121351721212376,0
2.90992927137536e-05,0.13271456276933,0
6.51901626289536e-05,0.166125211722283,0
6.94722694229557e-05,0.107582083184923,0
7.64497476869915e-05,0.106278058933255,0
8.53957708097316e-05,0.112600108890774,0
9.14853164484434e-05,0.116333694298325,0
9.52217952718211e-05,0.119496125373292,0
9.69899693682774e-05,0.119892205461906,0
9.53581020761612e-05,0.109557818183058,0
9.95793610772669e-05,0.120717648282007,0
9.07137997114465e-05,0.157914772064281,0
5.19072618542999e-05,0.127938404661174,0
4.3217048451702e-05,0.210828380513266,0
4.19553448364795e-05,0.261659828293232,0
3.9547890306834e-05,0.259421289182756,0
3.99876788601005e-05,0.258949793006803,0
3.97188662707299e-05,0.211250326714835,0
4.05697652388761e-05,0.168846582983544,0
4.85119729405232e-05,0.211402717161898,0
4.9667243746071e-05,0.247798480065133,0
4.5016691551488e-05,0.243115708479005,0
4.3912482368246e-05,0.223070577335009,0
4.37584138163676e-05,0.198815100766652,0
5.15560541803445e-05,0.150328767231671,0
5.52121662322631e-05,0.12855915439549,0
3.90892620811372e-05,0.0741224462822665,0
3.94868386687353e-05,0.0794637343919636,0
6.05195572959977e-05,0.125259673370057,0
7.83619891133834e-05,0.146806992096379,0
8.67944007692938e-05,0.158065794964978,0
8.64943043448793e-05,0.149289282003181,0
8.60262885673515e-05,0.139568474996245,0
9.40765454323848e-05,0.14153697232498,0
8.60449484077578e-05,0.179463867488089,0
5.99200218746276e-05,0.154955680072339,0
5.39031625257068e-05,0.211530444284794,0
5.40184828794778e-05,0.225788080360966,0
5.24520899192742e-05,0.219741103491395,0
4.71342782034162e-05,0.217107791797413,0
4.13413033209204e-05,0.19483655052591,0
4.05603157864078e-05,0.206652922265012,0
4.58548843465642e-05,0.390066664744773,0
3.75168556874648e-05,0.704629188928492,0
1.91478436860968e-05,0.477312366538197,0
7.89839912643572e-06,0.312933173697166,0
5.39854615575784e-06,0.216029909889327,0
1.29267826725521e-05,0.340257688470717,0
3.30847545775001e-05,0.408679231891119,0
7.99948078609859e-05,0.426683531791459,0
0.000145379450019115,0.541263913981301,0
0.000165305385250423,0.272471179640677,0
0.000149187496651802,0.178429775468877,0
0.000129366449382365,0.168674564255195,0
0.000105089909499183,0.132503625958472,0
8.86983325687466e-05,0.101002652922672,0
9.48073208774767e-05,0.102964305878855,0
9.10978638168104e-05,0.0959434862409472,0
8.83279356972103e-05,0.0973569635102242,0
9.51474355303167e-05,0.105640192006319,0
9.90078837206577e-05,0.113545160508304,0
0.000108218879992374,0.157221003599489,0
0.000108784730260871,0.226885225404904,0
8.089120379759e-05,0.189154336535498,0
3.82633752394929e-05,0.104985926846779,0
3.01023818696101e-05,0.115587629260407,0
3.52098717621386e-05,0.112542029371307,0
5.34475668976143e-05,0.061681588949849,0
0.000179917604346836,0.0900444996034072,0
0.000346173638774377,0.122381677894767,0
0.000410505128568934,0.107950900818529,0
0.000393165770168494,0.077146398863688,0
0.00040901936385702,0.0694143739439793,0
0.000493522887140102,0.0746086736182347,0
0.000634453517540904,0.0853784827573008,0
0.000782176664966813,0.0948159773936977,0
0.000925026612143582,0.107814000339916,0
0.00105242484484735,0.188462970055959,0
0.0009660473763546,0.37734235183877,0
0.000655364308454984,0.341280277562194,0
0.000337171277533622,0.262096049314276,0
0.000135056891728966,0.253876754089467,0
4.3263377877007e-05,0.262959829425699,0
8.62752726749727e-06,0.235126071350876,0
1.83480479630988e-06,0.255455093455336,0
1.25779747155467e-06,0.252903751168547,0
1.17018832552483e-06,0.171372405431992,0
5.0779675575184e-06,0.194059779461464,0
1.82675392470748e-05,0.343356320456775,0
4.57384743281252e-05,0.258483370524726,0
0.000159436284323753,0.178709282127983,0
0.000339326443742315,0.21754882020003,0
0.000404238468130704,0.189066834089846,0
0.000423168355403655,0.18869904251964,0
0.000415148350874252,0.168615320932134,0
0.000336778175935204,0.114488915422002,0
0.000248056118879938,0.0951765593268171,0
0.000192144909817247,0.0830249210659002,0
0.0001663586864957,0.0754605813934193,0
0.000158463112386283,0.0859160928210041,0
0.000162178535921314,0.195234454665456,0
0.000121617771888912,0.217510132476345,0
0.000110915202917894,0.222390052973376,0
9.90433095621427e-05,0.307949999649198,0
4.59093222217369e-05,0.178551282657747,0
2.11705830864339e-05,0.207057674177856,0
1.99827552137669e-05,0.202325802476516,0
3.15295506911251e-05,0.187764651363335,0
6.02287865227769e-05,0.245030731219367,0
7.71549843165377e-05,0.236583172100379,0
8.00983462822378e-05,0.221653375137903,0
8.01421383150374e-05,0.208306237672715,0
8.25667521282595e-05,0.187950061978137,0
0.000100406084111142,0.196287439527885,0
0.000140324016428099,0.253901013732213,0
0.000184732440832967,0.309537948991245,0
0.000218094884337784,0.364458271483236,0
0.000223465876705525,0.641849461043455,0
0.000177814030718503,0.737630388865447,0
0.000116689911242481,0.560840471938741,0
6.56739081055107e-05,0.393617256216644,0
2.40051626863707e-05,0.241985554721617,0
4.01456370132349e-06,0.193083526037692,0
4.9999225935865e-07,0.169608869341207,0
4.68639052910833e-07,0.19945538715848,0
6.59730589443269e-07,0.229209440224693,0
6.96117491685865e-07,0.232775833129441,0
7.29701255583292e-07,0.246195119924495,0
9.69532073268274e-07,0.276945651123134,0
2.25822276550005e-06,0.34943714774099,0
4.36209735900125e-06,0.466279745222882,0
4.56300494919053e-06,0.348082899437138,0
4.09545876270476e-06,0.284612425935403,0
4.52125403654518e-06,0.302643873618794,0
4.69856521049897e-06,0.292066664761256,0
4.99619841644755e-06,0.263409100380936,0
6.57822128758391e-06,0.293654430393717,0
7.33670046965047e-06,0.295530549414343,0
7.18315060242306e-06,0.290875480205792,0
7.07643603812327e-06,0.306088059573012,0
6.65338520374777e-06,0.286782969310705,0
7.8368746955379e-06,0.333159643213978,0
9.24971565400933e-06,0.380971027558762,0
9.35384746757799e-06,0.386264580968827,0
9.84269174232424e-06,0.424830595332388,0
1.02690355838819e-05,0.557790211097208,0
8.133637023554e-06,0.620521122134437,0
4.92797164067722e-06,0.490198961044447,0
2.80698045369427e-06,0.38012340606311,0
1.01012821885119e-06,0.230002066786782,0
1.30524964635112e-07,0.106241520202049,0
8.59090130072417e-08,0.112317333320751,0
4.48945044959797e-08,0.088075520955999,0
3.86900328532468e-08,0.0990557576947068,0
2.78424797825087e-08,0.0773878023863073,0
4.18309565729618e-09,0.0450182663881225,0
1.05145703318489e-08,0.059184092631106,0
1.17243008912431e-08,0.0579785454989317,0
1.49714162215973e-08,0.0602179912422749,0
2.55692322381686e-08,0.0782639087307414,0
3.12571537346758e-08,0.081278397182471,0
2.97528615216489e-08,0.0880307367226313,0
3.08628039846131e-08,0.0848742936628854,0
3.59082395554429e-08,0.0794525790945348,0
1.32942824875348e-07,0.136309460289266,0
2.68443853677355e-07,0.191557760897446,0
3.19206645320074e-07,0.190272604421447,0
3.26419136824604e-07,0.185668111636109,0
3.61217433917083e-07,0.200273254797389,0
3.58478864340193e-07,0.190199145950733,0
3.37396361058083e-07,0.188697471355308,0
3.55968686770104e-07,0.181632310060924,0
3.97551507167452e-07,0.196245312782459,0
