Activity,Complexity,Tag
5.40736289265099e-06,0.370381355685264,0
3.77029161610765e-06,0.366101747599588,0
2.62095161318785e-06,0.302427903736067,0
2.29020660406146e-06,0.277452736200479,0
2.13201077028359e-06,0.293519043685519,0
1.07950796423429e-06,0.221406449707387,0
1.14440868200613e-06,0.21608209366569,0
1.74667686213392e-06,0.251750205786915,0
1.53769237998006e-06,0.244604619292532,0
1.43358365043634e-06,0.242898920644744,0
1.3800451837274e-06,0.231822533146752,0
1.41327978412839e-06,0.239703495308545,0
1.34260414840608e-06,0.240885148909857,0
2.12675582809288e-06,0.290803122762486,0
3.45542971680933e-06,0.353595381688763,0
3.79877050238178e-06,0.371763429591012,0
4.17849183795394e-06,0.414732168436066,0
3.17683585938663e-06,0.373935347662429,0
2.47076717064058e-06,0.311101800172068,0
3.22267222525929e-06,0.342575324065561,0
3.24422416172693e-06,0.342717181864624,0
3.64191257414784e-06,0.329659097526833,0
3.42715830749404e-06,0.310337669404207,0
3.60912372836772e-06,0.318480523894716,0
4.17041670637929e-06,0.279862866372256,0
8.19264288795397e-06,0.386588126220256,0
9.55227768627495e-06,0.398611120770251,0
9.98015848797757e-06,0.388336486960394,0
1.03852302995145e-05,0.374850157030443,0
1.02061586474823e-05,0.382897175434256,0
9.25562991113207e-06,0.358641279378428,0
9.70290745565554e-06,0.363364636286607,0
1.05009906783946e-05,0.323253819773129,0
1.24616393837643e-05,0.363150770677987,0
1.33349024172766e-05,0.396972794796842,0
1.36358115980393e-05,0.377371548756691,0
1.51768924831555e-05,0.337561794772222,0
1.80468463920899e-05,0.380947244694287,0
2.32338302535646e-05,0.449280460439192,0
2.59568263075025e-05,0.457915380732976,0
3.04418952972835e-05,0.475216939823109,0
3.38919498636023e-05,0.551492761183763,0
3.89606136794272e-05,0.649454394050635,0
4.38565693968309e-05,0.675270143098483,0
5.37895042039306e-05,0.693859149960855,0
7.372109610188e-05,0.858739500251698,0
9.41290037628408e-05,1,0
0.000141319553564947,0.851126124407587,0
0.000326869185531582,0.351236888779216,0
0.000745718556924799,0.184043936578245,1
0.000823768782975871,0.0760905654112884,1
0.00227624531950798,0.0929178618664261,1
0.00615242214683525,0.0383548473745329,1
0.0302719932319009,0.0610227805479093,1
0.0429820503448664,0.0394826878835569,1
0.0423672405784935,0.0314326445581034,1
0.0538694194925548,0.0339238916347922,1
0.0577788878727083,0.0354584313784409,1
0.0678185751192622,0.0397183557927004,1
0.0753414149658049,0.0427205249978881,1
0.0696971949164656,0.0358618970008485,1
0.101103606246702,0.0461393596830413,1
0.123678535804727,0.0462017937157526,1
0.212560896565574,0.0526485114924076,1
0.208278548005793,0.0462897026871199,1
0.157014752402686,0.0399337728717022,1
0.153468144794806,0.0415408094363431,1
0.116367595148525,0.0260204471799996,1
0.0886476822506154,0.0207714727189625,1
0.0800575110833102,0.0176151293516556,1
0.0755217644987996,0.0165802274575414,1
0.0787956713407356,0.0156837024476905,1
0.100063364765097,0.0215457755399775,1
0.0888244181999826,0.017729679962971,1
0.091449649741777,0.0202990454857036,1
0.0965837495915948,0.0178879812976919,1
0.095944273953492,0.0178897857104616,1
0.106258028631476,0.0219416811192907,1
0.12264428901072,0.0256641320598728,1
0.0938662302485466,0.0236334657358796,1
0.054594293308707,0.0174082826946409,1
0.0621578267266448,0.0186819040516658,1
0.0722340543694365,0.0166982879904933,1
0.070034101817588,0.0158783366188392,1
0.073776229062599,0.0165394077504146,1
0.0796884662979327,0.0214273273599019,1
0.090478818918715,0.0252516080024998,1
0.0843172953332832,0.0276602190604617,1
0.0535010712516042,0.0162235949640805,1
0.0730474314674405,0.0147473705117376,1
0.0752242320213703,0.011753694183837,1
0.0778667467771344,0.0124270743336934,1
0.105627004982246,0.0214846322459144,1
0.0843816067394901,0.020796018672159,1
0.0934393051473179,0.021932708136986,1
0.112086843670441,0.0226671504123838,1
0.107725724381513,0.0189656028608547,1
0.0969996007679986,0.0182401282833295,1
0.0382313191899998,0.0076181308078225,1
0.0324177912522843,0.0125521714580835,1
0.0251737045534924,0.0134766366945383,1
0.0165950310166074,0.00984593446322578,1
0.0168933325542274,0.00977510500705564,1
0.0189064106826064,0.00955041581629406,1
0.0197569115090127,0.01279136896467,1
0.0126708492611861,0.00880197181044297,1
0.0140684721965963,0.0111611225083522,1
0.0168868439600284,0.0113890296433943,1
0.0211251706631442,0.0140382639680379,1
0.0272493748890797,0.0153726807844748,1
0.0252366449316354,0.01641356938318,1
0.0245774584584023,0.0208064588018553,1
0.0293376445275796,0.023877869891201,1
0.0285463801142338,0.0272841277618205,1
0.0245586146395378,0.0261212483218253,1
0.0176546046491785,0.0237113096411584,1
0.0119625991800146,0.00668144894919286,1
0.0204305981539769,0.0117336858700547,1
0.0217518027506831,0.0118561273151214,1
0.0219344990311754,0.0100193251581588,1
0.0246981143318449,0.0113406973764163,1
0.0308023154192713,0.0137916801786755,1
0.0295734408763946,0.0119521186996832,1
0.0298144189318839,0.0124008059848417,1
0.0304747014000132,0.0108872142612146,1
0.0376584442406869,0.0113725448694661,1
0.04194629720397,0.0192205903908678,1
0.032587251141061,0.0150747309454071,1
0.0448750445947418,0.0145270613933918,1
0.0558661898100489,0.0196493732520061,1
0.0562336580826101,0.014595878635197,1
0.0553007856902147,0.0143487329391573,1
0.0567702286323839,0.0171099465716462,1
0.0546389889106476,0.0155053721545997,1
0.0533242893137927,0.0172841079688928,1
0.046430413129304,0.0205750938572004,1
0.0398042822882952,0.0192389306352741,1
0.0387224318238519,0.0190260357454953,1
0.0280904402216603,0.0191498269907485,1
0.0187713364353307,0.0131103731617631,1
0.0211697241106421,0.0221999694507793,1
0.022126354355921,0.0237780723782495,1
0.0259312088903991,0.0263243040439125,1
0.0272980895111481,0.0312956702164644,1
0.0238146408757127,0.0258779928058714,1
0.0227883170021943,0.0195880087259304,1
0.0310044783094878,0.0248252001947414,1
0.0327897073262678,0.0312656747358245,1
0.0484447258187398,0.0333461605878886,1
0.106531899379669,0.0523416892692565,1
0.134944478042266,0.0352918969815385,1
0.259566477508425,0.0438869263005211,1
0.252530972298167,0.0368181677018489,1
0.217945733019807,0.0324741739920004,1
0.167185556331491,0.0276423832669545,1
0.128561005057795,0.0228457880901218,1
0.1050078081898,0.0200327423540975,1
0.0814225010114508,0.0157852375280647,1
0.0744921993203417,0.0166086214631982,1
0.116273925675639,0.0263298441733999,1
0.163411024452735,0.0521646517652978,1
0.189936752762569,0.0527906671628428,1
0.185679988090118,0.0626879853439093,1
0.179882578655107,0.0402893029363411,1
0.165197613142386,0.0328385199734926,1
0.132650154429703,0.0239866736309719,1
0.117784113895242,0.0191828697684548,1
0.110506697788276,0.0174418874271368,1
0.163422672412832,0.0187561762238458,1
0.195405423079327,0.0224033567074083,1
0.154436959815584,0.0152619078935561,1
0.116897535024734,0.0133203145002989,1
0.106611902623338,0.0109782402587012,1
0.100049331459088,0.012605732113314,1
0.115930641412779,0.0145041631975353,1
0.0991890190432338,0.0123008789661625,1
0.144866584703885,0.0128137692279632,1
0.227061872369543,0.0185073960457386,1
0.213959091597523,0.0169531635984487,1
0.170591025460573,0.0132887361904556,1
0.191297242353982,0.014854650377003,1
0.270061313845487,0.0185252468790969,1
0.325043646200835,0.0210612758147859,1
0.404103816658629,0.0268212599755807,1
0.434236708869477,0.0297849935764005,1
0.497019262773748,0.0337404625584455,1
0.433710549790063,0.0551905498810918,1
0.246133997288162,0.0365736937728214,1
0.0844581360285299,0.0257092683438342,1
0.0476343768704785,0.0134077405818156,1
0.0277288566597922,0.0117225407350345,1
0.0253472076009509,0.0117614668215291,1
0.0156471428157703,0.0091388997689216,1
0.0156174845194512,0.00860527050767432,1
0.0149677424316079,0.00824358714303178,1
0.0145781057056514,0.00825241594274732,1
0.0146182280927648,0.00987353942426791,1
0.0123498162106442,0.00908822846479666,1
0.0143273922776958,0.0105591240465007,1
0.0131097956432898,0.0130575461481951,1
0.0123395973757962,0.00979728968130536,1
0.0130147804831908,0.00919853125914892,1
0.012765486696434,0.00928040691666313,1
0.0110194644273137,0.00791204450944606,1
0.014413552665774,0.0104218538032,1
0.0224606482999239,0.0150462266936011,1
0.0227768561642835,0.0127574850123837,1
0.026659678516248,0.012929856421901,1
0.0254224202078423,0.0112853387098926,1
0.0254231913288995,0.0104477607049767,1
0.0278991906389436,0.0125379030530558,1
0.0253251697200782,0.0125483251246913,1
0.0274278861349374,0.0143769686818128,1
0.0241505529449235,0.0125500106597578,1
0.0259145072054694,0.0143042015786751,1
0.0290391669029813,0.0131522562308162,1
0.0260582740254824,0.0105880871182151,1
0.0276386754965877,0.0126537691036581,1
0.0263201354813324,0.0127338169642541,1
0.0189225069215362,0.0106964102308463,1
0.0186790843477061,0.0140077410843656,1
0.0198642084963432,0.0152164733149887,1
0.0181851707492422,0.0151859164098011,1
0.0160285643073786,0.0115224963578241,1
0.0160790536501355,0.0119100960556963,1
0.0155236651461737,0.0224446631484789,1
0.0146878383122723,0.0384536809598667,1
0.0151625210205045,0.0411188030238793,1
0.0174436938809954,0.0756785098003442,1
0.0143851277232953,0.0803092022435175,1
0.0122203924584563,0.0834207044151541,1
0.0124580953297298,0.0308752166121467,1
0.023321777780362,0.0498918850550308,1
0.0596358968116989,0.0750500756124054,1
0.0786963094666943,0.0517504788017897,1
0.0840952023524891,0.0367489149386456,1
0.177904336694178,0.0375164257308513,1
0.177785034992473,0.0218657555187977,1
0.158200314681273,0.0189966430107402,1
0.135301930666229,0.0166755196727987,1
0.108173404701485,0.0135429252136832,1
0.107408869046803,0.0140606556098393,1
0.131007467276137,0.0164340183428061,1
0.164062775844769,0.0188488881755129,1
0.142232442602938,0.0162906496509483,1
0.114545292994995,0.0145885915558845,1
0.117168196200411,0.0163418782247105,1
0.125651268420566,0.0239172087450697,1
0.113660163103997,0.0200473705147696,1
0.10474725408541,0.0173398271585517,1
0.118180524584982,0.0175864172838799,1
0.120465248359294,0.0148836368087675,1
0.176095743707757,0.0173673636457902,1
0.20583383197578,0.0153758839202034,1
0.207729575375143,0.0171623205680031,1
0.204846542673991,0.0138917910037575,1
0.19661754077407,0.00846552171937853,1
0.216665074429396,0.00857849018615706,1
0.22691610157878,0.00863989405845297,1
0.229517919365447,0.0083968139160845,1
0.233174975808591,0.0083387716004917,1
0.296214474918111,0.0117870054835583,1
0.256003149078326,0.0117583746710785,1
0.210305855115551,0.00993746968859406,1
0.186600869458409,0.00804609753332709,1
0.180259294895477,0.00899667364747864,1
0.18805779721567,0.0193126979445295,1
0.093787431133557,0.0133178643579097,1
0.0907864160135825,0.0132536555666421,1
0.0746714613153721,0.0122803769393109,1
0.0841628302100789,0.0150782554614684,1
0.100895656715231,0.0182117627503187,1
0.125421881932508,0.0219394879107732,1
0.144548177405802,0.02951525399841,1
0.122209374736904,0.0233985941828685,1
0.087698371922706,0.0188050293600019,1
0.0882760459638026,0.0176080123050521,1
0.0558514399074998,0.0147926320485517,1
0.0168899948195586,0.00924134034373579,1
0.0163691332144701,0.0120552441882458,1
0.0139838287189792,0.0109053039670002,1
0.0182574356950452,0.0170897853205637,1
0.0223178338624646,0.02104712124831,1
0.0246081513693774,0.0205361264953915,1
0.0189014465931668,0.0143534851666208,1
0.0179716653835115,0.0192413125781323,1
0.0159144997401383,0.0286191019103006,1
0.0132378763126351,0.0234409337701077,1
0.0125140585475727,0.0217300233534514,1
0.0103552193330051,0.0177475505549069,1
0.0111943666968159,0.0218635808933754,1
0.0112454360533892,0.0215040653652494,1
0.00936787327557277,0.0198987684208056,1
0.00896601599140019,0.00833647755268252,1
0.0378929703847591,0.0363605590077811,1
0.0424243035491323,0.0190623024868029,1
0.0414905073805502,0.0182177827941131,1
0.041502134216284,0.0187426672845734,1
0.0400101401910704,0.0174792463443039,1
0.0533094196735101,0.0186028789322111,1
0.0583187400774122,0.0159905771047943,1
0.0516085593897221,0.0113521975091969,1
0.052141751823608,0.00996031039849204,1
0.0520062265357547,0.0142086759713769,1
0.0462921109341132,0.0117799246734873,1
0.0441826016363525,0.0149766636128548,1
0.0432516988086105,0.015203448115015,1
0.0605757874429071,0.0159591798324168,1
0.0917025834044114,0.0202591813071377,1
0.0886608331840688,0.0161290403381577,1
0.0825278102903118,0.0170025371884227,1
0.0786717702932291,0.0187477488956747,1
0.0807779399205823,0.0191074837466083,1
0.0842855457077197,0.0201872948909909,1
0.0816085368308058,0.0187278917877768,1
0.080693035386472,0.0204807496743758,1
0.0869239401278652,0.0203793282297495,1
0.0721752257750114,0.0266062989722175,1
0.0243928326963078,0.0118381558253973,1
0.0173115485818838,0.00536534401428582,1
0.0437654973027535,0.0127599537974718,1
0.052898811533114,0.0137331500110302,1
0.0983411035089266,0.0218288084532161,1
0.116375411790331,0.0223176399918065,1
0.174669220075576,0.0289789708344611,1
0.198742438777542,0.0324176942339029,1
0.179097621466875,0.0307362999441939,1
0.183675199966505,0.0257982959335036,1
0.142291026996768,0.0191049228144046,1
0.0809274340209804,0.0140018026231547,1
0.0761315757343438,0.0124863927447256,1
0.0538861160252114,0.00827286015818538,1
0.0711488057650121,0.0127128299730428,1
0.07117201576643,0.0141667538222201,1
0.0712280365353868,0.0155894672037841,1
0.0701938703138803,0.0161184082517364,1
0.05115516440097,0.0121970732728574,1
0.0529713102710127,0.0188295284632547,1
0.0498262680672224,0.0197538990444102,1
0.0672048924605597,0.0243971593234317,1
0.0581810282908475,0.0224506215070005,1
0.0682456296476124,0.0257599521409747,1
0.0659126216345902,0.0177940311566808,1
0.0729692469109672,0.0143845531306168,1
0.0882468723702352,0.014559451859257,1
0.0883923177513553,0.0133629868610011,1
0.0902932255925286,0.0150452412880128,1
0.0857108081501386,0.0129601833919196,1
0.132762328954786,0.0139899494333391,1
0.142751163385688,0.0124460470260504,1
0.13377578230595,0.0118757790963503,1
0.128493352650334,0.0114402321871474,1
0.127271103358387,0.011524425296509,1
0.124723420122513,0.0123770428123126,1
0.102533250984078,0.00891083001534937,1
0.132621799408243,0.0101886681556542,1
0.139602996241373,0.00976246094817211,1
0.157012319515033,0.0104670254704654,1
0.199471221769744,0.0182226025993572,1
0.230607424551973,0.0222145351888037,1
0.264550811718204,0.0254774451098611,1
0.25604281186248,0.028599796308356,1
0.240705566449315,0.0271973791056573,1
0.228290187308989,0.0286736380594122,1
0.123183600139686,0.0167030690242507,1
0.123532113444553,0.0219124382352793,1
0.086137418109695,0.0194125976670022,1
0.0644810706378448,0.0169751051966742,1
0.0664149940909113,0.0225427434255623,1
0.0602225620340722,0.0180717528473979,1
0.0592788452571671,0.017234877625913,1
0.0556181636345729,0.0179258808694813,1
0.0465103114343349,0.0158644533921022,1
0.0466487681181527,0.0164761602083632,1
0.0469964865099171,0.025874269453345,1
0.0236073376798865,0.0154583795488207,1
0.0164119012553606,0.00761649574020873,1
0.0267482109034809,0.0136780057647662,1
0.0236148052562547,0.0100124151513062,1
0.0221524010227462,0.0125082994653097,1
0.0216806501660722,0.0118463723197617,1
0.0228420803465482,0.0117909838879656,1
0.0440596620481958,0.0180582635049411,1
0.0475048339672676,0.0112046996334163,1
0.067230223116058,0.0150999005265254,1
0.0867883804476045,0.0189555001502306,1
0.0953556682928082,0.0218723232362091,1
0.0871693379448006,0.0254236680626493,1
0.0858220161630592,0.027880290197416,1
0.0873657293934821,0.0227496645609328,1
0.0892284962490767,0.0211661502634897,1
0.0799002871449731,0.0201188559460451,1
0.0339308822587041,0.00817969166198458,1
0.0325824447959255,0.0145039988343162,1
0.0335742906127858,0.0143796886953227,1
0.0303622660879431,0.0126303406680389,1
0.0299186086687742,0.0116936815162794,1
0.0304180758797834,0.0113674033899076,1
0.0305740065400148,0.00989564626407625,1
0.028076584826502,0.0137071726367906,1
0.0185331266221283,0.0109952505513515,1
0.0217792424244407,0.0113232577395756,1
0.0421242151140654,0.0208765915529514,1
0.0693468008261214,0.0497861003421437,1
0.172667283363849,0.0247539036673178,1
0.380982920142669,0.0298411842824902,1
0.377063981944087,0.026691142488346,1
0.36249498979775,0.0257130137192897,1
0.342258769312751,0.0246179366381224,1
0.271467754614106,0.0199634715965662,1
0.243809105930982,0.0178436058585008,1
0.245499298340748,0.0186061775546297,1
0.214245734839699,0.0155464196804313,1
0.182188425513366,0.0131888808162525,1
0.173169360497039,0.0162760815479905,1
0.162901224098838,0.0167501000411424,1
0.138291438432814,0.014886785868279,1
0.132376012849644,0.0145754025481601,1
0.134840303707224,0.00858277517327932,1
0.1610839781404,0.0115697913354645,1
0.189952903650288,0.0145936520632328,1
0.211874442748303,0.0127622671646533,1
0.22787342062874,0.0132178337386794,1
0.243220866561671,0.0143220006487,1
0.246826433908237,0.0173203714640952,1
0.231564936359577,0.0183003857409151,1
0.230063108309812,0.0195601627799096,1
0.265014004331493,0.016516511652906,1
0.306402465688693,0.0219185827730637,1
0.263197253367306,0.0149550179136733,1
0.230040330598402,0.0101396817800099,1
0.217218573458233,0.0109095252915585,1
0.239979929342328,0.0105701969166877,1
0.248169829638992,0.0103641942039172,1
0.26349204517143,0.0107354956053926,1
0.256277969678495,0.0106645416143232,1
0.204151424783403,0.00781845954560432,1
0.207146535362807,0.00817425858754162,1
0.217575881081683,0.00946196388389622,1
0.13532992619279,0.00667218608445058,1
0.155913089235989,0.0112944944558789,1
0.183007599330229,0.0132416022350293,1
0.185202690784201,0.0174925123295866,1
0.187111974185082,0.01849859488293,1
0.19832794312725,0.0189882790603586,1
0.183085006903673,0.0176736321195908,1
0.180929555433635,0.0153574745452654,1
0.144761797156788,0.0211986393722586,1
0.0597634304956344,0.0209605466605168,1
0.064228038725459,0.025434595245199,1
0.0608814831921871,0.0207067173609919,1
0.0608689994791799,0.0207273316884666,1
0.0601040016017678,0.020900267285703,1
0.0504388096633971,0.0169811574240838,1
0.0370837537796461,0.011841235403961,1
0.0345778899058934,0.00978589039658182,1
0.0357099016864603,0.0145966432234416,1
0.0390437955417595,0.0148193414127039,1
0.0274645783024957,0.0113546480119116,1
0.0234503091232432,0.0095571719160515,1
0.0232737050678343,0.0111517174847181,1
0.0249754875978269,0.0121333154893732,1
0.0243358626366318,0.0109694646836844,1
0.041149556138983,0.0157393140815228,1
0.0583803716273723,0.0149387019352521,1
0.0561022008001946,0.0138265113952523,1
0.0536643926913562,0.0146714718319464,1
0.0463100372171417,0.0138825598899863,1
0.0482154897842029,0.014558253701873,1
0.0511319084737787,0.0154113827640215,1
0.0495177607585306,0.014973406187911,1
0.0445614575485257,0.00952996573000152,1
0.0602721313756535,0.014999435666842,1
0.0493306722573404,0.0166979062843239,1
0.0239759542914278,0.0137774811977553,1
0.025241919042986,0.0121413634024383,1
0.0298142572068029,0.0119729748909988,1
0.0282141733336801,0.0071229824382693,1
0.0659826950384944,0.0143837893043982,1
0.0802753645868741,0.0145873868149909,1
0.0822110482870791,0.0161185186787108,1
0.098663921875171,0.0168633781991445,1
0.155192152464535,0.0254784787231119,1
0.168005911611138,0.0182455625589539,1
0.14268891578295,0.0146484511838425,1
0.194039876872948,0.00880272786933694,1
0.339343056474975,0.0141669744978361,1
0.282680540211627,0.0118946526527308,1
0.322278882297882,0.0143222155210427,1
0.305801640153612,0.0130806448334265,1
0.24168721216671,0.0102012921825544,1
0.217502517808472,0.00606271892596982,1
0.539512465759266,0.0151535567166463,1
0.549584139506972,0.0108079359070053,1
0.394428480382258,0.00759543626362665,1
0.371983591857377,0.00997299316614264,1
0.363068649961367,0.010346107900789,1
0.355546262313209,0.0107502400304536,1
0.360662773861034,0.0107292729561304,1
0.444781784173589,0.0126656992851182,1
0.509427964823207,0.0138207441273352,1
0.498704207903212,0.0166887972893647,1
0.230805068731987,0.00979761960740791,1
0.199656954373288,0.0165508461291001,1
0.208026712197862,0.0142564928593441,1
0.163278005951336,0.00951919659993096,1
0.150163361991391,0.00808145242986334,1
0.154817356061939,0.00789868203926388,1
0.157100046447622,0.00618641591120617,1
0.290861069193291,0.0150371166117773,1
0.245399610395276,0.0100872678494768,1
0.244300138291357,0.0115832810186627,1
0.241835323727709,0.0118862757897374,1
0.235027535587506,0.0109929144108846,1
0.230225747369824,0.0112357848223643,1
0.220244360336124,0.0131338967219573,1
0.26439148605731,0.0128018065965457,1
0.301254152679647,0.0137185929728465,1
0.415500141044532,0.0203262635009036,1
0.327878928737845,0.0191517216008341,1
0.354892048666762,0.0225856943782174,1
0.370597048712615,0.0205777854028928,1
0.324641167613434,0.0191090863949165,1
0.356552301632032,0.0228431083507097,1
0.277763431828982,0.0203922710597175,1
0.124151300121749,0.00914329456955405,1
0.0893630260817319,0.00971198755776188,1
0.0429311969395092,0.00358390151996142,1
0.0423575639848914,0.00936649283554586,1
0.0539250983514615,0.0115063239110825,1
0.0450529800111869,0.0105728820992494,1
0.0416729674673475,0.0161395455668085,1
0.0390228707685681,0.0190277151461231,1
0.042036352975159,0.0147143917513154,1
0.0417400514529654,0.0099352281340594,1
0.0491019728450599,0.0123477012611341,1
0.0451303464203461,0.0114524985995381,1
0.0638805631456907,0.0165784066650013,1
0.0812971307704031,0.0217507632971282,1
0.0718225211211512,0.0128145002434997,1
0.0819724066976417,0.0140506368470862,1
0.0794572536004637,0.0105296618232481,1
0.0911364338560121,0.0123170976407703,1
0.0677939574433604,0.0107980833612897,1
0.0503269620073541,0.0119946511481335,1
0.0501227207393751,0.0126528664606797,1
0.0502181565361216,0.0129089639465056,1
0.0533539253225946,0.0145765427264409,1
0.0534670251399434,0.0109047739103861,1
0.057399551072151,0.0169804675487538,1
0.028272632988727,0.00898353565253446,1
0.023187076851298,0.0141855925846088,1
0.0202630323165823,0.013358936923389,1
0.0194782015842736,0.0135956083257604,1
0.0275293204428473,0.0158956993331287,1
0.0356435929128319,0.0196528261509778,1
0.0432236580103628,0.0248822049193368,1
0.0361048192207814,0.0165798316280428,1
0.0240249202602815,0.0178177714962051,1
0.0253882255760463,0.0185268051085374,1
0.0390107165244798,0.0266758310804865,1
0.0368076691299549,0.0186411419292928,1
0.0690783014039984,0.00119767173070947,1
0.352528726996743,0.0183864167193599,1
0.474318038522584,0.0231339213431805,1
0.526972126056334,0.0246994104965615,1
0.517248597754068,0.0231048063798303,1
0.480744908827486,0.0223997185584204,1
0.409230372299715,0.0184233174619857,1
0.350059894201808,0.0173320185296539,1
0.495051855067961,0.0176694864766566,1
0.443202611098908,0.0121648831768301,1
0.365440814738497,0.0146173514248643,1
0.354265081290682,0.0152000041872144,1
0.373684309159596,0.0158327208365824,1
0.373227631133518,0.0153714493835478,1
0.358622080443341,0.014779523464237,1
0.306991447790438,0.0132999937947567,1
0.317172401301704,0.015197044329234,1
0.319355458270069,0.0148231329615269,1
0.258831300835245,0.0242403720971791,1
0.193941382091747,0.0338465042107701,1
0.195088009938749,0.0235042979805635,1
0.192383428763886,0.0174927015608707,1
0.149662593729804,0.015407219762905,1
0.125121966950531,0.0140392148035945,1
0.137143685864768,0.0154615656542578,1
0.126781577716435,0.0114664237115215,1
0.1231322722865,0.0103609914971333,1
0.127653398564345,0.00987951501534357,1
0.124448919466359,0.0075724136102145,1
0.122824721921432,0.00739499522676409,1
0.0966163165399119,0.00623211381136766,1
0.187550479580899,0.0165802144056032,1
0.349386387297769,0.0270532305700154,1
0.41697940563044,0.0286123012295008,1
0.481172119850786,0.0321735330320124,1
0.496821216930533,0.0412965358454929,1
0.483662559291938,0.0408963950864265,1
0.408635271707587,0.04243174552855,1
0.233070274217915,0.0336682749003434,1
0.142149587665258,0.0247082893758544,1
0.014320874339838,0.0093027951726266,1
0.00861685751083401,0.00972020616998823,1
0.010067837532104,0.0158840760857438,1
0.0289310379031007,0.0331436559138194,1
0.0304081086402654,0.0220100570034222,1
0.0352186623650381,0.0213264836966711,1
0.0357905062608124,0.0173190653983759,1
0.0328475219606891,0.0169149082103761,1
0.0337474193964083,0.0181660311646185,1
0.0298639999974106,0.0153056330548581,1
0.0289944682825719,0.0110415237314187,1
0.0357931755671767,0.0116404536108167,1
0.0354952612200629,0.0116866988915369,1
0.022846415246068,0.00829000851661072,1
0.0329191263049885,0.0146131690054265,1
0.0318132873169178,0.00622832161595369,1
0.0473873981638187,0.0100586176393431,1
0.0506269567479654,0.00800391164864676,1
0.0558330723404442,0.00880401263796752,1
0.0591760043900155,0.00979012066608778,1
0.0593529956299415,0.010030878527074,1
0.058674282980777,0.00973751087633996,1
0.0568522557934659,0.00879126299484311,1
0.0600137616637632,0.00949270702510329,1
0.0595714996355866,0.00646881508508864,1
0.0676721852189652,0.0120894945951841,1
0.0369826362665936,0.00630404723048323,1
0.0353950424428671,0.00815704687202065,1
0.0417218143025037,0.00949014432878254,1
0.0416827190617314,0.00795357659443491,1
0.0395875745728143,0.008601598863192,1
0.0516488770259152,0.0132157795168333,1
0.054268671728544,0.0109819340796304,1
0.0503146699138633,0.0093327833023593,1
0.05135554348151,0.0143919446975717,1
0.0389622546938354,0.0140498381770364,1
0.0402477727505415,0.0176303887037699,1
0.0950861817650443,0.0100252911570857,1
0.38821627375957,0.031201432518402,1
0.538523100348058,0.025286798721583,1
0.624031604519156,0.0252246631921267,1
0.878589401333964,0.0339717676474185,1
0.998176689281723,0.0414260127053466,1
0.991645984750416,0.0402218104990228,1
1,0.0412525279790626,1
0.807167443938465,0.0406495588185161,1
0.495211139405434,0.0109830754094423,1
0.381641068934651,0.0107858646814806,1
0.382494016906014,0.0129252529013794,1
0.413046302825018,0.0158598309372266,1
0.417159542903811,0.0199367223685402,1
0.414759213998782,0.0184409397987696,1
0.398991925901167,0.0171488294518172,1
0.401199036419219,0.018729251978358,1
0.312328184562706,0.0150327846194439,1
0.151864421462043,0.00665751073403752,1
0.0847510975872816,0.0138558855518701,1
0.0949848814874638,0.0146941577034123,1
0.0893427174840937,0.012500360768581,1
0.0895514236237154,0.0112756029126669,1
0.105130213664674,0.00962502830336532,1
0.160527850823607,0.011981475429208,1
0.154549295547056,0.00848928561895784,1
0.162012886546679,0.00886059120026419,1
0.162781147983608,0.00793478013511524,1
0.196158886558621,0.00886896918546948,1
0.22674083978037,0.0114857501927885,1
0.173370748700161,0.00893312062235748,1
0.251940732520721,0.0103266908489205,1
0.358833466263602,0.0160360789698548,1
0.299184756294361,0.0145569082769463,1
0.355701193701094,0.020495912866438,1
0.35712735065069,0.0311339529138344,1
0.258945001609605,0.0254877955047262,1
0.187134364978701,0.0205842483928457,1
0.169031250537845,0.0208302765960493,1
0.142806408441502,0.0219582431021082,1
0.0328726048561867,0.00480248844523722,1
0.0287481188000548,0.0125322356248474,1
0.0425546731669585,0.018003307044447,1
0.0507494798601364,0.0223220630152616,1
0.0799562456565114,0.0335273666719142,1
0.0900883506103487,0.0241763684974196,1
0.092571300465463,0.0268153204810328,1
0.0870533877617206,0.0256204435373966,1
0.0889989457727278,0.022682442014704,1
0.108346058098071,0.0259415847383748,1
0.110214640339248,0.0215197153051197,1
0.104122582782827,0.0273301157217401,1
0.0942165491265681,0.0245789743614223,1
0.0922396101722755,0.021958874018821,1
0.0537718744578802,0.00945741121259942,1
0.0709073271277252,0.0143423446181966,1
0.0802955176185024,0.0099328346302367,1
0.0802718454893232,0.00955242281751828,1
0.0806138287724043,0.0111898403781896,1
0.0622747677895212,0.00578015475795687,1
0.065644023555676,0.00653149416805415,1
0.0671702820552052,0.00594297587835194,1
0.0809001964937349,0.00707538683291679,1
0.087970394789557,0.00843227030763632,1
0.0811282549769638,0.00936680377034778,1
0.054704932565896,0.00769370028162091,1
0.0517104516439839,0.0109244786900452,1
0.0526953730170171,0.0116085296255795,1
0.0421922412125552,0.0081882664774067,1
0.033635922589464,0.00844670342215388,1
0.0320141617093405,0.0111631086312378,1
0.0224940796825952,0.0064207460579179,1
0.0345099520310982,0.0126632392504358,1
0.0334051300803211,0.0123884296605272,1
0.058299627823575,0.0156148581503784,1
0.0858645891063069,0.0195709997220285,1
0.0758535590974988,0.0138037297997361,1
0.0706575262563725,0.0112520970059175,1
0.0575304197734489,0.0096477263972366,1
0.0578400029746586,0.00951739727339161,1
0.0541031682211039,0.00891721166189247,1
0.065508416541793,0.00649331921651828,1
0.0931173015991309,0.00975183484353615,1
0.0900517491339637,0.00992502708905147,1
0.0862714227289737,0.0113711827736883,1
0.166860364466696,0.0175382874827158,1
0.235444068231178,0.028327347955319,1
0.276941409604371,0.0341280108775926,1
0.42869666196101,0.0393015453283272,1
0.383680368395937,0.0251034037667475,1
0.277626715986363,0.0195769620445927,1
0.251683144427795,0.021188194073239,1
0.24511058972468,0.0183035805219724,1
0.204057110016749,0.0102579661971875,1
0.154971200174949,0.00798559718731551,1
0.148101795868667,0.00947705248430671,1
0.150482382583023,0.00999506138787886,1
0.154880956052327,0.00957076883739714,1
0.147885345072119,0.01025941386526,1
0.160982292074601,0.0167688752941793,1
0.151012447881192,0.0135671686913874,1
0.229629979183792,0.0143076929008565,1
0.196510932508644,0.0132183449081162,1
0.195561760145426,0.0181900299522229,1
0.205267007492642,0.0184624564917619,1
0.200582620462055,0.0181306003989645,1
0.163983061492874,0.0118471829509071,1
0.156606191689624,0.0104871111261167,1
0.159491964961197,0.00947948476153072,1
0.199252878349554,0.010295536175562,1
0.260900038785985,0.013997865802891,1
0.276694734597778,0.0149243024436253,1
0.273407065021818,0.0137879366395481,1
0.390340229557339,0.0171464458777421,1
0.541924923220383,0.022248235078978,1
0.5351082049829,0.021741727443259,1
0.507968926634705,0.0216329780120881,1
0.497963617421879,0.0237833604641735,1
0.315813175617359,0.0177715454014821,1
0.277963015216348,0.0173504537470337,1
0.255461871519106,0.0156405216675705,1
0.186004781832081,0.0125607190807089,1
0.0766977881322196,0.00676769089111785,1
0.0722977974941142,0.0114543499468066,1
0.053516022624975,0.00742863163551859,1
0.071316554164805,0.0091393107035448,1
0.0914514397913765,0.0130713682687498,1
0.0886584630864298,0.00834665473451601,1
0.0953077427133145,0.00925380938997313,1
0.102308558834613,0.00800344137130271,1
0.115906609265303,0.00889938842309114,1
0.101786715602559,0.010747539408893,1
0.0814013240583578,0.0110362043319343,1
0.0829833047737029,0.00784636345195257,1
0.0833720016378054,0.00768371751889486,1
0.0766429382423686,0.00833650227999118,1
0.0663731885195909,0.00689927461982425,1
0.0585096505591458,0.0127604906566236,1
0.0336681741683118,0.00701054906928755,1
0.0425673490971011,0.0161528913424648,1
0.0323857079815261,0.0103078727164318,1
0.0308622442618703,0.0122155602306611,1
0.0251270283893363,0.0100789567121338,1
0.0230087255637587,0.0165468182670353,1
0.0139242836120741,0.0116593815365447,1
0.0151634472436359,0.00808775156883421,1
0.0533607555539153,0.0178836956932031,1
0.0862831836643384,0.0217297955687871,1
0.0868461127346347,0.0182756415529714,1
0.0710362597483703,0.0162176461928298,1
0.0976077805185299,0.0199327441088453,1
0.122582818660732,0.0204677143374256,1
0.129611130031379,0.0219167929576557,1
0.156556103249033,0.0260714931975307,1
0.169434485246575,0.028365305320864,1
0.24166879821679,0.0298716038982938,1
0.244864554140471,0.0297047102271244,1
0.147917106459273,0.0205764016165163,1
0.100925946508101,0.0174795316893836,1
0.0804894092838258,0.014703407091009,1
0.0762426306801756,0.0163620824292323,1
0.0747829314728635,0.0180461195067263,1
0.0698031800342577,0.0146125519686784,1
0.143324870237182,0.0168713255308348,1
0.20137328937375,0.0214541106207893,1
0.217001540555559,0.0293775631841374,1
0.244649539958661,0.0331332439796322,1
0.236412181879519,0.0350272549488593,1
0.215625932449903,0.0332977264730617,1
0.201882303707606,0.0245205303172577,1
0.215379835483529,0.0230573647943464,1
0.166951103227008,0.0188441574221551,1
0.084380482476393,0.00820592036897816,1
0.0860079226483366,0.00947474198816245,1
0.101365121823275,0.0074642337482281,1
0.154778238767863,0.01189122640787,1
0.171291524871194,0.0129869396653154,1
0.186385525446414,0.0129968626048764,1
0.185260311339969,0.0104463293094256,1
0.21975565195618,0.012710746365299,1
0.190240443731297,0.00866801543996642,1
0.185656588316798,0.00702268487648263,1
0.231659684506455,0.00850046900008217,1
0.20583160899663,0.00741202924181246,1
0.14646231851135,0.00614511655849078,1
0.150925524167843,0.00599628102643908,1
0.17161285936394,0.00604168893121624,1
0.174927153565663,0.00596154289342084,1
0.175847957517671,0.00654301754069882,1
0.188172669071265,0.00812372611695998,1
0.22923669491686,0.0129060377477331,1
0.1724886568008,0.0102820311005661,1
0.184509952001313,0.0129350905152684,1
0.157427077811689,0.0130317056403665,1
0.168606939332088,0.0122293949604054,1
0.14618852318039,0.0112060747640508,1
0.134995508527282,0.0146567815082106,1
0.0562056771228562,0.00605856944061506,1
0.0541835164112583,0.00704165189571834,1
0.0395213558630087,0.00526577247408801,1
0.0397831793715369,0.00751315447846239,1
0.0347422677242065,0.00893222211357642,1
0.0341217363379333,0.00906177281450782,1
0.0273079011726782,0.00818603975621397,1
0.0359712752557498,0.018237736481204,1
0.0199784929157944,0.00972807773296255,1
0.033647101576343,0.0130382261166252,1
0.0352665157262942,0.0108678931877924,1
0.0354099087872605,0.0106396390025926,1
0.0354989671159644,0.0101845622299717,1
0.0390071751655069,0.0111745384618611,1
0.0440999136049025,0.0130341343251543,1
0.04518358858536,0.0114866762670485,1
0.0466094055927283,0.0145911259123345,1
0.0326753599587351,0.00985143067246108,1
0.0294149165274502,0.00764071519790276,1
0.0358618486447035,0.0115209812929465,1
0.0356516991531168,0.0135588959625577,1
0.0365131974886591,0.0125954271187294,1
0.0413795214007013,0.013970941771558,1
0.0395480755705437,0.0122793845228377,1
0.0348101757028553,0.00914016838903293,1
0.0363329998014199,0.0102703946721481,1
0.036293849882127,0.00838501721575506,1
0.0378453223163926,0.00907283495257743,1
0.0388383557670856,0.00968932307676918,1
0.037365547717406,0.00950172755316676,1
0.0398014382454778,0.00658196614669968,1
0.0705972164937772,0.0123316655124181,1
0.101190868000121,0.0162143286884556,1
0.101885316619877,0.0115814233574681,1
0.104623244102447,0.0126509385494643,1
0.0944323525404625,0.0120544679825389,1
0.0941150819851087,0.0137877991601866,1
0.107629447168805,0.0124857017368286,1
0.369468452625863,0.0225846728796759,1
0.643684210446411,0.0338950735061109,1
0.913323480387503,0.0296299467564988,1
0.911432191422836,0.0241367709416774,1
0.908491022523644,0.0237987102529328,1
0.870936816945267,0.0255230559649255,1
0.714953723855501,0.019938429207985,1
0.547269229272727,0.0162950214708121,1
0.432603691463416,0.0134907091993663,1
0.342742136778683,0.00894895027347515,1
0.437543408417762,0.0148407483717272,1
0.395812740680715,0.013114303412022,1
0.310438023478721,0.0138035466291514,1
0.2656758485989,0.0176521030513621,1
0.237018850987319,0.0164575228683383,1
0.251205859306764,0.0148064221923614,1
0.262392338159103,0.0171483493741066,1
0.225272650458263,0.0151215751908988,1
0.170129695670816,0.0119018954932141,1
0.196607546426725,0.0202153616547199,1
0.113647475565625,0.0161055507718674,1
0.111914209108699,0.0187785571372734,1
0.107138334794192,0.0200736927246006,1
0.0987315137547589,0.0180066088273156,1
0.155632934178406,0.0142691862299147,1
0.208482860955564,0.00648101043100529,1
0.297430558950518,0.0100973851610891,1
0.31844159681495,0.0104294703069008,1
0.366816142425781,0.00901329872388402,1
0.425093880508957,0.0100750799841916,1
0.427620164952668,0.0087594339755924,1
0.430309317163163,0.00862642638484666,1
0.482750345808978,0.00744418774583542,1
0.715566033561095,0.0113616958360292,1
0.814266407877032,0.0163201660105402,1
0.82792277310257,0.0253187696445057,1
0.885208684058924,0.0251106904831486,1
0.933717991104019,0.0255938629228008,1
0.794952609309897,0.03564603569103,1
0.464834962264606,0.0250821684602167,1
0.34717905723145,0.0213795879113578,1
0.155687839460327,0.0118050230002272,1
0.0215446922908986,0.00561164009001144,1
0.0631695962690318,0.014710369621906,1
0.065818760041249,0.00723276360972492,1
0.0673579145359558,0.00779203172885868,1
0.0675438723106069,0.00733325205892634,1
0.0755654151267809,0.00752806808780877,1
0.0792177867093932,0.007250994791697,1
0.0769211009586068,0.00708452756476262,1
0.0771020800228955,0.00766194031365689,1
0.0830903043314765,0.00878969144160271,1
0.0824230585821863,0.0111092433762512,1
0.0268495137648982,0.00258789162195585,1
0.017812145968014,0.00833798277190484,1
0.0178000387779888,0.00976763268380413,1
0.0125152641694439,0.00767828537100037,1
0.011082704483251,0.00877078961295599,1
0.0147537159616138,0.0155273789358658,1
0.0139865206319902,0.0129476154847677,1
0.0152649436491856,0.0157089896729609,1
0.0139598156208824,0.0120507863739073,1
0.016336371204872,0.0169209348420251,1
0.0195179028838515,0.0220662630877239,1
0.021194792310996,0.0226820017989112,1
0.0208225946563424,0.0219555300160093,1
0.024532054270885,0.0158934083507576,1
0.0282570596028559,0.00893420510396883,1
0.0328620583585389,0.00892897734038781,1
0.0384775707876683,0.00840080434232804,1
0.0598002336312816,0.0129912754883289,1
0.0845394952079176,0.0200158223582702,1
0.100164900604102,0.022332290214196,1
0.0928608823297908,0.0190274083695345,1
0.0836652479244602,0.0171080091589624,1
0.0718502302037399,0.0123273123293793,1
0.0716151592371518,0.0139155374103569,1
0.060234771228326,0.0227443783359015,1
0.038777485487305,0.0212855662359758,1
0.0422572649600997,0.0367532685567768,1
0.0436220364567119,0.0407812600322356,1
0.0472267670208963,0.034134952997285,1
0.0641993360926102,0.0399405322932181,1
0.0626346611724281,0.023901151340267,1
0.0493261739081141,0.0219155433293977,1
0.0371376248753405,0.0187398094537702,1
0.0338436178825195,0.0136950338040155,1
0.0335003533280457,0.0115512884508282,1
0.0395527736146317,0.00912099287404,1
0.0544469758674791,0.0124995663540301,1
0.0580642043172719,0.0134407106622627,1
0.0657101170392338,0.0184301651113049,1
0.0470601777014009,0.0136429022108677,1
0.0441273073672176,0.0174683630714235,1
0.0436760117374959,0.0149055999988132,1
0.0451061709604066,0.0113452684570133,1
0.0477267896977756,0.0164078292339678,1
0.0268048724406412,0.0106034243890692,1
0.0258956929897169,0.0149914594615086,1
0.0260136765443152,0.0153995134936883,1
0.0229997284805112,0.0148969265229853,1
0.0224661274156213,0.0166678848200915,1
0.0234099547300471,0.016896826346125,1
0.0271646198027618,0.0197633176844878,1
0.011539009515166,0.0137931862858981,1
0.00551477783811891,0.0363710359972892,1
0.00587857085677259,0.0323170869583959,1
0.00570248816657738,0.0335107572184675,1
0.00564955380368491,0.0365234367640594,1
0.0049073999734138,0.0375909257058785,1
0.00347371562692305,0.0303023574387301,1
0.00250041326132548,0.0242425741528557,1
0.00209529851638899,0.0323557662606825,1
0.00174778900280148,0.0303744830563062,1
0.0016478588307611,0.0402495560896992,1
0.00082296558084738,0.0346618621521148,1
0.000900816479933998,0.054099493127462,1
0.00095625224279366,0.0509974885833044,1
0.00107633027600823,0.0629699778832976,1
0.00122383918809629,0.100122819353631,1
0.0014204745032702,0.114027277800036,1
0.00142908309361242,0.0885416167311964,1
0.00182973302444377,0.0993212651582632,1
0.00205082809838932,0.111196953120015,1
0.00233553947255057,0.120937390231815,1
0.00196966376638874,0.0797160061004449,1
0.000968934598305186,0.0444076131668854,1
0.00069541605166117,0.0422867344174684,1
0.000698587436651671,0.0429103587466921,1
0.000695232147293253,0.0425900308283401,1
0.000658677746146818,0.0470752852880255,1
0.000442600443844129,0.0429563437585374,1
0.000558561356049593,0.0490681295142399,1
0.000562164250977426,0.0467709671544364,1
0.000641748796731481,0.0496899745505941,1
0.000815007884012051,0.0943151694003691,1
0.000667679337419448,0.132262943948668,1
0.000789776271169252,0.175238555087394,1
0.000799195490673411,0.170678086954188,1
0.000639143281404031,0.148136355880769,1
0.000455459838375171,0.128539767433565,1
0.000324453947536987,0.120813437765829,1
0.000355709468220165,0.176552944229711,1
0.000200031481771098,0.157924770544226,1
0.000215287886911167,0.179664808773481,1
0.00027693254021763,0.179105589312747,1
0.000268832673967179,0.167530744496606,1
0.000239817965613186,0.145843700045419,1
0.000228621876857612,0.155764693608344,1
0.000244299534659176,0.208728301059059,1
0.000218808616043739,0.195364147547001,1
0.000199762941348748,0.26185452988594,1
0.00017772125509197,0.229511530118313,1
0.000204946733915144,0.26694673833395,1
0.000180856728173725,0.284106225576551,0
7.47950567311372e-05,0.218383986218966,0
5.67439144965303e-05,0.205673569284654,0
5.37448928076902e-05,0.230910073724603,0
5.69765293209344e-05,0.207287591521377,0
5.95299168111014e-05,0.187106774179176,0
6.38777338035783e-05,0.196368215541015,0
5.26292299513858e-05,0.20628893960081,0
2.81535724556722e-05,0.166559156387596,0
2.85981087376136e-05,0.197755434647868,0
2.67365484610647e-05,0.227367798487431,0
2.22266369930275e-05,0.224625305068179,0
2.17977019089226e-05,0.221100502585901,0
2.16311481760035e-05,0.222500379291986,0
1.16537283838827e-05,0.217786099767453,0
7.90085242647962e-06,0.275718724865007,0
8.03790122470029e-06,0.278826013024993,0
8.01129540618765e-06,0.277259329631244,0
8.05432548577153e-06,0.24508941031559,0
8.63916239294946e-06,0.27753750466717,0
4.04289323950752e-06,0.219987236348345,0
3.70515775412432e-06,0.249351206603468,0
4.43745559445051e-06,0.258249684651239,0
5.75658447359106e-06,0.284420676265931,0
5.7825608027327e-06,0.276184513932204,0
6.44418450459299e-06,0.293229171834098,0
8.02874550178943e-06,0.328978329937017,0
8.22737923652823e-06,0.341297939082667,0
6.80920021555197e-06,0.367553175727727,0
7.05049634648061e-06,0.440049027198539,0
5.28817957173739e-06,0.350829350932098,0
5.45953158364399e-06,0.338351529467543,0
5.32317772628859e-06,0.32483086425496,0
5.28663932268515e-06,0.329833251245647,0
4.77766112511287e-06,0.325322361496207,0
4.74937859332143e-06,0.320713372257074,0
5.15729690317622e-06,0.329734894438431,0
6.08905410820117e-06,0.363338216607846,0
6.66047902029902e-06,0.374617103776375,0
6.62829249938089e-06,0.368735487449598,0
6.59405238435768e-06,0.396552729423647,0
3.68848088450832e-06,0.315009899596101,0
3.51902632425323e-06,0.347091824986114,0
4.10165691717286e-06,0.36379097762315,0
5.41377542793582e-06,0.395642464623358,0
5.53325884181154e-06,0.393015031592386,0
4.99528199609913e-06,0.359138037378047,0
5.11193602315872e-06,0.329999278034027,0
4.63326336467353e-06,0.281385974689631,0
4.51431169071502e-06,0.272622448157561,0
4.43436867953288e-06,0.278881796664326,0
4.67495896101388e-06,0.276177247706091,0
5.31173440948611e-06,0.290587625872702,0
5.0660258639347e-06,0.294702800157784,0
4.04840827652499e-06,0.271407905910168,0
4.25105636957686e-06,0.279624706523726,0
4.5089643464148e-06,0.297812619490558,0
2.98533933203222e-06,0.265741461799076,0
2.72552342274797e-06,0.286298518171932,0
2.69459245827151e-06,0.292681494843254,0
1.79547565674892e-06,0.259015379445556,0
1.63433129732391e-06,0.269968376235194,0
1.71226563209311e-06,0.274980827657795,0
1.7424856136714e-06,0.266600679486318,0
1.92786199852731e-06,0.287407619999518,0
1.15028134941041e-06,0.236040490374694,0
1.09744958772418e-06,0.246375936272678,0
8.46914956994941e-07,0.215283294458865,0
8.07555936220018e-07,0.215201048046026,0
7.6144728357558e-07,0.213833780323405,0
7.79111486843173e-07,0.203709298988372,0
8.72364679669888e-07,0.207464341371696,0
7.56425699490125e-07,0.197883092017452,0
9.81080894956452e-07,0.226692494991433,0
9.79460435739712e-07,0.22841678236296,0
1.05270814407043e-06,0.22865409417978,0
1.01366975005975e-06,0.220512710266757,0
1.01578836787149e-06,0.218744837254036,0
1.08657501446147e-06,0.218895984971248,0
1.23936810545216e-06,0.215401590456376,0
1.44750278764983e-06,0.230360394709845,0
1.26500862137174e-06,0.219376820947422,0
1.42811887845528e-06,0.231385973745446,0
1.2875307799892e-06,0.22024395534459,0
8.61070446826497e-07,0.180248507247735,0
9.15956230405326e-07,0.187970294989817,0
1.01635732530504e-06,0.197564690580842,0
9.75026203952193e-07,0.196517780913137,0
9.17427819556747e-07,0.192568707135759,0
8.31497493908531e-07,0.198731248834583,0
5.1655345940176e-07,0.168900880425026,0
5.07444793120756e-07,0.16878201348775,0
3.24544442569624e-07,0.146339573967852,0
3.6070339862152e-07,0.152545207283357,0
7.98335189602482e-07,0.209123413771385,0
1.56719432016572e-06,0.280692074541329,0
1.37703954844313e-06,0.256782146131877,0
1.54283609740933e-06,0.273876652761866,0
1.48229389302973e-06,0.276168980814647,0
1.65740123789148e-06,0.295043641983913,0
1.82814151361013e-06,0.317260207717364,0
1.8244967637351e-06,0.32056549922834,0
1.78582305860569e-06,0.316287706347955,0
1.74984933456035e-06,0.320621873093261,0
1.36064672975636e-06,0.303981432554118,0
4.44084324401159e-07,0.189616030636565,0
4.20586810183338e-07,0.189149461327895,0
4.40136700944961e-07,0.182661714177455,0
4.5527182425232e-07,0.189465591295501,0
4.00706667437732e-07,0.181450045781845,0
2.46489471713008e-07,0.153914355984417,0
2.16335583310265e-07,0.148767888105181,0
4.26853256021886e-07,0.180255944513456,0
7.09897815052548e-07,0.220639428913295,0
7.98634640883295e-07,0.209899893553681,0
8.78505997651812e-07,0.22542136617175,0
9.30011617951581e-07,0.244373672161856,0
9.97236933237609e-07,0.261564818950628,0
1.05894956433765e-06,0.258533972245066,0
1.06744542496185e-06,0.258393924166901,0
1.06829586659936e-06,0.257484791580085,0
1.06339748532658e-06,0.255966345655888,0
7.71555689346955e-07,0.230456953892194,0
2.55855452201739e-07,0.155845198178433,0
1.04634908222859e-07,0.135404309242431,0
7.11853445810024e-08,0.126832665763461,0
2.83848157932101e-07,0.158628034106329,0
3.43623767032828e-07,0.155127867974061,0
4.12596808329941e-07,0.158763648263102,0
8.13721851985722e-07,0.211145691866592,0
8.02664613441717e-07,0.201662639395301,0
1.00212654486574e-06,0.215131238310555,0
9.07382726341888e-07,0.204791456732545,0
9.29250156123229e-07,0.204653628022856,0
6.48031180436663e-07,0.173307482471517,0
4.82691294673698e-07,0.152740297708235,0
4.48556629280095e-07,0.155363716364781,0
7.19071291146471e-07,0.188602244950587,0
8.50853810806486e-07,0.206437194253508,0
8.17606162885407e-07,0.201727087028462,0
8.29064024464386e-07,0.206893937784366,0
9.33435843347672e-07,0.216270332923713,0
1.07505405421975e-06,0.234427109471411,0
1.15787543389182e-06,0.234825726490834,0
1.39301463259317e-06,0.258601394570155,0
1.49073157454794e-06,0.259707096921923,0
1.32767949657038e-06,0.250934576263416,0
1.21257919387067e-06,0.248964887633134,0
1.21477032167113e-06,0.253673263609022,0
1.69215448407374e-06,0.281428418195006,0
1.46043394953041e-06,0.257575985758187,0
1.40681612823205e-06,0.260907821365803,0
1.38652937342585e-06,0.254339415051031,0
1.20036479002009e-06,0.250308595505502,0
4.25116438593172e-07,0.164740735250154,0
4.6808320562057e-07,0.166454066153028,0
1.02926025320771e-06,0.220480895909708,0
9.86202581327209e-07,0.219958650887231,0
1.05338661511524e-06,0.219602745770055,0
9.49087520114433e-07,0.219106755981293,0
9.15332730059918e-07,0.224748832376001,0
9.11114744875901e-07,0.222694279944689,0
7.87714080459604e-07,0.207873408921174,0
7.88923863634086e-07,0.201874072871408,0
6.16958404389369e-07,0.174438579073268,0
5.76344254960299e-07,0.183721965514824,0
2.76975323249907e-07,0.145314979514448,0
3.08951586590166e-07,0.149932367190965,0
3.22228186912538e-07,0.150240776515783,0
3.26266501328068e-07,0.146778602402185,0
3.70191726347839e-07,0.154258945810305,0
4.00492773665723e-07,0.156946455743394,0
4.87291080240751e-07,0.169043645848956,0
5.75726529746736e-07,0.186723818104562,0
5.75257674598493e-07,0.186417791195519,0
9.94840253522248e-07,0.232149932023789,0
1.04549029873398e-06,0.240019010217769,0
1.17860751553133e-06,0.242124988393114,0
3.04217839353704e-06,0.358098016139026,0
3.19974730466914e-06,0.336540918010038,0
3.32778753889409e-06,0.344042357102267,0
3.60222779315815e-06,0.35970129628895,0
4.62231435637816e-06,0.396646324379963,0
5.05973246748089e-06,0.378009774036712,0
5.20378564505352e-06,0.389460663475058,0
4.97737652065671e-06,0.382335951050522,0
5.38521526202832e-06,0.390585044605004,0
5.36784708774119e-06,0.410649822811462,0
2.44506056154545e-06,0.289280019295681,0
1.83844413492649e-06,0.274585967034789,0
1.9175506075663e-06,0.281764620765034,0
1.94125517095543e-06,0.282895770177627,0
1.27709126665876e-06,0.243565111542411,0
9.02805399620894e-07,0.237403735601738,0
6.42263107086896e-07,0.204059123914908,0
8.70874267866531e-07,0.231106620196814,0
5.44456971429195e-07,0.182326365899695,0
1.16486869076765e-06,0.22305374895676,0
1.33415213600515e-06,0.229343459565101,0
1.38444027295464e-06,0.233157159966705,0
1.80866776903134e-06,0.235992524692744,0
2.40508402945074e-06,0.26583836491856,0
2.43614568302189e-06,0.266221268108957,0
2.62379019743618e-06,0.269431266781649,0
2.86735296066679e-06,0.28429310893261,0
2.92230034565195e-06,0.286225257308573,0
2.79906780174046e-06,0.290099649781026,0
2.33642840651129e-06,0.283074931206854,0
2.20256256151191e-06,0.283165560053948,0
2.6716221922017e-06,0.303781361348351,0
2.59927797116395e-06,0.335027778023677,0
1.56950266175324e-06,0.263645065956259,0
1.33120959938362e-06,0.245961149834387,0
1.21239588690805e-06,0.247378788644552,0
1.07772943752004e-06,0.237728216057926,0
1.13167259124563e-06,0.244718131660218,0
1.15233558519678e-06,0.250119189498991,0
8.69652506640815e-07,0.221376715124782,0
1.77356758715089e-06,0.301049609892503,0
1.75340168232588e-06,0.318084055045421,0
1.4183330244921e-06,0.286562697851374,0
1.32790536839362e-06,0.280590377953481,0
1.43099532190126e-06,0.291096679773991,0
1.41644990372333e-06,0.286598431512221,0
1.40435955826052e-06,0.279299999578979,0
1.426065498244e-06,0.26033680452261,0
1.91183536597822e-06,0.296030148147572,0
1.85000808781638e-06,0.297307410289208,0
1.13646188669468e-06,0.248980232514076,0
7.02584359200017e-07,0.194321003369069,0
9.4347836983727e-07,0.223157678793414,0
1.09378751245362e-06,0.240913164031596,0
1.27581218190214e-06,0.246687970037692,0
1.32524303261343e-06,0.249230590037272,0
2.19993829882313e-06,0.281543639161159,0
4.50911321648011e-06,0.364166247863392,0
3.92224966581241e-06,0.319091006390771,0
3.94538099389255e-06,0.321500831115859,0
4.09394540501063e-06,0.314809187596267,0
4.42490409401525e-06,0.326131665547926,0
3.68822485366323e-06,0.298934569415341,0
2.87477314951155e-06,0.263041111376866,0
2.82196812454683e-06,0.266659328690115,0
2.98000546303963e-06,0.270517227775385,0
3.0262835195515e-06,0.294488765026626,0
1.15062357944562e-06,0.215228061614651,0
1.30372531914932e-06,0.233070697329707,0
1.43142246776396e-06,0.247564200141594,0
1.70855072506086e-06,0.284844260424173,0
1.57140374959886e-06,0.282923573149482,0
3.58057318767996e-06,0.375349325709466,0
3.94807947772022e-06,0.357329727276915,0
3.90836432381491e-06,0.35107990962454,0
3.51100637727174e-06,0.337014806266783,0
2.78227179329345e-06,0.299200861933072,0
3.24978368864898e-06,0.32903698373952,0
4.9717494033027e-06,0.415807409185058,0
5.26689029682179e-06,0.396196532440568,0
5.16149777685847e-06,0.390123947460168,0
4.99748167965048e-06,0.389213893033061,0
3.03400444303971e-06,0.325861638456504,0
2.26782411807712e-06,0.283293208066411,0
4.25550557392842e-06,0.363453045882819,0
1.05553990510743e-05,0.565194959820473,0
1.50828160132003e-05,0.568181345467753,0
1.47589250161042e-05,0.503693655196791,0
1.34602903687287e-05,0.484549846408609,0
1.31403106331475e-05,0.498021840447248,0
1.31821174542493e-05,0.504577209407057,0
1.31703832419169e-05,0.500812285143107,0
1.29836882019565e-05,0.500912618746945,0
1.4096864970949e-05,0.523431079388173,0
1.31356058257384e-05,0.528184265342085,0
7.38703873240354e-06,0.412418609044241,0
1.06463742752291e-06,0.194782477380147,0
9.0990838400177e-07,0.215268580087972,0
8.87913901319855e-07,0.214152043551412,0
8.56817169170098e-07,0.207556922957673,0
9.02314299520362e-07,0.214497685169346,0
1.36556029748695e-06,0.24860902516145,0
1.34137490089835e-06,0.23372921289787,0
1.20800507555625e-06,0.246730591835366,0
1.01738914886121e-06,0.227329316535536,0
1.01075929750402e-06,0.229614696868717,0
1.07321028990503e-06,0.24658683589817,0
1.1312952826318e-06,0.253320324698891,0
1.27576769199757e-06,0.263367302765373,0
1.27617900972114e-06,0.249721155200788,0
3.53007008748959e-06,0.334133320718353,0
2.76052585517461e-06,0.260007094546265,0
2.62078477604568e-06,0.25552839314268,0
2.82887774895781e-06,0.253803600404421,0
2.84881842364089e-06,0.251945768898174,0
2.75996866189852e-06,0.243683692298945,0
2.75013639298682e-06,0.234811970582695,0
2.95288715504924e-06,0.236586611973505,0
3.00336608524337e-06,0.230096003276062,0
2.89391428927487e-06,0.223950878503293,0
1.9151389552869e-06,0.19854420857819,0
1.68411721169672e-06,0.201303441774299,0
1.58822371414833e-06,0.200066295127304,0
1.54559468538693e-06,0.200461255975313,0
1.61728931103909e-06,0.202422476220978,0
1.95073152063052e-06,0.22078474075875,0
2.00654089751688e-06,0.227970383720742,0
1.95500447651394e-06,0.225257255899944,0
2.67100190026287e-06,0.272454107859298,0
2.57388792485139e-06,0.284714323677369,0
3.15059857984314e-06,0.296648199130028,0
3.33663311583552e-06,0.296332266415727,0
3.72626906942161e-06,0.302963397580127,0
3.83177431140277e-06,0.294225225970375,0
3.72789295093871e-06,0.298588112274048,0
3.40991846947011e-06,0.290071741874221,0
3.36698549765869e-06,0.290862433889858,0
3.46659775232723e-06,0.307624507501292,0
3.23112530712909e-06,0.278762758729774,0
4.55844417879987e-06,0.32151653917643,0
4.23210538137686e-06,0.318775832343448,0
4.20897426719049e-06,0.331994534515698,0
3.66002445708024e-06,0.32650140020698,0
3.7520593109816e-06,0.342127393308782,0
3.62283153853446e-06,0.322327195458985,0
5.60395522522974e-06,0.348789421110793,0
6.08448533723105e-06,0.304297675717855,0
5.94229324936867e-06,0.300789775058897,0
6.00630630798667e-06,0.315461778125268,0
4.94398149992672e-06,0.280927098636373,0
4.70201117582871e-06,0.280117524775248,0
4.36009085879617e-06,0.267606721725002,0
3.97381581804966e-06,0.25134639657437,0
4.99320380421029e-06,0.2586696725722,0
6.11236681819997e-06,0.293672955563349,0
5.82938706898223e-06,0.322667320217026,0
5.32251465559536e-06,0.347648149236659,0
5.21229177257877e-06,0.301831562350844,0
5.58783255437701e-06,0.311163522556023,0
5.59488698487164e-06,0.310368585210301,0
5.36341349763498e-06,0.295212241168784,0
5.41956489066279e-06,0.285152786419141,0
4.24605809991255e-06,0.253381566200726,0
4.00676508415879e-06,0.272673339999988,0
4.2411755467789e-06,0.277340268400166,0
5.43802820106261e-06,0.311986359005571,0
6.06047790026076e-06,0.34492898491761,0
5.98940869999796e-06,0.383313048808561,0
4.65717219661492e-06,0.331611754702211,0
5.17887621804666e-06,0.35607833446614,0
3.90944919302653e-06,0.340862515597064,0
1.79954113567349e-06,0.241237426081335,0
3.38321917937909e-06,0.326065455462958,0
2.90468084618271e-06,0.291392812623569,0
2.32705985929729e-06,0.268183466378954,0
2.73682535576715e-06,0.292525374043581,0
3.2200404762885e-06,0.318375343038174,0
3.19266207347134e-06,0.303579663367836,0
4.02205314151313e-06,0.335740354690326,0
4.03621633152048e-06,0.334305394129784,0
4.08729865604545e-06,0.330119957455797,0
4.12728395778481e-06,0.335669915268057,0
3.37701625999082e-06,0.315724400938549,0
3.47179857939363e-06,0.336157790639377,0
3.89785615058364e-06,0.364693666211332,0
3.6125503065953e-06,0.350566333592311,0
2.62224502882719e-06,0.295171844175055,0
2.45252994595778e-06,0.328671026102003,0
1.62378569268255e-06,0.285149662202538,0
2.09699892653098e-06,0.309403464369559,0
1.93368333142631e-06,0.284031113025548,0
1.68419956079895e-06,0.261708942074737,0
1.65089523102828e-06,0.252488545471909,0
1.88273383493376e-06,0.266667660250184,0
1.88789808616515e-06,0.25351341890524,0
2.97665610046374e-06,0.313255711446069,0
3.42354435832217e-06,0.327632341287113,0
3.4513967497381e-06,0.321252972556495,0
3.54293109221295e-06,0.326076808925055,0
3.104483082598e-06,0.309549385647985,0
2.91522580914276e-06,0.309180812558012,0
2.814241212033e-06,0.312584799137608,0
2.59863628984792e-06,0.303498932369181,0
2.11998480684616e-06,0.265761159267812,0
2.44531210062133e-06,0.292379006825013,0
1.87212662888607e-06,0.250614343706024,0
2.44718003493229e-06,0.284079923627473,0
2.51906438436022e-06,0.283461216667866,0
2.53569676407164e-06,0.284969961514972,0
2.44295071337835e-06,0.290974616229632,0
2.72199417550982e-06,0.292221937313084,0
2.83692592991719e-06,0.267670537024747,0
5.93591472319359e-06,0.328395210812128,0
6.8412708060457e-06,0.322907919889198,0
6.70579369926177e-06,0.323793680475813,0
6.25010264321632e-06,0.318281254338343,0
4.38793918623043e-06,0.269359147932043,0
4.36365112063126e-06,0.271318483538137,0
4.96513324114692e-06,0.292492518721288,0
5.03247705358263e-06,0.2915568179601,0
5.39927578302509e-06,0.305129615428151,0
7.56080945508401e-06,0.390442317398355,0
4.23067657097984e-06,0.324553970022942,0
2.45655286002172e-06,0.281090728476197,0
2.32813360603278e-06,0.272809883422586,0
2.22186861337344e-06,0.268971719087858,0
2.22297551364358e-06,0.265101831851995,0
2.32677388332412e-06,0.2595526922782,0
2.54594655362631e-06,0.268772110458422,0
2.37691421967715e-06,0.267528838889563,0
2.2127824059385e-06,0.268889977892337,0
8.97753014832269e-07,0.182713660825892,0
6.18233211270543e-07,0.183694576894269,0
5.15752427225586e-07,0.168346932042239,0
1.10905781662488e-06,0.221029709164634,0
1.22504813130993e-06,0.214785846937461,0
1.76202095965653e-06,0.257402774237854,0
1.85882051122316e-06,0.271713652715581,0
1.92499261357581e-06,0.273287610867685,0
2.01710703596035e-06,0.275144440206198,0
1.97124842513539e-06,0.274932604425482,0
1.96298677819154e-06,0.286660289201951,0
2.05073648426447e-06,0.287009012413133,0
2.11214367505808e-06,0.283640178736635,0
2.37975900684487e-06,0.2728458175672,0
3.53142895462317e-06,0.303826170937648,0
3.05829400589528e-06,0.285022068362401,0
2.66464583293385e-06,0.267777450515637,0
2.45315879364748e-06,0.249331156951461,0
3.00645663635513e-06,0.275528361466342,0
3.12749484405959e-06,0.283260560211534,0
5.6209272682511e-06,0.331028611238054,0
6.49974555081005e-06,0.317791930793015,0
6.54196989255481e-06,0.321441262392432,0
5.17819518027659e-06,0.308782414808286,0
4.13788945268233e-06,0.30357106150988,0
5.24810101231343e-06,0.325812623634412,0
5.02633937179484e-06,0.322594916107579,0
5.02043333696213e-06,0.328205153407248,0
5.05205539221595e-06,0.324183163844178,0
5.92425665704401e-06,0.342519810419475,0
4.19112697085406e-06,0.313585116249273,0
3.25868166956456e-06,0.309064022687067,0
3.06330788980494e-06,0.302625075681906,0
3.0316975987086e-06,0.307924083131074,0
2.61306641928274e-06,0.283850575984347,0
1.90648053539598e-06,0.239948300277758,0
4.75141742875622e-06,0.353289835035848,0
8.79842085098666e-06,0.409128205903175,0
5.74439984375356e-05,0.541332117220518,0
9.34643468333997e-05,0.391208330260665,0
9.14970590792406e-05,0.339743552060198,0
9.04101202314729e-05,0.335231753729634,0
8.74373217051874e-05,0.33592328540151,0
8.939135360672e-05,0.343936640826185,0
9.14018695060958e-05,0.346469992489215,0
8.86426730007143e-05,0.334741659332113,0
9.01686204736733e-05,0.339489552198883,0
9.30174844566876e-05,0.361411864167554,0
5.43105922112989e-05,0.444312511161192,0
3.80261353178347e-06,0.232860055485186,0
3.84295924452867e-06,0.350545152637693,0
6.25529919240727e-06,0.384360310338526,0
7.32448678214213e-06,0.375982349635468,0
7.74933863413933e-06,0.388504491709113,0
6.88674119967446e-06,0.36577259459255,0
6.86883743538222e-06,0.37664456405996,0
8.33661499978701e-06,0.395638124399877,0
8.39617757069082e-06,0.3651092298138,0
9.97000088663862e-06,0.398537213576903,0
1.14719971766894e-05,0.428426499007023,0
1.04003194356608e-05,0.427217391879752,0
8.70149617156341e-06,0.42806549567396,0
9.3787200017914e-06,0.475186623935112,0
9.36336905966809e-06,0.477612876570878,0
9.40007857828914e-06,0.472629158179034,0
9.37214319608966e-06,0.474446030348732,0
6.16578550439659e-06,0.405925272378034,0
5.141106214104e-06,0.407035006588019,0
5.91592848913707e-06,0.383646103700469,0
2.8205185878433e-05,0.376518237668274,0
0.000323484042805512,0.335921685489653,0
0.000492235811224455,0.172266430678913,0
0.000468491855447125,0.159457234447925,0
0.000461210160253011,0.156758982136078,0
0.000459531201303521,0.151088176756292,0
0.000468186810416387,0.154536309543484,0
0.000480392127417846,0.153146489788994,0
0.000483801242288414,0.151781052695342,0
0.000491421765751193,0.143015097989264,0
0.000502641051286341,0.152622529160801,0
0.000255556603031894,0.208788260557124,0
1.30075747889456e-05,0.354173380435027,0
1.65317961651334e-06,0.221359708689838,0
9.20559224378958e-07,0.222034128144332,0
8.56257623062522e-07,0.223711330118321,0
7.94662419643315e-07,0.22440543166788,0
9.10714977416016e-07,0.236607090999069,0
1.01366825280334e-06,0.242413524709212,0
1.12116420412059e-06,0.240293611309973,0
1.12540101195655e-06,0.249092017717683,0
1.11142775961874e-06,0.25222802664243,0
8.69759667420591e-07,0.229536232687237,0
1.1627194861465e-06,0.252530028007709,0
9.15015097808485e-07,0.234878844701545,0
1.14976265701329e-06,0.237050103650954,0
1.57664842488852e-06,0.269794093585273,0
1.78376604220028e-06,0.286798678753701,0
1.72284738478194e-06,0.269939007894097,0
1.50014739228555e-06,0.244038381135064,0
1.8758515889256e-06,0.265117605328572,0
2.59506511943046e-06,0.296949499149656,0
2.65151104418232e-06,0.289923124198429,0
2.31808808503037e-06,0.282695144285809,0
2.48944116640583e-06,0.281351355860711,0
2.85504701028179e-06,0.313363776482503,0
2.35106194892328e-06,0.264156662953562,0
1.81708577232253e-06,0.235617257306333,0
1.88986184488596e-06,0.242204148534085,0
1.95730233730663e-06,0.248093544491252,0
1.93420009877948e-06,0.241883386821875,0
1.62392579310321e-06,0.229265132078569,0
2.20556990794635e-06,0.237848032368626,0
4.31662593317376e-06,0.307543519527569,0
4.32013379103471e-06,0.296586370341359,0
4.30566366346453e-06,0.298096373133157,0
4.19985811462746e-06,0.310136011106914,0
3.91033043536721e-06,0.297546627732184,0
3.88857080804696e-06,0.304193428128525,0
3.18869840798224e-06,0.283173468163839,0
2.91893451325562e-06,0.266507819551016,0
2.90835896348618e-06,0.265548474472894,0
2.58498986719374e-06,0.283246905271424,0
1.23109383877576e-06,0.224110878916304,0
1.13475779501308e-06,0.233846752941268,0
2.07930221141004e-06,0.293767157291212,0
2.50174433617179e-06,0.314960003811395,0
2.58712880491384e-06,0.323840061836596,0
2.60926873536071e-06,0.324496814080865,0
2.35040165884909e-06,0.303446042254591,0
2.17497882067362e-06,0.3016418294629,0
2.13361005401691e-06,0.300938866034622,0
2.19964419488661e-06,0.31513942638882,0
2.30584480552058e-06,0.314670741826214,0
2.31006557132363e-06,0.306186367011599,0
1.61491658742619e-06,0.269049778333949,0
1.77393142045708e-06,0.270171164810862,0
2.26534188085295e-06,0.228290514832365,0
3.69988463096298e-06,0.277448827949701,0
3.9130562975977e-06,0.290702033743327,0
4.86017385607192e-06,0.325228971801953,0
4.94492027969207e-06,0.32039559592174,0
4.92419653990966e-06,0.320566070568726,0
4.8485848776107e-06,0.313924691569426,0
5.08241868262148e-06,0.321391985075653,0
5.32393576581659e-06,0.326204897644114,0
3.90450054671733e-06,0.286998896190881,0
2.45717037134151e-06,0.285364717175815,0
2.05783262404464e-06,0.253921889811816,0
2.67613085902187e-06,0.272575112285374,0
2.42124477339488e-06,0.248314961747913,0
2.40773524275479e-06,0.240210452567915,0
7.16586209135139e-06,0.337773058139631,0
1.45778203037691e-05,0.414110040818902,0
1.39143870605976e-05,0.376121863109643,0
1.42202354763434e-05,0.372506716735395,0
1.45645437034467e-05,0.377173931878503,0
1.45564337071872e-05,0.37666921250098,0
1.39858325000053e-05,0.375076761351755,0
1.16840001277539e-05,0.348278277521315,0
1.14676827254142e-05,0.346270027689885,0
1.14651023109487e-05,0.35952056981194,0
1.20467607566746e-05,0.459986071619369,0
5.3636838593628e-06,0.316293174001148,0
5.20131474419927e-06,0.336140693020375,0
5.2237171223044e-06,0.363741470117798,0
3.85754851092986e-06,0.317995523701693,0
3.2311321517298e-06,0.282005728095084,0
3.32132452467907e-06,0.282254717396298,0
3.13397496977637e-06,0.276759172423685,0
2.23621981600638e-06,0.235098426561368,0
2.68308497333743e-06,0.25477135869095,0
1.89734812690628e-06,0.219819752801023,0
2.2522088032516e-06,0.276532316314969,0
2.93201625635169e-06,0.314328945234071,0
2.95297292645182e-06,0.308811831346517,0
3.00117239071765e-06,0.308494150021265,0
2.92709156614496e-06,0.314913991211571,0
2.83285018409156e-06,0.321921522978932,0
3.18902587934719e-06,0.341831862928624,0
3.21256788346959e-06,0.33566466825837,0
3.11522739455355e-06,0.293253962708048,0
4.38529096743919e-06,0.340261672925693,0
3.99517952799792e-06,0.341830848658073,0
2.47291573358041e-06,0.272231546505735,0
2.43286455255927e-06,0.272797746387946,0
2.16009523644214e-06,0.263435991124673,0
2.07468723938517e-06,0.258432343289492,0
2.15195101717913e-06,0.26270290002172,0
3.31907329272867e-06,0.297833930437338,0
2.5760450435421e-06,0.248153735159067,0
2.17285421383626e-06,0.253775246129817,0
2.77347819253861e-06,0.26810323995996,0
2.72141131498109e-06,0.246413626880323,0
2.85318185658987e-06,0.247649901204583,0
2.92853000176172e-06,0.242900045744689,0
3.09465594713682e-06,0.246439785433444,0
3.51256694623232e-06,0.26647148584559,0
3.36595538525269e-06,0.258040627483495,0
1.50963122824265e-06,0.18765169594985,0
1.33013692211699e-06,0.192497020152793,0
1.10481416418822e-06,0.184988184130264,0
7.81822590403387e-07,0.168214093199937,0
8.24895662635473e-07,0.186254880461041,0
1.38071146282721e-06,0.23855616632032,0
1.81156046840399e-06,0.27012321322745,0
2.05526055143623e-06,0.282004747453759,0
2.09624708992237e-06,0.2875451288603,0
2.5021667763715e-06,0.307994168830688,0
2.99018680658726e-06,0.301761513361431,0
3.3892306638414e-06,0.322712897339004,0
3.89128212550094e-06,0.333744829718821,0
3.87603214123802e-06,0.327763239611112,0
3.96719901421256e-06,0.335294450143826,0
3.59537784510956e-06,0.322192272676159,0
3.32511023054985e-06,0.323811402463789,0
3.56993988659207e-06,0.340884268666354,0
3.69317349997243e-06,0.328157183142815,0
3.57532337893976e-06,0.310502765793541,0
3.05704251343526e-06,0.314105343506456,0
2.45751431252691e-06,0.287377129458093,0
1.28967142885947e-06,0.223107896419827,0
1.30060931467869e-06,0.235659753219466,0
1.30176861892298e-06,0.23308989005741,0
1.2902480864688e-06,0.232845489297824,0
1.40319704560966e-06,0.238675920450706,0
1.07838224131221e-06,0.212308102910162,0
7.93486003897267e-07,0.199510702581532,0
6.43405299829424e-07,0.189398765112935,0
1.15946509240539e-06,0.249044218770877,0
1.25654185030054e-06,0.249585754375253,0
1.73433626095786e-06,0.253908459455158,0
2.72890101930176e-06,0.282744093002565,0
2.69139795478656e-06,0.261015357396638,0
2.32257388660632e-05,0.148820165766606,0
0.000361464680779102,0.24910753247185,0
0.000462799774276678,0.139795880200686,0
0.000450170169461099,0.140797184303638,0
0.000451235419266491,0.139641929810632,0
0.00045807732255642,0.144174229079272,0
0.0004621520707815,0.143420580825358,0
0.000466668147523622,0.13738975730563,0
0.000475193452122793,0.137493541150123,0
0.000474591269072386,0.13735307311956,0
0.000474832276018935,0.166974280106496,0
0.000168174956806091,0.194195025239369,0
5.0177896099401e-06,0.329705753350086,0
1.22390358573591e-06,0.233947244897716,0
1.17011015765073e-06,0.234217236422582,0
1.10208487965739e-06,0.233976925928081,0
1.10294665766481e-06,0.234057610427148,0
1.11223371135167e-06,0.231113031217905,0
1.32398854564059e-06,0.244127272492187,0
1.41283146278226e-06,0.254668281076854,0
8.88108330758612e-07,0.203337464320928,0
2.98646847725466e-06,0.343572451517888,0
2.98257903290445e-06,0.298060780259246,0
2.74994987761762e-06,0.293756969267226,0
2.84870719887945e-06,0.307976592082675,0
2.88056025940703e-06,0.305226477021107,0
2.85206276437472e-06,0.314450413299293,0
2.85029279341135e-06,0.311465980969258,0
2.60492134444464e-06,0.306933465664382,0
2.49109563473232e-06,0.307360386515605,0
2.49796183870757e-06,0.320623475379055,0
1.75285090586296e-06,0.263399730821792,0
1.91481790073511e-06,0.274919577480167,0
1.94361334979183e-06,0.267612976931727,0
2.13302997410721e-06,0.268869019209944,0
2.16293467626557e-06,0.26366750217269,0
2.25087175328277e-06,0.251636888903057,0
2.94883194302573e-06,0.282330987156179,0
2.76566679198485e-06,0.271953585438173,0
2.34588336680917e-06,0.250033487742308,0
2.34136143857513e-06,0.251678038954807,0
1.71653837408276e-06,0.239203021139054,0
1.54323821770071e-06,0.252696345579986,0
1.62926971510309e-06,0.259835081139304,0
1.49608341061738e-06,0.253300944041101,0
1.52097979010414e-06,0.266947437457162,0
1.74981511155683e-06,0.262119460725795,0
2.7891762842539e-06,0.323709118368365,0
3.01654728894343e-06,0.327716230480494,0
3.0123102672137e-06,0.329005918056311,0
3.01551525149348e-06,0.325156885167313,0
3.19711106392913e-06,0.326764580520653,0
3.16223268989025e-06,0.325026347384537,0
2.8510970339941e-06,0.303770525463542,0
2.89523337216684e-06,0.298317485400435,0
2.97980803908807e-06,0.293942736526021,0
2.71054037791251e-06,0.309663696779192,0
1.08524031732414e-06,0.211170597580335,0
7.85159333246728e-07,0.188500260245224,0
9.32910520243618e-07,0.198582591170517,0
6.32247531212575e-07,0.167736067921732,0
7.15520012849805e-07,0.177079299205589,0
9.57837700433549e-07,0.201238279978241,0
9.45208342665278e-07,0.213843990680524,0
7.3461644881477e-07,0.197405572070085,0
8.22471176729752e-07,0.214663837543567,0
8.41579376852176e-07,0.221313733499733,0
8.34616920679511e-07,0.215357920387297,0
6.51198519412571e-07,0.199313570228982,0
6.97732606769536e-07,0.208595070082299,0
7.18023425557399e-07,0.213470263129171,0
7.34591423243445e-07,0.218309502996847,0
6.09650081987367e-07,0.203063626649356,0
5.41315299705928e-07,0.198929825253586,0
4.9852970070342e-07,0.193474144603311,0
6.67432201132969e-07,0.213956948718677,0
5.81186809958583e-07,0.194259817006309,0
7.47728137038922e-07,0.203078201405189,0
9.10805026694031e-07,0.207341003125877,0
9.01206115887584e-07,0.197962599807821,0
8.50602485624376e-07,0.18927155598279,0
9.44513615693791e-07,0.19842241171551,0
8.65963266861203e-07,0.194954538563298,0
8.41768672840403e-07,0.188367666418474,0
1.13453342044625e-06,0.215341593281152,0
9.33678826672675e-07,0.19903943639924,0
8.66811997348534e-07,0.196125793724391,0
7.24667821691087e-07,0.19231611697886,0
5.69107159184373e-07,0.181706820714558,0
4.2153992083141e-07,0.17407629731834,0
6.37601720113503e-07,0.214889937225299,0
5.93643983240388e-07,0.209408274408116,0
6.66533847290531e-07,0.217696095974449,0
6.22837274713037e-07,0.208735351970162,0
1.0622801042616e-06,0.232198131281104,0
1.5325691963529e-06,0.249670911224709,0
1.43426811050677e-06,0.242187798052868,0
1.65143445722752e-06,0.258489916297343,0
1.75931712848456e-06,0.269813639765922,0
1.84218470921138e-06,0.278878198471821,0
1.92918813991377e-06,0.272059624981182,0
2.00643395063087e-06,0.26497482454451,0
2.09772295694923e-06,0.271133575817425,0
2.20407414879869e-06,0.273638781160684,0
1.44051616148093e-06,0.236750436518957,0
7.38887479654246e-07,0.182840152577902,0
7.52378187642398e-07,0.185736593311725,0
6.50898426450444e-07,0.175534920363892,0
6.40972685960367e-07,0.175992607217601,0
6.86816110327512e-07,0.178925709869126,0
4.21023153478236e-07,0.155097760124774,0
4.07363255516424e-07,0.162186988621901,0
4.72407282115506e-07,0.168198546413341,0
5.59584608454533e-07,0.183741289179948,0
2.06063334909533e-07,0.141606196280061,0
1.89682494273994e-07,0.138145114279485,0
2.44167227030306e-07,0.143124829141125,0
2.42639169923073e-07,0.145618447985666,0
2.88067854266295e-07,0.146583978611416,0
3.48718502788309e-07,0.15883433124112,0
7.78790432291388e-07,0.206251973733318,0
8.4763791794433e-07,0.201106406618454,0
9.09431614783962e-07,0.202573291167689,0
3.34294918502917e-06,0.313482351163069,0
3.6850286390281e-06,0.27265103204814,0
3.8837066497777e-06,0.286533744727513,0
3.63560527459883e-06,0.280405980239408,0
3.70507968289754e-06,0.280054620067779,0
4.18833758217329e-06,0.298547070354248,0
4.39614415132469e-06,0.303269735345433,0
4.11217535730518e-06,0.293956616889331,0
4.04530767240596e-06,0.29635118269652,0
4.01745121700837e-06,0.298673782893908,0
1.95788006438483e-06,0.243305375140377,0
2.14116563761935e-06,0.280193958771544,0
2.39502674429087e-06,0.293529806418128,0
2.41760173467002e-06,0.296280523867026,0
2.41625677063163e-06,0.300850143710073,0
2.11366552924592e-06,0.289651375261023,0
1.99077179306929e-06,0.277709874294104,0
2.11815900960829e-06,0.297387123444991,0
2.19300814061004e-06,0.303701169740757,0
2.1686892743077e-06,0.305278259480672,0
1.36216794226289e-06,0.243083663450361,0
2.42975774552084e-06,0.355665242749878,0
2.65406151351976e-06,0.351842081495746,0
2.60040326629849e-06,0.343808088256615,0
2.63723641551976e-06,0.33395653883775,0
2.53389085895456e-06,0.314153919844684,0
2.87182483775818e-06,0.326218241486231,0
2.48491431861503e-06,0.287577237250794,0
2.01620868211792e-06,0.253523288534441,0
1.36239360019236e-06,0.211911917539703,0
1.23991802634e-06,0.210506540306714,0
8.35268013321506e-07,0.178957133026697,0
1.0255205344979e-06,0.201913121027104,0
1.32105071468205e-06,0.228889720192756,0
1.46704754496092e-06,0.247584809541721,0
1.51182085878671e-06,0.25614679235448,0
1.1394403574699e-06,0.241612348861934,0
8.78531664904454e-07,0.230430626465196,0
6.52173875012932e-07,0.214612836989314,0
6.31990858686162e-07,0.211017356789415,0
5.29552853395608e-07,0.194628598295238,0
9.85300591290648e-07,0.254639998482399,0
1.07164886536937e-06,0.23298723003411,0
1.25010899510736e-06,0.236347394675877,0
1.16776909031609e-06,0.227183676351866,0
1.23872022121675e-06,0.223040529448662,0
1.10648424676007e-06,0.19621235717534,0
1.12178727667846e-06,0.180778443787288,0
2.04390300603632e-06,0.235725517474914,0
2.45146903284861e-06,0.248498491878121,0
3.81188989078173e-06,0.283116685623038,0
4.16192704867448e-06,0.275881348334354,0
3.7941572415071e-06,0.276123819025497,0
3.70812232180437e-06,0.280760721102205,0
3.70842433981044e-06,0.281266609896563,0
3.66531084165544e-06,0.284601762602377,0
3.79183863301852e-06,0.306701625989888,0
3.59331419799721e-06,0.311136782604456,0
2.73947592738989e-06,0.265637354875696,0
3.76277474727794e-06,0.309415874660649,0
3.34155374206059e-06,0.306150527563973,0
4.02088549541174e-06,0.351115883424635,0
5.4597026986616e-06,0.399205667556005,0
5.60277089541412e-06,0.361359521943401,0
5.74800818890859e-06,0.325688901120969,0
6.94165008378066e-06,0.320421326273386,0
5.22440500467519e-06,0.255690403030182,0
5.09543197971051e-06,0.254049529221881,0
5.99082039889322e-06,0.278988884371379,0
7.03930221592252e-06,0.310851725265618,0
7.1263790121887e-06,0.316474284865054,0
6.63721251135498e-06,0.320151468855649,0
5.34209534706017e-06,0.288346487274702,0
4.62270043463663e-06,0.287289568171383,0
4.55335671543263e-06,0.325949924853366,0
9.94078791693897e-07,0.186060967057825,0
1.10996237338671e-06,0.213845175944871,0
2.03615042626986e-06,0.286496650396212,0
2.12503804720987e-06,0.281366956168136,0
2.03436227433586e-06,0.265501057401693,0
1.9369310944605e-06,0.268863566597608,0
1.72875705580878e-06,0.253537648887146,0
1.83643032506302e-06,0.255696185593307,0
1.84258789897162e-06,0.260336403049176,0
2.03695466685262e-06,0.274457278819181,0
1.50667115233182e-06,0.24784115712884,0
1.55423577988233e-06,0.260620015369904,0
9.55227126946179e-07,0.211233850813062,0
1.40310036562471e-06,0.232702637309954,0
5.04914365629758e-06,0.361808102572842,0
5.16894234959325e-06,0.327569183533532,0
5.17441460785633e-06,0.324376018802692,0
5.17737725049242e-06,0.327856334241368,0
4.92522216054645e-06,0.31908979006152,0
4.33699375371955e-06,0.301102262453402,0
4.50549948120202e-06,0.304913779650544,0
4.9698543044827e-06,0.322101639310866,0
4.91831189445416e-06,0.31631576519614,0
5.38426386253041e-06,0.363111894436963,0
1.34874888868836e-06,0.208791807330856,0
1.06716201571394e-06,0.210470666427568,0
1.38246303892619e-06,0.23171911654821,0
1.65519021797023e-06,0.247841067793249,0
1.99455771283384e-06,0.272168479794443,0
2.11206731498147e-06,0.285519329790658,0
2.13250700383465e-06,0.280879761840001,0
2.0424833930715e-06,0.268228129240967,0
2.40256521639156e-06,0.291329885173759,0
1.69811442013699e-06,0.259465213685531,0
1.22057518474968e-06,0.232872883568094,0
1.08669308382362e-06,0.220489526153053,0
9.60596930092465e-07,0.217397657031427,0
1.04664211669625e-06,0.237943310751066,0
1.14418772973964e-06,0.23352432542489,0
1.14906450774145e-06,0.229474237735734,0
1.21757746353497e-06,0.234114756873831,0
1.29938669787789e-06,0.252079948585537,0
1.07162918714234e-06,0.233252580056339,0
1.03616559974325e-06,0.228331703800056,0
1.0805211790323e-06,0.233327445963833,0
1.0497136312623e-06,0.228894877883686,0
9.60010861157159e-07,0.223150255523504,0
7.84291780107459e-07,0.197966894297091,0
6.13430226620081e-07,0.191856442877872,0
6.05989290079431e-07,0.195077766721466,0
5.40145942454355e-07,0.19742436361002,0
5.17350641490038e-07,0.196284992559626,0
4.09420913603151e-07,0.179376826116548,0
4.41463911800277e-07,0.182763530255024,0
4.68825203115669e-07,0.166895057882828,0
1.95250619725687e-06,0.282619581402164,0
2.02243555760864e-06,0.272098673521631,0
1.96568718706315e-06,0.267819284015385,0
1.5275257951027e-06,0.235734287661079,0
1.33627802620514e-06,0.221355808197008,0
1.39433221822874e-06,0.198837320422404,0
1.07547685803888e-05,0.397812905082733,0
2.4340453959064e-05,0.512098411123109,0
2.53897928484377e-05,0.509069047036215,0
2.7575179098376e-05,0.534994801517868,0
2.83043607203378e-05,0.515738134722157,0
2.60396089724018e-05,0.495341314883739,0
2.45650509754243e-05,0.481776062349776,0
2.31114990580083e-05,0.381127057284779,0
2.96505721872088e-05,0.401942865220584,0
2.8454454258032e-05,0.354344484682746,0
2.79209315362279e-05,0.397279719338437,0
2.52662052408647e-05,0.393697824483272,0
2.94725066914802e-05,0.428370194463027,0
2.89988021436374e-05,0.428505914339427,0
2.84836447688856e-05,0.439866539216935,0
2.78571807113744e-05,0.432329337787838,0
2.78691564097754e-05,0.433896191890606,0
3.03268172395361e-05,0.590471436210978,0
1.81032801248968e-05,0.564707901949751,0
5.86429282142392e-06,0.386720057769503,0
5.2917419725102e-06,0.403771981220033,0
4.75417216664593e-06,0.43036742328876,0
5.9644098653944e-06,0.495084942342188,0
5.65918259716246e-06,0.49781780136955,0
2.83137495874601e-06,0.376975057767459,0
1.03082253331846e-06,0.246812962936167,0
1.18428511181554e-06,0.263351244653968,0
1.27997776311202e-06,0.253650423277198,0
1.32532003437135e-06,0.263004887219975,0
1.09567426941651e-06,0.251641885148171,0
1.12250852647767e-06,0.250598293890504,0
1.18228071327804e-06,0.25002335080855,0
1.60216958808332e-06,0.287881212290969,0
1.77098481985388e-06,0.276319110436794,0
2.07357499177073e-06,0.293289294393553,0
2.12020383406869e-06,0.302914536237883,0
1.58578596682874e-06,0.266428107128144,0
1.53875521813317e-06,0.271728841136538,0
1.52419996084173e-06,0.267245509415757,0
1.77367474793067e-06,0.277068252848689,0
1.69912742104123e-06,0.269439813358782,0
1.79540870799828e-06,0.269472863947481,0
1.49494635132538e-06,0.241092744390557,0
1.28196804466056e-06,0.241076288446315,0
1.10883386984559e-06,0.223673617860866,0
1.1227994220076e-06,0.222151159112147,0
1.19556779439524e-06,0.228325314932795,0
1.15396032228896e-06,0.226682370369263,0
1.10394661104896e-06,0.228911098065046,0
7.01299285417786e-07,0.193331257875874,0
1.99346000999589e-06,0.261359886768583,0
4.07957345468179e-06,0.374201997105229,0
3.46189208934303e-06,0.353280113341425,0
3.42823954051154e-06,0.348337790136127,0
3.54858580186355e-06,0.351075078740894,0
3.96244971689887e-06,0.379121676628665,0
3.72747692755215e-06,0.346603032442746,0
3.92543133567105e-06,0.337579142686014,0
4.30338163081097e-06,0.33356326216809,0
4.14460571712341e-06,0.332396068310499,0
3.45684312685476e-06,0.347707859506106,0
2.6661531423452e-06,0.307310237931388,0
2.67226365962395e-06,0.295584120133476,0
2.81158914315386e-06,0.295599663605069,0
3.42460847983792e-06,0.319388895266555,0
2.50800008732173e-06,0.268023704579322,0
3.06896816069362e-06,0.305976115943681,0
3.27372439076241e-06,0.324638925108341,0
2.82801083749985e-06,0.317610812536803,0
3.00185792025693e-06,0.326961734000255,0
3.02303233421697e-06,0.332711621652699,0
2.4199547800559e-06,0.307541060084712,0
2.60557842611225e-06,0.342048960888055,0
2.43108923425159e-06,0.332039600546422,0
8.739800054361e-07,0.217371809267241,0
4.3005631525772e-07,0.171390053093977,0
3.9608677585611e-07,0.169734914048911,0
3.97272389034355e-07,0.169494207563006,0
4.95526632144414e-07,0.184646539383742,0
5.72330966116093e-07,0.186713950049255,0
9.50473765650823e-07,0.222975686137124,0
1.05368349967079e-06,0.23777790667197,0
2.06318510179539e-06,0.305982196537073,0
2.65470319483578e-06,0.333718633049965,0
2.6020637236506e-06,0.331486342097178,0
2.70323034436033e-06,0.339735356290003,0
3.02345263547896e-06,0.349315812373407,0
2.84124936473081e-06,0.343798545481647,0
3.27741020824167e-06,0.36666813389529,0
3.89723158076938e-06,0.409871867622055,0
4.24120549190698e-06,0.431243347111396,0
4.27538036932973e-06,0.43253058033202,0
2.77580984854729e-06,0.361694254592606,0
2.47331785387179e-06,0.343849301448491,0
2.42185223170739e-06,0.332575390126093,0
2.55624789158003e-06,0.332671029336692,0
2.53630358070283e-06,0.333231078457832,0
2.79096122778131e-06,0.354380140614187,0
2.67260524797785e-06,0.309374808096521,0
2.17409650886409e-06,0.276830414637893,0
1.88390255050402e-06,0.258481177282308,0
2.14053914276113e-06,0.273162746452018,0
2.25407502641238e-06,0.28589069572617,0
1.65535641343108e-06,0.257693094367126,0
1.53379266872879e-06,0.263361820450564,0
1.42170206529501e-06,0.261037489057048,0
1.642575832766e-06,0.267107137235007,0
2.27941459379474e-06,0.282044237265961,0
1.8653590299397e-06,0.276166457061853,0
1.85980891434361e-06,0.283414706440931,0
1.69797431971633e-06,0.275606006351208,0
1.36181694258302e-06,0.245112587585898,0
1.28686621203957e-06,0.237608001701547,0
1.37481826162082e-06,0.246119176804677,0
1.39650217054577e-06,0.243975080331541,0
1.41349560294434e-06,0.238630821828221,0
1.29367658974034e-06,0.246871439901459,0
3.17159760091012e-07,0.153852602790522,0
2.73212290118953e-07,0.153249682100085,0
3.65547664769979e-07,0.158976920523935,0
5.74846998556236e-07,0.179991746738321,0
6.51219267108457e-07,0.187253484254685,0
7.02822209074491e-07,0.192557783543663,0
6.75626257644861e-07,0.187089711757399,0
6.63248652846244e-07,0.187037079703879,0
9.05224110394773e-07,0.211823550310557,0
1.08687788804264e-06,0.22529084544472,0
1.07150940663002e-06,0.230991526450744,0
1.12049364714535e-06,0.235563094297484,0
9.99605806762609e-07,0.222200334828797,0
1.07941834274382e-06,0.24290599618358,0
1.177272818394e-06,0.237970201970307,0
1.35895097993187e-06,0.248975760021025,0
1.36258696016225e-06,0.238005941809422,0
1.78325098599729e-06,0.259816526917624,0
1.68201356644902e-06,0.266052416802856,0
1.42120754289413e-06,0.248456078512741,0
1.69140179189004e-06,0.266139120788021,0
1.71152491796064e-06,0.258158737684688,0
2.04713772155042e-06,0.281441568589597,0
1.74981682270701e-06,0.255062746572453,0
1.69070342872443e-06,0.264902320194342,0
1.65420972891934e-06,0.267766711432757,0
1.9270314490106e-06,0.296699029450647,0
1.6370188725692e-06,0.292603080560863,0
1.61113344828067e-06,0.289126371800176,0
1.39326467441264e-06,0.261578823362533,0
6.98440167367342e-07,0.187820902819665,0
3.96562475605057e-07,0.151777550441104,0
3.44995040005178e-07,0.153563907960858,0
3.02439804595125e-07,0.152147545196036,0
4.3362406337483e-07,0.168395830380389,0
6.41363897669371e-07,0.194584705033288,0
6.56089200509558e-07,0.193049454225877,0
8.38817580467995e-07,0.205196153628047,0
8.80261851626233e-07,0.204534623665269,0
1.17587502259392e-06,0.235475165667575,0
1.17295408924336e-06,0.243150583389292,0
1.21000049055532e-06,0.243783993174368,0
1.3590416708912e-06,0.249341610350973,0
1.42146785161466e-06,0.243090695063525,0
1.52787037796941e-06,0.242919492613901,0
2.13966816732151e-06,0.276188424491768,0
1.99292848397245e-06,0.266366218333987,0
1.66477608125658e-06,0.248235476557274,0
2.09353919476873e-06,0.279660526259469,0
2.25701136011452e-06,0.283109209993892,0
2.14287144045112e-06,0.270788952728508,0
1.74721523275807e-06,0.247646958297383,0
1.76431026469834e-06,0.258475337322723,0
1.72952087046862e-06,0.266224865752804,0
1.97819376980629e-06,0.305869729655211,0
1.55943425411723e-06,0.284671812870989,0
1.5923892953582e-06,0.301963092514511,0
1.59070060402819e-06,0.299559737219789,0
1.17803962756665e-06,0.268974469567212,0
1.59768380789674e-07,0.132746351618065,0
1.29901110041424e-07,0.139734775249313,0
1.3546470094515e-07,0.139663039855733,0
2.6515983128413e-07,0.157130446100018,0
3.29819918562454e-07,0.162627146734393,0
2.68643519148841e-07,0.155025208076058,0
9.85035363013355e-07,0.2139951072009,0
2.14132049671028e-06,0.270214929016827,0
2.13944914009898e-06,0.27218757023947,0
2.08524011641479e-06,0.271917180698517,0
1.96864555182381e-06,0.267230739227802,0
1.96950968266273e-06,0.260882621915196,0
1.78521560029318e-06,0.241269434445674,0
1.93871176011247e-06,0.256345578985841,0
1.94465693750546e-06,0.259179328942173,0
1.86757924729315e-06,0.251235897062584,0
2.27502378244294e-06,0.275671298093001,0
1.7198162961388e-06,0.248382195357025,0
1.71577455942292e-06,0.252452281264507,0
1.69476933543654e-06,0.251244303944014,0
1.73846441075763e-06,0.253460522461668,0
1.77431557367161e-06,0.257853359637716,0
1.78422634159765e-06,0.270597096453321,0
1.47165674185395e-06,0.250181160259294,0
1.30603879418736e-06,0.23666551877012,0
1.16606157633414e-06,0.2236075435963,0
5.99071751598889e-07,0.207110749184034,0
4.78792652891289e-07,0.203823483655125,0
4.99311696333886e-07,0.195149368877707,0
3.76286201593691e-07,0.172168047909523,0
1.82974785583792e-07,0.13511392534933,0
5.74765077241557e-07,0.194089617469111,0
6.15962728880667e-07,0.19203802169043,0
6.21142166569867e-07,0.186827438077518,0
9.3624726308696e-07,0.218365649100942,0
1.20276553371712e-06,0.241607718553279,0
1.2039310408808e-06,0.240141429196996,0
1.1778802767065e-06,0.246394204785447,0
1.12774635716663e-06,0.251171212772023,0
1.12951461697983e-06,0.243515433170099,0
2.44538910237926e-06,0.325930518530825,0
2.36288449938354e-06,0.263811057618685,0
2.92844679708441e-06,0.284871055921865,0
2.87489635232423e-06,0.279814819319531,0
3.09935818782066e-06,0.289281338448065,0
3.36454368635743e-06,0.274838991227518,0
3.55973052296031e-06,0.26345629300942,0
3.61082974509326e-06,0.265904790135972,0
3.52662211988481e-06,0.260928917187537,0
3.48849448555534e-06,0.261651074406516,0
2.24428382510489e-06,0.224248933094646,0
1.61327067485058e-06,0.225542783194582,0
1.38716421014117e-06,0.215253863179537,0
1.40985406147589e-06,0.215828757869606,0
1.09318860989199e-06,0.196038245352718,0
5.72018681208961e-07,0.175155849284582,0
3.74880277830278e-07,0.168483540395571,0
2.8462737294353e-07,0.154595869762962,0
2.70210291028807e-07,0.155255999993044,0
3.07871636935294e-07,0.164856220498816,0
1.57350311697111e-07,0.136682579510703,0
1.9253006206075e-07,0.135252881774081,0
5.24932106238897e-07,0.173193171034666,0
7.17786217364242e-07,0.187238646777458,0
7.62996516166241e-07,0.198228419936106,0
8.09214040740633e-07,0.19863497833337,0
1.38079702033601e-06,0.24358741048358,0
1.59415178003956e-06,0.255585013025617,0
1.60486358014177e-06,0.25618636082505,0
1.50536725589765e-06,0.244207186972037,0
1.49078975365392e-06,0.245017379974572,0
1.37607424585005e-06,0.248104384081185,0
3.22551808189588e-07,0.150230394602669,0
7.17146461092162e-07,0.207241093081058,0
7.36481602506688e-07,0.202830399519372,0
7.1279072831897e-07,0.203645070763619,0
5.51156124368518e-07,0.189790482333678,0
4.75141700096867e-07,0.183928603028202,0
4.72328783101177e-07,0.187312002321642,0
4.42814650970514e-07,0.190028151490833,0
4.51399491403868e-07,0.19058142927468,0
4.40624592638913e-07,0.184100187536068,0
4.19959031962491e-07,0.183366693989342,0
1.00096937955916e-07,0.134968163280409,0
1.85928230787692e-07,0.157990004288503,0
2.42002835951346e-07,0.164445180651668,0
4.23828798085678e-07,0.188342616842624,0
4.17573474723274e-07,0.176233819701568,0
4.44794665618002e-07,0.183259469136596,0
4.79900622630296e-07,0.180920854226647,0
1.04157711217508e-06,0.234959105638573,0
9.90192769644036e-07,0.223175668710448,0
9.45667144806238e-07,0.220169707753962,0
9.32484229956006e-07,0.218843314020707,0
8.62799350185647e-07,0.211701493795831,0
8.06716403164887e-07,0.208452341109332,0
5.10138143497894e-07,0.187484078399371,0
4.72906296285601e-07,0.185952553383178,0
4.72619678631109e-07,0.177339514441455,0
4.86552718939775e-07,0.183003676018953,0
2.27135935434086e-08,0.112966510393717,0
7.91556682073752e-09,0.111947819053161,0
2.7773464614054e-08,0.119953148027468,0
1.5714775429502e-07,0.147910346641755,0
2.15471238577577e-07,0.162404602334224,0
2.85337714160372e-07,0.172063441304888,0
3.67938141565952e-07,0.176593759511002,0
5.94264489072985e-07,0.206116264849923,0
5.40441115859726e-07,0.205517076820047,0
5.30887764426716e-07,0.204245084303805,0
4.66633861421437e-07,0.188448648323289,0
4.62890078729963e-07,0.184495990057636,0
5.11362685342644e-07,0.186832766734324,0
4.49118528219163e-07,0.178147265029503,0
4.43998980786128e-07,0.174700498384949,0
4.60694459160291e-07,0.182633322913303,0
9.50443820522741e-07,0.234362994452576,0
2.26840590913698e-06,0.321513324786667,0
2.29910822117116e-06,0.287234761322307,0
3.91490027580618e-06,0.356061603253369,0
3.89186712496739e-06,0.346087564803258,0
3.5427251125105e-06,0.324198561271367,0
3.81539240129838e-06,0.335689186283472,0
3.72066826100155e-06,0.327771988892858,0
3.73553644488144e-06,0.324827554949884,0
4.2039552498303e-06,0.341619977590369,0
4.08949491729643e-06,0.346287472954948,0
3.12410141936666e-06,0.319517270042007,0
3.12705144227022e-06,0.363498080572111,0
1.16197791643895e-06,0.227029879008648,0
8.90793767066185e-07,0.204554807094264,0
8.17838879309354e-07,0.209727896495297,0
6.84418788930835e-07,0.194901465458786,0
9.18667761753083e-07,0.227223069057791,0
1.01530903192842e-06,0.243350699634411,0
1.06123288035385e-06,0.250202118093446,0
9.55430753817131e-07,0.234544209290935,0
1.48848932613597e-06,0.272463920104134,0
1.61322254875188e-06,0.266141021186705,0
1.31444824172768e-06,0.248253992892282,0
1.43926702185239e-06,0.251177670967962,0
4.80309052787947e-06,0.382435008875225,0
6.96423491327332e-06,0.438627426505672,0
9.61855630772607e-06,0.477484285910017,0
8.79334750460838e-06,0.438241845613014,0
7.88001232848525e-06,0.394565891318401,0
7.18665962448516e-06,0.370798829489626,0
7.21737819244599e-06,0.37658357831723,0
6.18036792619707e-06,0.342068313394979,0
6.70593230242603e-06,0.358969476929774,0
6.72036927646155e-06,0.349506259376145,0
5.95331391207767e-06,0.34844952402628,0
5.96197382922499e-06,0.369511921311139,0
3.37757773114235e-06,0.274189872803828,0
3.4908575839485e-06,0.276710528531974,0
2.80081488607022e-06,0.255412758548122,0
2.77725662602115e-06,0.261438157522575,0
2.36198422049715e-06,0.247937737696327,0
2.06078093579801e-06,0.250822269933014,0
1.58063027134824e-06,0.221999903246073,0
1.54861914332314e-06,0.236741312231297,0
1.33516920089105e-06,0.22719849464543,0
1.31774113634775e-06,0.206200080235829,0
2.55349101475261e-06,0.275699286561569,0
2.8653584012428e-06,0.288042204953647,0
2.74763982487993e-06,0.264798732989502,0
6.85490845905522e-06,0.348252020813089,0
7.13314768060392e-06,0.298429047619501,0
7.09911632590221e-06,0.284226590528156,0
6.73195825492277e-06,0.256110215372722,0
7.77079816849745e-06,0.269680019807458,0
7.27048459373547e-06,0.263358932758503,0
4.7354230941667e-06,0.217937190172767,0
4.59392637495713e-06,0.219454508965292,0
4.77093908553994e-06,0.189632236949645,0
4.63050479808531e-05,0.266534858060658,0
0.000291294145574177,0.461677528595747,0
0.000504384428195361,0.530264919663439,0
0.000843900649387684,0.50927533337237,0
0.00107839848868313,0.511459308556803,0
0.00116306164345784,0.469203202056027,0
0.00213259662682238,0.185142650089871,1
0.00258514083149299,0.115681338604807,1
0.002191345870936,0.105928897896549,1
0.00172013102093219,0.0875857095431942,1
0.00123509161754088,0.0625333952164182,1
0.00107122646602336,0.0563600736712714,1
0.000956124803173147,0.0506746454180202,1
0.000902587657258247,0.0425094310343121,1
0.000984126355336027,0.0433418862440992,1
0.00095352800187797,0.0317521874948305,1
0.00104561666524944,0.0496586234628623,1
0.000937034274954166,0.0482780268202109,1
0.00106926852970491,0.0479480540376234,1
0.00105753446709814,0.0462594164959159,1
0.00133602481683279,0.0528064375755097,1
0.00233031477750594,0.0719680180269925,1
0.00305791781958208,0.0833442852763411,1
0.0033096781660051,0.0598086595860365,1
0.00284035082415911,0.0338070440151051,1
0.00371849882010453,0.0338115183491487,1
0.00374428531082333,0.031204796472233,1
0.0034580003792161,0.0318077685056086,1
0.00277188934682138,0.0267338006517297,1
0.00294477095929266,0.0250703077030739,1
0.00292817323978363,0.0257392663556972,1
0.00301758796171273,0.0263545730594923,1
0.00302193824447261,0.0211281761475379,1
0.00329795684740315,0.0198924826934271,1
0.0046542082293347,0.033266432286308,1
0.00445154863050905,0.0355734159572195,1
0.00445852811262597,0.0366463860429593,1
0.00443401062563641,0.0289178592860644,1
0.00452500429427898,0.0306309947599613,1
0.00394784542232126,0.0292330144354983,1
0.00408928087636551,0.022422317383773,1
0.00467171735619528,0.0137068166473234,1
0.00614066428127395,0.0195799559952284,1
0.00574145433743089,0.0197646909011659,1
0.00591246960268301,0.0198123499167643,1
0.00655818174256568,0.0153376185250103,1
0.006836164170738,0.0122966070105633,1
0.00685205324242717,0.0126357979523937,1
0.0070740153473973,0.0119414291215997,1
0.00770830053335104,0.0128210987492365,1
0.00701543128745478,0.013580541808907,1
0.00609465500025369,0.0182748708912495,1
0.00499977287037978,0.0163442123903318,1
0.0053232832167719,0.0174321273393788,1
0.00470131234530522,0.0150719425755501,1
0.00485311830627118,0.0250507810054425,1
0.00373400714547918,0.0270842655118408,1
0.00440507560554612,0.0321302917320189,1
0.00458568935830891,0.027019783865935,1
0.00416793362213579,0.0270482053695247,1
0.00526085260609453,0.0318746813089541,1
0.00588451025753648,0.0343646486301579,1
0.00588619106367259,0.0299283167333938,1
0.0056574763783073,0.0336469826031875,1
0.00564644463697039,0.034490149772538,1
0.00533768438092601,0.0288849201232717,1
0.00518946503265227,0.0287253542624327,1
0.00401346016605795,0.0253877731082267,1
0.00457071017190321,0.0413661082844608,1
0.00474179748192508,0.0388797586658879,1
0.00365728426738934,0.0218977957295115,1
0.00279807769752283,0.0169402179895208,1
0.00266234502468498,0.0189455598271784,1
0.00264231539072654,0.0194531134052777,1
0.00309489041577854,0.0206867988721428,1
0.0034069367902883,0.0231973887112755,1
0.00320736909181633,0.0221438756612275,1
0.00296881860914767,0.0206480422089144,1
0.00312449518389784,0.019748763219482,1
0.0034071067964806,0.0228269854341001,1
0.0031711233599167,0.0350784817002492,1
0.00261716171307409,0.0300729613578272,1
0.00368457785683412,0.0334627929259584,1
0.00415298209476152,0.0268153554309026,1
0.00374513566519218,0.0297116531774205,1
0.00335514777934938,0.0332379633111749,1
0.00338166813446649,0.0370772403532928,1
0.00343564396538531,0.0383659919926889,1
0.00321630289972482,0.0365236515862294,1
0.00260990640552684,0.0282809506747539,1
0.002210536528177,0.0261078363190042,1
0.00211231229500484,0.0286835937792811,1
0.0017904085586355,0.021054162649475,1
0.00324507190402503,0.0351196830017705,1
0.00373918931737247,0.0173321716236119,1
0.00623012952512589,0.0231346440832111,1
0.00680774710489742,0.0253686528493155,1
0.00697195218666432,0.0261635485937077,1
0.00606537913380699,0.0252356341904004,1
0.00650797470557878,0.0273604291898875,1
0.00674729391112767,0.0253050421307451,1
0.00676217789234598,0.0243341515416584,1
0.00697989133997908,0.0299542219566988,1
0.00633158322378951,0.0308075025501424,1
0.0070390986600643,0.0760407886455068,1
0.00425237782562024,0.0645277579658958,1
0.003231918428658,0.0341578394714185,1
0.00346031513419448,0.03193928405218,1
0.00492062177415178,0.0390691426199653,1
0.00568414511067848,0.0446718167233276,1
0.00997977074455608,0.0536944345011944,1
0.0213336441447348,0.0838959050900112,1
0.0394484315130796,0.123332008354102,1
0.0819747221576139,0.120616959819312,1
0.0927353123147407,0.0303178308642174,1
0.0832278356672022,0.0266848826491583,1
0.0693543945170383,0.0222990933862152,1
0.0648067727385322,0.0216921330403866,1
0.0631618057310349,0.0199242204717148,1
0.090538993799042,0.0225882804564342,1
0.161394614249958,0.0314613105515723,1
0.175188386383226,0.0324501365456341,1
0.197620899186215,0.0364076277992145,1
0.245079404226401,0.0433327353503237,1
0.253580174696792,0.0482155518091269,1
0.185173612574208,0.039307489664835,1
0.135183482099297,0.0311852583671295,1
0.0817602531251497,0.020601459321463,1
0.0375927595834181,0.00972594829205022,1
0.0293727890845037,0.00795456350990802,1
0.0309643289632033,0.00898815749436506,1
0.0286502417973264,0.00632177187075435,1
0.0714192912825687,0.0102842038659569,1
0.0705071765791752,0.00783669357878469,1
0.0993257755778599,0.011425873509907,1
0.103162731915067,0.00889531799833489,1
0.116262935654496,0.00750633797123833,1
0.114410336320634,0.00642099720577741,1
0.126639406521502,0.00725468095231604,1
0.11970376082968,0.00694798312183844,1
0.120641988569212,0.00687496219523186,1
0.123248735799874,0.0070095541847207,1
0.106953832096735,0.0076162665498987,1
0.119051665064395,0.0100708939436131,1
0.0891190963394594,0.00777521723022265,1
0.0862818013715588,0.00985684543816323,1
0.0736142939064565,0.0149977850796157,1
0.0447306871359531,0.011463462391105,1
0.0573347732645852,0.0149908810651406,1
0.0666772695567659,0.015577646831604,1
0.0538706759867068,0.013876016352118,1
0.101609357265307,0.0249070164484394,1
0.158219907634626,0.0326321307857153,1
0.181461649062702,0.0378389039824938,1
0.151773159267737,0.0380545421316262,1
0.142410879016134,0.0362430797816951,1
0.138319928990843,0.0359355381228616,1
0.109985795163282,0.0272391992226099,1
0.091098510441681,0.0201812426778456,1
0.0897533554361481,0.0214838426392328,1
0.0545814073768035,0.0147784540426911,1
0.0534975269644255,0.0203534012853321,1
0.0532902845364616,0.021422245671092,1
0.050208067194916,0.0200957063906637,1
0.0432208298384632,0.0152550351671708,1
0.0342981161054024,0.0128804892989433,1
0.0345542179204507,0.0122134500062551,1
0.0297964975590008,0.0100339171823122,1
0.0218609636742222,0.0133576261635319,1
0.0161122721537467,0.0115968243965032,1
0.0184513951289741,0.014533600903584,1
0.0215679540208141,0.0163801943259121,1
0.0220861918814785,0.014557212035271,1
0.0219375335487496,0.0150069575734736,1
0.0174804582058315,0.0183314961702928,1
0.0154656634575849,0.0153921705383746,1
0.0151459934074598,0.0133598413290656,1
0.0151340640487167,0.0150888852345029,1
0.0191674122683815,0.0205344175029349,1
0.0196521421435286,0.0250726832177565,1
0.0149013332853325,0.019736386795405,1
0.00905185018463151,0.0121124865157922,1
0.00705469309629094,0.0114599772974896,1
0.00712963167167912,0.0103036622701696,1
0.00806208416728564,0.0106431094645445,1
0.0084962221455263,0.0103372474735792,1
0.0111749060714116,0.00796543961128505,1
0.0147437879318187,0.0119396967941955,1
0.0135974010436369,0.00920138554001594,1
0.017186205807577,0.00628758198396661,1
0.0254660980441809,0.00792553199966076,1
0.0301148380749564,0.00623574628870104,1
0.0377614762527246,0.00812196964026522,1
0.0432808318643886,0.00951200404064867,1
0.0500309126470951,0.0102521413693236,1
0.0512312512821847,0.0085113455197311,1
0.0506685005036838,0.00896047079855464,1
0.0473630425437217,0.00865581430697268,1
0.0474573790518218,0.00786992349971539,1
0.0456227449022759,0.0107612574320775,1
0.0303259454870204,0.00649093651311634,1
0.0315221897247475,0.0105398700084674,1
0.0326496021563046,0.0109398267946525,1
0.0310751510424577,0.0113243785931862,1
0.0270479589875694,0.0105475352647491,1
0.0219882427518452,0.0147755836534399,1
0.0184444703042022,0.018177658042958,1
0.0220170286126858,0.0205979861261823,1
0.020470851030836,0.0264670665089145,1
0.00879057045481763,0.0132955364101534,1
0.0141760421851038,0.0224746092261628,1
0.030688495709707,0.0427175218721701,1
0.0394913549623403,0.0548862503202909,1
0.0445720131591177,0.0508532266227542,1
0.0863174341745989,0.0438134427573104,1
0.118661892898763,0.0374239289039407,1
0.113193541571412,0.0433706580353365,1
0.0872199505021342,0.0253499447587738,1
0.0690344551271698,0.0105632174891426,1
0.128588002112615,0.0139174629318698,1
0.25041414708114,0.0267832438926977,1
0.330538114376125,0.0344722270421523,1
0.317598558795509,0.024948184103689,1
0.275049737945245,0.0226056332418239,1
0.266621466522471,0.026166437051071,1
0.262856820207469,0.0271613595878986,1
0.244226471775384,0.0245425550882852,1
0.194264701301167,0.0228544356543353,1
0.157490696523771,0.0274762905167733,1
0.157618864109279,0.0238621079296643,1
0.121892785332043,0.016837654330223,1
0.0801183438407758,0.00656198593608787,1
0.232343646784261,0.0199088547990451,1
0.297759169349423,0.0214397357958125,1
0.317109677375717,0.0205508294769379,1
0.304685330219024,0.0179790774381294,1
0.311871835935603,0.0185185030718082,1
0.280171129137462,0.0188292409959157,1
0.218135056725245,0.0129067066634364,1
0.208811138109898,0.0146995451544753,1
0.233701755493298,0.0173176607376814,1
0.241906268511312,0.0229001567507907,1
0.187125185309954,0.0284369410706586,1
0.147421736130644,0.0259913723864565,1
0.102708947921134,0.0189568689552978,1
0.11239374552435,0.0238220136442598,1
0.0747130546758367,0.0173606689824854,1
0.0357804174391548,0.00619409524448368,1
0.0316857510609096,0.00992303247167924,1
0.0326420517283976,0.0130177168881588,1
0.031130392578436,0.01197675704444,1
0.0408717668387058,0.0143200908396831,1
0.0430329083204917,0.012261909406185,1
0.0518905948422124,0.0120651844335289,1
0.0433669899740703,0.00819005818474747,1
0.0590203074966403,0.0141905704143542,1
0.0586356601840765,0.0142862248467709,1
0.0629855001444927,0.00972062778868396,1
0.101752931303719,0.016060965031691,1
0.120438157972141,0.0181639039858305,1
0.122607549045818,0.0185736286086975,1
0.122650363663361,0.0179301197063834,1
0.121730631769825,0.0186815576760196,1
0.0684074534262733,0.0123855133507734,1
0.0408526057332423,0.0103831110205397,1
0.0435834498407846,0.0108533939194098,1
0.0277771809599496,0.0073021640732267,1
0.0249953509413556,0.0234437642850942,1
0.0174169859528044,0.0110874674421523,1
0.016693608082743,0.011653564884281,1
0.0161346710186467,0.0107003220938033,1
0.0326461890069697,0.0122760242915901,1
0.0459987284538075,0.0107198189749948,1
0.0473041157521631,0.0103719118007059,1
0.0461420698534388,0.0098847264552714,1
0.0452288494253353,0.0107263827737259,1
0.0453261700531452,0.0115797345712309,1
0.0481157546819992,0.0122032085391818,1
0.0488192056829371,0.0109734760938488,1
0.0457901547469426,0.00909669958747887,1
0.0427640869903807,0.00830168889533212,1
0.034409953678279,0.0115654886960816,1
0.0203620053488576,0.0123266270990857,1
0.020537993150856,0.0141368617219249,1
0.0313840016957853,0.00812838179117638,1
0.0643731929034699,0.0153803123725332,1
0.0661802141436977,0.0114573405881118,1
0.0648369114747002,0.0118675997156468,1
0.0748234741905424,0.0152414461483173,1
0.0861549533326652,0.0180645824978618,1
0.0862807266802685,0.0182017095468666,1
0.0880511324573836,0.0189477068563161,1
0.0879310594393363,0.017984006963869,1
0.0878233651674248,0.0166891562079074,1
0.0773927214624271,0.0332299470051525,1
0.0214616765587896,0.00848487547669896,1
0.0167924792611569,0.0122711386008533,1
0.0187689230051663,0.0129451711088016,1
0.0193145619090897,0.0185384047066793,1
0.0193338349085883,0.0194595376271745,1
0.0200467975476097,0.0200314931928319,1
0.0209360415702375,0.0145072372668135,1
0.0265892544948922,0.0208500977987088,1
0.0261908715283259,0.0195562293528857,1
0.0243362322536256,0.0170573856123299,1
0.0252627388285583,0.0223667676386076,1
0.0240352385833258,0.0231135818136522,1
0.023148428743264,0.0201845508319186,1
0.0261984605204244,0.0243908586208161,1
0.021935646511372,0.0210662726275152,1
0.0166003993053858,0.0140204189340664,1
0.0167658362646983,0.0171935327082447,1
0.0196753867328528,0.0210602121064154,1
0.0351327408143819,0.0283436447263337,1
0.0500519140922202,0.0392773440812914,1
0.0523756183928668,0.0359819942392665,1
0.113462189673235,0.030796290835123,1
0.174169264600698,0.0394315978984172,1
0.162780881525014,0.036637121346611,1
0.160640224690841,0.0293811146787407,1
0.147596379672528,0.0226883022841751,1
0.117077874493598,0.0174434646280058,1
0.0987855544113188,0.0148857660134954,1
0.101674421074514,0.0163034087135446,1
0.10076236217793,0.0166146387290315,1
0.0928899063613465,0.0158186425408897,1
0.0855401881804693,0.019706238095738,1
0.07490712967379,0.015689099622969,1
0.0796183938043605,0.0170568578130715,1
0.0625727000568692,0.0194236058731335,1
0.106441323958267,0.0134456018194878,1
0.251217368423494,0.0256070305307956,1
0.254433655516683,0.0238071723369928,1
0.277107365580344,0.0234425588623447,1
0.306989707798826,0.0273664450422973,1
0.285466290783495,0.024396138544977,1
0.263940364241732,0.0237373286315425,1
0.231342394904075,0.0252207489442738,1
0.184656582621298,0.0166305504955686,1
0.157060358788478,0.0130247588986844,1
0.148227749135584,0.019347088318418,1
0.127338281711157,0.0188180224089901,1
0.132610333348543,0.0227709160916928,1
0.135519130534167,0.0201486903394883,1
0.128741640903646,0.0168664007747213,1
0.111970970793062,0.0131355570476412,1
0.130451435229342,0.0145282727063686,1
0.141916686706385,0.0156681193612729,1
0.128919641019107,0.0172176142140656,1
0.162051303415653,0.0231488986173117,1
0.170209373493078,0.023937828049615,1
0.153556897765339,0.0232132447400348,1
0.112976091339102,0.0182365917660432,1
0.0898011294913687,0.01973320138999,1
0.0909335031504666,0.0200931569633323,1
0.0482727330623719,0.0148294053483036,1
0.0476442018873219,0.012567900118646,1
0.0654243482692326,0.0126042288868629,1
0.0634429040242191,0.00749888014059988,1
0.0728923790967463,0.00997156570392992,1
0.0743605365399125,0.0101959040022117,1
0.09778772574695,0.0138077031697245,1
0.105907722606546,0.0144248159323452,1
0.104990040316499,0.0147427251004123,1
0.10716428994015,0.0173023202719972,1
0.102082571151104,0.0171622009014719,1
0.101037106617158,0.020199510987192,1
0.0279992412577753,0.00702532090167509,1
0.0125833253454429,0.0201635023913619,1
0.0134056820934964,0.0214540875779182,1
0.0150103177148534,0.0330600118486825,1
0.0175032703241937,0.0360140674359507,1
0.0184425688621485,0.0409005748191079,1
0.0376539358508592,0.00790444450247759,1
0.151116307137018,0.0168181979187344,1
0.143301144864495,0.0125678300728963,1
0.133096489556556,0.0111288121166979,1
0.140350588068189,0.0104466102770996,1
0.145904384327988,0.00990747560634006,1
0.140713927161694,0.00826158456298497,1
0.14492912846287,0.00855502870078143,1
0.156361674938781,0.00948858845776031,1
0.162161719205185,0.00996150181284748,1
0.154819067853797,0.0157718221175579,1
0.0456042644942775,0.00622579858355415,1
0.0454211787063817,0.00844068907183428,1
0.0481972234905009,0.0103709173214331,1
0.0460772778803301,0.0146364532702736,1
0.0213272205939207,0.0124917484367831,1
0.0157736332407469,0.019693405088523,1
0.0165537729613671,0.0203630458985672,1
0.0194366670730441,0.0210940030255439,1
0.0254619590873983,0.0151206320031046,1
0.0326007982539063,0.0170181340177875,1
0.0308594739764701,0.0190578686021302,1
0.0254357303090628,0.0274005286358705,1
0.0265994339016317,0.0246159033067693,1
0.0296251844370459,0.0156966521111519,1
0.0365719728994673,0.0186145921770817,1
0.0438149592277381,0.0205862853745989,1
0.0440718355352373,0.0198382265434519,1
0.047337831362012,0.0199556574180712,1
0.047768811130263,0.0283547171325748,1
0.0356342218213515,0.0200209012755481,1
0.0281047572286681,0.0139969421796022,1
0.0265360659389299,0.0127169521614601,1
0.0166538323096315,0.00628633440337153,1
0.016036534256477,0.00794878146919136,1
0.020128955688682,0.00982694224960882,1
0.0241515378247857,0.0122980663847436,1
0.0236270927518851,0.0126463864671776,1
0.023131477646432,0.0145200931142593,1
0.0220607975053144,0.0155203258252536,1
0.0200520890339792,0.016515759346616,1
0.0192011148170211,0.0217447864394443,1
0.0185692471063908,0.0215587777385013,1
0.017963795994645,0.0201746532120003,1
0.0268004335795508,0.0494768336059895,1
0.0250481488248351,0.0462393501327405,1
0.0245764969374511,0.0407432333898418,1
0.0506660215219228,0.0420660764180135,1
0.123407160834732,0.0478165871331668,1
0.28771957029448,0.0747658436345155,1
0.374007971188542,0.0669636996509231,1
0.384816741987283,0.0526726823843331,1
0.318089740783133,0.0435744391152264,1
0.279272659123114,0.0425842613208322,1
0.292492643754102,0.0418670637671816,1
0.255043249611548,0.043341441288422,1
0.172223978387715,0.022733912032102,1
0.11732886240972,0.0176240301337996,1
0.11152819418096,0.0148272880199123,1
0.158376926981003,0.0211467040870117,1
0.182700825171757,0.0243126775928884,1
0.204468906342396,0.0208664950135524,1
0.190614123757059,0.0203584024854006,1
0.227053346218139,0.0220877088730412,1
0.239065239411821,0.0237866609521273,1
0.223730749405178,0.0226827451770626,1
0.220152829923947,0.0229826304759383,1
0.256530066354907,0.024496250837477,1
0.24025313607292,0.0270609851835057,1
0.157087854143062,0.0171124477104137,1
0.0944791970631872,0.00412427642706275,1
0.166169152231896,0.0136021214753927,1
0.260286210446802,0.0191899711473858,1
0.384178074588507,0.0289158680075847,1
0.472255096842168,0.0330390840009809,1
0.548397831993608,0.0348719695918631,1
0.548192543036288,0.0389056556856629,1
0.401817461713941,0.0315908658997964,1
0.362003917997289,0.0294316104503509,1
0.231585041675141,0.0261643100365167,1
0.0651382990793628,0.0275051079142318,1
0.0557206609750653,0.0199012957591304,1
0.0425837773708195,0.0155526823705796,1
0.0608696425208604,0.0180598468071054,1
0.0827196840527005,0.0220854293389507,1
0.0943464680496829,0.0230648401038072,1
0.0935232784604548,0.0262994329599255,1
0.0877575444649473,0.0270650359343546,1
0.0941588645594524,0.0304118962163582,1
0.0949508032684226,0.0341468260106871,1
0.0833615784871346,0.0212194482297336,1
0.0671291567595512,0.017282570187494,1
0.0935071505432157,0.0315091829713146,1
0.189415779899565,0.0432716125532439,1
0.178609506132653,0.0260112948114814,1
0.159720345037777,0.0249365685876174,1
0.150943512652891,0.0238178917886606,1
0.137024105710803,0.0204542179017866,1
0.107351513919516,0.016456331243987,1
0.0776317040359685,0.012865185509521,1
0.0792571791472199,0.0111819992269853,1
0.114617298839293,0.0159329578133721,1
0.12270309804071,0.0192370977744346,1
0.0666097362141282,0.00744726429528325,1
0.0936523006510419,0.0140740354947296,1
0.0938754892778714,0.0134297379834751,1
0.0941156247313578,0.0134773917006777,1
0.0935442736168891,0.0152797358425317,1
0.091140517250679,0.0140629263650836,1
0.0990698061767457,0.0139365902056078,1
0.104112665063353,0.0214588149634982,1
0.10121776771381,0.0198640259977073,1
0.0958382224899159,0.0197539464441135,1
0.0832332779441892,0.0330100936849501,1
0.0300510301832445,0.0215281126907583,1
0.0225917165333104,0.0188724828681567,1
0.0189793371612063,0.0146276599239735,1
0.0156524460089736,0.0114506609599468,1
0.0129221652244751,0.0111586615361517,1
0.0149649039466062,0.0145218531793117,1
0.0156423714705005,0.0121084087715499,1
0.0149446538166167,0.0154599509523794,1
0.00865389266988931,0.0155539847892369,1
0.00809696956837661,0.0225015372811945,1
0.0149999334802294,0.0304040558762933,1
0.0187062495974654,0.0245037212213644,1
0.0179108317734653,0.0215797619177944,1
0.0213327364403123,0.0255719812142756,1
0.0250190990021822,0.0216079305305152,1
0.0235285057944459,0.0215187500966789,1
0.0226361668912826,0.0249082141611485,1
0.0275300849336253,0.02252406326228,1
0.0398733780406632,0.0312717854643579,1
0.0437533857433064,0.0378403367006775,1
0.0449939889954565,0.0281324121193512,1
0.101551698990656,0.0383937570559739,1
0.120529279636528,0.0337805545209767,1
0.121237249219118,0.0259382090100161,1
0.229944972569367,0.0294752008407079,1
0.32636314245194,0.0375214294497168,1
0.351854761830217,0.0331688584064228,1
0.312294133964409,0.0284277142287605,1
0.321550163554235,0.0287628048822173,1
0.250121338519533,0.0219837757573141,1
0.196049636319246,0.0178598073602619,1
0.191394747960548,0.0181580376734816,1
0.162705117034546,0.017246014352291,1
0.0897979612643058,0.0114071859063353,1
0.0816485462488541,0.0171651419152481,1
0.0791793325715681,0.0151128452283141,1
0.071746399118793,0.0156787877671809,1
0.0696666134347344,0.0172064180946648,1
0.0706604893924615,0.0184346305807594,1
0.0727260368927896,0.0184935924915437,1
0.0564521595104075,0.0185724532308526,1
0.0838726215999955,0.0239689177640557,1
0.09664988211868,0.0261738982375869,1
0.143508713492867,0.0347267196998141,1
0.16009082715679,0.0205994958803641,1
0.254131316144411,0.0219834113214107,1
0.311580911634392,0.0167501412548885,1
0.320602363840396,0.0174394485482653,1
0.345962808572493,0.0194403748527194,1
0.433633081074657,0.022586422948704,1
0.532475665244901,0.0259717328955038,1
0.522550233844371,0.02703027595796,1
0.472366141797449,0.0222113882496142,1
0.301692078514032,0.0160350478178611,1
0.126031143780401,0.00795909160554509,1
0.127124877203398,0.0107446592705168,1
0.111994861376442,0.0191187288329115,1
0.0492841367841657,0.0103888045519791,1
0.0421696883601815,0.00685909888520329,1
0.0638775238240623,0.0141410691887876,1
0.0704150689243896,0.0175297293904998,1
0.0755230856571028,0.0187117549714067,1
0.075977067230702,0.0225149059409836,1
0.0771239608233905,0.0244307740203817,1
0.0452135393910376,0.0219164474853382,1
0.0321841722479551,0.0262371523607342,1
0.0233710830790653,0.0221457742708255,1
0.0131744067583057,0.0137305143401905,1
0.00590575718062965,0.0237500676417046,1
0.0104399011010298,0.0452368801242113,1
0.0136590258527348,0.0625334687557696,1
0.0194823723295208,0.0644678562435005,1
0.0303066629686072,0.10430512331355,1
0.0379704289211743,0.132557306496016,1
0.0359831836700148,0.0524796820234133,1
0.0407249408363862,0.0177109476314107,1
0.0745784600722973,0.0208996033240501,1
0.0629084722949516,0.0121447267955069,1
0.0613330856527385,0.00990367205972479,1
0.0598615987448924,0.00735373367049078,1
0.0575181688782513,0.00697026077096643,1
0.0546736085269096,0.00547012844853826,1
0.0726848049918381,0.00697710600322314,1
0.0835886383553127,0.00573122269338348,1
0.0863015194052842,0.00586986731667418,1
0.0817447669155355,0.00783254146364588,1
0.062780593430744,0.00595771219729176,1
0.0614507878140378,0.00570866897560651,1
0.0655401070995218,0.00670656055743046,1
0.0678425042764593,0.00737275079182176,1
0.0745261998127388,0.00841873004778194,1
0.0770727171205063,0.0102782724522148,1
0.0443424378849944,0.00539855031535089,1
0.0397351211952299,0.00956461860403087,1
0.0375806915256863,0.010541411592604,1
0.0404122016498958,0.0122222496817088,1
0.0385663050794995,0.00975642578060909,1
0.0361761509106256,0.0132866278499049,1
0.0207675905510067,0.00944395836352905,1
0.022140439250327,0.0110198696955421,1
0.0318068668761191,0.0153004329418426,1
0.0395620611234845,0.0221935794723157,1
0.0457303308183832,0.0253004517437663,1
0.050395125298165,0.0266996489841344,1
0.0589461265965191,0.0332885898803569,1
0.0485398165821593,0.0308334184053182,1
0.0501787363954152,0.0388337294228811,1
0.0428181472417491,0.0687473087658149,1
0.0191822762926692,0.0452033205653504,1
0.01142992384737,0.0740739157277743,1
0.0105518932018898,0.0730326858130018,1
0.00855164579173156,0.0598030545491502,1
0.00605697092364216,0.0509584907002718,1
0.00254313450760606,0.0366008628247419,1
0.00353924955603143,0.0153028354850049,1
0.0222188120673288,0.0333253159299318,1
0.0381258129228257,0.0412427303546391,1
0.0485055843634525,0.0437173502161922,1
0.069423896055623,0.060464485429968,1
0.0828707324924031,0.0710152635322657,1
0.0883749999019948,0.0550590067509557,1
0.087516478548741,0.0149404184322035,1
0.377952352993935,0.0249594835813696,1
0.490974365424585,0.025007916708203,1
0.605997141787625,0.0282779770526079,1
0.697994044937953,0.0308378888514856,1
0.738726700295987,0.0305141881503843,1
0.632530870917631,0.0240996959809955,1
0.556179972873544,0.0212253754571877,1
0.453904974094107,0.0176798322403016,1
0.320523260208265,0.0126103219068252,1
0.230280426287325,0.0116379587282774,1
0.219576807094217,0.012987852166289,1
0.220855201005389,0.01525140662755,1
0.195060844382694,0.0162132858770297,1
0.168308047142217,0.0125095302313668,1
0.143291140068867,0.0108832417485421,1
0.142780236428435,0.0112623415648155,1
0.154232576391024,0.0123177704175814,1
0.162596104611677,0.0112982733905342,1
0.162283402585166,0.0111959727354037,1
0.128551529860366,0.00900585358747335,1
0.114183219209776,0.0158867423665971,1
0.0982186305959128,0.015610300589904,1
0.100639984913933,0.0138705133962217,1
0.148681560312634,0.0138357415415502,1
0.133900757279007,0.00854263879403819,1
0.129432648948607,0.00982988110829779,1
0.16343555469036,0.0109851151401704,1
0.217552976652116,0.0157155081607037,1
0.23785473611262,0.0184856559605353,1
0.241209972421104,0.018227557614181,1
0.237041185067645,0.0161969399184742,1
0.244773452277727,0.0132249913610528,1
0.310348064249984,0.0157308188972851,1
0.243209954491761,0.0219974868447765,1
0.146570248461686,0.0199033768709802,1
0.153923863908795,0.0186053489413589,1
0.172567593610975,0.0299859706182138,1
0.178630030892835,0.0305057536686436,1
0.16964418247732,0.0271623836226322,1
0.15385337290254,0.0195219964604236,1
0.0923933132462992,0.0122750847808925,1
0.0554233008053253,0.0130844218263086,1
0.071686257874545,0.0160952744439393,1
0.0793427856428307,0.0189715500887425,1
0.0722630630064158,0.0199234307439657,1
0.0766200522042438,0.021598152124586,1
0.0784983522865121,0.022218323831599,1
0.0760438113962257,0.0230369390233887,1
0.0380871752701333,0.0129486378924946,1
0.010983764389761,0.0117298574861573,1
0.0143240443300272,0.0220044774659923,1
0.0110200086928502,0.0255954282151769,1
0.00951735756338019,0.0361117980519471,1
0.00768973724408263,0.0267083980754246,1
0.0126442006399629,0.0283725111440374,1
0.0165570349746461,0.033977829325806,1
0.027814363916393,0.0461622599909055,1
0.0276416062234924,0.0465388528107997,1
0.0230055189932427,0.0458427745155164,1
0.0236387454022444,0.0405235384415138,1
0.0238025801066251,0.0335832707932162,1
0.0253969327329166,0.0345525403619769,1
0.0185281164514145,0.0240677038901962,1
0.0107774347337908,0.0119851583949108,1
0.0134057285244869,0.0140726457384105,1
0.0129238149989028,0.0142961072660179,1
0.0127852627499144,0.0112918874896173,1
0.0191836550305341,0.0147212016160063,1
0.0267010607892269,0.014600544628014,1
0.0392690317114253,0.0114198586352626,1
0.0412820747851819,0.0109968135523588,1
0.0517460027440947,0.0147183782673724,1
0.0554939026928279,0.0158421616067946,1
0.0616104092498061,0.0201093361462731,1
0.0629438053575264,0.0197828932862319,1
0.0649335666062614,0.0181848354098919,1
0.0658400940253103,0.0163247941001549,1
0.0676309149717799,0.0161661533598335,1
0.051949409067254,0.0141882433226172,1
0.0247814898298561,0.0104849950905827,1
0.0285173437052872,0.00874539396116936,1
0.0330076893515408,0.0108782154588429,1
0.0342362047864525,0.0101705518298912,1
0.0350274218156971,0.0100812953367948,1
0.0364433235300027,0.0103324147581319,1
0.0356860424265395,0.00969197541963835,1
0.0378537581002453,0.0129901679996791,1
0.0356907994413544,0.0134520428593245,1
0.0400258985146302,0.0147947599765304,1
0.0420456363624927,0.0185615613462619,1
0.0339932705554183,0.017977700565792,1
0.0351371964216435,0.0181132910599615,1
0.0552920875074716,0.0239513146342275,1
0.0690202543286483,0.0205508970451681,1
0.142443397253781,0.0335592868213793,1
0.218956890339398,0.0436261028918726,1
0.309113583276917,0.0517072814369351,1
0.377694469326338,0.0556460796284361,1
