Activity,Complexity,Tag
0.00239584699979964,0.0164608466523987,1
0.00229807632908073,0.0336505101612848,1
0.00217440465965785,0.0280889602655879,1
0.00217600891106164,0.02884161806819,1
0.00221579791851575,0.0281990768188337,1
0.00227981426088055,0.0275587304446265,1
0.00242635379128106,0.0282422735080241,1
0.00261680639030342,0.0297700521537083,1
0.00195862550700098,0.0401414432262751,1
0.000777949204194748,0.0480956474921509,1
0.000636824480865926,0.0572660501945954,1
0.000234395039985311,0.0416348451634184,1
0.000168836741969696,0.0625633366167621,1
0.000167418276576295,0.0619982205057479,1
0.00016820818129083,0.0635203379589512,1
0.000173711308588056,0.0654396160114306,1
0.000179761172793476,0.0660204354153955,1
0.000183165822828862,0.0687907530297873,1
0.000145144838483852,0.124281098700784,1
1.24258349108563e-05,0.0921107028717525,1
5.75449849369762e-06,0.227763089599458,1
5.63648321018238e-06,0.226482164569972,1
5.38858778389197e-06,0.254783475573219,1
1.65974412088249e-06,0.164441362393229,1
1.13746286186044e-06,0.175779019643559,1
1.39271687112896e-06,0.174510586812886,1
2.80081493921569e-06,0.240965872702193,1
7.68756639882632e-06,0.297499853481169,1
1.3874800878151e-05,0.311099118727744,1
1.73030491750678e-05,0.214808576963168,1
3.76372296708783e-05,0.225477528847288,1
3.66961930866306e-05,0.159711976098266,1
3.68523611629126e-05,0.158176066354717,1
3.39646386593901e-05,0.149036291032102,1
3.60305227015876e-05,0.101069530595923,1
5.58198804378785e-05,0.101184632007988,1
5.38562776815828e-05,0.085257735295707,1
6.15214352220185e-05,0.0937426829058571,1
6.67188644887854e-05,0.100186715442795,1
6.76821773804798e-05,0.100043295003792,1
6.46366832442068e-05,0.106352878755999,1
6.33606464838792e-05,0.112455980866756,1
6.01569254470328e-05,0.109183596523239,1
6.0348451533213e-05,0.108918667765949,1
5.61717074731379e-05,0.164999372131141,1
2.78715770676421e-05,0.142943317553151,1
2.80624372083985e-05,0.185655489393354,1
2.6590687885273e-05,0.188449081225597,1
2.74347510558091e-05,0.199384949427494,1
2.52589279478965e-05,0.336129251253005,1
9.71728810032848e-06,0.239227900071588,1
6.41295870906153e-06,0.242956082223122,1
6.54062550632789e-06,0.259918958839486,1
6.35701747021207e-06,0.259461251493668,1
5.46808452884448e-06,0.273867663004974,1
1.73546918068586e-06,0.176918167960255,1
1.46128463577017e-06,0.202881893054616,1
9.62496253897572e-07,0.175217986420048,1
7.31646113238996e-07,0.152919662361594,1
6.05050754242956e-07,0.132787931595038,1
5.89183932196624e-07,0.139445243996192,1
5.54819963215551e-07,0.14197796613599,1
3.74921165621186e-07,0.127991619090764,1
2.1206546574761e-07,0.10299817765049,1
2.52205519882034e-07,0.114227772886079,1
2.92967031915611e-07,0.123114848608052,1
3.19217588608758e-07,0.128322738163342,1
3.48609256255878e-07,0.138693663674815,1
2.00761258692441e-07,0.110836480367193,1
8.99777504777808e-08,0.0833272063722657,1
8.81024372251044e-08,0.0851602331197629,1
7.56104679625016e-08,0.0839636965518646,1
1.87000756839736e-08,0.0562879162192602,1
1.03491838849275e-08,0.0526115375987788,1
1.05428140122274e-08,0.0527817827855738,1
8.00182882473762e-09,0.051544598630023,1
5.92550124499141e-09,0.0493054169802671,1
1.04676045701264e-08,0.0527288424842541,1
1.2327328956622e-08,0.0575768116626362,1
1.97005891713161e-08,0.0571858265804205,1
4.78626508123067e-08,0.0722335886598421,1
5.04130257846891e-08,0.0697556368142022,1
6.49990994042621e-08,0.0707835549404735,1
7.20091663858288e-08,0.0723304445887754,1
8.42250030422213e-08,0.0773946015405468,1
8.46815471465138e-08,0.0754776603439685,1
8.06755731898581e-08,0.0748970314923794,1
7.60736669628831e-08,0.0762527774413966,1
7.13024711189606e-08,0.0742200006964841,1
6.23069660288896e-08,0.0761006401739893,1
3.70281153276879e-08,0.0669557421929269,1
4.02917493000672e-08,0.0677060548102388,1
1.09065815720035e-07,0.100678750848593,1
2.66157327206556e-06,0.200454484052353,1
6.26640404041335e-06,0.200075135757328,1
6.16338761640111e-06,0.195067571174321,1
5.96908151575197e-06,0.195492050432476,1
6.7668485797825e-06,0.176895154429764,1
7.48212920958329e-06,0.156526886008611,1
7.20907709095824e-06,0.154149475855082,1
7.05789289370616e-06,0.153160236155189,1
7.00356368948054e-06,0.151855873073264,1
7.53892154582845e-06,0.157241364782191,1
7.11255374878071e-06,0.200164171140596,1
4.31111680468811e-06,0.192215262966211,1
4.29055919252868e-06,0.194414670449866,1
4.32504933104658e-06,0.193144173476008,1
2.74912918734473e-06,0.235853924130221,1
2.17084533680105e-07,0.112557583353434,1
1.81596525400724e-07,0.108712866929007,1
1.82939264640366e-07,0.106252360195184,1
2.07583529976156e-07,0.106558380501078,1
2.94199555136465e-07,0.122274825513922,1
2.27847506241028e-07,0.110142310568619,1
2.46473648764342e-07,0.114195375601419,1
2.88222911470846e-07,0.1173922947413,1
3.73145311158002e-07,0.127887470510026,1
4.10481648453864e-07,0.128920259436352,1
4.480375061577e-07,0.134286334003165,1
4.44605403035014e-07,0.132268965153526,1
4.44673592929186e-07,0.131531453334361,1
5.91451428503747e-07,0.150650591878256,1
1.81174750849422e-06,0.250432656133688,1
3.0884026271804e-06,0.308325127915828,1
3.43067551073001e-06,0.312424899629815,1
3.00608903792306e-06,0.26420718183128,1
4.26789608064228e-06,0.264662551712185,1
4.45835009041145e-06,0.239624555170825,1
4.47310937365525e-06,0.21746528304503,1
2.59334069539612e-05,0.1185729106249,1
0.000220108748558226,0.176080339809413,1
0.000714176910726296,0.204773324518298,1
0.00160028052648586,0.24260961541321,1
0.0031091251356314,0.287555216230859,1
0.0041644160615266,0.228893397468693,1
0.0042769626242867,0.194195656855437,1
0.00446828144928916,0.181010534756303,1
0.00502711809810918,0.113430506688883,1
0.00386285919103298,0.0630108061531124,1
0.00239122934316572,0.043306469861659,1
0.0014157138819429,0.0315644813400354,1
0.00112516155072147,0.0261315934945271,1
0.00128167688139578,0.0288020648914306,1
0.00129861741969247,0.0298034892596186,1
0.00132323066655759,0.0267671731818009,1
0.00167173330226183,0.0248496470633799,1
0.00188599000549763,0.0193724701365385,1
0.00166977682343505,0.0210882957223259,1
0.00238930149953635,0.0286449844981167,1
0.00290928943769909,0.032206215945597,1
0.00334642033119822,0.0355185458351797,1
0.0034753458169136,0.036302699443873,1
0.00381852311187241,0.0385513827656513,1
0.00397960770030929,0.0405117904189673,1
0.00323254375636818,0.0443465753032051,1
0.00087028462646259,0.0260450754103255,1
0.000279554882695429,0.0325587706001301,1
0.000181484249007874,0.0284636535879824,1
0.000208512509711949,0.023203574498948,1
0.000275543559934415,0.0245049465449699,1
0.000343022370618802,0.0229138237615567,1
0.000460767558703707,0.0277289884113476,1
0.000453210933037534,0.0305684392700066,1
0.000415532767733368,0.0297583589857108,1
0.000395062097415521,0.0301014579613909,1
0.000406546483959039,0.0256092208700147,1
0.000548267000352341,0.029783472134711,1
0.000400454680051489,0.0258269199635655,1
0.000313165801503019,0.0267511548203793,1
0.000345134384486266,0.0290629160457195,1
0.00033132995712867,0.0339332759703548,1
0.000311698975253229,0.0361298184766669,1
0.000349091010109348,0.0296791292723779,1
0.000486156931001939,0.0339464896078209,1
0.000413505918394413,0.0293257607330055,1
0.000401292109840395,0.0332601653141664,1
0.000490039994406446,0.0421937903098348,1
0.000576240847401678,0.0433114265214416,1
0.000488245101835323,0.040704902030093,1
0.000880059078661715,0.0185555024359917,1
0.00196255032212959,0.0181534941134325,1
0.00157443570285374,0.0145196873092225,1
0.00144434083092229,0.0136565685240204,1
0.00149494507967632,0.0128589227153408,1
0.00142800868714605,0.010787691241464,1
0.00136846239381433,0.010387899086837,1
0.00133801888720401,0.0100617746413083,1
0.00141380075976414,0.0102207207520626,1
0.00134604147192035,0.00745638587307402,1
0.00135080774642303,0.0107053479696858,1
0.000780421772036481,0.0102594822316509,1
0.000777703272783271,0.0109178691109023,1
0.000871041090962419,0.0120354586323736,1
0.00305739577641428,0.0201566372047578,1
0.00343961667385304,0.0137038733477409,1
0.00471397103314703,0.013827082631602,1
0.00504445192462889,0.00931836388706694,1
0.00470653982711115,0.00844614691823894,1
0.00486132952207979,0.00789713406430957,1
0.0048742618718892,0.00664041950095173,1
0.00466595712064895,0.00599453584321013,1
0.00439479086656875,0.00558588724965003,1
0.00417682298896603,0.00536702451941678,1
0.0035461083481435,0.00518206793612517,1
0.00329030166415854,0.00595646626052637,1
0.0029925121017157,0.00587794259711467,1
0.00298267330788444,0.00815550283446978,1
0.00187433737397352,0.00540869963338727,1
0.00172185578157352,0.00679806049670406,1
0.00160412886436908,0.00928785816637034,1
0.00163429105767333,0.00996276166730274,1
0.00339124765154152,0.0169368084390275,1
0.00365294112122975,0.0154483153461527,1
0.00393836884506858,0.0163235161064624,1
0.00389909440630475,0.0153995042540294,1
0.00328466494775351,0.0174305110153967,1
0.00238205509732114,0.0174290166268506,1
0.00242993747880639,0.0166753355989868,1
0.00217842963635121,0.0126760653863579,1
0.00252622176180103,0.0132665830772859,1
0.00255840500693578,0.0133310037497439,1
0.00214233084535531,0.0121789786514856,1
0.00233924945281881,0.0149433199724639,1
0.00294275434845114,0.0175444755120946,1
0.00295438344607477,0.0174283594729607,1
0.00296886470116093,0.0167777940003438,1
0.00295031227747416,0.0180442975607972,1
0.00317106984011261,0.00908288339183634,1
0.00781344339551985,0.0136239423337381,1
0.00861596968606229,0.0134474291674599,1
0.00890263799885603,0.0150016374897842,1
0.00857986844606462,0.014605589565871,1
0.00841230320340124,0.0144310145174572,1
0.00670262145698503,0.0119274866223082,1
0.00699829199576692,0.0107947392938471,1
0.00749576106800993,0.0101450351770872,1
0.00703455719426278,0.00933893605405897,1
0.00670053756552332,0.0141724306441899,1
0.00348175197021652,0.0130283945707329,1
0.00334125889516486,0.0137542595535668,1
0.00334872371079622,0.0123867940831248,1
0.0032511540275113,0.0125192169102644,1
0.00291213161290867,0.0106551461559988,1
0.00347791479140892,0.00992028030178991,1
0.0030784885075831,0.00933616021204078,1
0.00231090080183942,0.00726653417216804,1
0.00228771923298016,0.0074284319460829,1
0.0019432773164134,0.00619185939876544,1
0.00239016096204527,0.00799948826210377,1
0.0029422832929357,0.0108097632975749,1
0.00356616555952178,0.012771114011954,1
0.00364969129744304,0.0112954476461228,1
0.00351391979860076,0.0118897501657365,1
0.00269887093621048,0.0122450068389523,1
0.003483267494261,0.0184126864083653,1
0.003755624899714,0.0122818453926016,1
0.00403284442649154,0.0108725232653777,1
0.00442167972616165,0.0115651646074553,1
0.00478490522158712,0.0133185826105619,1
0.00391464543548139,0.00960394692721283,1
0.00289695663021322,0.00729061857435265,1
0.00337079883462614,0.00778171368754656,1
0.00338536227986692,0.0066701425679906,1
0.00340521652411636,0.00626966381794355,1
0.00319127717063128,0.00550457371856468,1
0.00301391202033542,0.00707710129041271,1
0.00216043617634884,0.00568112024597884,1
0.00211572130278197,0.00585793472378052,1
0.0020879668156938,0.00569026276505303,1
0.00185047103681838,0.00622527254833312,1
0.00149604697075114,0.00541839888112735,1
0.00112549057607715,0.00583703254164805,1
0.00119145041055808,0.00852866817408067,1
0.00106937742293795,0.00867252287442903,1
0.00131607074635799,0.0123968494502242,1
0.0011347107614899,0.0177164660129287,1
0.00158871033435589,0.0301594743752085,1
0.00166013720672373,0.018108399536578,1
0.00162225079367626,0.0186145728231182,1
0.00166359418274845,0.0185454986539124,1
0.00255192323805976,0.0210144261058307,1
0.00344781870611032,0.0211263090070263,1
0.00524026908680444,0.013988380154762,1
0.00565227414271093,0.0129584449688405,1
0.00527604995828113,0.0131275420269025,1
0.00482288330127007,0.0125108291599997,1
0.00439189551126406,0.0107118505483877,1
0.00416784537214549,0.0113085784956111,1
0.00536039465610208,0.0111942536836772,1
0.006956027823603,0.0131098297503125,1
0.00662338409736481,0.0134198062122522,1
0.00558413685713394,0.00918231381713679,1
0.00410814837249275,0.00804466455421862,1
0.00410696733373596,0.0086786560759377,1
0.00408951937474553,0.00842341533075741,1
0.00395482344294403,0.0079711980863945,1
0.00416244221934662,0.0087619302549258,1
0.00418980924224865,0.00802220149375559,1
0.00394688112311175,0.00891887314232626,1
0.00315217932819565,0.00748052581400312,1
0.00316787163151764,0.00690262097120444,1
0.00275145265953263,0.00851759707998848,1
0.00174527517809524,0.00660247596077799,1
0.00250667112320979,0.00929015344338967,1
0.00292265251134528,0.0108497285686715,1
0.00308402193544269,0.0102883944708243,1
0.00296012571113736,0.0100227882422749,1
0.00286403409413056,0.0106364199487353,1
0.00596376281522541,0.012404001792237,1
0.0101652788697891,0.016346736227667,1
0.0166520890502045,0.0181542394705856,1
0.025223618278343,0.024120337445454,1
0.0318665584731371,0.0323415129070494,1
0.0283282698277272,0.019557539500855,1
0.0240233254956827,0.0175458362599569,1
0.0204036089562132,0.0162575630756234,1
0.0182035773364444,0.0121552214155332,1
0.0198051868109461,0.0119659639203013,1
0.0209049526656683,0.0129869949162175,1
0.0204666993449967,0.0134622379200885,1
0.0240753071698152,0.0123795436885994,1
0.0351573628754039,0.0156168560332799,1
0.0380053118025353,0.0160785112714557,1
0.036300602153248,0.0205056095214113,1
0.0269554357776097,0.0156496227811887,1
0.0221859927822658,0.0115438167410661,1
0.0214490697990803,0.0123422431609288,1
0.0208105029015957,0.0127570662531428,1
0.0209643639117407,0.0122186611096308,1
0.0237441188302427,0.0124258496735308,1
0.0233671615184839,0.0148403188048547,1
0.0149435731838769,0.00951985299607698,1
0.0119862002724212,0.00756044733009515,1
0.0113053527962659,0.00683468070054375,1
0.0108088492102395,0.006934250366483,1
0.00865502294379366,0.00664262081398715,1
0.008586062340454,0.0055257940762407,1
0.0107615131877008,0.00750900979354576,1
0.0103648339633897,0.00781442769715489,1
0.0153974147935768,0.0108491395445844,1
0.0199946935038236,0.0179562520659333,1
0.0209304540609264,0.0217295315802512,1
0.0219772918638762,0.0235848732658601,1
0.0212593519507258,0.0240267678761828,1
0.0217426456092213,0.0248863894120787,1
0.0144245474569927,0.0223447248753523,1
0.00612435251021789,0.0256943934954351,1
0.00505579171513995,0.0261271105576386,1
0.00150754965342726,0.0158486217209528,1
0.000835011711809003,0.0172745341474365,1
0.000503270089736657,0.00795259835718355,1
0.00129889969595289,0.0192123752835265,1
0.0022206953645757,0.0315559875753562,1
0.00283255492232478,0.0373178498671493,1
0.00258327810953407,0.0333379128091987,1
0.00241319190890925,0.0357569659460727,1
0.00263587264672189,0.0321597308029006,1
0.00391777214086441,0.0399976217574355,1
0.00588621217192875,0.050125520211867,1
0.00681697244212745,0.031500651722576,1
0.00577035391745673,0.0172405166580702,1
0.00661278995423021,0.0199692946595145,1
0.00755592918981824,0.0212017349424647,1
0.00893572840879487,0.0231651599324483,1
0.0100670850472289,0.0252181914753519,1
0.010344376640332,0.0189935704604028,1
0.0104891163941058,0.0178624944389933,1
0.0102285876434547,0.0165712758212864,1
0.00770787761792504,0.00808238907270325,1
0.0100959284046774,0.0100192075133232,1
0.013677497365628,0.0158498122594242,1
0.0140914518953994,0.0158181225233201,1
0.0134965236648415,0.0158235835969715,1
0.0117473226063785,0.0145963594739608,1
0.00929452179584381,0.011243171772666,1
0.00889832532562612,0.00904883464601832,1
0.0121675301695013,0.0119150160870748,1
0.00826440253990178,0.00640485692240548,1
0.00697810222615159,0.00768964274212901,1
0.00578889949489636,0.00748329111913898,1
0.00602516163216373,0.00796207397142559,1
0.0066822153124485,0.00877892124366586,1
0.0071736276467989,0.00899862780377476,1
0.0072385377346889,0.00918604171006058,1
0.00734847505290116,0.00832377828609864,1
0.0074060754442239,0.0117562361179976,1
0.00328014482418271,0.00694007059390302,1
0.00293491423132229,0.0074941571812513,1
0.00660596055254441,0.00978620279976601,1
0.00690772430060204,0.00756868577487464,1
0.00670510510550224,0.00663910017238492,1
0.00616404108161556,0.00571505361140537,1
0.00646225003916529,0.00532086382920263,1
0.00621198500238356,0.00443492450899682,1
0.00765501107744845,0.00634366373775091,1
0.00918026603679464,0.00772014822556394,1
0.00938688385228209,0.00806964589273022,1
0.00981740656031677,0.00927922337848574,1
0.0070457767345392,0.00888437413052429,1
0.0067722132738457,0.0116537071041295,1
0.00633398744382049,0.0129086555493509,1
0.00564653735635992,0.0126273210108701,1
0.0037141156676229,0.0116081342579372,1
0.00495847374527726,0.018219810362429,1
0.00424420717240665,0.0128303779061448,1
0.00782023332245881,0.0141871286264533,1
0.00921810790625235,0.0138605232191284,1
0.0111035056471479,0.0145556249433423,1
0.0111172658933796,0.0141863410469865,1
0.00879606702300052,0.0133283222963232,1
0.00788016315887543,0.0127674881000915,1
0.00673713605488976,0.0117886124533593,1
0.00761172922936715,0.0112106224196729,1
0.00781089286402067,0.008880613270315,1
0.00604651206388218,0.00694041356740163,1
0.00933852545510472,0.00901509955495256,1
0.0108575573897581,0.00890238148147103,1
0.0116827599218411,0.00823889055873302,1
0.0175765462541756,0.0124962997580568,1
0.0181221419053958,0.0119147222414956,1
0.0177932630212504,0.00769509633810065,1
0.0349990031216813,0.0101840569750181,1
0.0393420640919919,0.00604578695256492,1
0.0383975940455641,0.005540040341432,1
0.0321275958200282,0.00486157146429157,1
0.0356979997666363,0.00573650286353847,1
0.0403416047950671,0.00638715352441746,1
0.0402131410496535,0.00700938156182543,1
0.0390138744011924,0.00677087384261681,1
0.0402819508735595,0.00672318272040655,1
0.0488352602597251,0.0102558980106276,1
0.0234956009243899,0.00581190296453157,1
0.0209736212281006,0.014596410133005,1
0.0199388259935651,0.0234521860034119,1
0.0144739618980248,0.0172937890246532,1
0.0157388083648857,0.0207206912610903,1
0.0169196201831643,0.0292136689119842,1
0.0120605949904182,0.0240972601870731,1
0.00863606210557856,0.0169019518122417,1
0.00613465888798791,0.0158594008325639,1
0.00667134349031039,0.0225392795634964,1
0.0068308244310246,0.0257850207012917,1
0.00638156132857241,0.0274982290480353,1
0.0038012019386804,0.0240547932165355,1
0.00116912575100672,0.0177173663607035,1
0.00158067059295279,0.0237376178964296,1
0.00145343655400699,0.0204900422462766,1
0.00141298428788395,0.022335086703686,1
0.00203685309544409,0.011073958246717,1
0.0054074165874189,0.0205946311470431,1
0.00591941438521584,0.018461746945203,1
0.0060842230458464,0.0164548063257374,1
0.00631087180811633,0.0167088804124588,1
0.00662981837498791,0.0180481620333764,1
0.00617704733978931,0.0174956023474047,1
0.00565365179080056,0.017014671508226,1
0.00567104561722527,0.0165745803109068,1
0.00558569116518352,0.0161739951830357,1
0.00552364542743733,0.032614622799806,1
0.002636521635835,0.026651221860477,1
0.00188436707498563,0.0262330167664046,1
0.00286389601916697,0.034833378129596,1
0.00511703923556826,0.0419248951383151,1
0.00773142099197019,0.0521058434115381,1
0.00848207024094104,0.0509349695126282,1
0.00708073258961378,0.0446680188637984,1
0.00545895283540829,0.0380928061246887,1
0.00499591498515877,0.0372301488014492,1
0.00558508517800335,0.0303012799740314,1
0.0063235814073406,0.0197789168380945,1
0.00614751744174576,0.0156867200432406,1
0.00741300565062914,0.0202393539809636,1
0.00799625697816292,0.0234735501246691,1
0.00774232278794261,0.0233491899598612,1
0.00943718028948358,0.0203127972761982,1
0.0135908559034493,0.0213057185602426,1
0.0133439948704487,0.020822549248752,1
0.0126421800676218,0.0171639654225875,1
0.0099535683342639,0.0155765197868589,1
0.00541321166509872,0.0111671877493424,1
0.00629336720912296,0.00873703027139441,1
0.00757234343860289,0.00913410818127136,1
0.00763771662886053,0.00880558325094564,1
0.00769463330181119,0.00877273217988924,1
0.0070422461776075,0.00997528447224535,1
0.00421643509059369,0.00711495459152278,1
0.00455330119059722,0.00744185531895653,1
0.00518325704272026,0.00989155188321314,1
0.00646156714654731,0.0124357664698069,1
0.00534846225019384,0.0110444121127581,1
0.00662414585460377,0.0146844145262829,1
0.0175949908173121,0.0265826464411462,1
0.0276016604942899,0.0279174848289344,1
0.0316791139076586,0.0276829328415757,1
0.0443343886031811,0.0324236217258397,1
0.0562498854244431,0.0377225094684746,1
0.0517714898308947,0.0300996118758768,1
0.0411182373257915,0.0257116832382918,1
0.0273346245289016,0.013433967238648,1
0.0371862960564099,0.013294725828899,1
0.0557822835202863,0.0152048499610404,1
0.0555049269938123,0.0120940731881407,1
0.0738526889012387,0.0131536122684654,1
0.0682349354132996,0.00660680294205616,1
0.0809867672550457,0.00785130157214182,1
0.0840317536814561,0.00693224116838416,1
0.0799541375009068,0.00675191455728011,1
0.073135048944402,0.00468467941624229,1
0.0741571625799606,0.00523776424438415,1
0.0693191003606724,0.00561230155125955,1
0.0581687918684977,0.00379112102134875,1
0.0808645730358217,0.00552483164390606,1
0.0628885900417934,0.00372390730419827,1
0.0601034253721174,0.00518636366269001,1
0.0762540848431016,0.00646119737305456,1
0.0773543655734598,0.00601817122984881,1
0.0730859224960948,0.00598188015632865,1
0.0715037139367824,0.00723947876454986,1
0.0720124557846417,0.00690993090700152,1
0.0774954712715346,0.00732166010397416,1
0.0907627294369659,0.0101970132349852,1
0.092629163975973,0.0105715581420261,1
0.114971604317548,0.0140652760271662,1
0.119833074362955,0.0199604665948526,1
0.0680578376201722,0.0155309824641041,1
0.0638469384320567,0.022525439320478,1
0.0630847389676776,0.021721146831547,1
0.0403772452303683,0.0243144012027749,1
0.0161187201113818,0.0229311682441721,1
0.00940199465771221,0.0238387915897198,1
0.00716531228120541,0.0186899741433531,1
0.00201464103226757,0.0103766149284417,1
0.00155799394883658,0.0260604302262397,1
0.00259097484154807,0.0225106908836749,1
0.00391630605631646,0.0233339818050905,1
0.00380671063667264,0.0234843860931368,1
0.00363223958682331,0.0204615090934206,1
0.00355326357417996,0.0199283118306279,1
0.00363000197601359,0.0204349991285934,1
0.00401407430921135,0.0222645229629146,1
0.0044630832041139,0.0285885462381663,1
0.00402485925906521,0.0248011123167152,1
0.00414144796942687,0.0260484366290449,1
0.00461597136079879,0.0263794850779391,1
0.00817061971310583,0.0386319343728755,1
0.00931340668847591,0.0305229008490804,1
0.0103479659462305,0.0318475574299083,1
0.00993946950032009,0.0256550234787252,1
0.00892513126822214,0.0237795446722719,1
0.00687289837681266,0.0179907949389777,1
0.00565864934017214,0.0154242031174771,1
0.00533472592247908,0.0142296889244941,1
0.00434424028271446,0.0122288821385151,1
0.00404152422376697,0.0128736469341844,1
0.00374016531683196,0.013256911112654,1
0.00362132714201437,0.0152137877619589,1
0.00346471209711195,0.0168405942126478,1
0.00332345518840258,0.0193031160831085,1
0.00325410655101711,0.0177963848540886,1
0.00301465398026132,0.0175113342980487,1
0.00250482300432393,0.0142283852731905,1
0.00161735206887346,0.00950543491678239,1
0.00110393420951085,0.00671105190466046,1
0.00109526046089783,0.00688485856617148,1
0.00113730269984371,0.00653609682385516,1
0.00287341034679336,0.0119177055289362,1
0.00373948852739183,0.00888072705910495,1
0.00519062159796621,0.00981801555583339,1
0.00562212849931279,0.0103698572428487,1
0.00562353283699993,0.0117241674233718,1
0.00542918353650307,0.0128492832637885,1
0.00581453697338964,0.0136708417251224,1
0.00781770996599989,0.0163580425301063,1
0.00886158769058713,0.0124528527552343,1
0.00950598429956292,0.0114112975568043,1
0.0135376353137491,0.0151414852483336,1
0.0147353233679834,0.0157080593148,1
0.0121481228742722,0.0144062514042968,1
0.00948058697493735,0.0109987480713669,1
0.00731528798433432,0.00839430601649007,1
0.00887113890867277,0.00642448507153018,1
0.0344118595751557,0.0156145772016433,1
0.0457534836117427,0.0138869586030266,1
0.0471346041225963,0.0169625859889261,1
0.0491243653952727,0.0158334577925361,1
0.0867350809172285,0.0196829509592984,1
0.116110281424,0.0296898968882639,1
0.125973264128792,0.025001648198517,1
0.100142863583316,0.0173253430906679,1
0.0770315271226203,0.0130465768317349,1
0.0812460114122899,0.0153924712936678,1
0.0977364012684222,0.0197434564444803,1
0.10257160099957,0.0189631508328656,1
0.100230745944404,0.0187675741164344,1
0.0999735614748552,0.0197772357413224,1
0.0907473701191185,0.0209752717749707,1
0.0614318794808366,0.0148043628942206,1
0.0286511603781984,0.00685162088313534,1
0.0366783607091173,0.00701100386434285,1
0.04117491556202,0.00755116664132012,1
0.0354225435544921,0.00668924809417517,1
0.0293647824583866,0.0054715747033552,1
0.0344068485952011,0.00674500343134835,1
0.0359834329725597,0.00650934656536276,1
0.0326048606044075,0.00585557256598003,1
0.0364463661818613,0.00680912976020525,1
0.0431207406353879,0.00830108731777498,1
0.0582389866678073,0.0119869940728771,1
0.061702160338916,0.0224179269549559,1
0.0564738737796887,0.0241144600406253,1
0.0557409635928223,0.0221932627832516,1
0.043663926651475,0.0184524943251,1
0.0439558803636953,0.0231860069418226,1
0.0396342030670384,0.0269384230569738,1
0.0161424122962877,0.0202309644374266,1
0.00822804218751373,0.0160327024928005,1
0.00277551953514419,0.00775024410331261,1
0.00221268131189196,0.00903649357027501,1
0.00299284477003442,0.0116825259686313,1
0.00304289334526643,0.0108758493149703,1
0.00300167177133226,0.0122431845357333,1
0.00330451482110366,0.00998641034541646,1
0.00754250496487887,0.0187475328189169,1
0.00770275896758608,0.0119928002501598,1
0.00875430536213144,0.0123732648700878,1
0.00962198270988426,0.0138558342468191,1
0.0095901832402088,0.0145847736566958,1
0.00980364106929758,0.0154663875430292,1
0.00933383354040535,0.0144193293705658,1
0.0101744543749588,0.0157540773621217,1
0.0102194287254767,0.0148108094493816,1
0.00954864722708373,0.0172699953377996,1
0.00390244154071696,0.00622203667210542,1
0.0044142999160706,0.0115340347302005,1
0.00498656141867209,0.0146424085881611,1
0.00549174973935979,0.0159328520475092,1
0.00519102392007392,0.0131879070461462,1
0.00500001730423402,0.0121386837829138,1
0.00576051971860331,0.0124130298186045,1
0.00399492427549114,0.00717617470654676,1
0.0055595900086285,0.00823055487308776,1
0.00583116113355045,0.00802854148433514,1
0.00767527015416003,0.00947525090987929,1
0.00827900799449319,0.00858106026323647,1
0.00832369963244479,0.00804509892644399,1
0.00831122207859874,0.00781460193252623,1
0.00819052091886022,0.00771893585026468,1
0.00670464141303675,0.0049833932844539,1
0.00862993430761714,0.00605871206570405,1
0.00820738339385835,0.0058170962523528,1
0.00811649398323975,0.00542623287658233,1
0.00859628953371221,0.00576601613405063,1
0.00638375023520603,0.00455120862653456,1
0.00756459733719667,0.00645256439601657,1
0.00866021766816424,0.00634378880189419,1
0.00829782633360625,0.00610454618562015,1
0.00790341955101048,0.00608502625613546,1
0.00727141233783411,0.00716178466346668,1
0.0109041537761148,0.0087191986927484,1
0.0248664061558662,0.0167363972758005,1
0.0269439198985481,0.0134228039721832,1
0.021897472748373,0.0109187512644179,1
0.0299958518099111,0.0118642326783445,1
0.0321957307430259,0.010686352120116,1
0.0310745875738135,0.011602997763185,1
0.027647847047258,0.00996796679032368,1
0.0216718237121247,0.00839955745803219,1
0.0159768537357109,0.00651741649652446,1
0.0163830904543129,0.00901649317578508,1
0.0178030903661078,0.00628716208264439,1
0.02207776977422,0.00943521640298195,1
0.0250639745468369,0.0110388712750583,1
0.0235880089893155,0.0100451465052551,1
0.031433473222792,0.0124803078248264,1
0.0477356023463235,0.017163865882866,1
0.0625115565465163,0.0144302522301954,1
0.0634696729594089,0.0141900151448777,1
0.0677869605702816,0.0155890423991969,1
0.0758803203487426,0.0160831231041733,1
0.0757421518180464,0.0175604952537524,1
0.0576826972906814,0.0138032565811014,1
0.0407163122054259,0.0111527005909805,1
0.0349339654001773,0.00900337286998616,1
0.0371928015641207,0.00960966608211117,1
0.033428332487916,0.00836143598716708,1
0.0269829502576936,0.00992093152580696,1
0.0264206642656501,0.01072714169663,1
0.0253299057934577,0.00913350855450217,1
0.0207750763211979,0.00685485389084655,1
0.0302869068008407,0.00840928209808162,1
0.0384153621490881,0.00914667531247131,1
0.0363275473967671,0.0080137627077825,1
0.036535474829894,0.00844627946323382,1
0.0310829759057844,0.00712722180762192,1
0.0309893613126649,0.00705673927185182,1
0.0317348398429339,0.00728174032168526,1
0.0353849078708538,0.0076090879251754,1
0.0372346067617758,0.00794886033211747,1
0.0393575809139087,0.00874193923628309,1
0.0415730500335176,0.0115581519347903,1
0.0421833447624645,0.0135458490398039,1
0.0379987415600065,0.0141975775227356,1
0.0381584911379995,0.0162020246214071,1
0.0467795109029896,0.023598813154213,1
0.0338706341591905,0.0234901881177643,1
0.0256527131239063,0.0131881608304365,1
0.0235225505310594,0.0139901442662112,1
0.020029460944295,0.0124655820251198,1
0.0210895158592374,0.0145695690263762,1
0.0193152035652089,0.0133071565008922,1
0.0137644510868355,0.0107937334068789,1
0.0120621096141373,0.0112012667610009,1
0.0116941037086629,0.0137989990682501,1
0.0131645558881591,0.0139315174108701,1
0.0138564471878029,0.0127712008206668,1
0.0130334771923993,0.0210942737952234,1
0.00692148209309157,0.0144845941736456,1
0.0040194256538265,0.015834321411665,1
0.00401246016844964,0.0157324998284824,1
0.00375636521214288,0.0144421467508442,1
0.00323134166708109,0.011398077050353,1
0.00403791211345393,0.0149685088844424,1
0.00441819390252983,0.0197619461549611,1
0.00378400082227524,0.0160368831374783,1
0.0103698802105559,0.0259427960163551,1
0.0148318945072656,0.0198541173726149,1
0.013945238466485,0.0169898828208866,1
0.0127347841975462,0.0154439011000396,1
0.0114945596625544,0.0118126710966336,1
0.0126004217207086,0.0119046575313874,1
0.0138138188038421,0.0125939581541826,1
0.0139004094017384,0.0117595328451206,1
0.0136227108069505,0.0113283995488269,1
0.0133455378899712,0.0128353362546565,1
0.0096676379480732,0.00945129485403496,1
0.0123240480293096,0.0112203544441019,1
0.0123867300420355,0.0088568539528406,1
0.0144345747026216,0.00844775022477902,1
0.0150541924864506,0.00728683263323115,1
0.0136457329212176,0.0068425293685146,1
0.0128342236946783,0.00430661811864544,1
0.0150004397231251,0.00525671226698222,1
0.0150396039701195,0.00422361128572298,1
0.0161572026647335,0.00476315364696307,1
0.0160884058898936,0.00494180310981468,1
0.0181597014588461,0.00602498269649948,1
0.0171327652692402,0.00619345760635178,1
0.0166596522589304,0.00694107259542083,1
0.0161360898788074,0.00848126174935003,1
0.0115652514562501,0.00633962611287484,1
0.0103974794529574,0.00998761461596178,1
0.00992150884886427,0.00926181262021141,1
0.0099576905897669,0.0128992741673545,1
0.0106497042939172,0.013578341610738,1
0.0133912823284729,0.0213356271465683,1
0.00755138300239249,0.0236998504082361,1
0.00525815231273776,0.0228211067173503,1
0.020319480659933,0.00688089603469894,1
0.0517137495314124,0.0146139702395527,1
0.0598305670017668,0.0166840432310823,1
0.079078207078573,0.0196321369605314,1
0.0808158052627114,0.0183762826544657,1
0.0771261363916071,0.0167657430807402,1
0.0959389312680774,0.0168158336193909,1
0.0973856009621092,0.0148424002878073,1
0.0755381522419738,0.0107419289799588,1
0.0466125963820826,0.00621384250744361,1
0.0417293677738544,0.00675249355726533,1
0.0543454280425517,0.00746960944339245,1
0.0583191954373222,0.0051572287517534,1
0.0832844727200772,0.00604950725221057,1
0.111179916826829,0.00799746707773807,1
0.102367890533789,0.00736126835035688,1
0.0997285560019171,0.00795988119946334,1
0.0970632138532509,0.00766550423329792,1
0.0977731080495397,0.00753316931650709,1
0.0998520148088365,0.00778592262729661,1
0.105763775152012,0.00720699758522531,1
0.0840557943873725,0.0070297246366545,1
0.0672884419118945,0.00752510041792866,1
0.0592482293625674,0.00875183227016841,1
0.0350147314237064,0.00495280490478704,1
0.0294914412389982,0.00414772282255027,1
0.0296832092344801,0.00505730817072527,1
0.0323601483844795,0.00578586956090541,1
0.0363729620640178,0.00761915228409826,1
0.0345971082038778,0.00504142144612538,1
0.0437244229318616,0.00819990414081359,1
0.0438928036085148,0.00961158581590451,1
0.0610013080416416,0.0130073571239064,1
0.0798142670470849,0.017132700262771,1
0.0841339618119996,0.0188811514087271,1
0.0993868820524518,0.0211851833539483,1
0.0984216171174645,0.0192377839907283,1
0.0894342209194572,0.0194102205193276,1
0.0495004874189341,0.0109566530747868,1
0.034949801817462,0.0131969003410839,1
0.0335612641737633,0.0120532575352688,1
0.0203388705475037,0.00770486297001993,1
0.0165139783827359,0.00812111738255027,1
0.0136368789180891,0.00786596144436662,1
0.00854500683443776,0.00693381397420115,1
0.00778465457394195,0.00605694153828858,1
0.00713128850723054,0.00683194676107849,1
0.00694935747712442,0.007430371936869,1
0.00778983555823117,0.00931478590700525,1
0.0111112173111078,0.0127923461681817,1
0.011743828453734,0.0119006593477623,1
0.00978120976476291,0.00980186452923434,1
0.0108886058206796,0.0117274336757287,1
0.0100563305066036,0.0122401577843244,1
0.00645868112049531,0.00800205367052709,1
0.00437526621634953,0.00438042325177693,1
0.00744120621139099,0.00882499495339769,1
0.00896088723589254,0.0104816737417929,1
0.00989918964815097,0.0127906018513954,1
0.00770091851103818,0.00991137106426847,1
0.00682547690522586,0.0118122250031734,1
0.00649961319113424,0.0159617926570058,1
0.00352109334119032,0.0110014238455161,1
0.00331847775495863,0.0104045123840744,1
0.00263660881579423,0.00583938413974165,1
0.00348760883669209,0.00947727543559098,1
0.00375762459242761,0.00742576075947752,1
0.00411841923508793,0.00751199395676355,1
0.00424828215171016,0.00733007595647886,1
0.00656200221768401,0.00443179325077416,1
0.0135761965771094,0.00668334997813393,1
0.0135831640141029,0.00613464702305722,1
0.0161827024404815,0.00619728704636033,1
0.0180311717172839,0.00557616542434029,1
0.017126867894321,0.00583979904372562,1
0.0139652588904181,0.00498685201169292,1
0.0139901889516339,0.00558740361868953,1
0.0147298775238438,0.00577556664794354,1
0.0144498111046293,0.00574870257099917,1
0.0135211880250463,0.00952939444697652,1
0.00858341399237488,0.00909033116484403,1
0.00863851875308558,0.0094205292731854,1
0.00619921429398339,0.00956081951637938,1
0.0032035911066551,0.00857963878588584,1
0.00329758565277105,0.00923068816175106,1
0.00338344003036143,0.00917195184299551,1
0.00292476045123122,0.0082625971002431,1
0.00293068515461798,0.00969545562113384,1
0.00323276729241338,0.00940455133241105,1
0.0032996541352311,0.00913694696298145,1
0.00406517919403813,0.00848822820200282,1
0.00783980408654977,0.0102311584507106,1
0.0299047017847189,0.0290011371138879,1
0.0558970202096227,0.0352899494911442,1
0.0853545112783438,0.0389976691883205,1
0.0894262453183072,0.0342654937372627,1
0.0831348305017225,0.0198084608199322,1
0.0770069690992681,0.0183394566848658,1
0.0703322078902561,0.0171580575027392,1
0.0607874560239132,0.0153533023718434,1
0.0524786664954428,0.0129858316889466,1
0.0503464469273628,0.0135640491073162,1
0.0512666934820369,0.0127265126855937,1
0.0464015176185427,0.0130312008484414,1
0.0345902263958881,0.00595044425359261,1
0.0494804950327163,0.00867382784504163,1
0.0595311418193838,0.0144120850392282,1
0.0727789972925862,0.0161252439802279,1
0.0785229469835032,0.0180102477945036,1
0.0791518914948964,0.0186717528964624,1
0.095085829897464,0.0207172952995371,1
0.0965569564132051,0.0183384843793249,1
0.0732287825031789,0.0127038095169537,1
0.0520706268674902,0.00841916758367432,1
0.0512168322765894,0.010045358049081,1
0.0774325168417313,0.0129505343516633,1
0.0839649822789329,0.0131986571196337,1
0.0951420914079282,0.0151730274417119,1
0.0961990979106992,0.0148352932628558,1
0.094821079639278,0.0146530074297198,1
0.0599090496251546,0.0079881549398371,1
0.0366612257410119,0.00525333595535659,1
0.0170093998626935,0.0029622957855817,1
0.0169635522633656,0.00427347522973511,1
0.0133424623481587,0.00435305633688901,1
0.0142261355217511,0.00451505664324587,1
0.0160960582798792,0.00539100022724282,1
0.0165468976967549,0.00494615736768291,1
0.0162567854704946,0.00454860329828193,1
0.0129922530429291,0.0056043578831835,1
0.0109199059706755,0.0098303021211184,1
0.0113646758732609,0.0106957341012645,1
0.0133835503733702,0.00659996075280734,1
0.0186566167602292,0.00578706284932087,1
0.0215134756268052,0.0053626611765011,1
0.0209824421087173,0.00512392193158423,1
0.0203898633354374,0.00513302530738193,1
0.0217903904855114,0.0041450879728773,1
0.0252877590347194,0.00559512700667704,1
0.0309153908312572,0.00668448268385472,1
0.0376480296173126,0.00792912257814577,1
0.0444989307084214,0.00871173221812267,1
0.0469437344279615,0.012016183315796,1
0.0324098023655792,0.0106891386277099,1
0.0384926608281732,0.0137659729378611,1
0.0391781927109377,0.0178170064230258,1
0.0188478815449229,0.0114032164412667,1
0.00961777293556931,0.0124885993199937,1
0.00703264064435672,0.00933566780161897,1
0.00584553659520651,0.00978453979933115,1
0.00454356633202145,0.0092146580319724,1
0.00419384460942272,0.00899946882613463,1
0.0062055644879972,0.0148563876690259,1
0.00544470055934303,0.0143290162864979,1
0.00536710189568364,0.0121389978151344,1
0.00839912616710173,0.0105095059813244,1
0.00876407229666822,0.00703760254235048,1
0.00877335313088392,0.00667226807724421,1
0.00842708941663928,0.0068059945626451,1
0.0069351479317823,0.00550178386462565,1
0.0064863731757242,0.00486912019205168,1
0.00708486577236499,0.00652298174788334,1
0.00597347033612619,0.00475267090010729,1
0.00587086175669146,0.00470026780454051,1
0.00581182094474382,0.00546911038645087,1
0.00238215056034693,0.00336174313629916,1
0.00244854804157982,0.0101354811328596,1
0.00342252522521263,0.0156851660434234,1
0.00602626201430923,0.0195912437326286,1
0.00606384153545611,0.0130839795169077,1
0.0139737383726775,0.0121896934384048,1
0.0157290211211558,0.0110363312279774,1
0.0148074038368404,0.0110562682516702,1
0.0135556347585998,0.00944140907986732,1
0.0108069954073431,0.00741055368657514,1
0.0095983419203762,0.00657559014172839,1
0.0100447972335581,0.00636950068185321,1
0.0104907260402601,0.00491165483629758,1
0.0112771910577064,0.0055078664897957,1
0.00972115926796949,0.00471447252871626,1
0.00900597748251983,0.00839781902614658,1
0.00760437449665666,0.00832227194426425,1
0.00748452566492264,0.00753403943175208,1
0.00713994584942796,0.00860714088418073,1
0.00670794943097255,0.00931088937403431,1
0.00694452686636822,0.00934972836697931,1
0.00564616690336446,0.00673082063166548,1
0.0121610172455013,0.0124747292066972,1
0.0121587964501554,0.00946825473168413,1
0.0125915149781668,0.0107038167103053,1
0.00912839608131995,0.00849272705138186,1
0.00960729925371161,0.00815703485519405,1
0.0117058775503676,0.00689944485002174,1
0.0108449472973662,0.00603893194892043,1
0.0101068950717564,0.00461286919524588,1
0.017326611531885,0.00667828679803437,1
0.0207310514523273,0.00706583877661886,1
0.0184628681466069,0.0068680861200961,1
0.0252483303712001,0.0100903423492848,1
0.0258955221422823,0.00752593919580047,1
0.0341177744448496,0.00620163496704897,1
0.0660214299222461,0.0107286457077485,1
0.115093126448332,0.0210458461777308,1
0.136326784835562,0.0218350318233955,1
0.158721089612877,0.0239858364042356,1
0.142990154072111,0.0247580635916558,1
0.12258408555856,0.0235676246697178,1
0.10645595936873,0.0209189684779553,1
0.0759857233205949,0.0163970822219563,1
0.0579907346706347,0.0162314683295994,1
0.0565448462255767,0.0167181776753571,1
0.0599520274158653,0.0156022081315361,1
0.0597044768750977,0.0162108213288439,1
0.0700728905217708,0.0205650002758607,1
0.0788824001343978,0.0238956398759752,1
0.0809571324535049,0.0194110087943097,1
0.0802429127790545,0.0194476685160731,1
0.0778380061949908,0.0219367894470933,1
0.0790109963735051,0.0161919153943838,1
0.0742314827602042,0.0137692513287992,1
0.0575618802923574,0.00899097436266784,1
0.0567422842486827,0.00839017233727382,1
0.0727770895705365,0.00967384413665767,1
0.0755105796072143,0.00789037534779762,1
0.0799160195864505,0.00774162305706523,1
0.0878972438325098,0.00928912744653292,1
0.1178980545232,0.0106398546624204,1
0.168304045792369,0.0136484379532117,1
0.188219104335429,0.0214521652201237,1
0.167529997256149,0.0189828813909659,1
0.164680568487341,0.0231323830112676,1
0.16004690935755,0.0350522921836512,1
0.0966147100468201,0.0327114604108925,1
0.0409225194969652,0.0159663306360935,1
0.0222277079998913,0.0105587344631863,1
0.0172702456788492,0.00595140930493622,1
0.0191747965965814,0.0086335670881793,1
0.0191635658974117,0.00858354739891672,1
0.0192999053290062,0.00856257795214199,1
0.0193127752373842,0.00852072543009057,1
0.0197288286535568,0.00738418114726394,1
0.022021841973976,0.00805256089790236,1
0.0262608074574076,0.00812708073925443,1
0.0312268545564807,0.00713797275311248,1
0.0287162866797423,0.00731892316225084,1
0.0324377801839605,0.00880213842862519,1
0.0409599445438437,0.0108962414891529,1
0.0501695960583204,0.0128088005104446,1
0.0606120448798312,0.0148587236662781,1
0.0730807767907772,0.0169303962712806,1
0.0810765388932725,0.0199785115777417,1
0.0732591354423055,0.0171550356405179,1
0.044935519963939,0.0182629752627227,1
0.0167717005953282,0.0206671831545832,1
0.00629329259087266,0.00949332262861028,1
0.00387725141053786,0.0253517699472467,1
0.00420341663044005,0.0213069450201896,1
0.00431151859704786,0.0179736972838446,1
0.00433694813829889,0.0180807107018234,1
0.00382629456533319,0.0159767491713361,1
0.00242155991746569,0.0127521019761438,1
0.00269340543815714,0.0171555940586623,1
0.00237302213519401,0.0170377632882677,1
0.0016071357545471,0.0136865719934108,1
0.00247218425926543,0.00676407769915744,1
0.00776740074064067,0.0123626599847769,1
0.00874140000758894,0.0130160694895038,1
0.0111006160092194,0.0164112351151581,1
0.0127521171365034,0.0175998496118087,1
0.013656564085496,0.0149895612091639,1
0.013222307679553,0.0134100204089236,1
0.0116417360461813,0.0125209006622224,1
0.00940616216003604,0.0103357788129566,1
0.00696415831536267,0.0068104123757932,1
0.00691108511137269,0.0090680937868766,1
0.0058821767756737,0.00965183981347577,1
0.00757343426860226,0.00918486736912916,1
0.0102264593109616,0.00811552294105877,1
0.00985487759772343,0.00911313209879344,1
0.0086725058219355,0.0100311673955418,1
0.00918675170553093,0.0106400678136971,1
0.00802147190603463,0.00871283085636773,1
0.00935338056165033,0.00917336695891325,1
0.00892297147985845,0.00697570948463194,1
0.00938269077838329,0.00832982981836227,1
0.0111819922102341,0.00903236236129293,1
0.0138076029919627,0.00878371459963203,1
0.0144902604022129,0.00979206573693044,1
0.0172984554304783,0.00862974641315862,1
0.0203204128238087,0.00706910847157023,1
0.0204702334261972,0.00753830928837433,1
0.0206950727844849,0.00773857235420704,1
0.0207802397482303,0.00800196587203432,1
0.0207758968533851,0.00727553683229196,1
0.0218170046712878,0.00731321739709121,1
0.0193489062982448,0.00648945830102471,1
0.0190207892589458,0.00852977109603247,1
0.0196015806163562,0.0095041955480896,1
0.016086783722051,0.00905663453795324,1
0.0114640126793295,0.0088603481690819,1
0.011874844128813,0.00778637258393227,1
0.0105422305714705,0.00637366962954042,1
0.00800916667033023,0.00384431449856054,1
0.00748466985409479,0.00564033075589002,1
0.00768614034794533,0.00554150835180497,1
0.00954847404663164,0.00703063137955499,1
0.00996501431175557,0.00660939663147163,1
0.0304528526500238,0.0051288556641204,1
0.0900709250776139,0.0139441934065233,1
0.112910392715454,0.0158373335684615,1
0.163928769502786,0.0181719958454198,1
0.200012840432385,0.0140567840674751,1
0.182810335975251,0.0133237109181577,1
0.165392035433217,0.0123734022720869,1
0.137719617031482,0.0111604956713327,1
0.0984442037181017,0.00851155460036022,1
0.0610241591468671,0.00513727549151337,1
0.0550173907189073,0.00731716886028463,1
0.0540043599788933,0.00710732857192798,1
0.0589047971392334,0.00820538419459742,1
0.03873196690224,0.0068532769560368,1
0.0453926503153491,0.00971812426925062,1
0.0956681221724247,0.0179580900066879,1
0.0968871351556305,0.0137450136708706,1
0.108477663606595,0.0121223217502375,1
0.135824929607091,0.0144290135325974,1
0.135633197459073,0.0116877179324697,1
0.135689308397773,0.0122283075598295,1
0.139854031782857,0.0121750774542747,1
0.122566289621799,0.0092266280742678,1
0.105110829966819,0.00791062835668818,1
0.105264412393898,0.0073635164780039,1
0.109470704143015,0.0071944184603682,1
0.107645481433351,0.00665709447609028,1
0.0991835245302701,0.00709108171328408,1
0.0654231474434656,0.0043222132930704,1
0.0542303931693829,0.00347300165162881,1
0.0659008207402822,0.00352049527512559,1
0.0671534356066789,0.00343892705597729,1
0.0713199518360844,0.00423211686232227,1
0.0968577706574627,0.0060845311850355,1
0.124277255666802,0.0107175098853018,1
0.113757151217726,0.00906820950306977,1
0.115066214037974,0.0097173684902105,1
0.113639948416709,0.0110072765861028,1
0.131123258532134,0.00999909230736497,1
0.178095974956077,0.0145161107647542,1
0.186615996543345,0.0173816366245847,1
0.189567483486556,0.0194254486587126,1
0.182690529285965,0.0196216457257299,1
0.142388902525115,0.01548877003785,1
0.10502761435289,0.01112264675696,1
0.0729101164853943,0.00850242792665489,1
0.065427210702312,0.00768384174146695,1
0.0651344202931618,0.00709633603751293,1
0.0707923851323279,0.0122200592603234,1
0.0764069459239316,0.0124646246359088,1
0.0800489415140323,0.0149302755726357,1
0.070421944192261,0.0172484830644164,1
0.0360092351556289,0.011489752905873,1
0.00959441306299078,0.00689464842010549,1
0.00808512904363697,0.0100058865703229,1
0.00632482396359219,0.00951913229788221,1
0.00419488749180741,0.00747920973692402,1
0.00420486393514472,0.00904012003172657,1
0.00403700266565583,0.008433877893328,1
0.00435362057790756,0.00830099645722131,1
0.00451495255818654,0.00913238247302293,1
0.00361086846047478,0.00772075722387364,1
0.00380253190006374,0.00738370029006773,1
0.00359686752041708,0.00514872648763988,1
0.00399327265061698,0.00618936145158105,1
0.00579677460383349,0.00740598193488248,1
0.00667445662663377,0.00823316755590669,1
0.00678822580785028,0.0089484483731686,1
0.0077123409235428,0.00936513572790484,1
0.00850919888646796,0.00902204277743402,1
0.00780027472387775,0.00912621042721857,1
0.00854282912124819,0.00861686363359319,1
0.00888240267328627,0.00720497096541808,1
0.00957154044886757,0.00799435559665323,1
0.00851102460707033,0.00784297892147785,1
0.00841934343374491,0.00943363270670406,1
0.00840663304304382,0.00968868009817647,1
0.00893206243630545,0.00981162949020568,1
0.00959270103946483,0.010614131224593,1
0.0104137526247822,0.0096744266769869,1
0.0104712564838288,0.00931228102039484,1
0.00895226300608783,0.00983328707164658,1
0.00810155109560635,0.0122906098146153,1
0.00678539792507843,0.0124628224651932,1
0.00433867868577368,0.00653214670262132,1
0.00467352414454468,0.0079401977893093,1
0.00506283888225559,0.00663378620139078,1
0.00531417393990593,0.00552949793676617,1
0.00507737522757437,0.00487220200522504,1
0.00525251129973125,0.00663991819226102,1
0.00488092864687649,0.00657569092128541,1
0.00474432399187371,0.00650428246783896,1
0.00514267428548029,0.00458555829167108,1
0.0150952095165926,0.00851084756819359,1
0.0181823973584027,0.00773205977946667,1
0.0158539281450476,0.00649356811183846,1
0.0161255962713703,0.00717158567981988,1
0.0171243994303622,0.0075280776237724,1
0.016081418201322,0.00675062707009264,1
0.0160631282162886,0.00671338046355213,1
0.0156649416073267,0.00653606192966886,1
0.014075525793362,0.00546001618883297,1
0.0120818881454516,0.00567149786757034,1
0.00804203596751766,0.00632674051861786,1
0.00709572858659984,0.00816873710248335,1
0.0101735011390384,0.0109925890695273,1
0.00991841849243253,0.0108806763864218,1
0.00957083677656445,0.0142410479717808,1
0.008663560628498,0.0123288562794529,1
0.00941533762810243,0.007966298367251,1
0.0429525879361481,0.0103522677735964,1
0.0734151264808483,0.0141626945417165,1
0.0899960132469331,0.0181024018177931,1
0.10204569462356,0.018570464920749,1
0.107527466975499,0.0209220220019725,1
0.100399965386018,0.0163261231131862,1
0.0849267369090224,0.0145270290523933,1
0.0599645152025713,0.0115863426495333,1
0.0336869868826166,0.0072230870741608,1
0.0141385967414619,0.00296581579815701,1
0.0147203491771774,0.00574535710987155,1
0.0144063485548783,0.00654942027193338,1
0.0361831999452889,0.010118342338326,1
0.0525613689792331,0.00863386870346718,1
0.0518594858306234,0.00869968671916438,1
0.0530651352953078,0.00904168842356856,1
0.0499168764450718,0.00825100587014662,1
0.043799644543853,0.00705266519563221,1
0.0405511242958505,0.00625733664516075,1
0.0339381367645926,0.00476672329291299,1
0.03415713962221,0.00490824681147783,1
0.0429681335290951,0.00373918968175912,1
0.0526218096182158,0.00428299148786993,1
0.0590493584044094,0.00370888685190705,1
0.0819454231407995,0.00435031980685602,1
0.0856937139278618,0.00377818831205323,1
0.0932465524359789,0.00387035188926096,1
0.0939671859031883,0.00371223727600159,1
0.0911741930034865,0.00357486924778549,1
0.0988790519787782,0.00330236164564092,1
0.112004447362547,0.0040268204710799,1
0.118529815082863,0.00553181261088688,1
0.136564556336537,0.00763651397850716,1
0.121490301738152,0.0125155443501864,1
0.0741597580783191,0.00986974396143824,1
0.0790860471373576,0.0141362783832034,1
0.0853376943700573,0.0174932853851837,1
0.064218586767186,0.0165666175279545,1
0.0259971665674824,0.00731129759926424,1
0.013817196371003,0.00601935044587108,1
0.0228576833828581,0.00547969601742453,1
0.0394862242556411,0.0107935530249789,1
0.0433092787511685,0.010279665329082,1
0.0427891059273208,0.00974925662258027,1
0.0451924162873351,0.00927295798391433,1
0.0414126681106712,0.00649350039575313,1
0.0406681595709807,0.00662758729559034,1
0.0353569188875624,0.00625888356283777,1
0.039650514561219,0.00723024707320982,1
0.0383813731928914,0.00785781463027276,1
0.036266143657029,0.0144614781118762,1
0.0221805700224109,0.00892360582120983,1
0.0218505278350802,0.00756748390937485,1
0.0241561645805653,0.00438760059924705,1
0.0251667499709891,0.00590387195655116,1
0.0263932976038445,0.00833455591918019,1
0.0301252425314809,0.00900105607675641,1
0.0345799406633378,0.00971218941885952,1
0.0349526973171689,0.00926917374951645,1
0.035573190074064,0.00910902802835309,1
0.0357783045355798,0.00891154987642217,1
0.0361200064800962,0.00887462227786982,1
0.0209819046338747,0.00649271973014931,1
0.0140902736870702,0.0155350373086307,1
0.0129576987852167,0.016245658919395,1
0.0112802783919949,0.0132990029738097,1
0.0120369107862825,0.0111828151377925,1
0.00853980456405315,0.00635596785823222,1
0.00845863424792894,0.00618185938103649,1
0.00837297381844227,0.00670037211505294,1
0.00930673894278543,0.00779161451473207,1
0.00820358144917018,0.00786044732114195,1
0.00491994671287921,0.00538557996556408,1
0.00474952180776259,0.0054662851467479,1
0.00472622427897992,0.00548288043402326,1
0.00473202460664344,0.00544179850418244,1
0.00444034528946335,0.00574332913487708,1
0.00298250350848422,0.00722722541979854,1
0.00339964669990076,0.00763838932962233,1
0.00528886119399569,0.0114722289916825,1
0.00501144967000179,0.010861437003397,1
0.00474782435927954,0.0102540044668359,1
0.00782060676022074,0.013306738017094,1
0.0088389783990333,0.0131452871342323,1
0.00807307801329431,0.0111991935410198,1
0.00776864027967178,0.012523733382608,1
0.00795269643105576,0.0157766393601016,1
0.00500651366501808,0.0120773608146208,1
0.00463895452569118,0.0172198265811729,1
0.00555302320868655,0.0182284173354949,1
0.00568080060093612,0.0162853401465632,1
0.00663406450691462,0.0182563618458478,1
0.00403147189929887,0.0152494719605111,1
0.00189438437829097,0.00879653677572897,1
0.00269535223146638,0.0123251589982016,1
0.00331946204143907,0.00812877327065679,1
0.0048938784535723,0.00909421338258302,1
0.00699766405663711,0.00746897039026342,1
0.0107134768714495,0.00929640864122117,1
0.0126034588479996,0.00982527789438132,1
0.0172067197050552,0.0125727064333637,1
0.0189770069167325,0.0149440830047899,1
0.0183142270444178,0.0115102547195558,1
0.0174480093021702,0.0110958676765372,1
0.0205617806959026,0.0122429496340201,1
0.0193915695020805,0.0110453739350694,1
0.0153463129091054,0.00797551915038711,1
0.0210834786694183,0.0099727215906149,1
0.0219898920216022,0.00844378790555247,1
0.0223813505522239,0.00937171091471248,1
0.0241894905977104,0.00880013577299228,1
0.0269962828366004,0.00999240494089287,1
0.0303495277744039,0.0117053041644598,1
0.0339701064444486,0.0120617028390327,1
0.0347732897932112,0.0125553051295011,1
0.038728884420009,0.0179925014615309,1
0.0335360221907307,0.0250581183867577,1
0.012290528215209,0.0175566481578401,1
0.00825841015284877,0.0160888969600748,1
0.00545154991805941,0.0127127855538942,1
0.00412852985972765,0.0133591538827518,1
0.00438862972037605,0.0127582132499334,1
0.00459964657870507,0.0115260804324482,1
0.00469725511892546,0.0105955629758214,1
0.0049007361857889,0.0109272630107674,1
0.00489018236512551,0.0119268274074991,1
0.00456914847168072,0.01088163042895,1
0.0043362759332617,0.00934413718479612,1
0.00415773718821171,0.0136015818109563,1
0.00224486194794279,0.00775036926841672,1
0.00183563026911244,0.00924784117273011,1
0.00188206874927981,0.0101727734887928,1
0.00153977885143997,0.0105415333673302,1
0.00159233764463393,0.0137669627518834,1
0.00184424644740452,0.015850984310219,1
0.00180838449486179,0.013987976030921,1
0.00193367388538048,0.0152497341161965,1
0.00192874972128018,0.0192217917115517,1
0.00139538413707207,0.0176028934711073,1
0.00139267771299107,0.0215887132690948,1
0.00143324730547913,0.0226722284935949,1
0.00160164385579167,0.0276644793690717,1
0.00166015014821754,0.0321468944392786,1
0.00151311742693207,0.0250004055132983,1
0.000999612200635003,0.0160657279527207,1
0.000647510628577094,0.014064504303141,1
0.000685129846361474,0.0135562428807549,1
0.000944466866207965,0.0181789787779919,1
0.000839593196712444,0.01210322329468,1
0.000927221378055222,0.0122837102468144,1
0.000914807376825894,0.0123398968371081,1
0.000886703681358492,0.0119629261376054,1
0.000898041723728637,0.0146684758087724,1
0.000541412817656761,0.014810421870402,1
0.000578870096111343,0.0190354858365196,1
0.000591113675935575,0.0173198399728731,1
0.000580050142285833,0.0197277540004723,1
0.000428293602091,0.0141278324765598,1
0.000381122896378614,0.0207100180152052,1
0.000401443407535532,0.0229404120346899,1
0.000538695305698409,0.0124562378386876,1
0.000737126007017692,0.014471083159805,1
0.000702558486826695,0.0120538003016172,1
0.00107044592494048,0.0162185470865064,1
0.00148322690827413,0.0212884930931472,1
0.0018592920209962,0.0259550762944322,1
0.00218112737624863,0.029128511776366,1
0.00235648642571294,0.0341261030937995,1
0.00214013088183974,0.034369392636656,1
0.00223033918007064,0.0390095296265762,1
0.00175826400253798,0.127124297470194,1
0.000636261646949212,0.0988997794912112,1
6.32303242007473e-05,0.0586472631552026,1
3.16599835092548e-06,0.212341615814433,1
1.46941919786485e-06,0.209280244098127,1
9.56410670494604e-07,0.166594561270986,1
7.56597780076316e-07,0.151331725475332,1
7.26374432743999e-07,0.149311592542372,1
7.13222443650111e-07,0.151560535219155,1
6.33128854797673e-07,0.154891746013878,1
3.42635529804981e-07,0.119172896519367,1
3.31440718301958e-07,0.126560623587568,1
2.85472069149154e-07,0.118969728621018,1
2.87274907848533e-07,0.120199140533065,1
2.38538368900494e-07,0.108490957336661,1
5.38773094322978e-07,0.145727959878795,1
9.01048134115994e-07,0.166343309332041,1
9.06004390768964e-07,0.166880817011633,1
8.99176649707643e-07,0.16363209648784,1
9.27266236795336e-07,0.17215388347503,1
8.72774397848854e-07,0.165189260481254,1
9.20492008391607e-07,0.169294908091698,1
9.47602414124623e-07,0.172995216383902,1
9.56666200271828e-07,0.179802735276487,1
9.34030163784573e-07,0.181560184641348,1
6.09379080426605e-07,0.182123515224292,1
3.00494995673633e-08,0.0599896141275057,1
1.92466887928671e-08,0.0532516194565729,1
2.39722119937682e-08,0.0567874716394248,1
2.26630207234513e-08,0.0569499772746718,1
1.87430134381912e-08,0.0563231879897025,1
4.16066838368719e-08,0.0744934792238373,1
5.26643862478702e-08,0.0815073150153278,1
5.90243701608047e-08,0.0808628225948369,1
6.17701985196892e-08,0.0832386923611323,1
6.47694599077139e-08,0.0867153779195903,1
5.88204386190109e-08,0.085148193164113,1
5.85288083095797e-08,0.0869432830751601,1
3.44544026375142e-08,0.0748768375067851,1
2.89577319569383e-08,0.0705637022612132,1
5.15096250320004e-08,0.0801204852871325,1
1.14075402704677e-07,0.109742804742668,1
2.51798294939167e-07,0.151688278208792,1
2.64213960804148e-07,0.154891020649717,1
2.57214468725955e-07,0.147458636515571,1
2.62331901492422e-07,0.1489142740594,1
2.95726717044435e-07,0.145657412477043,1
3.56902897715967e-07,0.145747779698373,1
3.54260630479781e-07,0.132163302741482,1
3.33175458270127e-07,0.12627528157358,1
3.26673260139402e-07,0.131146159097646,1
2.99629221041351e-07,0.130308059616234,1
1.97982247016072e-07,0.108977480523007,1
1.99116587728874e-07,0.104301788910473,1
2.22836916463824e-07,0.113942305817736,1
1.98190372054031e-07,0.107712695351489,1
1.59615403618987e-07,0.102935298559164,1
8.71203386557066e-08,0.0837924470179758,1
7.63187129996917e-08,0.0908958162707832,1
7.81157172696232e-08,0.0958322386687003,1
8.36349963643093e-08,0.0926659526652119,1
8.0369174480887e-08,0.0869153996581669,1
5.0196878406239e-08,0.0736064144117528,0
4.17548236470706e-08,0.0745914757732478,0
2.77671436977407e-08,0.0625966640269669,0
3.34611821869814e-08,0.0633454636450637,0
3.93988081056691e-08,0.0624214859803511,0
5.88364832999926e-08,0.0742503169881126,0
5.40960093736312e-08,0.0693402606905784,0
7.39877672723239e-08,0.0770884499735578,0
5.82530403552096e-08,0.0727231266189852,0
6.33753959215233e-08,0.075223897921641,0
6.08932108433123e-08,0.0739936155602961,0
6.00971758755243e-08,0.0748541841079845,0
5.76011340273747e-08,0.0762709925782614,0
8.48419939563291e-08,0.0916989910103908,0
1.10520047259906e-07,0.11407204106863,0
1.02977588591225e-07,0.110528623655858,0
1.02122844677118e-07,0.115805827516979,0
8.49076312876171e-08,0.104135129800005,0
8.03130180974517e-08,0.104061763722815,0
5.36822206976359e-08,0.0884057993653835,0
4.14889924553539e-08,0.0800155135324456,0
4.24366314258256e-08,0.075040974058002,0
6.29913263705278e-08,0.0875843100285547,0
5.56739490503888e-08,0.0798927180557455,0
5.84445737344266e-08,0.0783981587609517,0
5.62037881746196e-08,0.0741641424231851,0
6.00741116466132e-08,0.0736433561593848,0
5.34046294840636e-08,0.0689840331902013,0
6.7258482207934e-08,0.0703111443057125,0
9.24522778673414e-08,0.0790181455957304,0
7.36398894164971e-08,0.0730110362429343,0
1.27749846723027e-07,0.0902711273915803,0
2.67893571363566e-07,0.121831991347769,0
2.78989197565975e-07,0.117474093679194,0
2.678002204924e-07,0.112836071854829,0
2.56993398547658e-07,0.111646487418246,0
2.63013800434137e-07,0.113034369311487,0
2.55276708845596e-07,0.109581107641719,0
2.31878458848757e-07,0.109791701471957,0
1.68961339127769e-07,0.0951491281126954,0
1.83591262131161e-07,0.0990087006792571,0
1.72847160302983e-07,0.102616042296261,0
5.34327988387413e-08,0.0625685443546332,0
4.72246012544106e-08,0.0647206183808954,0
4.58502284676062e-08,0.0629434463825291,0
9.13065417845239e-08,0.088153082008919,0
8.27853575759694e-08,0.0836258903179014,0
7.74775765487669e-08,0.0863065715631727,0
5.76138968417919e-08,0.0777530280549936,0
5.59711403003875e-08,0.0754382029211076,0
6.66207973018783e-08,0.0795002983786379,0
6.67447789276445e-08,0.0782191292826739,0
7.22578589410426e-08,0.0837797809246455,0
5.9292298100604e-08,0.0801991616028928,0
5.73326591098144e-08,0.0825141044050092,0
2.26744160934667e-08,0.0583323980045674,0
4.09212295397116e-09,0.0428007237914454,0
1.07138357254169e-08,0.0493381797024198,0
1.41780282100654e-08,0.053617314160599,0
1.12370199535589e-08,0.0534853776998857,0
1.79339421671055e-08,0.0597755070553692,0
2.50128371835647e-08,0.0656927009549779,0
1.80265637345898e-08,0.0597614410037013,0
2.61207406379314e-08,0.0649693968472767,0
2.64416342575619e-08,0.0668153194846229,0
2.65443749136197e-08,0.0686777121170067,0
1.98906639431712e-08,0.0629809217573062,0
1.77971977269219e-08,0.0627877512929925,0
1.77512515950203e-08,0.0610669057819668,0
2.00529340121891e-08,0.0666736196260446,0
1.40142995336857e-08,0.0627993493974723,0
5.87508812804376e-08,0.0918583302020458,0
1.05816767821275e-07,0.111874957166686,0
1.06861221855397e-07,0.112448980570287,0
1.45277202087987e-07,0.123933134142906,0
1.50283963020866e-07,0.125896183854021,0
1.4683645335792e-07,0.119375660066806,0
1.62507001551108e-07,0.120554168253786,0
1.73192759084807e-07,0.124222759258144,0
1.52297570484048e-07,0.107643988683179,0
1.52749009462573e-07,0.100845433585303,0
1.49274606726391e-07,0.105428696918116,0
1.54044252799992e-07,0.110006409738794,0
1.56264982508572e-07,0.112497118941009,0
1.04201451330868e-07,0.0918086378405799,0
5.99906975381013e-08,0.0695974817930845,0
5.36191359292312e-08,0.0714807438935682,0
6.70029524307112e-08,0.073445047779219,0
1.53445494477908e-07,0.106592499301261,0
1.99826291373426e-07,0.120645863355886,0
2.92656348547515e-07,0.15245980951551,0
3.09808112516771e-07,0.155196418281315,0
2.58041134448345e-07,0.136292871146197,0
2.25938189204226e-07,0.119249104542794,0
2.43689896614047e-07,0.119050129792137,0
2.44339341541958e-07,0.114529101032506,0
1.96785733164466e-07,0.10139349717876,0
2.07831037412888e-07,0.104105878228147,0
2.17788220569289e-07,0.104126364018763,0
2.03120191448566e-07,0.100611769418647,0
1.48050014683068e-07,0.0856303801878519,0
1.55389453439557e-07,0.0859158337189683,0
1.68584289124703e-07,0.0844292810674578,0
4.3700095355345e-07,0.135154865561996,0
5.95770729554343e-07,0.157668570867116,0
5.86478671354994e-07,0.153349145671341,0
6.28925968847154e-07,0.150371572182005,0
7.11065163361776e-07,0.157170843857314,0
9.71405427664406e-07,0.135530358271009,0
7.63760909667929e-06,0.285688047129326,0
2.45900215512581e-05,0.303948468795389,0
8.131796283396e-05,0.41353368517217,0
0.000207420694696785,0.494540564329369,0
0.000340444153019791,0.558828022008412,0
0.000388171674799567,0.511799244116631,0
0.000471261033134005,0.386437919011626,0
0.000456679310266704,0.274925659325703,0
0.000418230044158298,0.200895342899143,0
0.000287368112767799,0.108927639438419,0
0.000259508438665535,0.0771743393758012,0
0.000164942892984213,0.049719237160585,0
0.000478317952042645,0.0210203494303885,0
0.00105583564719034,0.0147235217321906,0
0.00108147729666254,0.0134913800364422,0
0.00127517985247838,0.0120679542860819,0
0.00161690183825997,0.0127204547637371,0
0.00151689491296269,0.0117169780005281,0
0.00143893053167665,0.0114637051109052,0
0.00121730809135828,0.0100081870895429,0
0.00127949357362651,0.0105929764812421,0
0.00122441237708239,0.00927330810007287,0
0.00116916150375224,0.0129291372052411,0
0.000907874222210523,0.0196673386738912,0
0.000797589800207126,0.0185305587648128,0
0.000910506248837909,0.0320080919910262,0
0.000706545303707748,0.0328657822083099,0
0.000748705520286838,0.0291129011178813,0
0.000727080057757716,0.0269611957338356,0
0.000799210586110489,0.028403292003117,0
0.000854972869425511,0.020909339456343,0
0.000801892671413234,0.0190673626179894,0
0.000512742950340861,0.0142144039481495,0
0.000474850715444432,0.0133624586994532,0
0.000494020756699502,0.0156093463415361,0
0.000464574084239459,0.0140219032356095,0
0.00045830990421062,0.0120536155670087,0
0.000591049742622337,0.0161945511941172,0
0.000592258561923789,0.0168550721457413,0
0.000686543614674518,0.0193396048593785,0
0.000596053296715768,0.0274073316993352,0
0.000509484942490565,0.0376716705870931,0
0.000528504965613806,0.0425847875899313,0
0.000403827935660156,0.0372190425099055,0
0.000401115968871179,0.0364096039920335,0
0.000340409138420763,0.0409087787531369,0
0.000132135837854775,0.0301983792614511,0
0.000146012422518566,0.0422579542172259,0
0.000144710003288742,0.0458286544280977,0
0.000154663732007096,0.0504140204784262,0
0.000152769774835119,0.0591128408940427,0
0.00013363694903526,0.0521914728739675,0
0.000135867568101754,0.0539777912848346,0
0.000158092380418245,0.0458718435324033,0
0.000287739528991093,0.0439146474827284,0
0.000262223080996228,0.0331601469279196,0
0.000293005949656777,0.0428168142801956,0
0.000326022011552324,0.0459773068592898,0
0.000352407238545985,0.0502841195378404,0
0.000363889253485095,0.0529012309353343,0
0.000369653452902868,0.0525432474312926,0
0.000362338406072641,0.0525397597387175,0
0.000373849775120259,0.0558155701262371,0
0.000316729033427545,0.0664246652897674,0
8.30126928375375e-05,0.051767552625598,0
0.000124101255272421,0.151961660676487,0
0.000231698115084754,0.128728609701251,0
0.000441159779989528,0.133251423864523,0
0.000430400030950875,0.0608368987595289,0
0.00045035370171812,0.0622908729775232,0
0.000454808924918999,0.0665379271461532,0
0.000483078318456208,0.0721601796369972,0
0.000491048058374798,0.072355261388186,0
0.00051101578419142,0.0806578863767071,0
0.000538297815774566,0.0907911557724541,0
0.000539568308732963,0.0895213287087914,0
0.000435427853535919,0.114793875480743,0
8.08655312731245e-05,0.058870672310948,0
2.99545697537287e-06,0.232184930355518,0
2.96122163732853e-06,0.284121378740181,0
2.24392147447215e-06,0.274674073626706,0
1.02747064813964e-06,0.194262211208537,0
5.54283104543391e-07,0.135885127330315,0
4.27801152269745e-07,0.127094719459277,0
4.41058708071456e-07,0.12984164409131,0
4.38696584611725e-07,0.128279993358419,0
4.5011665978921e-07,0.129944534907697,0
5.06700141692739e-07,0.140104352784721,0
6.25660511615572e-07,0.158510066877856,0
6.65544215506132e-07,0.16651753225499,0
6.86097451843471e-07,0.163289906019455,0
8.86987797287447e-07,0.183241416973272,0
7.59483634741949e-07,0.16963835754439,0
6.70922830153349e-07,0.164186633376903,0
6.24475666622862e-07,0.154508741051892,0
7.29447718455644e-07,0.161113355322555,0
7.76727382137968e-07,0.153525077465804,0
7.31900002082933e-07,0.147740066117574,0
6.49754790812944e-07,0.137539916572443,0
7.72569530689748e-07,0.150419532762902,0
7.45997806888092e-07,0.143499561044767,0
8.4785190315877e-07,0.152827268747232,0
8.8021666842436e-07,0.154744680481382,0
9.50619543452833e-07,0.155186077191335,0
1.04134975300346e-06,0.166684364163091,0
1.02782071390651e-06,0.174086881083356,0
9.87748393851458e-07,0.184441924227027,0
9.678245465908e-07,0.191064546634528,0
8.38594213395387e-07,0.184767023950512,0
4.48425860367822e-07,0.135754732463537,0
3.98656353918636e-07,0.0830296262221708,0
8.91905291449773e-06,0.215382135596946,0
1.1387035897477e-05,0.169730086009387,0
1.11814782819637e-05,0.172208806673145,0
1.11996650190192e-05,0.173936218761666,0
1.11846293296803e-05,0.174624803332782,0
1.162455588495e-05,0.164549998471325,0
1.59996213182529e-05,0.189342581813327,0
2.46297361478576e-05,0.229984345009389,0
2.40690934240531e-05,0.180011005217133,0
2.22896015587612e-05,0.190459723096988,0
2.00333032538451e-05,0.229966292119987,0
1.96303608733563e-05,0.272519855529951,0
1.97019871553096e-05,0.273098054638734,0
1.91813741784578e-05,0.269012061660857,0
1.91934704093106e-05,0.268720533060346,0
2.08013402533206e-05,0.325614877986877,0
1.82728696435075e-05,0.350245333505682,0
5.95108002183142e-06,0.22125731150904,0
2.47425380951724e-06,0.315776879676743,0
1.30256399660479e-06,0.263679720779457,0
5.8378416774266e-07,0.209402506791769,0
1.68207330284596e-07,0.114633973982407,0
1.4831256400822e-07,0.113490619824732,0
2.27568274094173e-07,0.119403562009874,0
7.43041483254285e-07,0.202125190153977,0
9.33017160971693e-07,0.206809316157519,0
9.90964623084572e-07,0.189933793529018,0
2.518914908333e-06,0.265631106845531,0
2.89597083699137e-06,0.232871928493614,0
2.99154426112442e-06,0.230691121090897,0
3.06083276012836e-06,0.229972710321441,0
2.9133361957762e-06,0.227596261538975,0
2.84927853626112e-06,0.22860279735334,0
3.03118884457058e-06,0.244594255056637,0
2.9032944133928e-06,0.233171833836435,0
2.90539891032723e-06,0.235005965365001,0
2.88638842476404e-06,0.244317992841634,0
1.31488603810972e-06,0.188282988504288,0
5.5013190799126e-07,0.1480596604145,0
5.29669561125162e-07,0.152363343753625,0
5.22035483681558e-07,0.155561950631619,0
5.14194466318478e-07,0.159229512940358,0
4.45484213970595e-07,0.146606937369328,0
4.49450076224797e-07,0.148776148421868,0
4.22356444476439e-07,0.159501144149074,0
1.02339447870369e-07,0.0858626018432614,0
5.76758876546752e-08,0.0700819507664799,0
6.1069611171149e-08,0.0728434512884223,0
9.51208000360423e-08,0.0824868043137137,0
1.42702851257093e-07,0.101229284158544,0
1.76415643214012e-07,0.111946757243395,0
1.97422506440921e-07,0.114700459759369,0
1.90736159130749e-07,0.116188589519684,0
1.82528575505014e-07,0.110476388289856,0
1.77460006085173e-07,0.10981222029208,0
1.75696549784567e-07,0.111624837693022,0
1.84751584287597e-07,0.108517457535485,0
1.70692432577532e-07,0.0956481453551266,0
1.97335719302884e-07,0.105014538698758,0
2.72232928265389e-07,0.112906148406466,0
5.92661707962331e-07,0.156249938605965,0
6.26574693779678e-07,0.14877223196557,0
6.38587692849799e-07,0.147881654571936,0
6.96191470603017e-07,0.154515702963875,0
6.66132763576682e-07,0.151071171296397,0
7.0276614328704e-07,0.154158434404912,0
6.89069364343459e-07,0.150393368960822,0
6.73163251061316e-07,0.156805341899652,0
6.50519101070612e-07,0.155826899370561,0
5.9241547680704e-07,0.157536337407395,0
2.5850715950049e-07,0.107036561507237,0
3.74809490995036e-07,0.105628324743613,0
6.01164294927021e-06,0.263779886714887,0
2.02884469559319e-05,0.202265625424833,0
7.04022732617736e-05,0.195744808372956,0
7.86517903905563e-05,0.12858853780747,0
0.000119635677326716,0.113153682167064,0
0.000115691375568398,0.106362112602332,0
0.000104772653642669,0.0993791579286317,0
0.000100336733925107,0.0984387935009374,0
9.71343074934571e-05,0.0963634275514377,0
9.82310081139803e-05,0.0971582270281066,0
0.000110822300606755,0.104916430385077,0
0.000119308834868122,0.12813164501579,0
9.60061184572041e-05,0.0939946970644404,0
0.00015979179118401,0.109455936818324,0
0.000141038749820205,0.0937337211348067,0
0.000135628166419621,0.0929339815195182,0
0.000137719834902296,0.0955937175310174,0
0.000136447461160869,0.0931601903819371,0
0.000131280687992006,0.0937183785217447,0
0.000126924575793928,0.0932788194817884,0
0.000119646154503397,0.0818058783231058,0
0.000171286426267504,0.0768597748624183,0
0.000190372201952015,0.066238590082264,0
0.000148570504863412,0.0706251233646076,0
0.000139535916389078,0.0819961633166293,0
0.000139637152491642,0.0851713256900616,0
0.00014234012660158,0.0856977704368035,0
0.000149476020347226,0.0886287969891699,0
0.000156798565513249,0.0895122980512143,0
0.000161910662693986,0.0883220378655811,0
0.000166434050992711,0.0999983513188172,0
7.4456836073382e-05,0.119401625113258,0
4.25766604674624e-06,0.165894088312674,0
2.27137073292794e-06,0.223131687840824,0
2.04287296129237e-06,0.233159186474386,0
2.57845225247042e-07,0.0993062712109769,0
5.90663051224609e-08,0.0835111142020297,0
4.56178540822545e-08,0.0850477828541584,0
2.25836177851849e-08,0.0654791346021835,0
5.66179415024554e-08,0.107801691776467,0
6.73493716791759e-08,0.111644443478883,0
1.00675176870376e-07,0.124993939816259,0
9.52053992630358e-08,0.109327959581473,0
6.19083104042745e-08,0.0860821370748029,0
4.95948382175913e-08,0.0814385595790569,0
5.00765432988776e-08,0.0765175457597961,0
5.08186097942733e-08,0.0726843658035927,0
3.9830920536649e-08,0.0649278812252658,0
4.66228345546429e-08,0.0688976398915246,0
5.33287819012416e-08,0.0673005207090916,0
6.01602606439289e-08,0.0690554907591398,0
7.73371855901785e-08,0.0768518835449767,0
7.23665251895084e-08,0.0782508430255096,0
6.05685795423168e-08,0.0725969618774093,0
6.04071299399401e-08,0.0737304841891841,0
5.8911328090253e-08,0.0755690682609168,0
5.48254042175701e-08,0.0777599831807394,0
5.0612125689596e-08,0.0752928223284471,0
3.57379771160366e-08,0.066242617676755,0
2.35966205980642e-08,0.0576480430850781,0
2.44032304692266e-08,0.0582832473673117,0
1.24772920260232e-08,0.0488569833189604,0
3.90847517080477e-08,0.067585388441896,0
4.64332155975886e-08,0.068849713622471,0
1.03944007131482e-07,0.093267277038014,0
1.14958680625303e-07,0.0959338750011514,0
1.25475148542055e-07,0.0999058938372774,0
1.30323650576161e-07,0.0984925460160694,0
1.64560447227863e-07,0.113476035781281,0
1.72790183452906e-07,0.117859318845004,0
1.72801578822922e-07,0.119822112210982,0
1.83340381664904e-07,0.123229679818666,0
1.65896075756615e-07,0.117538373315866,0
1.64219406594045e-07,0.123725827628181,0
9.29496629777688e-08,0.0991236199705252,0
6.60368985422945e-08,0.0893025739065358,0
3.3030893015204e-08,0.071922682464013,0
2.14892976118765e-08,0.0661091577629186,0
1.04728008588534e-08,0.0556789769517034,0
8.49857579444423e-09,0.0567449634402744,0
2.2608322947378e-08,0.0680056956552832,0
2.66326206590182e-08,0.0705307339852101,0
2.43612955075703e-08,0.065162512736091,0
3.36667546620573e-08,0.0744039335857993,0
8.08841540426182e-08,0.104630662971351,0
9.22225472078332e-08,0.102964156876169,0
9.37282858201738e-08,0.0993578216819355,0
9.03445902293131e-08,0.0977991948316733,0
8.72428616741109e-08,0.0963189284010924,0
9.40268445145745e-08,0.0938963241104821,0
9.50281784685579e-08,0.0999952321676022,0
5.77607603705491e-08,0.0865474551153737,0
6.22624785043499e-08,0.0892159341432403,0
6.39977654502783e-08,0.0862883146819606,0
3.33495075608317e-08,0.0690293185245403,0
2.08565355056673e-08,0.0579942801077489,0
1.91441304627294e-08,0.0578982461099166,0
1.92717586069007e-08,0.0567156375535364,0
1.71368132437957e-08,0.0549507353119735,0
1.83360619842051e-08,0.0559483083207986,0
1.87452925121942e-08,0.0539321059952054,0
2.9134132284775e-08,0.0561867005444095,0
6.53272860607025e-08,0.0790580550863986,0
7.02709622251764e-08,0.0798852549326618,0
7.26226019444921e-08,0.078978459131337,0
7.83202869521378e-08,0.0816416255952466,0
9.48805856361199e-08,0.0909821501155131,0
1.05700535047119e-07,0.0954778630132168,0
1.19227933210791e-07,0.0976945429385709,0
1.20394819100357e-07,0.0996117090326293,0
1.20092887376432e-07,0.100296330099106,0
1.1077575936305e-07,0.109502538763972,0
6.58684293919885e-08,0.0829539087900289,0
6.06204512666263e-08,0.0843955513598044,0
5.5640674569944e-08,0.0814739494614691,0
5.51899648950992e-08,0.082333472451324,0
5.19216816117534e-08,0.0794371286957036,0
3.91540355577407e-08,0.067629114911261,0
3.2069579600714e-08,0.0664457877032127,0
2.93492768706637e-08,0.0674537268268123,0
2.47539343768172e-08,0.0624356499052467,0
2.10023962418631e-08,0.0581106838066206,0
4.00285618341942e-08,0.0718664348837614,0
4.45677479446052e-08,0.0764301681673102,0
4.62768711209787e-08,0.077499684397699,0
4.59103960212871e-08,0.0756415511402108,0
2.60551033066432e-08,0.0607138071327507,0
2.75166278833245e-08,0.0646244195467192,0
3.79912520013805e-08,0.070466343231332,0
3.59900427007749e-08,0.0676512023548286,0
3.73903057682538e-08,0.0686027433919083,0
3.81524281148766e-08,0.0691034457384027,0
2.10235460486113e-08,0.0582512341255378,0
1.34322240333047e-08,0.0506335794933488,0
3.97142319476924e-08,0.0701897666047721,0
4.59450379461335e-08,0.0740189214220045,0
5.00050715381417e-08,0.0781157551272468,0
6.06779750944635e-08,0.0793828744457454,0
5.19483011961092e-08,0.0732288620206023,0
5.6187652330678e-08,0.0742199143817363,0
5.80934140120354e-08,0.0738672736150046,0
6.7426222054559e-08,0.0771926218039363,0
8.66798392323953e-08,0.0859528132679716,0
9.88242952910119e-08,0.0927978445183371,0
1.06859398596194e-07,0.0945617883312281,0
8.99676313892073e-08,0.0873698026540364,0
1.08186275480775e-07,0.0911482319940734,0
1.12610687424392e-07,0.0894174605044447,0
1.08850762297107e-07,0.090741813350817,0
9.44994332998483e-08,0.0841580443026214,0
9.40553785210926e-08,0.0849386516313187,0
9.89131791771314e-08,0.0875448185197565,0
1.10429613603465e-07,0.092800380094084,0
1.24971199698498e-07,0.0899895080348385,0
1.21853882277115e-07,0.0866559117311221,0
1.17755195590015e-07,0.0875559488431372,0
7.2676935068725e-08,0.0737637505800869,0
8.70485934060902e-08,0.0833825654982805,0
8.82799315084625e-08,0.0813445959811268,0
8.57456012170618e-08,0.0828956158511843,0
7.53712563551404e-08,0.082299653298818,0
7.54851188923335e-08,0.0784374539686071,0
5.95096305975357e-08,0.0687601944819757,0
4.74980901347776e-08,0.0669975709970361,0
4.06083582605723e-08,0.0653743766234932,0
6.69332127662175e-08,0.0783114178224048,0
8.71630940840039e-08,0.0862549303143178,0
6.45050873233593e-08,0.0794277818155423,0
8.75841757968089e-08,0.0928364042994055,0
8.99427439010941e-08,0.0888597138470623,0
1.02636274468527e-07,0.0911390301523861,0
8.95975097711105e-08,0.0903725121899741,0
7.71981620759922e-08,0.0913409130348802,0
8.59046805824752e-08,0.094345079367925,0
7.23523949306896e-08,0.0870954404867465,0
9.53254608815171e-08,0.0946346136635196,0
1.00697055980805e-07,0.0950617174212688,0
1.01245492348901e-07,0.090582911954755,0
9.1887067514583e-08,0.0853954784653027,0
9.10480947925771e-08,0.0843760501976598,0
7.40954307282284e-08,0.0765356392896512,0
7.77713947692413e-08,0.0758391709540222,0
7.82200076960032e-08,0.0728866241058582,0
7.18841819675012e-08,0.0725253862998101,0
9.29846695544558e-08,0.0790814370794688,0
2.16138535642916e-07,0.112270618957772,0
2.15547070357642e-07,0.108218519307432,0
2.14645377519072e-07,0.106802876735266,0
1.85115415661446e-07,0.0994026674635626,0
1.82265296876182e-07,0.102190361527565,0
1.6669694236129e-07,0.0980769445593642,0
1.70055294649237e-07,0.100097817960332,0
1.48407373486747e-07,0.0904919074951213,0
1.81445286049881e-07,0.0952640477370627,0
2.39923407753632e-07,0.105780582991205,0
2.28196204563496e-07,0.106519178005917,0
2.38582582936153e-07,0.108802088738356,0
3.23147532656671e-07,0.12326510737967,0
3.23038137104524e-07,0.120145280529072,0
3.15582739062759e-07,0.118727046380499,0
3.1520277184497e-07,0.122277143814529,0
3.1193913787259e-07,0.118603140484749,0
3.06728992375679e-07,0.121213684094133,0
2.64036010705989e-07,0.120126121375971,0
1.99758101479254e-07,0.115580419964216,0
1.46407713956464e-07,0.0998899868277896,0
9.21329340180329e-08,0.0861937944575959,0
8.07206988551189e-08,0.0855085428622754,0
7.75919860637204e-08,0.0936717711444686,0
7.85339729306645e-08,0.094027063976458,0
7.74359150759908e-08,0.0923982895409153,0
6.27761817846393e-08,0.0895157044561658,0
3.87008644829724e-08,0.0779522385257776,0
4.07949688399428e-08,0.0794569376250615,0
3.0696756584232e-08,0.0671109814630396,0
3.34909924749414e-08,0.0705227872961666,0
3.35719451835301e-08,0.0722966876090921,0
2.90375907100055e-08,0.0725128691538907,0
3.05395004780208e-08,0.0718703875705746,0
3.57595827375857e-08,0.0704998534889386,0
5.20116594533943e-08,0.0762502983010778,0
7.04324118275531e-08,0.0836592745086965,0
6.61358103540274e-08,0.0808665996719624,0
4.75980047390716e-08,0.0670522336309739,0
4.80376836957416e-08,0.0696984118491379,0
5.29711496086818e-08,0.0711351922821251,0
5.25087710749414e-08,0.0696712996522684,0
7.61414922052141e-08,0.0788298042402326,0
1.15950442468473e-07,0.0947875699309109,0
1.11254182577772e-07,0.0903155859954627,0
1.23254509996435e-07,0.0932389743835662,0
1.20025062134101e-07,0.0896341078918674,0
2.32751800006729e-07,0.118411550838931,0
2.38962094339142e-07,0.115089027595595,0
2.4978787817959e-07,0.121936164668917,0
2.25818674563505e-07,0.113380817376149,0
2.12623291900599e-07,0.112790589849821,0
2.1868353200065e-07,0.11188737465106,0
2.49897273731736e-07,0.119872662932327,0
2.52938925896218e-07,0.125968039180962,0
3.22667924323466e-07,0.13268847566953,0
4.17222146562349e-07,0.148895123868175,0
3.85687055396832e-07,0.144090819836499,0
3.72209249883467e-07,0.146591010879329,0
5.70609387908739e-07,0.160453499641085,0
7.88594976286693e-07,0.178272971285211,0
7.97025271024005e-07,0.174041463857609,0
8.65222184743439e-07,0.177825229940946,0
9.07946526471411e-07,0.175975354423806,0
6.5129444204645e-07,0.149120293586534,0
6.55907925969361e-07,0.156544567364598,0
9.00199953935016e-07,0.179797225543313,0
1.64384821785187e-06,0.237532903829121,0
1.48657798138203e-06,0.211001124338689,0
6.12088744439208e-06,0.113511995453854,0
0.000140902365929529,0.0992069300405987,0
0.000503598447323647,0.19276639818709,0
0.000754691697501339,0.0836928222780532,0
0.000723859476769536,0.0690054284726765,0
0.000695211474524969,0.0618775603891865,0
0.000730471429543308,0.0629890074324111,0
0.000656930719592995,0.0563398052802259,0
0.000562790270076589,0.0520118667433211,0
0.000437476161906384,0.0453298289512593,0
0.000314368859396554,0.0371708321925004,0
0.00029538301654893,0.0389577956162072,0
0.000259818781448812,0.0364643031102708,0
0.000249997418795994,0.0472387701784495,0
0.000175432926833233,0.0376378598399136,0
0.00014417915334961,0.0406718526598897,0
0.00014325419645292,0.0416547161154212,0
0.0002100867356832,0.0472852586404213,0
0.000225932823625882,0.0348799403627698,0
0.000226714276166569,0.0326330275863524,0
0.000206420750066314,0.0308840054236561,0
0.000202189146324748,0.0321721087631772,0
0.000200508251211999,0.0271047601995566,0
0.000193098948080087,0.0311741186223945,0
0.000215244681724961,0.0244010659116767,0
0.000567127063384811,0.0412459883239084,0
0.000886517159298356,0.0448628217894164,0
0.000779454198279193,0.0302161792438241,0
0.000848652567381673,0.0367871657794484,0
0.000846687550049725,0.036051453046604,0
0.000857110448304208,0.0358554643109997,0
0.000872371699602772,0.0368472693636732,0
0.000856683549665243,0.0382282284391552,0
0.000790702862933463,0.0312922889036232,0
0.000801776214834012,0.0322461847307727,0
0.000594080711217196,0.0276710517501342,0
0.000254103077626284,0.0154341410006938,0
0.00025025389046892,0.0185470867928245,0
0.000222750299618197,0.0169449977753561,0
0.000221317037382413,0.017703674475777,0
0.000281355970336671,0.0211380330943704,0
0.00034875800348488,0.0249996938660111,0
0.000377205927099,0.0275796701347487,0
0.00038259021308513,0.0360928921473185,0
0.000226737362001101,0.0388525383632436,0
0.000212842967559094,0.0463947134287551,0
0.00018971024901016,0.0596944676772556,0
6.01479102507433e-05,0.0468294304898086,0
5.94949335785937e-05,0.043135085056379,0
4.54016519148654e-05,0.0326196410671438,0
4.82243853469092e-05,0.0283877278589267,0
0.000177365743493244,0.0466701358488069,0
0.000199121888216864,0.0320800515571195,0
0.000225397191642513,0.0320728679666533,0
0.000274072450848758,0.0274445199309078,1
0.000292445427997383,0.0214519238298206,1
0.000298402720319132,0.0205795487581846,1
0.000296807350284399,0.0208720272306833,1
0.000296409051745099,0.0225172765424268,1
0.000323534444668763,0.0257863061269898,1
0.000317973729729627,0.0261558823479804,1
0.000473100594552795,0.02544868366754,1
0.00102877885010951,0.0370599299821818,1
0.000960605944337954,0.0320857054061108,1
0.000940491419535951,0.0377016653537193,1
0.000914288690213552,0.0435943342519608,1
0.000897874768156957,0.0443473434385827,1
0.000881106442891012,0.043407429869364,1
0.000805873973026362,0.0384035972437049,1
0.000726517935550232,0.0318262062174301,1
0.000704931979674997,0.0293980896854958,1
0.000638815787589988,0.0418671291377153,1
0.000268878538648993,0.0390961603984017,1
0.000260900132414762,0.0495279541718116,1
0.000326832957863174,0.0416734165499516,1
0.000355957302619061,0.0404467771523198,1
0.000316877352281797,0.0382385050865944,1
0.000337732694555479,0.0366916058985055,1
0.000346436341519882,0.0362493172873715,1
0.00031896146216996,0.0419804374772682,1
0.000301337304868817,0.050021088894703,1
0.000311396934771893,0.0318608690406675,1
0.000342742362583994,0.0222578064176616,1
0.00046184197982608,0.0255888252928976,1
0.000598554460554832,0.0345367624450854,1
0.000731025004311651,0.0417836608617773,1
0.000849223303941911,0.0474077562711097,1
0.000817427749350933,0.0537409357297455,1
0.000790327981241404,0.0575557976673716,1
0.000810638235471352,0.0596801526196032,1
0.000776548522598119,0.0466569411764305,1
0.000628724034047676,0.046875379371895,1
0.000330238999045331,0.0435631536577455,1
0.00032632627340151,0.0483173731144016,1
0.000326059870162219,0.0473618497635674,1
0.000315839419590028,0.0452777717614934,1
0.000306871616370975,0.040348618062856,1
0.000295695147584833,0.0362404482375495,1
0.000274539144672379,0.0338956965656172,1
0.000247993774715049,0.0284669645599424,1
0.000243893786950182,0.031021368712831,1
0.000119421599712112,0.0284864570739311,1
0.000121822706732665,0.04456416915543,1
0.000133962423775962,0.0491132726898911,1
0.000144288345426029,0.0548714909663532,1
0.000148796240762008,0.0590502774985758,1
0.00015611786445283,0.0440413118664878,1
0.000314932964124932,0.0552006241896649,1
0.000362758385716421,0.0574174686535656,1
0.000382349169193433,0.0707746112506948,1
0.000439571815030883,0.106008831766853,1
0.000482283172509607,0.103568298683182,1
0.000447010080270574,0.0974552994318056,1
0.000371766717526145,0.0698756284784623,1
0.000308890796170095,0.0615401409461009,1
0.000275598136007936,0.0571865103485653,1
0.000248476419139477,0.0798755517297697,1
0.000228926290696161,0.108378001506239,1
0.000231766455944788,0.0968342317995526,1
0.000275362353951135,0.0830366614983518,1
0.000285092488462315,0.070824180236554,1
0.000262939933275461,0.0606132830624687,1
0.000295909805087026,0.0653361511338326,1
0.000316585543292964,0.0763518962094932,1
0.000318754890548841,0.0648585869399611,1
0.000321461521478599,0.0619821915866652,1
0.000326317945482777,0.0648885569061028,1
0.000331087095629874,0.058130770481013,1
0.00036801073966387,0.0684111120347414,1
0.000312061788427976,0.0811330181408806,1
0.000229261077277426,0.0812214170092835,1
0.000240625227990045,0.106405903819595,1
0.000234729249960853,0.105520094230632,1
0.000230515691380265,0.106970659417769,1
0.000221757364690055,0.192459559682811,1
0.00013498563820782,0.177007896012729,1
5.26831774865143e-05,0.12397287863756,1
7.36443782806536e-06,0.214558481521974,1
4.8063471873901e-06,0.197091791970371,1
4.8236924903237e-06,0.208004019411478,1
4.85449362849727e-06,0.209138842873354,1
5.12596042324579e-06,0.219677377440458,1
3.30068077611397e-06,0.242073662727397,1
6.82111807226923e-07,0.142814118052281,1
6.97704319926248e-07,0.158325095243789,1
7.08896214214546e-07,0.158343273745297,1
7.35304300502782e-07,0.157304845295239,1
8.73831888186272e-07,0.178426878201369,1
3.27597743718002e-07,0.124642248107517,1
1.58112946873211e-07,0.0982327824858411,1
1.69652719017336e-07,0.103286476502046,1
1.72040459268861e-07,0.105998471098183,1
1.52743083870165e-07,0.0998001008916994,1
1.25791666339599e-07,0.0914586141604404,1
1.25221350861074e-07,0.0925224099962313,1
8.83018106188919e-08,0.0820355007643225,1
2.71082087056804e-07,0.137854953584035,1
4.75397971890335e-07,0.171918778490009,1
4.99646681142154e-07,0.168114878464096,1
6.44118731966341e-07,0.185769635197314,1
6.21141016704547e-07,0.163454856307304,1
5.81496433258388e-07,0.154047775751919,1
5.09929042577312e-07,0.143015760103542,1
4.37973753500916e-07,0.125151721930213,1
4.21448917208421e-07,0.115724309221436,1
4.05859321723822e-07,0.109194294694735,1
3.57057510096334e-07,0.10747058900849,1
2.95646493639527e-07,0.0997193405783448,1
3.25307274344929e-07,0.10396376123034,1
2.55527953963691e-07,0.0901171504083218,1
5.16946402595689e-07,0.130775680866709,1
6.97955929696185e-07,0.148771886242633,1
7.35338668938749e-07,0.15390051597088,1
7.02989310213419e-07,0.152087009616185,1
7.33636474147344e-07,0.143444817162152,1
1.80327764903221e-06,0.208923646313634,1
3.00670602883717e-06,0.265903358485371,1
3.75290548819305e-06,0.261969131890077,1
3.15931647060036e-06,0.235472238463531,1
2.73347395452884e-06,0.220811618269964,1
2.87127077992399e-06,0.230971708724743,1
3.02706599969905e-06,0.235349039263717,1
3.52321712829827e-06,0.254430169088904,1
3.92779515461758e-06,0.274646551361408,1
4.38817494045736e-06,0.324352574976668,1
4.25305183351964e-06,0.365762314972293,1
3.05546554085116e-06,0.332210263305325,1
1.1589560794796e-06,0.245221733741348,1
8.48081724981239e-07,0.224847796713741,1
6.22615212932689e-07,0.19762483110687,1
4.34856709568413e-07,0.172741945350946,1
1.42365092489839e-07,0.106812067728848,1
1.42376487859855e-07,0.107596012454192,1
1.53899759508198e-07,0.113467318817277,1
1.56364897112866e-07,0.112412052851593,1
1.54471533594085e-07,0.108931898385004,1
1.51787696048083e-07,0.111122155249647,1
1.28643973035907e-07,0.0971572674183138,1
1.71045415559125e-07,0.111922354095967,1
1.78465624698283e-07,0.108521271348063,1
1.90973912130747e-07,0.10935862632178,1
1.89412472949772e-07,0.106685740980235,1
2.01910276641823e-07,0.110012793878008,1
2.97960665382232e-07,0.115932611686904,1
5.98552567282476e-07,0.163098896377245,1
6.30337080306887e-07,0.161749091463313,1
6.33536535555341e-07,0.158057683101827,1
7.43107120585573e-07,0.162161555841179,1
7.93720796045492e-07,0.170485462866073,1
1.17432980107463e-06,0.197735916933613,1
4.28471382352564e-06,0.327950332436203,1
8.97763933779811e-06,0.465003806231112,1
9.37084341739775e-06,0.413103700122881,1
9.10802060336507e-06,0.408107357599236,1
9.38350449395138e-06,0.408363896952198,1
9.4490998902778e-06,0.406055952693783,1
7.946217139989e-06,0.313182280515599,1
5.00104523406999e-05,0.132445107344549,1
0.000199536059047988,0.251911668885323,1
0.000423057312606896,0.217793044463036,1
0.000705640203653543,0.178276112837904,1
0.000840412599299474,0.179940795751731,1
0.000991055788232606,0.184509691706469,1
0.000901042169779328,0.0919446256162733,1
0.000760403705942116,0.0787474814823411,1
0.000594194066067864,0.0620549411080975,1
0.000476195593002466,0.0507420828348093,1
0.000396469363621597,0.0426156275476657,1
0.000404427054531747,0.0385411617310018,1
0.00039974872821856,0.0417976478381978,1
0.000340823948851215,0.0403596888751651,1
0.000304189732720698,0.0376702165817464,1
0.000209534469741476,0.0293772339053484,1
0.000194003688952229,0.0408696113218047,1
0.000196488652039323,0.0423345066695274,1
0.000187955526850437,0.0378240541555652,1
0.000145694385672617,0.029826928004396,1
0.000155207957831553,0.0280305953078052,1
0.000145015247874638,0.0274212950094929,1
0.000143462707292527,0.0243590242628172,1
0.000146272955774856,0.0235469766800759,1
0.000137792212458204,0.0216119195447159,1
0.000567854939909649,0.0263443156371366,1
0.00101056555135811,0.0252426092641699,1
0.00102096093125262,0.0236765422464865,1
0.00105264466034274,0.0253059321029201,1
0.000944921645123861,0.0239952103327231,1
0.000938655328873379,0.0269618049181488,1
0.000911745205702348,0.0288646094783151,1
0.00094471093060202,0.0303709082023763,1
0.000953789537385138,0.0313607491179579,1
0.000997261980140651,0.0323854504574629,1
0.000659458476670318,0.0522708227831713,1
0.000123155902942478,0.0263415863103907,1
0.000136440128012357,0.0320977714000942,1
0.000117093025042174,0.0302070737225712,1
0.000160124222661362,0.033766735968546,1
0.00031677209552804,0.0342108412195429,1
0.00207566526625486,0.039267063035279,1
0.00413679309870519,0.0479317669391908,1
0.00471310084212514,0.0496716430522871,1
0.0048529771662036,0.0500793147989484,1
0.00467671069804637,0.0495160283393114,1
0.0041513581817797,0.0414305256585936,1
0.00345512843367299,0.0392869578632577,1
0.00239142276607961,0.0261364633790972,1
0.00181398321153667,0.0224071587513755,1
0.00196138521947869,0.022157746432032,1
0.00290019866950361,0.0512567001060487,1
0.00308775427101172,0.0592558656300228,1
0.00374936231941279,0.0669998311773547,1
0.00370657583809399,0.0680053836095656,1
0.0030379521341484,0.0649888833762407,1
0.00199321477466309,0.0434782492186414,1
0.00157933588380249,0.0299692093806407,1
0.00127510972190711,0.026544295533378,1
0.00110922249342461,0.0243437413302324,1
0.00103880190543299,0.0254820102584313,1
0.00110090398307365,0.0225110650463688,1
0.00115678545065483,0.0226009504280738,1
0.00118229234732404,0.0224534449799451,1
0.00121051136694437,0.0220861787068447,1
0.00121975504824265,0.0219756670346446,1
0.00123318060634915,0.0259441040583565,1
0.000750594791044525,0.0238201706135303,1
0.000613240683523321,0.0243460175786542,1
0.000716153564645452,0.0270630357936706,1
0.000829744975901803,0.0390124213571434,1
0.000688424381660121,0.0445314860287309,1
0.000672042450600655,0.0453433611190485,1
0.000780578688925317,0.0455751667771201,1
0.000916183519176917,0.0513993878794093,1
0.00078108544203269,0.0438155639333162,1
0.000553382367092643,0.0325685355454016,1
0.000459254262773135,0.0256970907178898,1
0.000341760067740742,0.0235815937527408,1
0.000337246466332764,0.0243941497899843,1
0.000325412370651876,0.0238006066671752,1
0.000319697445269864,0.0267085743892727,1
0.000283822586878041,0.0278895186392022,1
0.000232902504686811,0.0250843747196211,1
0.00018380011492303,0.0290908978282442,1
0.000168997738674486,0.0355889800181236,1
0.000168634851748905,0.0487183912233343,1
6.69930906951739e-05,0.0530933928748993,1
4.49638494565665e-05,0.0505149985777739,1
0.000132026605940141,0.0610533687372586,1
0.000218277741962777,0.073885014527713,1
0.000222515395643028,0.069790525515162,1
0.000290764759789242,0.0753233458577677,1
0.000352500132873046,0.0752009420995243,1
0.000318393134773269,0.0611610460592506,1
0.000285327432549187,0.0436786250562547,1
0.000309824351830672,0.0382429757625322,1
0.000315071925921795,0.0258357076594637,1
0.000342802291290719,0.0263299048160329,1
0.000349268598564044,0.0280239039856341,1
0.000370359737936416,0.0269072885326861,1
0.000379457536619388,0.0260057907957653,1
0.000407152094089205,0.0279021271288215,1
0.000400464624380668,0.0287523787088584,1
0.00039020630371205,0.0296289144868171,1
0.00041130476501989,0.0348121095760348,1
0.000274137115015447,0.0287236847945528,1
0.000210795469080368,0.0323190263105635,1
0.000281443305819912,0.0366408454736441,1
0.000322377091051796,0.0390228239022423,1
0.00030192733561375,0.0452107354284505,1
0.000256024936407325,0.0438316400361762,1
0.000166999418783902,0.0402527003480461,1
0.000168025984183848,0.0444450623166942,1
0.00015882540582707,0.0413121989469946,1
0.000155259015652954,0.0397597999629502,1
0.000188630905543755,0.0488632309317171,1
0.000144780875197201,0.0586800769743733,1
0.000150049843320642,0.0841690111374996,1
0.000151251787567456,0.0860211105074158,1
0.00012618490679322,0.067075526457874,1
0.000108851526972016,0.0648897524956819,1
0.000101283765112123,0.0619379272347582,1
0.000109117057325964,0.0508308803440548,1
0.000138460895414427,0.0542321005445604,1
0.00011588733062467,0.0471066041812005,1
0.000111101963680922,0.0590347631632552,1
9.13176066888088e-05,0.0549799626606112,1
9.25533643714879e-05,0.055798029148829,1
7.4018308960713e-05,0.056320604881333,1
7.85839831073284e-05,0.0665057892959177,1
9.05026128336929e-05,0.0667933249186237,1
0.000103346959026531,0.0612559543939706,1
0.000184321271413451,0.0978456437324722,1
0.000203164119232531,0.109835516469025,1
0.000204315865506983,0.111204075544788,1
0.000214250567148115,0.112040069403463,1
0.000224700810644116,0.110344819222871,1
0.000224641746891556,0.113731013996815,1
0.000226042656760237,0.108059268861699,1
0.000209725184841963,0.0947295406793202,1
0.000221660752372829,0.0926702467682629,1
0.000238593648296253,0.1134303335925,1
0.000146260305273206,0.107722398128342,1
6.15247112541534e-05,0.0695929827384792,1
9.79825975258022e-05,0.0739734628666183,1
0.000108189657900084,0.0460780284696305,1
0.000119623489294762,0.0332342462474717,1
0.000238687090330378,0.0325103559481883,1
0.000244771636207695,0.0272404753478889,1
0.000239364781554506,0.0270470678511692,1
0.000214903464873141,0.0264404465694352,1
0.000205983110880876,0.0262911027805043,1
0.000203728052848033,0.0245126322503439,1
0.000199397273286802,0.0228168065677006,1
0.000199052179274288,0.0236043844592194,1
0.000195440751224842,0.0259406827674516,1
0.000161731852290972,0.0254050800545602,1
0.000131382917497347,0.0206570050590176,1
0.000379802344836022,0.032051640311849,1
0.000350193112682236,0.0244557793666981,1
0.000497380805985951,0.0240039320437166,1
0.000554043534027456,0.0200752911781176,1
0.000510835895148262,0.0194411859582017,1
0.000459076803040538,0.0177524630760866,1
0.000512387177316873,0.0177683647997799,1
0.00046904888149532,0.0158846989834543,1
0.000598827360066662,0.0154175733888404,1
0.000825252031291284,0.0149589260872579,1
0.000903948023137011,0.0153995702522905,1
0.000878218137035708,0.0146514763293749,1
0.00121616712929736,0.0160440262960091,1
0.00130239042734268,0.0136592541999721,1
0.00120374961692662,0.0129744854006149,1
0.00126762862803527,0.0143473279380942,1
0.00138468427699309,0.0160298589350981,1
0.00139850783954718,0.016483216311162,1
0.00139330626592109,0.0205406955141999,1
0.00101537177492853,0.0209589360507476,1
0.00109142267303049,0.0237679056340994,1
0.00140567855052405,0.030081035859028,1
0.00176362569004677,0.0472334764547686,1
0.00234332367984557,0.11479712845211,1
0.00318164863979172,0.1299112667212,1
0.00315891187324749,0.0713391416719482,1
0.00272015894919711,0.0541022779216366,1
0.00250182191603018,0.0459642048172324,1
0.00172508561514634,0.0338004390298862,1
0.00091802367999217,0.0196450948631785,1
0.000922824830526181,0.0132015168502886,1
0.000985391880104478,0.0116411416586417,1
0.000978574958719078,0.0119979554273186,1
0.00104853687012245,0.0109897931547491,1
0.00132060548590386,0.012548927719842,1
0.00131352047667883,0.0136036056003977,1
0.00111250241557424,0.0129981337442569,1
0.00116754375977453,0.0124701480144504,1
0.00157963665839496,0.0156379661928306,1
0.00160310006374452,0.0141467091774873,1
0.00198354495101376,0.0189029280579616,1
0.00213031113122155,0.0191652986066697,1
0.00436125482965474,0.0124595368586193,1
0.00830198341317769,0.0164036616788588,1
0.00859637503727577,0.0142253732924563,1
0.00951815352204524,0.0139416122255342,1
0.0101082794338158,0.0140655200247182,1
0.0101977752057234,0.0147412015764284,1
0.00895890183424923,0.0136357023248151,1
0.00872175970402734,0.0139326370715116,1
0.00910726646461468,0.0153311615733619,1
0.00934390882262403,0.0158628382166734,1
0.00720510452777065,0.0306894230542935,1
0.00181119953778652,0.0169840194692473,1
0.000694426612945388,0.0142456382138628,1
0.000539781088916317,0.0218429165910226,1
0.00042588438904236,0.0199792306328496,1
0.000544171202163632,0.0238062406990257,1
0.000537671008432911,0.0176714103986022,1
0.00170559057338028,0.0230398627939171,1
0.00303789995164956,0.0327611683639384,1
0.00320425601464431,0.0223899853379653,1
0.00332283880353983,0.0203721269156253,1
0.00330488604825497,0.0168914286098635,1
0.00333134023455819,0.0177908192189014,1
0.00339643981013058,0.0183260931040829,1
0.00320463116444664,0.0175981075715634,1
0.00304986782505442,0.0169324946056295,1
0.0027920548992088,0.0146807063654359,1
0.00241786942961536,0.0165135195705273,1
0.00143731905451431,0.0105211357690207,1
0.00117315893318697,0.011779181953841,1
0.00155817627338938,0.014185755173974,1
0.00150753283203786,0.016226619354431,1
0.00148357986855614,0.0154926405510088,1
0.0019400633290598,0.0112954394094369,1
0.00239650602075838,0.00727715480439841,1
0.00227260302532418,0.00678361500013024,1
0.00209761996755214,0.00745658756941534,1
0.00328631233108863,0.00531135175114001,1
0.00643573635289475,0.005816980510067,1
0.00658264746798771,0.00551930531647233,1
0.00685871530109182,0.00587291444338954,1
0.00677079063756455,0.00559280115207652,1
0.00672210354020979,0.00550672148501108,1
0.00647635967254685,0.0058637465254223,1
0.00613590667699341,0.00678507351170109,1
0.00586820791358259,0.00620008359001947,1
0.00557074151626686,0.00574079086078289,1
0.00488183493724547,0.00903340947328914,1
0.00256344611661342,0.0110619437408247,1
0.00288144628743033,0.0137170913834984,1
0.00285958015495997,0.010752380790231,1
0.0036813468298296,0.0121228871220323,1
0.00400780878152048,0.0126324461619742,1
0.00614217131529845,0.017103674686444,1
0.00650891047543261,0.0196839303331553,1
0.00661130260172832,0.01735971079037,1
0.0067023223061872,0.0140240500106792,1
0.0132418896975291,0.0134547973620223,1
0.0183000316787448,0.0166253608805366,1
0.0235759949874529,0.0172325333428635,1
0.0192208562420485,0.014759417016794,1
0.018525034780295,0.0147723636252439,1
0.0177998915427098,0.0126228548736598,1
0.0185930457361618,0.0127574092668051,1
0.0184347825706894,0.012043531360236,1
0.0225799161788265,0.00882966421498427,1
0.0311128310551283,0.00978494737328556,1
0.0308393703195931,0.0106694151078781,1
0.0345947879348828,0.00830160967778969,1
0.0500964614027806,0.0121496227496385,1
0.0520436699798174,0.0117365526825375,1
0.040478998042767,0.00962802212538342,1
0.0332085083378123,0.00789492367912498,1
0.0411517476261256,0.00895563200551784,1
0.0454608099903668,0.00852440712516615,1
0.0465640265167392,0.00799740253085338,1
0.0550597789939437,0.00924117972861938,1
0.0557849743701784,0.00781249505678056,1
0.0564708387525189,0.0101330370325602,1
0.0549968655389737,0.00961021097544124,1
0.0501806367898348,0.00831372155838215,1
0.0498482645261978,0.00840427765684191,1
0.0496390178942043,0.00878000446232089,1
0.0477760803128347,0.00832854523706841,1
0.0472578515110334,0.00917826157436823,1
0.0482483623230793,0.0170035968413792,1
0.0244585873986274,0.0122159284989133,1
0.0269192739211719,0.0206113523772414,1
0.0249889224815419,0.0178898116534549,1
0.0248934872683876,0.0200953014223007,1
0.0226820122161235,0.0243674582912981,1
0.019297990612205,0.0224106229150434,1
0.011724496569873,0.0190343385361494,1
0.00883371375631883,0.0174988421379863,1
0.00744670231686121,0.0148144461413155,1
0.00748484785159769,0.0184203474105137,1
0.00869890156539708,0.00902260859484177,1
0.00828055353558322,0.00613861970511333,1
0.00845856616378381,0.00691800910605624,1
0.00926982606938169,0.00541526411916396,1
0.00994857306414865,0.00492106167046503,1
0.0103710046021079,0.00455881690621012,1
0.0113127678132186,0.00491335866536148,1
0.0113773378701046,0.00531235614370294,1
0.0116539150537311,0.00555180829753163,1
0.0120146157602541,0.00553481586355973,1
0.0123091211695832,0.00980961735029465,1
0.00856146434360234,0.00798760918824107,1
0.00666657757608373,0.00650448816213294,1
0.00603257755080933,0.00617415353242618,1
0.00640517495069789,0.00552891410036774,1
0.00627348336644828,0.00676822012474133,1
0.00704263613054245,0.0067408887330376,1
0.00715339779091558,0.00648725424702429,1
0.00727267623569932,0.00672600929720881,1
0.00742210840411016,0.00703881508892507,1
0.00731719915115874,0.00754618330333716,1
0.00684219145665233,0.00660379320911533,1
0.0066384470382297,0.0068042652002211,1
0.00544622381510048,0.00935050375116492,1
0.00512147402778233,0.0155364239837157,1
0.00689262443837364,0.0191806893792955,1
0.00794885314824984,0.0257617823896457,1
0.00862090953338243,0.0174986761091261,1
0.0108045582939617,0.0181450032217473,1
0.0123592004412983,0.0213036016878903,1
0.0185469444995998,0.0233178222088655,1
0.0220915195626016,0.0186757954384548,1
0.0225692685944149,0.0175324520405652,1
0.025016132891219,0.0175030413814574,1
0.0226783230009081,0.0149256310086445,1
0.0180129908657091,0.0127632924908975,1
0.0135880790901677,0.0105116626575156,1
0.010455290410571,0.0118457179600738,1
0.0116378284737973,0.0138565741273466,1
0.0115770551076958,0.0132306167291214,1
0.00724168864010014,0.0108532677581036,1
0.00517135738582915,0.012785551146906,1
0.00568921155116678,0.0154088394735959,1
0.00301878478630299,0.0132393298523914,1
0.00300693004312326,0.0178345971175455,1
0.00291838526069839,0.0128769160879573,1
0.002862075293839,0.00842017331641189,1
0.0029906061744824,0.00548905376301211,1
0.00497758883195019,0.00806280447436234,1
0.00554541217869787,0.00605357599253087,1
0.00722347932608173,0.00721860012321336,1
0.00708289382391318,0.00652175986031932,1
0.00628426364967021,0.00570500100799828,1
0.00653635213135334,0.00565228324670597,1
0.00667610041687198,0.00575093659021912,1
0.00670401857064572,0.00605198213654923,1
0.00683186173724451,0.00740088843029386,1
0.00756075710078338,0.0080767705959519,1
0.00678128256842361,0.00805512346450063,1
0.00615379420764171,0.00912456470661826,1
0.00512243369506725,0.00807603176589804,1
0.0054435379740661,0.00792231618016261,1
0.00841801247777368,0.0104054662392144,1
0.00839462759017005,0.00930961149602167,1
0.0083186052383816,0.00823876464491976,1
0.0114445488097349,0.0103984872329492,1
0.013912771689867,0.0120573591363199,1
0.0125666699190271,0.0122806371696334,1
0.00830652274469303,0.00792087464636545,1
0.00737970054736107,0.00731600548897006,1
0.00737484025330691,0.0063722007640406,1
0.00674690990933336,0.00681737875611454,1
0.0064238602543358,0.00698733508763581,1
0.00485567939378006,0.00712341269980424,1
0.0045943770423629,0.00865255133214234,1
0.00445309474476914,0.00888027337824361,1
0.00369613477798993,0.00768459136604806,1
0.00343754126665454,0.00904575771464801,1
0.0035886312903809,0.00707798110794713,1
0.00448792108426161,0.0110340892689165,1
0.00348482364480517,0.0102767824130667,1
0.00565773337121401,0.0121120545662111,1
0.0134232728967715,0.020366446494302,1
0.017528685528725,0.022470307726149,1
0.0256659710753553,0.0281024065600014,1
0.0277208325828946,0.0248480791618671,1
0.0245006642566162,0.0235830147233543,1
0.0200538358325645,0.0219459689640727,1
0.0156551619515458,0.017172622254408,1
0.0157002113554348,0.0144143609907888,1
0.0108309426487081,0.00903959361226039,1
0.00792591037173949,0.00679000291061237,1
0.00915748792283404,0.00476599784345983,1
0.0238632544153749,0.00843447275548757,1
0.0309756901833317,0.00822785795831901,1
0.0300184807953992,0.00848425962490326,1
0.0328660473212619,0.00841250492629213,1
0.0360947374442728,0.00597792796356136,1
0.0403787769237136,0.00623072424710997,1
0.0397590620830567,0.0067461711222787,1
0.0412436125490632,0.00678394852743612,1
0.0376151101271668,0.00642579689602491,1
0.0320613571272597,0.00682705995556032,1
0.0275986400680533,0.00641408740577461,1
0.0308788042385659,0.00885332598450063,1
0.0317038599250793,0.00874159716236905,1
0.0496558900177078,0.0109011772215313,1
0.0468343392387345,0.0110138753055486,1
0.0376999639847061,0.00892859859608918,1
0.0398432658815033,0.00910988753076868,1
0.0406731196769896,0.00769584914908747,1
0.0588825951687082,0.00968070451336139,1
0.0577216619921663,0.00631384379821861,1
0.0568657281520079,0.00705938120371863,1
0.0599156151425249,0.00646395456742439,1
0.0726677832577202,0.0075914027842602,1
0.0639286392759501,0.00807464068706445,1
0.0570871636531044,0.0100613682167989,1
0.0569504879508868,0.00970934999210245,1
0.0560384294337705,0.00945892411101133,1
0.0588846187672672,0.0132503823337025,1
0.0336715825976365,0.0109146480739263,1
0.032351597620443,0.0170565362656119,1
0.0389713020200966,0.0218627290489932,1
0.0454239917540524,0.0302335755012036,1
0.0585241532141412,0.0343944859532062,1
0.0609385952654278,0.0391703021297007,1
0.0494185377791978,0.0377736172966874,1
0.043402271002564,0.0473783364677571,1
0.0331400722711944,0.0452618662694766,1
0.0180869210348557,0.0240205286251036,1
0.00754606374805094,0.015438615921277,1
0.00988950247117637,0.0200282315436949,1
0.0173085313697996,0.0291987652019153,1
0.0201947340087356,0.0198901770730644,1
0.0195041797573013,0.0187873192833156,1
0.0205868401843636,0.0198322797783838,1
0.0189264108769296,0.0208678740497404,1
0.0151743230963306,0.0176098947734317,1
0.0108198382869974,0.0115432311175497,1
0.00779245825414727,0.00904388678611105,1
0.00738277569644361,0.00963804451339711,1
0.00720714546297207,0.00927516005243669,1
0.00475158076779564,0.00531334770911041,1
0.00341824769503036,0.00663638482311328,1
0.00294563124899967,0.00710778243124135,1
0.00268905370278394,0.00733948708801456,1
0.0026608153636356,0.00764507442053854,1
0.00231395911412603,0.00678699371173673,1
0.00199912093358934,0.0084679734116547,1
0.00173080412587641,0.0071127461467358,1
0.00259140729675178,0.00939461210577305,1
0.00220924240983571,0.0119134398504148,1
0.0017531997250703,0.00669362082280469,1
0.00482103649166664,0.010200751735067,1
0.00539695966359235,0.0105353686220855,1
0.00638338741528523,0.0120937013278631,1
0.00667935466033017,0.0125971288755325,1
0.00759836905570589,0.0132493288611898,1
0.00695992193832851,0.0100291038646873,1
0.00495173927522835,0.00781054207887487,1
0.00741323115925848,0.00877724766541583,1
0.00810497752839292,0.00844561576497956,1
0.00846291040993751,0.00923826249691083,1
0.00927306410989999,0.00813712109347866,1
0.0107285641791708,0.00894326396525392,1
0.0115528788127386,0.00898515604522124,1
0.0122376922001026,0.0070029833102245,1
0.0154541250489718,0.00730439157734663,1
0.0154771608463434,0.00606299049879475,1
0.0196494546577069,0.00755643531199798,1
0.0193375486163646,0.00879383562621089,1
0.0183303870533811,0.00773656625703053,1
0.0144820531744874,0.00741951230126963,1
0.0142239033132584,0.00807820136948365,1
0.0153670525138933,0.00668893829943388,1
0.0164093953961843,0.00720393881455964,1
0.0157334869235448,0.00937322564527658,1
0.00966959695439305,0.00706754672952432,1
0.0118105001906189,0.0116564047780312,1
0.011959198151602,0.0103378017117123,1
0.0169384284871499,0.00955955781414375,1
0.0189475269869307,0.00721368509445412,1
0.0218670359440635,0.00706434911742301,1
0.0209897566050144,0.00348391476599885,1
0.034437080909231,0.00661139320155808,1
0.0356920205367686,0.005559136973933,1
0.0360963230092754,0.00541388708515913,1
0.0524901285135131,0.0053233678490988,1
0.0720793143931967,0.00600328330876323,1
0.0631278677418447,0.00568743044702689,1
0.0623005197482953,0.00611470864152262,1
0.0617832152316108,0.00681142518562607,1
0.0471873362611561,0.0057663672254763,1
0.0332296812999526,0.00452924441828303,1
0.0334402489969184,0.00509687043949888,1
0.030478866874127,0.00572711644054602,1
0.0259619886437216,0.00428052064998827,1
0.0258015056940829,0.00772386409589937,1
0.0210674616582185,0.00355137185855175,1
0.0662568648709715,0.00930541162146618,1
0.0662736786510922,0.00629137514690827,1
0.0734555379587485,0.00654809955520064,1
0.0833128637496172,0.00708995376802672,1
0.0886861818809969,0.00694630194258562,1
0.0868866997416418,0.00671407316935006,1
0.0880424329719076,0.00645410889242091,1
0.0883369906079496,0.0065932402790715,1
0.0817584611603984,0.00623289069355173,1
0.0774184463361303,0.0109642160780454,1
0.0352827912318218,0.00627799645453191,1
0.0359481780275842,0.010020065323028,1
0.0456528045116743,0.015727699370607,1
0.0348240747433615,0.00935692454985005,1
0.0216107872459826,0.00816039831374129,1
0.0265745334918569,0.0092426302360963,1
0.0483717042280883,0.0134478230666794,1
0.0793407462080599,0.0226831462081015,1
0.0883960531367376,0.0169660830311264,1
0.0851157787443717,0.0159153661682268,1
0.0837443921183823,0.0158539620579457,1
0.0756266803195156,0.0185110597836382,1
0.0473363986734212,0.0135911795968931,1
0.0333155129210802,0.0110152938596134,1
0.029816694492452,0.0100979768788334,1
0.0303968808607343,0.0130529287112209,1
0.0281250340360843,0.0158505683239713,1
0.0236155791776259,0.0134488114642023,1
0.0241618603657369,0.023639180966982,1
0.0216423304925866,0.0155162617541865,1
0.0293755958884608,0.0107762457933799,1
0.0544606549551452,0.016712580899118,1
0.058465577273852,0.0138547231135712,1
0.0577441690231282,0.0167033791631984,1
0.053950625439317,0.0155873055645455,1
0.0469554830602817,0.0137450277906691,1
0.0432834241999016,0.0136541970743982,1
0.0486133690434691,0.0059138384345322,1
0.0675965352058289,0.00629673766905388,1
0.0588926957431785,0.00585592202902224,1
0.0590989716611003,0.00713127851818497,1
0.0534517751804029,0.00624755219506332,1
0.064625458294138,0.0079712770418473,1
0.0724024972935266,0.00797178874460251,1
0.0700720967016071,0.00783623878513058,1
0.0728819068038695,0.00802937558932541,1
0.0797102470384875,0.00836735844633605,1
0.078940097408883,0.0186262470171182,1
0.0324908899997246,0.0167214890105919,1
0.0320100477923562,0.0178242911284285,1
0.0295864573672732,0.0167690947030019,1
0.0256299835578685,0.0185772846656862,1
0.0282607136747521,0.0201359245306629,1
0.0268297621551788,0.0334235809873628,1
0.0127331678198278,0.0228462047829469,1
0.00569077276763665,0.0161098140680044,1
0.00196559362981343,0.00943066710852035,1
0.00277639214955104,0.0111990568473939,1
0.00608538204440782,0.0176593225726367,1
0.00754728683909613,0.0189144933217647,1
0.0123556225057911,0.0235043038927191,1
0.014519703757344,0.0272832197474143,1
0.0119834036115957,0.0210694602569994,1
0.0114014299840905,0.0186004299112788,1
0.0123273049187727,0.0143415055348331,1
0.0107642641211855,0.0110295115925944,1
0.00803455134108112,0.00714029745667384,1
0.00857434151502455,0.00810569377562942,1
0.00899767937298074,0.00804271591373415,1
0.00918859598326546,0.00775740887427013,1
0.00768413979100687,0.00695345658943458,1
0.00565303404824785,0.00491341222998225,1
0.00623734361730184,0.00569486078307666,1
0.00559807576489961,0.00555754066747515,1
0.00504184900742862,0.00642776063117157,1
0.00431212729577912,0.00667659436889122,1
0.00378883408523545,0.00808448434578893,1
0.00253617059288051,0.00629162931180339,1
0.00331111750816533,0.00827823723026087,1
0.00327594770118988,0.0088504293959044,1
0.00326508427844227,0.00787100174103932,1
0.00358209051208545,0.00809850596988188,1
0.00355299370638353,0.00849078679308553,1
0.00336859433557098,0.007863946502837,1
0.00346368879361389,0.0081474167335883,1
0.00301934180721355,0.0072221116988413,1
0.00506658201252189,0.0100740764825766,1
0.00748870985708772,0.00237856491632081,1
0.0161668379098162,0.00399799593320633,1
0.0200978829106466,0.00445183185715055,1
0.0216224235483062,0.00492227412876211,1
0.0256207808024491,0.0046273380091488,1
0.0289331845612728,0.00435004684681744,1
0.0289439989037971,0.00440566151599653,1
0.0294696667057027,0.00433285814409009,1
0.0315990418715532,0.00482034025153269,1
0.0318168054156766,0.00491706956413061,1
0.0300622983545934,0.00706158111106482,1
0.0196205280239882,0.00667343660539984,1
0.0170446378923818,0.00749771158560847,1
0.0159546574661526,0.00671682939708429,1
0.011766307588192,0.00827039312357544,1
0.00779568972445987,0.0079037731978032,1
0.00708864488620142,0.00578074091918107,1
0.00762453640249556,0.007380599957602,1
0.00929681198562009,0.00791313420773826,1
0.00944444193341642,0.00583094821353911,1
0.00951090702939637,0.00701312576825412,1
0.00927559521666912,0.00669441106079904,1
0.00909429401258375,0.00615335897452203,1
0.00986859494303082,0.00724390599969564,1
0.00998691178058184,0.00602533886727144,1
0.00941162965856938,0.00670245430302427,1
0.00911168982499355,0.00772651217326752,1
0.00964762926164464,0.00755564857199454,1
0.00876343713396778,0.00560164411978641,1
0.00780655428173052,0.00623155214752406,1
0.0063436833181973,0.00522905395927604,1
0.00630421985294449,0.00553111953412519,1
0.00645955557156232,0.00532167787852179,1
0.00571377283560045,0.00446136438919673,1
0.00538704975308008,0.00581426335040668,1
0.00495093163485108,0.00352775957767489,1
0.00955233184540688,0.00606997498790799,1
0.00837014908316278,0.0046052417536678,1
0.00781153458708121,0.00535493865051841,1
0.00752295359561651,0.00558987941930405,1
0.00685967376338473,0.00533469893514485,1
0.00789316635980814,0.00574385275212104,1
0.00854323438290555,0.00678445245395141,1
0.0197604956874271,0.00820457211730733,1
0.0372345788477686,0.0136798735607327,1
0.0413998383826414,0.0170515133256035,1
0.0431584927075066,0.0170854585875655,1
0.0390142669138921,0.0181724434148615,1
0.0356398032797704,0.0164945702527325,1
0.0302407316096036,0.0153129082555687,1
0.0198851460595991,0.00859516249512212,1
0.0287255492047891,0.00906608583529262,1
0.0230447867891909,0.00544116644888992,1
0.0290347305512611,0.00724475944686675,1
0.0277352100537823,0.00635774130391992,1
0.0297794859685435,0.00665258042351306,1
0.0274528387445819,0.00650894821089054,1
0.0236762043146686,0.00558111858036627,1
0.0193916373137396,0.00394803479153425,1
0.0198214973563938,0.00299567917341896,1
0.0244615451079382,0.00432879483641697,1
0.0320920517465284,0.00679473815987723,1
0.0397925627391701,0.00906687731619887,1
0.0758784699929912,0.0169049124911043,1
0.0884089460881035,0.0156510068090804,1
0.0894683482630329,0.0108881674763819,1
0.0849488707513708,0.00922648743641353,1
0.0812907885200747,0.00733522615436142,1
0.117764302320116,0.00721420002938796,1
0.160182499800008,0.00966740287494212,1
0.17457344359595,0.0119050531818707,1
0.179177725219712,0.00910819133560775,1
0.178373988409132,0.00801802143568222,1
0.140728825164869,0.00673958544341455,1
0.110235388703488,0.00548487364436425,1
0.118249861859967,0.00633857118576682,1
0.125827933570118,0.00764615769498191,1
0.112956763195255,0.00759045177917707,1
0.11944095625364,0.0111773183987508,1
0.118592958211242,0.0118635549150376,1
0.119907775187848,0.0111454564958717,1
0.0723884427878456,0.0146042600298682,1
0.0245338920221517,0.0141572702250816,1
0.0190285855557719,0.00965749757361239,1
0.0167438943645997,0.00927012763380257,1
0.0165463162272147,0.010594890886989,1
0.0155106004516251,0.00924673972137707,1
0.0225176589586016,0.00781478071627288,1
0.0236843407874478,0.00567707169638923,1
0.020520440711767,0.0055643478498178,1
0.023820103552058,0.00644536698003438,1
0.0230208137840794,0.00601703753468878,1
0.0206382326336318,0.00522341336835792,1
0.0246048350399068,0.0069364733401712,1
0.0269231221467424,0.00379742752156552,1
0.0352326836177247,0.00444071569491659,1
0.0361473047529077,0.0042967122089481,1
0.0339259433557565,0.00577298215008676,1
0.0297376422595517,0.00552510680569796,1
0.0312046958001158,0.00579177829656816,1
0.0348023081900158,0.00639105346852889,1
0.0340795692880786,0.00580909645575214,1
0.0341045498054402,0.00591782505456583,1
0.0353840318458583,0.00610311704346457,1
0.031041676653077,0.00744465506353353,1
0.0185873258905325,0.00528496740084869,1
0.0195808624789868,0.00493296834239665,1
0.022412574339475,0.00571912639682635,1
0.0257305822339734,0.00651880692826455,1
0.0260648570045006,0.00570247934814203,1
0.0248187413036076,0.00524893058967269,1
0.0247946505807685,0.00662283930571449,1
0.0214138674686249,0.00617130428021485,1
0.0208503774681316,0.00588046423505514,1
0.0200136919948026,0.00964723650505184,1
0.0114241431005926,0.0032378149681344,1
0.0164994062359906,0.00565075210351464,1
0.0152752359993079,0.00515299031557466,1
0.0129717744530114,0.00328596344003276,1
0.0153401241605916,0.0052084335000509,1
0.0159969805249394,0.00589016460220773,1
0.020007729345016,0.0074630107765757,1
0.0220770084075232,0.00734687009184908,1
0.0207478037748472,0.00739546121139688,1
0.0138319842193399,0.00499458683689342,1
0.0120946220656773,0.00777641100982388,1
0.0114095959039644,0.00929682746997795,1
0.0080769332018005,0.00679216316637174,1
0.00659435687115406,0.00861300805823605,1
0.00656415750469422,0.00835344615687608,1
0.00735643741618651,0.00704189337358587,1
0.00933030653591187,0.00932275816125746,1
0.0106392991228473,0.0054335698324043,1
0.0147328425699497,0.00655559138296181,1
0.0149186120219615,0.00579863287297286,1
0.0151773264855775,0.00609434253369173,1
0.0153542286772697,0.00687962027558536,1
0.0137703500749744,0.00620826890080414,1
0.0139938803615064,0.00639280073066866,1
0.0138317334120775,0.0062727152232441,1
0.0147910638731966,0.0080847740248562,1
0.0105302953869152,0.00581806482164529,1
0.00921829561552772,0.01355199493267,1
0.00737463196773097,0.0104058938151071,1
0.0111708791349854,0.0105691989155951,1
0.0120878258041889,0.00538961607702829,1
0.016728507148334,0.00768922497235988,1
0.0189354023452326,0.0083011803303859,1
0.0199095400201628,0.00858349922805676,1
0.019049554534134,0.0082191090980857,1
0.0189422078111716,0.00846107114363339,1
0.0191394980807249,0.00838133127474262,1
0.0191128449297115,0.00837636475056967,1
0.0190270670115897,0.00980062543292009,1
0.00738117034953453,0.00640700443710879,1
0.00356564322629987,0.0105484774679968,1
0.00312148052372668,0.00750301170763018,1
0.00315629292330859,0.00770876686785474,1
0.0036461222893422,0.00743899483759017,1
0.00406987423462424,0.00749521361150888,1
0.00387974870678834,0.00617407421490635,1
0.00373909769646641,0.00577942888807778,1
0.00365314173744817,0.00545201111021189,1
0.00382143128350417,0.00533559157570059,1
0.0045869529022769,0.00509698558705557,1
0.0104734560616339,0.0084905368584993,1
0.0109848802291759,0.00705296482473083,1
0.00993543573159736,0.00603163708675908,1
0.00883520748667257,0.00566268368293318,1
0.00886342195097095,0.00575775728475166,1
0.00938541366503628,0.00630357902043034,1
0.00927842450508265,0.00578563624568307,1
0.0101674626577137,0.00557095327844315,1
