Activity,Complexity,Tag
5.62399714463132e-06,0.565847259351005,0
6.0078879884116e-06,0.553789489904744,0
6.14747931744035e-06,0.546763231074293,0
6.03918780657977e-06,0.534968197219517,0
5.59934329793002e-06,0.514691680650308,0
5.44790688766255e-06,0.434985472110377,0
1.31784838053268e-05,0.466162083982649,0
1.33521187818434e-05,0.327991932879999,0
1.36594640541846e-05,0.3321395045539,0
1.39073695951804e-05,0.349037634715829,0
1.28853438616134e-05,0.343417935083867,0
1.257960803095e-05,0.35100443267905,0
1.14185235541159e-05,0.334090679453497,0
1.15038702554935e-05,0.327431110860857,0
1.24967356388933e-05,0.311120618191096,0
1.32240995643766e-05,0.33337637452816,0
6.22579145782335e-06,0.287525154483252,0
1.0091179512196e-05,0.383439932905168,0
1.10353007237763e-05,0.31676520136875,0
9.83337951591536e-06,0.30004154086555,0
1.1194309177117e-05,0.283482533164776,0
2.0965920317799e-05,0.375129239771774,0
3.43720292300858e-05,0.443271234686384,0
5.25065865423057e-05,0.570965845078325,0
4.66758606591821e-05,0.405300122166418,0
4.94048880785e-05,0.394337123871649,0
4.84101536373376e-05,0.406443990409778,0
5.38755505034242e-05,0.504010594490555,0
5.70697064563564e-05,0.586959163390978,0
5.46936724508901e-05,0.538965287005892,0
5.4396719722816e-05,0.573533701827461,0
5.65465643550241e-05,0.587655333187023,0
5.09882835751059e-05,0.647679662361739,0
3.20268149811546e-05,0.497808032300254,0
5.15959132967294e-05,0.55936448878824,0
6.1800661548071e-05,0.439225847021693,0
5.51194365982774e-05,0.390460002129744,0
4.95963348550083e-05,0.361165444022989,0
4.29308858388234e-05,0.231175609582682,0
4.35408673505609e-05,0.18670659596848,0
4.76541448103389e-05,0.196603822260526,0
4.95957928104523e-05,0.182951306471302,0
5.73658767752183e-05,0.182867279071961,0
5.9429745640585e-05,0.180478197843895,0
4.84504079291926e-05,0.188580524295833,0
4.92808695972015e-05,0.205880567483927,0
5.8543371481282e-05,0.209100061496511,1
7.16808970378947e-05,0.174732805721159,1
7.10282945326771e-05,0.174318731024048,1
7.60979412299133e-05,0.210309195891591,1
8.31318915201987e-05,0.217437239761572,1
8.1430653689882e-05,0.233960961747174,1
7.79501424195002e-05,0.234295349349718,1
7.64621159402003e-05,0.229585861715564,1
7.53513215360215e-05,0.218939927157517,1
7.93196822542745e-05,0.114453623253776,1
0.000279061278357263,0.162759943045571,1
0.000400710721152128,0.22178361575091,1
0.000458500840655484,0.265905753349997,1
0.000567853859592585,0.266674788413971,1
0.000631064096045816,0.282086958888978,1
0.000857286821791871,0.240637342274723,1
0.00133520601284161,0.283589491470558,1
0.00153501271215688,0.291084913223365,1
0.00350894284125399,0.109875412599014,1
0.00513431487619505,0.072821988405252,1
0.00488181799602947,0.0545485330303043,1
0.00445928189567775,0.0482642400177838,1
0.003805388413702,0.0420812492138666,1
0.00362818023529444,0.0366580851148425,1
0.00366497006289054,0.0323089021741633,1
0.00354426660502358,0.0293839534527387,1
0.0037229148350168,0.0278518873563442,1
0.0039247534793214,0.0292016525587542,1
0.00290742565382172,0.0404093854137021,1
0.0010336922813978,0.023924754496343,1
0.00100566526338226,0.0205971283631455,1
0.00156001453655159,0.0232178618574394,1
0.00158391083364394,0.0205092189036521,1
0.00191039624063265,0.0288844633539958,1
0.00191820737854687,0.0348288865499484,1
0.00249986471300523,0.0471837419422733,1
0.00261525202276416,0.0534119419505707,1
0.00282600178230994,0.0451920330318223,1
0.00229878284535917,0.0375781095446088,1
0.00147874587272703,0.0271279777183949,1
0.000934728755320711,0.0215326142371899,1
0.000895594031291166,0.0232075307716192,1
0.000618492812755409,0.0120961321773388,1
0.00140156294135159,0.019573739708172,1
0.00240267514541602,0.0311188513699555,1
0.00286213944762425,0.0379001862557728,1
0.00331348631746232,0.0467648795599419,1
0.00311180046562525,0.0527186192068834,1
0.00345023356474549,0.0589101580976775,1
0.00340578196294539,0.0484383521632514,1
0.00250464240477876,0.0411721223200945,1
0.00217350707618949,0.0476640050749892,1
0.000629165487340453,0.0293831232414558,1
0.000510965612983827,0.054280924561312,1
0.000516491151757639,0.0399296170685602,1
0.00275433995030665,0.0353182665754193,1
0.00473587077594707,0.0388796909987655,1
0.00631938313929546,0.0436251806286092,1
0.00648687337142154,0.0375529158041498,1
0.00837061838168529,0.0400523985731643,1
0.00911378986653445,0.0427113440561898,1
0.00802573971880262,0.0393505783151867,1
0.00597448345685744,0.030523694757472,1
0.00385098058541192,0.0194386013277355,1
0.00161059398655351,0.00553698957157178,1
0.00129591305052714,0.00729208810950898,1
0.00163731574825856,0.0124237811775096,1
0.00180643667786512,0.0147574953234642,1
0.0097700223330859,0.0157038163780716,1
0.0298854913472316,0.0420696910591968,1
0.04272182386737,0.060086225688185,1
0.0462376943338312,0.0565030723076064,1
0.056021086984308,0.048373999773562,1
0.086979715362639,0.0573699437422378,1
0.0831569856277068,0.0350103849191821,1
0.0682955394047333,0.0300504518381442,1
0.0601443392990115,0.0190978841865613,1
0.043814130582947,0.0124147442106299,1
0.0345672634146786,0.00993046635822498,1
0.0447506665135931,0.0115436993743273,1
0.0477977472548379,0.00877140096905479,1
0.0467796255783232,0.00821852247535606,1
0.0466949274561249,0.00996694016868074,1
0.0334377320319232,0.00586296855373809,1
0.0323701971379157,0.00867055412585737,1
0.0356555648628797,0.00801141177413868,1
0.0463353403812776,0.0228000596016911,1
0.0472124683446564,0.0228472427426341,1
0.0515769663863327,0.0275355930754554,1
0.0707120848272494,0.0405401232052209,1
0.0819448300933883,0.0740930654768291,1
0.0642730719141913,0.0605570302048689,1
0.053679521019508,0.0664655231657453,1
0.031806668993182,0.0558303021534314,1
0.0172596117284988,0.026453121560862,1
0.00858677115345366,0.0203960844513309,1
0.00739370658541172,0.0167144014043296,1
0.00638389704865701,0.0117883883032552,1
0.00622095524359897,0.0161675720932078,1
0.00623496516021228,0.0131826272209089,1
0.00857647957113335,0.0115139346277986,1
0.008853545976966,0.00921234114785494,1
0.0123285156401967,0.0110057956996906,1
0.0116952984927648,0.00788252391680559,1
0.0110216481670901,0.00665141196531906,1
0.0116185855491838,0.00486115375782898,1
0.0107937461094138,0.0031695061005226,1
0.0111620545055666,0.00353669626759342,1
0.0116427983507773,0.00226841572197833,1
0.0142107591036918,0.00565246510113787,1
0.0133567450376518,0.00629346293957386,1
0.0126872867188771,0.00833251532136794,1
0.0115438287137626,0.0120824942642154,1
0.00967632388129962,0.0126163292607626,1
0.00964087181710817,0.0151041662733056,1
0.00785653426663387,0.0209987579797359,1
0.00593176733505854,0.0185736256724935,1
0.00522146495847491,0.024439898744899,1
0.00437302209036701,0.0606640448672534,1
0.00426014408568748,0.0565578101421801,1
0.00453096019188104,0.0584583163200283,1
0.00466884845575168,0.0537769374206331,1
0.00399436725322356,0.0425328350172452,1
0.00392222948740511,0.0327097646659655,1
0.00341494082537623,0.0219880783104501,1
0.00282522292782388,0.0167133463322487,1
0.00248318753935087,0.0165827086544254,1
0.00252426225141776,0.0103152406286738,1
0.00376934926985424,0.0110619381116107,1
0.008258255108681,0.00732552595929403,1
0.0181722449280694,0.0191120832736175,1
0.025761354086758,0.0289552436469446,1
0.0319680032843758,0.0361025816557939,1
0.0393353953010556,0.0446064956615579,1
0.0396370275061242,0.050004779087947,1
0.0466138567621952,0.0337926881175172,1
0.0760742000318989,0.0314233308905276,1
0.0703050457232206,0.0245935451656771,1
0.0940828502125561,0.0271443758963815,1
0.0942021331121884,0.0172027715670754,1
0.0892832841840063,0.0145150745198508,1
0.0908104276697899,0.0138079237653492,1
0.083809658263319,0.0119633623741059,1
0.0821430050175882,0.0116181217307997,1
0.0786040148385214,0.0112278706179754,1
0.0887326787203339,0.0161647572103353,1
0.087985805507051,0.0181661284252899,1
0.0976893039773717,0.0248440892721279,1
0.0566484044456819,0.0216651557905758,1
0.0281228394953813,0.0209913556427612,1
0.0396952991514819,0.0279466611290535,1
0.062962786866295,0.0500880482875103,1
0.0561904254043128,0.0571386833704871,1
0.049238418320754,0.053479783809334,1
0.0378186995204457,0.042201885732953,1
0.031026120488799,0.0334968657771136,1
0.0217486841159959,0.0270215331196421,1
0.0133212724427578,0.0260143646770634,1
0.0109085089987557,0.0210461227381532,1
0.00630907548770764,0.0119738367038224,1
0.00551279175324481,0.0316172497705737,1
0.0031675083901274,0.0191793442109829,1
0.00208885417548539,0.012360970662655,1
0.00446543139172142,0.0195293967847642,1
0.00410000268121761,0.0182690388927436,1
0.00436332956231409,0.0232261611433899,1
0.00799923442104976,0.0170235006342871,1
0.0134592724893246,0.0133209803034371,1
0.0142240154209112,0.0107082012479662,1
0.0183714517996104,0.0101645213648429,1
0.0190056520806617,0.00606064126005644,1
0.0192647803965754,0.00603591502784754,1
0.0172345276558811,0.00451436355501253,1
0.0175452076660069,0.00441261835242757,1
0.0205011461618097,0.00593524103397235,1
0.0206197808754148,0.00516418982602146,1
0.0190666568056975,0.00697174735615592,1
0.0146764213606824,0.00660116999589241,1
0.0150467673775463,0.00862234662502917,1
0.00680710807827468,0.00313990881812059,1
0.00524200483188301,0.0126136131802666,1
0.00520227821333699,0.0131383496367484,1
0.0043595347736992,0.0153845500105431,1
0.00303898349694629,0.0200135469810343,1
0.00488035544330742,0.0159381993994608,1
0.00670004936780198,0.0135983443869061,1
0.0070028150970914,0.0165411729149813,1
0.00612551973152515,0.0142831364677446,1
0.00595002309068471,0.0148015333466297,1
0.00728050764817996,0.0157476749794627,1
0.0112505158070922,0.0247917682237821,1
0.0139590858670727,0.0248212288871155,1
0.0127438661553244,0.0224799599115023,1
0.0111787982624563,0.0196577865501429,1
0.0122679177846432,0.0341219573573793,1
0.0120847658478714,0.0372050382985902,1
0.00921313165046509,0.0354626396107012,1
0.00971821118470128,0.00776178724925771,1
0.0369577629209233,0.0261218629407005,1
0.0577498980542147,0.0256535245294216,1
0.0588039520150165,0.0239444004599881,1
0.10445746788604,0.0224677056838049,1
0.125497398400871,0.0209491100401497,1
0.151931077120211,0.0218140034070749,1
0.190338504476523,0.02615665911414,1
0.222109997337129,0.0266957919061861,1
0.163014803040334,0.0150172971163065,1
0.148123663674563,0.0139786846881397,1
0.149939794966979,0.0142918270299361,1
0.157805301727527,0.0159149911909259,1
0.144976880633561,0.0139151287800323,1
0.177240506762227,0.0248547245993895,1
0.18092497685554,0.0251504114450496,1
0.190611596652956,0.029770493582839,1
0.18020469093151,0.0308955929030355,1
0.0950784518952963,0.0202667929660993,1
0.0782920419322811,0.0205852848417369,1
0.0842458780711712,0.0277467282196819,1
0.0733539307270386,0.0282426647892354,1
0.0600073163900786,0.0236052511836628,1
0.0402318649948109,0.0187198506272197,1
0.0376301896519539,0.0159325632690613,1
0.0130077263806665,0.00471109900808607,1
0.00379671135599304,0.0137658211400671,1
0.00648969614183577,0.0147383599396478,1
0.0122974304142522,0.029236255887908,1
0.0118696002363868,0.029487653664536,1
0.0115958089727042,0.0314627245643278,1
0.00927794934658926,0.028055410850934,1
0.00904422560652742,0.0267844867561248,1
0.00828410717196989,0.0302847318737776,1
0.00699242237700203,0.0233142014937232,1
0.00680890842512959,0.0185009829281121,1
0.00726270924540206,0.0195383212081088,1
0.0069237942663347,0.0254584214632601,1
0.00553293588761205,0.0220573344919918,1
0.00569786220024787,0.0224704572469297,1
0.00528172268935986,0.0192314308432939,1
0.00588537929950217,0.0192422789701395,1
0.00573716905063187,0.0191274961061738,1
0.00582932012211561,0.0185009722749346,1
0.00690410560618789,0.0273341349366922,1
0.00994904129317901,0.051158561853141,1
0.00893209055965301,0.0471389006341741,1
0.00883069763995212,0.0509388634118102,1
0.00759584072679158,0.0528675201346613,1
0.00473163252299857,0.0269573696031231,1
0.00911544537543403,0.0340807159997775,1
0.0110620041306352,0.0316895228441308,1
0.0104588819415945,0.0342977676646396,1
0.0114008736950264,0.0365933710603913,1
0.0115423987326771,0.0345696900865842,1
0.00992354690140108,0.0310122351552204,1
0.00828820667842663,0.0264801047766921,1
0.00681510747579684,0.0218192839161112,1
0.00434695554713586,0.0132573235818006,1
0.00375007170582421,0.014879480844558,1
0.00271201768335678,0.0198023323626698,1
0.00560258960956369,0.0312804602347354,1
0.0106261272651707,0.0452387065146122,1
0.0112541616209202,0.0455934436755829,1
0.0111604631584511,0.0521910636046617,1
0.0113725926814529,0.0485481786764784,1
0.0113397566660591,0.0381232937907427,1
0.00967364645894793,0.0280091785356476,1
0.017885203060613,0.0181391315574816,1
0.0909539768267799,0.038758249410187,1
0.201200931226408,0.0664161999768356,1
0.303291481446123,0.06543371489346,1
0.307400464788645,0.0428305720521494,1
0.283826576757413,0.0319218735381264,1
0.267051256495764,0.0230235431062714,1
0.251692165578032,0.0224202124148664,1
0.221257505406648,0.0117710970366857,1
0.212250210835276,0.0117488908212285,1
0.203285559281017,0.0133454868129845,1
0.227623219752952,0.0193631017654905,1
0.213137193452779,0.0202092908406975,1
0.131053301256694,0.0115267048533964,1
0.121292381280982,0.0122825797204811,1
0.148147833580301,0.0175334849399158,1
0.164609771894837,0.0332798197694913,1
0.10212484588743,0.0263370920470519,1
0.0676329191051136,0.0436116681509507,1
0.0614461762264074,0.0829530926517511,1
0.0277599075816473,0.0583662699395278,1
0.0194134542997427,0.0567268906899373,1
0.0155321257732518,0.0494508635898498,1
0.00476399831479571,0.0163505930687741,1
0.00788175486526347,0.0254066310575577,1
0.0166605269143218,0.0467658113096661,1
0.0188742377808617,0.0456450869338273,1
0.025298913182536,0.0268430939482231,1
0.0376537400861167,0.0308387500982335,1
0.0370996994517376,0.029966310590366,1
0.035188422037057,0.0268351593867238,1
0.0344787790286872,0.0253157258775255,1
0.0251700746047986,0.0143080976508173,1
0.0157068277142338,0.00794582294256897,1
0.0176722917709292,0.00422583861960983,1
0.0465554119376636,0.015267337089886,1
0.0438151256196244,0.00587311412925865,1
0.0503026142261946,0.0106458390750995,1
0.0533611292724911,0.0106287208913431,1
0.0548909567720706,0.010502846181004,1
0.0606703645387866,0.0131788325321177,1
0.0622868190958337,0.0137635107490959,1
0.0636399063835114,0.0149381322698647,1
0.0725310328651623,0.0167886474568697,1
0.0675317797230536,0.0234685921671073,1
0.0168265189652295,0.00448180449651445,1
0.00753789972750018,0.00979615248003803,1
0.00746285682019155,0.0101172902121661,1
0.00626772596105392,0.0133796902659028,1
0.00389070165320357,0.00774585045827095,1
0.0039718169555863,0.006169270425671,1
0.00401369026097385,0.00802114510888152,1
0.00304677577825323,0.00580077390479882,1
0.00573258686312378,0.012150276064753,1
0.00658311267470171,0.0160232081385891,1
0.00764258477901504,0.0222151230389644,1
0.00720075645706302,0.0214695092422639,1
0.00872832312363029,0.0212646190790001,1
0.00921204323401041,0.0150880043593977,1
0.00948008919440411,0.0168723705075938,1
0.0085565537667715,0.0182375727790634,1
0.0198609705245683,0.00734872611913281,1
0.0487888181389207,0.0178262274954077,1
0.0506667759015954,0.0179025542012874,1
0.0508913020622669,0.017567401942125,1
0.0651716028498266,0.0209071702872206,1
0.0807802620409683,0.0249938545599002,1
0.139348167225794,0.0302716753538886,1
0.302134862733171,0.0566743351471873,1
0.377064963368903,0.0430813548723657,1
0.426489882428328,0.02869057354926,1
0.613471633505842,0.0213123950136479,1
0.616069983602203,0.0163138630499336,1
0.554765094550474,0.0116754709104625,1
0.467523477392286,0.00451664146826618,1
0.552787081623936,0.0067383761486771,1
0.663187246007513,0.00925688141675109,1
0.859945931908471,0.0140232878145692,1
0.96559117892281,0.0169856062273648,1
1,0.0167795043281036,1
0.915254264732492,0.0212310518083933,1
0.481817373769774,0.0136888998948665,1
0.469022092304034,0.0150758992309483,1
0.226355746293242,0.0130079428638234,1
0.0236570572349138,0.0355308605754493,1
0.0127177665854331,0.0220453116790003,1
0.00687914291004338,0.0172030741162043,1
0.00676727072918422,0.0211278247008819,1
0.00690570381526923,0.0211677702090407,1
0.00655168328318052,0.0179362771589443,1
0.0105253941687074,0.0192525114997313,1
0.013714692850136,0.0171698481992427,1
0.0120610086471349,0.0148549939351072,1
0.0120419720281973,0.0141107651888119,1
0.0116196217861439,0.00713849979288404,1
0.0429541045571859,0.0225804061990891,1
0.0583488728264474,0.0137634226575424,1
0.0540623669064327,0.0105913110437218,1
0.0656000371312864,0.0116293019565895,1
0.0596622973079442,0.00564272902545517,1
0.063742383473336,0.00700576067726811,1
0.0636158434068835,0.00717378895211204,1
0.0592898863975493,0.005743355944697,1
0.0570758877158105,0.00520396900108723,1
0.056195355258932,0.00620862595562133,1
0.0413365463159659,0.00488491797565424,1
0.0329055947158738,0.00623312986637062,1
0.0318028871936061,0.00921447422586784,1
0.0120050201731233,0.00155741055934899,1
0.00975029725624702,0.00867960872613657,1
0.0124464914831205,0.0133792463476592,1
0.010383454433031,0.0175550926965953,1
0.00917424069414349,0.0225180416694794,1
0.00839907856919395,0.0281233265144958,1
0.00806346267037088,0.0381793341515078,1
0.0057945707078005,0.0356028864683135,1
0.00565754227048055,0.0358914544993268,1
0.00449608055745393,0.0283783218099333,1
0.00506763492518442,0.0183789893919576,1
0.00869256504307146,0.0331205884495214,1
0.00785660521081857,0.0297076157678383,1
0.0076335727788328,0.0291802345844962,1
0.0113322550800983,0.0350030023151774,1
0.0138162045086417,0.0473886366627141,1
0.0109676457157325,0.0364588485505739,1
0.0177437103149524,0.0440553758937134,1
0.0231447519550821,0.0388492907964849,1
0.0258311383659998,0.019057994926023,1
0.0645701989493727,0.0397876515817869,1
0.0759405497363227,0.0305786496475556,1
0.0684678401109224,0.0317366702425666,1
0.0611578864213764,0.0276879774324345,1
0.0671769235863835,0.0271895207054853,1
0.05888655194806,0.0186132414597653,1
0.0650602008343647,0.0159024449112393,1
0.0814097244929437,0.0191052168831663,1
0.0691204769704811,0.0161525629541215,1
0.0757840632557239,0.0163441781955361,1
0.0895752792210084,0.0103856287348079,1
0.12218998313066,0.0161071667992687,1
0.123221562469409,0.0140199424799422,1
0.182197820524819,0.0178910880232721,1
0.246630248547443,0.0240036099732793,1
0.308372902421516,0.030690105824548,1
0.316644805093196,0.0378590444354171,1
0.28801928550209,0.0332493216269609,1
0.265443271171023,0.0315925034998379,1
0.113407052522334,0.0154819777623079,1
0.072186374851025,0.0228444141507345,1
0.0661860614304058,0.0226089104397852,1
0.0123296095686803,0.000266192116762736,1
0.00465034951207474,0.0208933839659199,1
0.00448163162013731,0.0198022907816876,1
0.00573762013018517,0.0278619120033851,1
0.00621962497612192,0.0381630752262204,1
0.00663903295559114,0.0460873253806502,1
0.00681665593128609,0.0411600046291444,1
0.0114131354550736,0.0436087097256733,1
0.0148693329060526,0.038527440232089,1
0.0106081848091836,0.0236115203703567,1
0.00779553436658468,0.0185007849930234,1
0.00802203927910188,0.022552549117778,1
0.00680961049646155,0.0182009910798529,1
0.00662606799138225,0.0146597465691741,1
0.00637105683403857,0.010538079709403,1
0.0117519935985826,0.022368902286886,1
0.011899170433331,0.00920599601874133,1
0.0135356950853093,0.00416799866580049,1
0.0210557419342755,0.0095647316451803,1
0.0215481555563268,0.00580449366332438,1
0.0261364493476819,0.00884655450251505,1
0.0284275341544873,0.00875017862209288,1
0.029135301729867,0.00794567154267959,1
0.0372656845426419,0.0115769802433721,1
0.0426406637573432,0.015301953540747,1
0.0349779891019421,0.010344017615322,1
0.0331549260805368,0.0140047793544211,1
0.0299392978319556,0.0253321219331379,1
0.00882134727232281,0.00637666349366798,1
0.0117281597754916,0.0283001407522156,1
0.0142427886359063,0.0288908109111571,1
0.0172866962120433,0.0304120929948258,1
0.0252848303597614,0.0551731099790477,1
0.0218569902117609,0.0428793120708903,1
0.0168813353313741,0.0349970090912616,1
0.0136173804626617,0.0275836628722027,1
0.0124124263474775,0.0206992627424252,1
0.00904179976451397,0.0129403988673816,1
0.00881013956159202,0.0119943966097544,1
0.00860240272037759,0.0134696208981501,1
0.00990174050666942,0.0128820921600752,1
0.0111155823809946,0.00963029361648914,1
0.0149537132886539,0.0118888592086494,1
0.0249779034172892,0.0244157072929526,1
0.0283066685751108,0.0213337396471942,1
0.0280586618290216,0.0225677468665331,1
0.0288832083338256,0.0279673523537701,1
0.0379770607181707,0.032993796954551,1
0.0462619456302694,0.0324168335790752,1
0.0784607065891225,0.0124100741762645,1
0.272947675585022,0.0363715832934731,1
0.376359071550227,0.0214732612659894,1
0.363499043299386,0.0191188113148216,1
0.447499530988299,0.019121746810332,1
0.422395649429718,0.0134170101538017,1
0.366838817909272,0.010496371909172,1
0.391545086500513,0.0111029237348607,1
0.46758636513671,0.0141732598934614,1
0.539525325324782,0.0162302303997994,1
0.610950407360935,0.0242252467606589,1
0.537426727437148,0.0261769214503524,1
0.398837176778545,0.025202149938474,1
0.40730707627245,0.0316299393479754,1
0.149903714277993,0.0191701910072851,1
0.0655553569329055,0.0259554279703205,1
0.0179725041091455,0.0109333832129605,1
0.013635268252604,0.0110406442773995,1
0.0135349294299587,0.0103608581225539,1
0.0134930083538761,0.0100851424397211,1
0.0130574632162302,0.00930069435785374,1
0.0130926910558069,0.00945564532725954,1
0.0134505836243696,0.0100625213245912,1
0.0129410647600204,0.00959211709402173,1
0.0154221707760557,0.0176522547222294,1
0.0180573249245924,0.0243850049780459,1
0.0167045801588868,0.0222670792110699,1
0.0166636510571692,0.0194585525076296,1
0.0274154329627382,0.023683910948044,1
0.0265538248550288,0.0130810478553745,1
0.0225536796721301,0.0104155624109073,1
0.0245522326363254,0.0118170458906639,1
0.0336835824052542,0.0154825755045037,1
0.038371980918991,0.0125942284896767,1
0.0366393903817132,0.0144396353646855,1
0.0384189382550087,0.0158708852723355,1
0.0285569014142862,0.00971153258128198,1
0.0267151426143644,0.00640410187219159,1
0.0436311519103669,0.0180507452329345,1
0.0470056463732764,0.0183508087009671,1
0.0471303600519229,0.0183039357941384,1
0.0507884869239235,0.0200462252187662,1
0.0473131347132204,0.0229106137500028,1
0.0385585461572918,0.0206274822085025,1
0.0367439419743136,0.0193691098064979,1
0.0260959053621115,0.017917032537503,1
0.0134283684418008,0.00925479043757184,1
0.0123370655013807,0.0156751209156103,1
0.0105415186939409,0.0100161728082595,1
0.0101136763372657,0.0188900216554712,1
0.00806363118413357,0.0191338871650869,1
0.00833503525911011,0.019606386687378,1
0.00723570940771789,0.0189634328267661,1
0.00524203108048244,0.015324242853202,1
0.00528798800778389,0.0155785610236458,1
0.0058914869258032,0.0147436105534981,1
0.0173808236791315,0.0313077590016794,1
0.0204798837464581,0.0229802941187469,1
0.0200743582907795,0.0259028611379457,1
0.0253851452395276,0.0288066556327668,1
0.0232286040271855,0.0170307771623851,1
0.0204927415557694,0.0105979701133473,1
0.0199243630454534,0.010108034361845,1
0.0185943028532055,0.00617778176398465,1
0.0308458775899842,0.0106241078538228,1
0.0280274167760487,0.00726518303609269,1
0.0374835114106197,0.00923068960759503,1
0.0768033027222558,0.0235943087178656,1
0.122253539902174,0.0385890648003898,1
0.269582679625144,0.054494307801984,1
0.41584082665663,0.0620729019312654,1
0.377616483420093,0.0464681986405297,1
0.384884063159058,0.0414839662335559,1
0.318518132896109,0.0350523232386535,1
0.296764864301908,0.0220899729306837,1
0.266663494556938,0.0193650577518177,1
0.300926998662193,0.0223723494839846,1
0.45030958048824,0.0326556731873958,1
0.56129539498259,0.0373739143923064,1
0.562010893958359,0.0450127894525647,1
0.450369183107925,0.0403796902247308,1
0.455351299868049,0.0467505842062846,1
0.323699349642397,0.0397311563440389,1
0.214144437082584,0.0321881491926515,1
0.0408549162048713,0.0192366142934616,1
0.0230475061228006,0.0133049367961261,1
0.0123634116915298,0.00737370995666152,1
0.0135519074538095,0.0129807658082286,1
0.0142013637722925,0.0097509304398419,1
0.0256130144732958,0.00966321741463607,1
0.0312302352744512,0.00627424203284893,1
0.0316200829063631,0.00625208805287457,1
0.0426650559760185,0.00703695187914734,1
0.0545060856148383,0.0114593698766569,1
0.0526890027020553,0.00921902429686909,1
0.0516964186663759,0.00881829197576315,1
0.0474568213633563,0.00743863905914047,1
0.0394670961963151,0.00553919357865412,1
0.0292503047063331,0.00449772059586181,1
0.0262094567246731,0.00717504093243168,1
0.0250757152765102,0.0155182599296934,1
0.0163442927376577,0.0116099058466309,1
0.0137496218438904,0.0284287053140763,1
0.0108169544172046,0.0134513199164513,1
0.0204230411614558,0.0337573520362386,1
0.0174290529917489,0.0179985029964061,1
0.0185799110633649,0.0179303565016629,1
0.016789366230179,0.0144842708841756,1
0.0222611578863328,0.0160626053501928,1
0.0241040560195106,0.0178288357686298,1
0.0247362799916444,0.0187060729240989,1
0.0312665806458756,0.0220619636363344,1
0.0423576778032086,0.0284211773950154,1
0.0453440342766759,0.039994857432878,1
0.0258220383087821,0.0261043569906075,1
0.0200989927293702,0.030702523921957,1
0.0202535835980322,0.0349876469476106,1
0.0106063644734481,0.0350330559573582,1
0.00893948339451682,0.0693124794468728,1
0.00567417032405947,0.0666097572233655,1
0.00170111412175003,0.0308273235920065,1
0.00197092095132943,0.028465499390863,1
0.0050054965082289,0.064713259739242,1
0.0070113176521742,0.0741465111261017,1
0.00817955517197366,0.0741632691446135,1
0.0112238394573926,0.0904174860825926,1
0.0136134251322672,0.0984802128175071,1
0.0140465417061038,0.0898884232061172,1
0.0260934138588169,0.0642448469589638,1
0.0421263816415722,0.0898225586449762,1
0.0379408693117705,0.046994528592789,1
0.0310228811124646,0.0413926618095223,1
0.0411849074061538,0.0119493164415401,1
0.0694210572702637,0.020097962427553,1
0.0636114959759682,0.0185755274791746,1
0.0581576700150577,0.0161817001705429,1
0.0571799383439552,0.0120565512329524,1
0.0604466773100779,0.00926272003213506,1
0.0701158788213904,0.00277795515325222,1
0.180992696196738,0.0125275374196062,1
0.246796055321157,0.0167965207311957,1
0.257415444344656,0.0194786930205855,1
0.25493196282019,0.0178163350217118,1
0.33526022585964,0.0137611792919841,1
0.377297833545694,0.00933254132133086,1
0.368014831682507,0.0084326263820283,1
0.416023140869828,0.0105104191261628,1
0.41571035438698,0.0107814082675504,1
0.518517835730503,0.0178872273292078,1
0.544638781729224,0.0210814702684684,1
0.533444529388556,0.0208294617764474,1
0.487182496682184,0.0196105901306342,1
0.472531807855341,0.0190583417563009,1
0.282337777506188,0.0249904398137815,1
0.0489660436506246,0.0288248141696582,1
0.0172361135240179,0.0201648035801164,1
0.0096499109533473,0.00941989828536607,1
0.00689723387744774,0.00882951398284122,1
0.00664150100886536,0.00984993849614292,1
0.00598334700983098,0.0120372417053635,1
0.00502825584110384,0.00898874508658077,1
0.00497656977058549,0.0098994986815344,1
0.00522256721236675,0.00747459031578333,1
0.00579035514316123,0.00774471356693163,1
0.00506566674203905,0.00865844294842684,1
0.00566191953788291,0.00585404531272969,1
0.019956797327824,0.0208775070664359,1
0.0220549205520146,0.0184367571234655,1
0.0386944548624259,0.0238602076413366,1
0.0483101888113033,0.0179739380169922,1
0.0454287347461019,0.0180587912010055,1
0.0379574065676005,0.0120927949912367,1
0.0323940861402746,0.00872652506362893,1
0.033872533795911,0.00945804656882505,1
0.0248935412672373,0.00507594589140419,1
0.020501835460876,0.00189836899287308,1
0.0237230320990176,0.00220090998892546,1
0.0260412747516651,0.00317703127268761,1
0.0213142578621376,0.00304017972880577,1
0.0178360349767894,0.00314826057357418,1
0.0240864145451415,0.00683803035217593,1
0.0322814504138211,0.0124540447790691,1
0.0371471729500454,0.0195096982984534,1
0.032341655624361,0.0173153830510621,1
0.0330806891919249,0.0184294268478148,1
0.0316783075418468,0.0300296993652649,1
0.0143584549742006,0.0278993602791946,1
0.0139727132750503,0.0373806690923137,1
0.00715446690246729,0.0207474697315497,1
0.00342314515513363,0.0139803294367429,1
0.00368368122151798,0.0191418077067263,1
0.00318041789286257,0.0168073098071681,1
0.00552135292035881,0.0208150424619326,1
0.00609276765592053,0.0167690031517701,1
0.00596915368697275,0.0181980999752519,1
0.00531408851242667,0.0152117361110602,1
0.00609645240437169,0.0190744157912022,1
0.00740685122042072,0.0239833945093381,1
0.012597313282631,0.0379160034242971,1
0.0268598265899834,0.0525878174794786,1
0.0461760963892687,0.0484744189682626,1
0.0434729002993399,0.0299532015173763,1
0.0450695819470928,0.033231750681733,1
0.0432303263117123,0.031957756671401,1
0.0413989817330548,0.0266775348962447,1
0.0579963601637193,0.0282213080375499,1
0.0872778571399485,0.0396837384422816,1
0.0962360069718017,0.0369132328552109,1
0.0991488338102957,0.0305794296353156,1
0.174344315566826,0.0232443014769618,1
0.371048205675963,0.0449797882444937,1
0.366390117360713,0.0239836747080322,1
0.312012121965948,0.0158562468892956,1
0.355647719076445,0.019080911327179,1
0.366360363517827,0.0110855952432356,1
0.380152202052276,0.00849052455812396,1
0.44341842419407,0.0108209478597705,1
0.480982524814718,0.0125950038338179,1
0.55476531909602,0.015105792388789,1
0.640398348782842,0.0222513542536651,1
0.597524922554887,0.0212949330435922,1
0.642080106207955,0.0274070076434075,1
0.668840162402318,0.0410493439856768,1
0.421793061926514,0.0346475024807172,1
0.071630877079028,0.0094799131779231,1
0.0396430036630847,0.032204206324912,1
0.0350703536305942,0.0271956325794488,1
0.0189668902359927,0.0141356016575332,1
0.0154186016369951,0.0158911208513754,1
0.0128432052087793,0.0137846631824193,1
0.0091432824764383,0.00750554238118581,1
0.0141844086524114,0.0138209838135389,1
0.0205160202914061,0.0204951165972742,1
0.0212148455070326,0.0149441967806907,1
0.0206004829338034,0.0195201871602149,1
0.0210056168075256,0.0237218224094661,1
0.0198793738948067,0.0195370840945929,1
0.0581067963727378,0.00692329434060245,1
0.0976273902749964,0.00896589035214315,1
0.104954740244372,0.00937011451341025,1
0.128637959373952,0.0110972384815426,1
0.127074968185422,0.00975277875687919,1
0.160339599430691,0.0108015497793338,1
0.152279553935837,0.0086886269757389,1
0.131837089875531,0.00688295738115984,1
0.121903084334034,0.00557786344696784,1
0.0873488182388723,0.00110895532485793,1
0.0812254257572565,0.00190048357902811,1
0.0888094718958566,0.00403756305262026,1
0.0846174168188558,0.00491813604039158,1
0.0738974104503886,0.00358374836281204,1
0.0900921557755703,0.00705969271410982,1
0.0750550595670064,0.00547677942891142,1
0.0727917521783274,0.00602589382651051,1
0.0874038565426064,0.00714692188057578,1
0.090783447176898,0.00706648586093409,1
0.0878658942505854,0.00674276218654252,1
0.100972563956015,0.0164472388258128,1
0.0643288243271868,0.0103490108629336,1
0.067275531438647,0.00838183384077669,1
0.0506575449683818,0.00506937128779312,1
0.0645687700500394,0.00875766578950411,1
0.080531124861681,0.0179879023856147,1
0.0584545218362686,0.0149451051819392,1
0.0622889332810338,0.0199868278754886,1
0.0454452730461828,0.0262264580374688,1
0.0241621827928613,0.0234135788650768,1
0.0228197525748723,0.0212407087767237,1
0.0209400553489311,0.018777674180901,1
0.0191934605213534,0.0256351906136699,1
0.00570533193199387,0.0092700191374988,1
0.00524862490617248,0.0235427583250919,1
0.00470822428867773,0.0192211119843064,1
0.00459039195246738,0.0193815735553972,1
0.00540095870007946,0.0225034009148099,1
0.00637752926055439,0.025151155962836,1
0.00711189394998112,0.0446596075849944,1
0.00406392430907898,0.0426581705432557,1
0.00376267411989857,0.0569099404557678,1
0.00399117113106548,0.0764824407479307,1
0.0025083613516678,0.167037376795981,1
0.00107645863351202,0.120283263637001,1
0.000385359712306233,0.139062863414243,1
0.00025698383642092,0.109976655900438,1
0.000246861172699706,0.143007933616157,1
0.000253125104019368,0.155004598573709,1
0.000260820962154188,0.1586849827432,1
0.000282300788227561,0.16758928933453,1
0.000318964138946077,0.179488691355135,1
0.000368238092717972,0.204143758797231,1
0.000356595120765158,0.309682537716932,1
0.000262218795691008,0.302669276213014,1
7.05143859951047e-05,0.305795681385541,1
5.57119320263886e-05,0.705029543449531,1
2.97689691674323e-05,0.702188190459045,1
9.03199039820618e-06,0.441570558874328,1
4.7486343573055e-06,0.441201154634527,1
4.61821961671073e-06,0.447598148888787,0
7.31787581038753e-06,0.778186956068826,0
8.5816547512683e-06,0.737671231987146,0
4.09462963590215e-05,0.527079458678111,0
6.44299527690938e-05,0.410688258837863,0
6.15535061451068e-05,0.405111770000141,0
6.32813745988631e-05,0.378347899302458,0
6.11968236901807e-05,0.295158800589784,0
6.01250305658059e-05,0.287993509223757,0
5.92382230824421e-05,0.27745855290188,0
6.41152918426462e-05,0.278967543429348,0
7.27004447899031e-05,0.293966915804872,0
7.57639016820106e-05,0.274686690132891,0
5.91539596912168e-05,0.360740811599229,0
4.14817228747699e-05,0.384525945144272,0
4.08424365715115e-05,0.358853458974603,0
2.7302820115439e-05,0.305805191337398,0
1.63407733026697e-05,0.255429118732628,0
1.82466552644849e-05,0.281254101110563,0
1.79418088943298e-05,0.282392848030544,0
1.96703609407174e-05,0.286156562300669,0
2.43124612311517e-05,0.326286134236952,0
2.61849108061536e-05,0.37075709937862,0
2.52252243138787e-05,0.374179204218993,0
2.80862024707131e-05,0.427337024552421,0
2.78558422142683e-05,0.453047022261635,0
2.74521926167803e-05,0.51947696110767,0
2.59599544145583e-05,0.695188392009095,0
2.34054541029836e-05,0.65984728218063,0
2.29851079529972e-05,0.678959426431808,0
2.06190006739964e-05,0.74247372251706,0
1.17006689291222e-05,0.502030425404679,0
2.99291748815772e-05,0.27219317228659,0
6.11259046547379e-05,0.275968172199778,0
6.10194158787996e-05,0.263463836945668,0
6.28300231886925e-05,0.24627026187226,0
5.49905744353145e-05,0.2284484861289,0
5.32715727666575e-05,0.220847826201616,0
5.20082304882356e-05,0.221215001441995,0
0.000100238363683914,0.154385750811477,0
0.00235443460064721,0.022042541161734,0
0.0121372564201184,0.0463981923106361,0
0.0132039778775088,0.0295438455652035,0
0.0128343626417546,0.0281923361697734,0
0.0124663457341513,0.0274403885320256,0
0.0123038430280263,0.0268192675106025,0
0.0123803685512726,0.0268319762734414,0
0.0125685852168363,0.026878629510377,0
0.0127080818224939,0.0268082887928625,0
0.01309064681483,0.028395632122628,0
0.0125185039997016,0.0682432281619094,0
0.00311036886886638,0.0580581491451385,0
0.000537211076431941,0.310217028522492,0
0.000179763802535182,0.500288841200106,0
6.32974257277473e-05,0.313211365765121,0
8.23387825197794e-06,0.305090989060876,0
9.1233081582541e-06,0.434722247697267,0
1.00110229069156e-05,0.49721998904292,0
4.46717235237063e-06,0.486070617371916,0
3.2467991510608e-06,0.532783206900668,0
2.41049751214322e-06,0.50579375018404,0
2.27907446407126e-06,0.464218463918987,0
1.60366012889114e-06,0.398263611798703,0
1.12389795018519e-06,0.331608881510865,0
1.15901611671066e-06,0.312166969251233,0
1.36448338587709e-06,0.302704912017543,0
1.63889803262503e-06,0.332474282715996,0
1.61128280433412e-06,0.3419886120993,0
1.45773507988885e-06,0.344767592905498,0
1.31339443457937e-06,0.324936505228161,0
1.72682030806285e-06,0.350999417148003,0
1.80305006705076e-06,0.339740004001015,0
1.86786395150337e-06,0.340908419600743,0
2.6706584234924e-06,0.374254317075518,0
2.97993251092047e-06,0.370084315740315,0
3.15032156305756e-06,0.404644184403858,0
2.88896472626333e-06,0.383424347658841,0
2.88312241847601e-06,0.387645292081423,0
2.99808171167042e-06,0.373802361834243,0
4.24478819643754e-06,0.399396818099976,0
4.18494451893362e-06,0.395776816965939,0
4.06946176493215e-06,0.405989174797843,0
4.50384075964932e-06,0.428432471168359,0
4.07741661097654e-06,0.449448851099052,0
3.30062870456012e-06,0.452380565500404,0
3.21517105708888e-06,0.454303271442028,0
3.15970379680862e-06,0.456755894547604,0
3.08943864225492e-06,0.455799690033449,0
3.18709468475365e-06,0.501138554159928,0
1.33926913343081e-06,0.39323515901857,0
7.5667684043932e-07,0.311119289173141,0
8.28641684696903e-07,0.284919705733871,0
1.03706577297568e-06,0.302765295580921,0
1.01387948603703e-06,0.2878151866763,0
1.56607366216129e-06,0.341865715009058,0
2.24181883258362e-06,0.402589236304995,0
2.27070765971315e-06,0.409989570139061,0
2.18286717502642e-06,0.393626335131121,0
2.17104223545567e-06,0.403292995868028,0
2.21851236331682e-06,0.392375225779312,0
2.33419241664034e-06,0.397424751804108,0
2.01134217732844e-06,0.40681597517702,0
2.56391103298871e-06,0.451501597138855,0
2.83714867188029e-06,0.446141051475072,0
2.43930955611864e-06,0.412596486114195,0
1.90084821402454e-06,0.347456750763078,0
1.6489229079919e-06,0.311986579420227,0
1.47423566842438e-06,0.291243068926782,0
1.53591201515269e-06,0.288551100804084,0
1.71174098683766e-06,0.295872576591126,0
1.90618965083129e-06,0.306257634723076,0
2.20046453858627e-06,0.307905071209387,0
2.59989373331733e-06,0.344004842691066,0
2.48947243580999e-06,0.349332302584125,0
2.00086183319385e-06,0.332169158603258,0
2.2847267057322e-06,0.358323328437412,0
3.11928837160999e-06,0.427629189261263,0
3.64749270839599e-06,0.4558433679774,0
3.49989990703073e-06,0.463639734252196,0
3.53054907142787e-06,0.458744067272445,0
3.66603561755057e-06,0.449808648706056,0
3.32496340041222e-06,0.473942241618574,0
2.39975009616829e-06,0.39594811594867,0
2.25218567118606e-06,0.387639045090458,0
2.39011681488731e-06,0.360415689221272,0
4.80850663375231e-06,0.498243310263127,0
4.6823944205054e-06,0.47108098530317,0
4.04924976805539e-06,0.431258501220071,0
3.85580484906169e-06,0.41983430098584,0
3.61631529815465e-06,0.445781551343467,0
3.6776095095914e-06,0.471049655052396,0
4.58579620505427e-06,0.5261111932982,0
4.90880101219377e-06,0.520590732819023,0
4.87730333830389e-06,0.52586484539974,0
7.89994019137461e-06,0.578533660635817,0
1.08837151983979e-05,0.537761049327211,0
1.12314967052853e-05,0.499296937750768,0
1.17420165463236e-05,0.505261323072239,0
1.17144898968597e-05,0.507123483590284,0
1.18857295728082e-05,0.511077507147964,0
1.20595351414628e-05,0.513595445301692,0
1.65793693869909e-05,0.247945600738093,0
0.00018996959325694,0.218165011271053,0
0.000494223485899977,0.232982477136817,0
0.000514027791492059,0.188144392739263,0
0.00051049518552234,0.180359867098725,0
0.00050196921914458,0.169862749914048,0
0.00046191135684771,0.149614751948635,0
0.000447005995536435,0.143311671493443,0
0.000442084030664511,0.146102115297608,0
0.000411949874250677,0.138225417335973,0
0.000414641148839764,0.148058300657204,0
0.000373668674098953,0.27687863219468,0
0.000128144019804002,0.201859422948158,0
9.7370486727604e-05,0.259305225849218,0
9.07993376624042e-05,0.306474654233098,0
3.1625844448065e-05,0.25387451542416,0
2.1888134405276e-05,0.306933903592389,0
2.30330179704354e-05,0.344846104830409,0
2.38443160098208e-05,0.352254009186309,0
2.24179337173485e-05,0.383053329343469,0
2.23226033141794e-05,0.412258717812768,0
2.28673960393684e-05,0.418764656016982,0
1.87835414391207e-05,0.64590863749246,0
3.67813619751653e-06,0.351796607777884,0
2.02510338774164e-06,0.31933733572234,0
2.04753352753233e-06,0.324475658972609,0
2.20794076963679e-06,0.330449884152948,0
2.19086786840341e-06,0.320643541044757,0
2.08854541317438e-06,0.332913780526309,0
1.48937252137519e-06,0.297119854995056,0
1.47727416700789e-06,0.30853700615868,0
1.34297353113623e-06,0.286179090385523,0
1.79537709307786e-06,0.317937158110656,0
2.03514974013567e-06,0.335887490355302,0
2.0904875818533e-06,0.337042531402704,0
2.08279891740978e-06,0.346185451502794,0
1.92794176198733e-06,0.346143089464993,0
1.98676878601904e-06,0.353300650815223,0
2.27603073533088e-06,0.360535010611367,0
2.04087231071457e-06,0.344015256668694,0
2.01358558078727e-06,0.355703357740132,0
2.09516490001708e-06,0.36708051980229,0
1.73423956378743e-06,0.341568013006238,0
1.53673136930286e-06,0.319286540571176,0
1.43532474792632e-06,0.30773730641662,0
1.49956887911954e-06,0.316659437592657,0
1.43959033033625e-06,0.314877363043611,0
1.30161022346427e-06,0.3127966135263,0
1.36015960406196e-06,0.313475868438542,0
1.41001913465466e-06,0.304770038104838,0
2.09637340009461e-06,0.367830127463479,0
2.07225046995591e-06,0.35929262746124,0
2.07093469602251e-06,0.370913714118792,0
2.8612809495334e-06,0.382822303308562,0
1.03431222891782e-05,0.669710295985364,0
1.7637375372728e-05,0.866094984943371,0
1.82504250947912e-05,0.68403151155716,0
1.76750547582022e-05,0.672106640470294,0
1.87534126196925e-05,0.718740842433383,0
1.9136302723031e-05,0.741704835711547,0
1.70656752709049e-05,0.697060953330396,0
1.59294960221417e-05,0.664882014796647,0
1.62949654744547e-05,0.673233195558129,0
1.77936987525538e-05,0.819998322080411,0
1.37904059278242e-05,0.90074172856274,0
5.21813329902706e-06,0.54711103522936,0
1.83949346630397e-06,0.476565527743039,0
1.69554118796231e-06,0.428474683057132,0
1.94120911205577e-06,0.450928495164181,0
2.11383266525701e-06,0.44162217915222,0
1.99545629914542e-06,0.445606735269939,0
2.47040083569148e-06,0.424005120550583,0
4.09289787532144e-06,0.483262993556243,0
4.36509571451464e-06,0.498416546741218,0
4.75958875395666e-06,0.499987459732812,0
4.15973649816361e-06,0.459690706016257,0
3.72368440964665e-06,0.424317390657681,0
3.78839680679994e-06,0.434130145499879,0
3.85021859640129e-06,0.438374461373095,0
3.42262545202736e-06,0.423697324478432,0
2.62498958391439e-06,0.341653933764734,0
2.56996110041182e-06,0.38665610175316,0
1.81163286575975e-06,0.3451498591101,0
1.90842771285332e-06,0.319653383585323,0
2.66161570481837e-06,0.388754903052629,0
3.45370905328479e-06,0.446720919690967,0
3.19545581383516e-06,0.408300872625174,0
2.63352430969212e-06,0.369786803586846,0
2.6191949039386e-06,0.38072231336895,0
2.72540492364354e-06,0.379804808847753,0
2.87343761458583e-06,0.37423041431381,0
2.48459158664789e-06,0.336584653033662,0
2.93406425770168e-06,0.35656504887012,0
3.08898595548555e-06,0.406332971114452,0
2.42128009257711e-06,0.337521893738611,0
2.96224067069711e-06,0.359614065042909,0
3.23699438740234e-06,0.357966254137602,0
5.29605651604257e-06,0.406223309667597,0
5.29178781779451e-06,0.390393895848737,0
5.2264436844589e-06,0.388838782069587,0
9.04731019536762e-06,0.409809274788369,0
1.16233395018317e-05,0.35162191662534,0
1.00351728780782e-05,0.322974702083507,0
8.34521349157891e-06,0.286909495025339,0
9.05945261658856e-06,0.299730372218607,0
9.63739029252271e-06,0.305142264977651,0
1.2242892757047e-05,0.366267430388337,0
1.29710468813379e-05,0.39974662702328,0
1.41777258627545e-05,0.422472922639057,0
1.44277362636919e-05,0.430263700308785,0
8.75821561107572e-06,0.473949990859913,0
2.45363350915541e-06,0.367817054985378,0
2.20278183192094e-06,0.376691664223371,0
1.32825242001689e-06,0.325236549182261,0
1.14648343676301e-06,0.338014255107858,0
5.27488250414094e-07,0.280577334473041,0
4.77790632124596e-07,0.276444516906765,0
4.24371033900191e-07,0.242361067474001,0
4.25239017381288e-07,0.239122268501014,0
4.13100157118208e-07,0.238336374779113,0
3.68332239881609e-07,0.223109538933351,0
3.34156391832801e-07,0.216056382316386,0
3.71712367860882e-07,0.217050778401121,0
4.08332479648447e-07,0.215736544075815,0
4.40402021116459e-07,0.216042839035768,0
4.40660190562119e-07,0.211510404117088,0
4.79206112878385e-07,0.221194357022038,0
4.50721120627439e-07,0.220842607603247,0
3.57740170693818e-07,0.209893317680724,0
3.58826262844524e-07,0.217315698029831,0
5.15909016936455e-07,0.265827949613378,0
5.34112522293935e-07,0.272542317303088,0
4.87198682820223e-07,0.263091658970286,0
4.6072796864509e-07,0.258141059935396,0
5.00914602300497e-07,0.287989470739224,0
4.87332218740392e-07,0.287271105656743,0
3.41313360754182e-07,0.236336622876235,0
5.87887993745589e-07,0.295693822883313,0
6.16083101769835e-07,0.29334278519914,0
5.82100546965473e-07,0.289905374398695,0
4.37137846827866e-07,0.253021600271354,0
3.85691909503556e-07,0.233757306095121,0
4.02019346462599e-07,0.231233032556798,0
3.56300542194464e-07,0.220186770902359,0
4.23614330352567e-07,0.2278700215613,0
4.19466593392191e-07,0.228396943112395,0
3.6256393325005e-07,0.225047872014787,0
1.98032100411368e-07,0.179542936379572,0
2.87476240219384e-07,0.220684519929731,0
3.94905887995206e-07,0.256972228296684,0
4.29186339181479e-07,0.247177000738287,0
5.60665694899773e-07,0.269838015056081,0
6.53824915286819e-07,0.286491843847577,0
7.20063182887896e-07,0.283945669575138,0
8.79905568050049e-07,0.313861635011487,0
9.8491554495241e-07,0.334409387621179,0
9.90029970694877e-07,0.3294021805257,0
1.05181704095699e-06,0.342431703019075,0
1.05294586460215e-06,0.33522091474887,0
8.98905058771671e-07,0.301425062137587,0
8.13402565487237e-07,0.299592833464414,0
7.97149463523755e-07,0.305254660084708,0
6.03101629850491e-07,0.274083409266077,0
5.71844988296506e-07,0.269726870447323,0
5.96860717341467e-07,0.265999589666321,0
6.06198772958939e-07,0.262981307771938,0
6.36426854087823e-07,0.274412443572055,0
7.03478021602928e-07,0.277755636217973,0
8.06581995804747e-07,0.299311217747818,0
7.50755857739034e-07,0.292428881038631,0
8.15664107575229e-07,0.290614282320286,0
9.00293053381891e-07,0.287564296069955,0
9.73959367822293e-07,0.301252748570054,0
7.50712792404779e-07,0.275424172386353,0
7.23065849332825e-07,0.280745966200256,0
7.33775096290565e-07,0.287397019319795,0
6.42446319529233e-07,0.264466012083399,0
5.58449109904903e-07,0.259794291716236,0
5.65508708884496e-07,0.263340826190199,0
6.65246576378659e-07,0.281001240133711,0
4.6860336081698e-07,0.251343652938597,0
3.18161014195245e-07,0.235026225259087,0
3.47319806443377e-07,0.238881882464296,0
4.16587558953351e-07,0.268106759279832,0
3.60146376695326e-07,0.244090226952851,0
5.01208937724536e-07,0.283761535097047,0
5.9872220806862e-07,0.310183017728019,0
6.95979423285781e-07,0.328221837506384,0
7.11746454499849e-07,0.316849915569145,0
7.14190273118871e-07,0.307255546300115,0
8.55293228763932e-07,0.334851279545062,0
1.02369437616944e-06,0.346743864423171,0
1.31906748558787e-06,0.383093588277173,0
8.4164752692168e-07,0.301804854593783,0
5.54489213472231e-07,0.244122733274612,0
8.75665357464954e-07,0.303796022357527,0
9.57932386683629e-07,0.296799742050751,0
1.19901958359557e-06,0.334365915116414,0
1.08896150379109e-06,0.320867865313264,0
1.25240579783993e-06,0.334323955200332,0
1.39148167821683e-06,0.335567848937386,0
1.72023197960152e-06,0.36183664896316,0
2.16574174966444e-06,0.427260079309987,0
2.47805188751749e-06,0.442823362735964,0
2.50613538176846e-06,0.439930295525033,0
2.12197835638731e-06,0.406907663738651,0
2.06133168288344e-06,0.414717665777242,0
2.07736901305591e-06,0.409960462685055,0
2.30384092606524e-06,0.426836052634893,0
2.30992226314966e-06,0.444699618631051,0
2.03191282943078e-06,0.442020505820906,0
1.99832053335311e-06,0.47162879787658,0
1.66633432278292e-06,0.416432048700642,0
1.87722537590688e-06,0.452215895732783,0
1.79222920631975e-06,0.42863944509789,0
1.48309944896539e-06,0.40587000317639,0
1.5101568309498e-06,0.416799647179336,0
1.39239595415025e-06,0.414969058249448,0
1.13759083471924e-06,0.383088977876019,0
1.17718056281149e-06,0.38317218156338,0
1.14510790550534e-06,0.376690272106787,0
1.06838584409174e-06,0.354428174846369,0
1.15322477513287e-06,0.354927012912474,0
6.48677995803778e-07,0.262714405225187,0
4.88523915547965e-07,0.239174061606135,0
4.50130891860292e-07,0.224565181567538,0
4.37263370592824e-07,0.215808156137392,0
5.21851365383967e-07,0.230404715216236,0
4.61386300731522e-07,0.212346313488252,0
5.36317756735589e-07,0.234056901882735,0
5.88942037275455e-07,0.248317645783869,0
5.64345054620158e-07,0.249725255362295,0
3.34114884417615e-07,0.202691558697002,0
6.2537508749485e-07,0.260826521914958,0
6.57055149195702e-07,0.250047828670423,0
6.82004110280579e-07,0.251353286764406,0
7.25359996441326e-07,0.260616822706395,0
7.27254982428455e-07,0.257301986296053,0
7.4399894017849e-07,0.260083365145857,0
7.92202402801233e-07,0.269482349229464,0
7.33029965856023e-07,0.258627348905546,0
7.27836642640724e-07,0.269135400687196,0
7.11301000926152e-07,0.271051765504494,0
4.6315598551356e-07,0.237671729339289,0
4.27656796495879e-07,0.256019206864255,0
4.56051874560578e-07,0.272309830036467,0
4.67878705890198e-07,0.271644107619501,0
4.13545276852104e-07,0.258895757515089,0
3.98575343801511e-07,0.248927586671356,0
7.5154371966803e-07,0.311638129894888,0
8.07889757582934e-07,0.301510400428205,0
9.71260161755946e-07,0.3129350937548,0
1.20290492247281e-06,0.337097308211088,0
1.16247380680356e-06,0.340377335097053,0
1.05501889848284e-06,0.319397663863247,0
8.6443765729716e-07,0.288980678650504,0
7.04769759070694e-07,0.272474993623351,0
6.65632050068213e-07,0.269659828180478,0
7.98207068011492e-07,0.294652672039284,0
9.68717637835933e-07,0.361182335639654,0
1.11747587394447e-06,0.416100226953833,0
1.07833282350518e-06,0.448134441026436,0
8.17168723555732e-07,0.403745387902886,0
8.23159033654572e-07,0.377191239421413,0
7.75004756762425e-07,0.367946814582624,0
5.79293955763324e-07,0.315791782043807,0
5.50264248238022e-07,0.307972249405749,0
4.71778511158794e-07,0.290160701620242,0
4.17415147818597e-07,0.298925899101906,0
5.60079917329965e-07,0.318726710040132,0
1.03164966733356e-06,0.419766958749257,0
1.05048891495098e-06,0.419847603355012,0
8.32344635763185e-07,0.349834601788519,0
7.50177758484636e-07,0.345619067780177,0
7.68975164847067e-07,0.355706571084649,0
7.82026409284701e-07,0.358824467008624,0
7.97194420616878e-07,0.362004178900191,0
7.62017943406272e-07,0.364055119787074,0
6.99811904194626e-07,0.334089374953471,0
6.89794929703029e-07,0.367938216683309,0
3.78729235346021e-07,0.283774239684478,0
2.49219979569951e-07,0.231738159683792,0
2.61520307016502e-07,0.244743501183043,0
1.96377033960809e-07,0.20704890429979,0
1.87112868219163e-07,0.193351939977075,0
5.0422907511902e-07,0.287108294092815,0
5.89894593505993e-07,0.287365164389257,0
5.108567966768e-07,0.264583431363319,0
5.58688139202006e-07,0.272552554764853,0
7.45783870311414e-07,0.306962029484461,0
7.72416274229884e-07,0.311125330440617,0
7.99524066024157e-07,0.319800960946963,0
7.64047132993171e-07,0.310423448769513,0
7.80348307887914e-07,0.318920523292311,0
7.81061055861814e-07,0.323415013284731,0
5.4749727269219e-07,0.295160460859435,0
3.89176195500562e-07,0.266439168959198,0
4.28405487888292e-07,0.273869016374722,0
4.25751684034803e-07,0.270240714782348,0
3.35368341588267e-07,0.219337454642841,0
7.1486418439599e-07,0.291237173650445,0
8.29012914554972e-07,0.290545309964661,0
1.14238032305596e-06,0.355334117204452,0
1.29603198295908e-06,0.381764517349677,0
1.31979514507286e-06,0.380403989603785,0
1.37348426329614e-06,0.386459415113115,0
1.40683931055564e-06,0.398401751795056,0
1.5845106328192e-06,0.417724781142667,0
2.16776426245533e-06,0.504032205088593,0
2.16783103041542e-06,0.493111505105674,0
1.92838510124229e-06,0.460782624509827,0
1.85573888995204e-06,0.46172821367984,0
1.43160043111281e-06,0.384344004205494,0
1.08274485030756e-06,0.312302173559345,0
1.05553657273336e-06,0.302709066009704,0
1.17699505916239e-06,0.309658090671044,0
1.1984661884864e-06,0.309131966605437,0
1.13136082764369e-06,0.297870643917716,0
7.94129214849336e-07,0.248522555768422,0
7.1996336478757e-07,0.253693323772589,0
6.46775887900907e-07,0.257485757772641,0
6.09393953688779e-07,0.262816510836861,0
5.87446434969565e-07,0.267074214934254,0
3.21169022076981e-07,0.222574406553798,0
3.08053680397667e-07,0.234073853000201,0
2.93396221400269e-07,0.245892456840026,0
3.13617120671701e-07,0.253336939789404,0
2.50833538605324e-07,0.239495594124717,0
2.42082818476728e-07,0.230173992107793,0
6.57549232100328e-07,0.327668140707309,0
7.00358622507784e-07,0.297285695252301,0
7.24937243974058e-07,0.291181618043772,0
7.7471665301466e-07,0.295525309770922,0
8.3530457071366e-07,0.303139534909626,0
9.58952267273919e-07,0.317358272547869,0
9.85566310003367e-07,0.309885532889341,0
1.04054928001315e-06,0.316722285821605,0
9.95937599803145e-07,0.321903336833427,0
9.07032945112613e-07,0.318239370758278,0
6.42296314178911e-07,0.289326212674166,0
6.41098830814795e-07,0.315201900184572,0
5.3786009661354e-07,0.295649076621346,0
5.37558305433958e-07,0.303356254257397,0
4.99040648220795e-07,0.289414088772658,0
2.86322934988859e-07,0.22841965539561,0
2.75725079244527e-07,0.236901137899846,0
2.79596619410023e-07,0.233877734684957,0
2.7271061712665e-07,0.221233498683611,0
2.62144031043624e-07,0.20025463142,0
4.10821589200394e-07,0.245627495300562,0
3.75030846757011e-07,0.241409941134728,0
3.3189874454248e-07,0.233502434114216,0
3.31587494568553e-07,0.238191328042793,0
3.02565687918529e-07,0.221149513721772,0
2.89946543462575e-07,0.21371348308341,0
2.0813086565407e-07,0.185596825549207,0
3.30835798617936e-07,0.225723686666478,0
4.45988273776854e-07,0.260022406954077,0
4.12963394079969e-07,0.269461995609142,0
3.11864239159617e-07,0.232536978219167,0
5.29464582032592e-07,0.262380366430633,0
5.6347317634139e-07,0.251475508234691,0
5.54810256080302e-07,0.237432370457398,0
6.9443129685129e-07,0.263424363416006,0
7.58337693446419e-07,0.273721072592357,0
7.52025450500039e-07,0.271833777883411,0
7.878526927616e-07,0.283123197043463,0
7.84983784796707e-07,0.276139492514826,0
8.41720526558039e-07,0.278113222082945,0
9.46622784484798e-07,0.299283800745121,0
5.13861466160532e-07,0.233725288569669,0
6.05701685496111e-07,0.277238719345922,0
5.78317363067156e-07,0.279169138965264,0
7.87489920178476e-07,0.317971186873255,0
7.46703487681643e-07,0.310003515008948,0
7.46096010524809e-07,0.308851919190862,0
6.71699032041217e-07,0.291870482214007,0
6.34221730926102e-07,0.297757773821852,0
5.85766107974108e-07,0.296421350886118,0
4.49037343954042e-07,0.259656125594459,0
4.92418156819889e-07,0.269441865330505,0
5.47083311339667e-07,0.276827910879456,0
6.65713952099251e-07,0.303554997552581,0
5.57563766754184e-07,0.299553289092438,0
5.00608359923577e-07,0.287559789234442,0
3.84287000343447e-07,0.250237346308657,0
2.92486507944119e-07,0.218594969956848,0
2.64104672191503e-07,0.1978520989507,0
4.07326509049842e-07,0.236166608727723,0
6.21182059601549e-07,0.293058002950346,0
5.42169189477455e-07,0.276836207607184,0
4.98243883897121e-07,0.275462034165254,0
3.46306713929029e-07,0.2339815537532,0
4.69045475992672e-07,0.254066194709823,0
4.81012520038469e-07,0.251268001493863,0
6.78002038753119e-07,0.295321999888721,0
8.02420905252353e-07,0.324944668182409,0
7.05076001447613e-07,0.317742796957792,0
7.03021217476017e-07,0.305112132411973,0
7.45786652309752e-07,0.304770184804633,0
7.01717573055368e-07,0.295955694181303,0
6.5616936092525e-07,0.290140908051627,0
6.44373687977003e-07,0.289970026803636,0
3.88182799534439e-07,0.236139730751455,0
3.56973229392315e-07,0.223390710568792,0
3.68846798293993e-07,0.220574154584879,0
3.75053436583506e-07,0.213857960802737,0
3.79760243929657e-07,0.212721279530463,0
3.67078782710957e-07,0.218622616598842,0
3.372134741652e-07,0.216104177756155,0
3.94321779624401e-07,0.235841983562355,0
5.73900885067439e-07,0.283584259772208,0
6.82359649668028e-07,0.318359203111273,0
9.6214143888735e-07,0.369080911888568,0
1.0663774638524e-06,0.399481481576641,0
8.46490986026137e-07,0.371978637540737,0
6.72835867841587e-07,0.354715780764847,0
8.08611296671579e-07,0.37752517538195,0
1.02054125925445e-06,0.408477460805792,0
1.01175548594681e-06,0.410201367932892,0
1.02550434428739e-06,0.402815073452539,0
1.05670534587464e-06,0.376692542620111,0
1.05756353672159e-06,0.368783166973472,0
8.9234043293617e-07,0.327613540161136,0
8.38754248651355e-07,0.305141585350565,0
7.40941969126026e-07,0.277868325131926,0
9.0364391473866e-07,0.300953425070892,0
7.87025103896355e-07,0.283073104641497,0
4.29257558338903e-07,0.207567832937159,0
9.06611528004546e-07,0.290482152227142,0
1.06764638893381e-06,0.285197980340651,0
1.20827050702513e-06,0.298307523184221,0
1.18755285413067e-06,0.295672611434249,0
1.20760505302295e-06,0.307073426448371,0
1.20236988855267e-06,0.30576401452423,0
1.18859432302805e-06,0.3082851874537,0
1.07087628900289e-06,0.297019716617996,0
1.10210755873204e-06,0.305091193621516,0
1.43288549178457e-06,0.349184142867728,0
8.94375186519743e-07,0.267662408616871,0
1.09454464061335e-06,0.331009138640854,0
9.07201311651958e-07,0.308720221876341,0
1.00487560405978e-06,0.320000926160624,0
9.46234640076841e-07,0.307932895219205,0
9.23480119280073e-07,0.31719986444131,0
1.01976842011647e-06,0.325660651511871,0
1.07254103680766e-06,0.320234377905163,0
1.15424677004189e-06,0.336208686172347,0
8.46070236597672e-07,0.293799176070235,0
8.10495377225227e-07,0.308571267968671,0
7.23000861851677e-07,0.288411438852952,0
8.20299695763957e-07,0.292163796540693,0
7.22208660005275e-07,0.279927774640643,0
6.48281282840943e-07,0.271809436141977,0
7.64604979299676e-07,0.295385813459861,0
6.34369621957689e-07,0.278091113803313,0
8.67924725292501e-07,0.334919970476779,0
1.04819821752042e-06,0.368313641460869,0
9.55654263885551e-07,0.356173720393798,0
9.01314046771517e-07,0.345808507778457,0
6.77412255105707e-07,0.30638453523658,0
4.27475744044116e-07,0.265625695209236,0
5.06955767328935e-07,0.272157298990025,0
5.05856877985879e-07,0.26160006449402,0
9.34788831239436e-07,0.344822868813512,0
9.82440679231949e-07,0.334316359286906,0
9.97058967692764e-07,0.332063660392935,0
8.09191732804579e-07,0.291587799613903,0
7.64590179068523e-07,0.280824789068684,0
7.34816120068214e-07,0.276687225228081,0
7.13908846167116e-07,0.28230182208836,0
7.08118728668595e-07,0.280456535963913,0
7.5332954004042e-07,0.299613289447278,0
7.06533768576124e-07,0.294883068429064,0
5.11193418475559e-07,0.267203451458843,0
4.72677096621597e-07,0.2774207490715,0
3.45162756212916e-07,0.236573439535017,0
4.2533772268228e-07,0.282195655789579,0
3.64679476065324e-07,0.241707226244324,0
8.18946420492979e-07,0.339264967618414,0
1.01676831311001e-06,0.359703528790552,0
1.03084132989681e-06,0.362314571341847,0
1.1059806568166e-06,0.366862362680883,0
1.162556710354e-06,0.365680398000462,0
1.19657531985681e-06,0.3711214499084,0
1.26088354829171e-06,0.372021983674533,0
1.17833843051928e-06,0.36601794952595,0
9.38369374378896e-07,0.310564670564961,0
9.8813921334522e-07,0.306445473772595,0
1.32844838397973e-06,0.335616331305974,0
1.35292362638781e-06,0.331569497855769,0
1.44192943453787e-06,0.339675376069481,0
1.44610054028428e-06,0.346410577960135,0
1.56223194501797e-06,0.377588472617268,0
1.50384781512149e-06,0.371633520421813,0
1.54770713170127e-06,0.379915356945936,0
1.52090202132605e-06,0.372306240633541,0
1.47985808706316e-06,0.385325407928675,0
1.4030660305714e-06,0.415264661397542,0
2.12804622859978e-07,0.187787380326156,0
1.20742845176853e-07,0.169594490916213,0
1.09848428409812e-07,0.169320458839608,0
1.08219401463686e-07,0.171996605782272,0
1.46506375374759e-07,0.181212620584948,0
1.97018896617087e-07,0.197511529551445,0
1.87585919216361e-07,0.199657869567241,0
1.80686563340972e-07,0.202210143384764,0
1.9020322325167e-07,0.196601946561754,0
2.0804729442403e-07,0.202651895474822,0
2.13277451297309e-07,0.199927867330452,0
2.6729050540693e-07,0.187390589222025,0
1.47124001261526e-06,0.378366610007286,0
1.49893636397768e-06,0.328169993576427,0
1.58956986371466e-06,0.343275308988018,0
1.6069175151038e-06,0.3411874090071,0
1.67940470736911e-06,0.34385320677145,0
1.63803628082021e-06,0.344730159696468,0
1.60299634408797e-06,0.339490204962179,0
1.59704475940598e-06,0.34274285017152,0
1.62965812590888e-06,0.349151186618204,0
1.58389814806536e-06,0.376054222798237,0
3.88504954941846e-07,0.216430876126102,0
1.70396285332762e-07,0.192033479376965,0
1.42367095689325e-07,0.184032897780765,0
1.33951662000286e-07,0.189913697991736,0
1.63188906601517e-07,0.215193386376884,0
1.97925271675233e-07,0.216571669686802,0
3.18074215847135e-07,0.269101461600717,0
4.24959370908468e-07,0.29392473783238,0
4.13151234607673e-07,0.299958843678011,0
4.2896244395533e-07,0.29520468319209,0
4.38271232950298e-07,0.295292607084231,0
4.36039847724277e-07,0.291558107717007,0
4.57310673168035e-07,0.298194804350042,0
5.52433761821032e-07,0.322943752430719,0
9.0462985494924e-07,0.392193476028949,0
9.94071657878652e-07,0.398470925442657,0
7.81407692854587e-07,0.372569162818983,0
6.29663816130939e-07,0.334223296856085,0
5.97593829543193e-07,0.323104513493444,0
5.98314033272638e-07,0.31275889784178,0
6.38163711289486e-07,0.304980874593081,0
6.50661004218285e-07,0.305604123442997,0
8.52934094174281e-07,0.341201876710207,0
9.04126869649937e-07,0.324621133434968,0
8.31225159632436e-07,0.300945991654862,0
7.2768852904927e-07,0.284994051893822,0
7.22708084346707e-07,0.27900207695243,0
7.21236407226513e-07,0.280375880209834,0
7.14666996353873e-07,0.277706986225799,0
6.7264179563761e-07,0.271524455667276,0
7.13720115399943e-07,0.296287820151545,0
7.95059515093179e-07,0.31068030527274,0
7.99208142293024e-07,0.291740592767105,0
8.79905568050048e-07,0.319639990118427,0
5.71882712193954e-07,0.268724483295434,0
5.78904030876431e-07,0.268152288557213,0
5.98285434329735e-07,0.266196072773867,0
6.1957729168092e-07,0.272290217034528,0
5.83899164530213e-07,0.268844063878682,0
5.95934311895295e-07,0.27705634815008,0
5.23434656277436e-07,0.248196155198307,0
4.78061376202737e-07,0.231496451897404,0
3.88591419450156e-07,0.229753285953121,0
3.00450478943054e-07,0.205198598224954,0
3.15148332556303e-07,0.21979850068139,0
2.74959362022293e-07,0.210295422630589,0
3.19578164148037e-07,0.235109343426867,0
2.7082330945493e-07,0.21487823352828,0
2.76673072997793e-07,0.216741993780715,0
3.01049610104878e-07,0.223213681496136,0
3.11952372866929e-07,0.23256651688687,0
2.80114404940477e-07,0.219886086345043,0
3.61457810711318e-07,0.247645878366825,0
4.05000202040568e-07,0.266074745935719,0
6.44539717637746e-07,0.30943567914784,0
1.08372689572047e-06,0.344084897446211,0
1.21184481848831e-06,0.356341613654995,0
1.29606903917693e-06,0.378366694593908,0
1.19807448312057e-06,0.362029612746878,0
1.18409416251836e-06,0.3637675883596,0
1.04311550655899e-06,0.35640744662122,0
9.989084401871e-07,0.360019739500567,0
9.96160716069761e-07,0.364396806216775,0
9.9138858740266e-07,0.358844378088168,0
7.70836655574221e-07,0.334610551849645,0
2.81567275751914e-07,0.25184553933409,0
2.4981510465417e-07,0.234258215728285,0
2.04958942430326e-07,0.205606808856159,0
2.16232044810978e-07,0.216585549371742,0
2.28363338038582e-07,0.216354545664684,0
2.47285934326172e-07,0.219545613683166,0
2.53464196232649e-07,0.228790535599208,0
2.48865552981836e-07,0.224125846294821,0
1.79754482618194e-07,0.197737486935885,0
3.28160183897487e-07,0.251155591691117,0
4.67374830351427e-07,0.293837570447125,0
5.16869140202468e-07,0.325459539136096,0
6.12299584031718e-07,0.345753207724511,0
6.35765072323454e-07,0.336063728149699,0
6.3173184241462e-07,0.344082853819545,0
6.28524198332232e-07,0.33115650691438,0
6.55603502463534e-07,0.321822137232553,0
5.41777150271826e-07,0.283820275260159,0
5.57306042428258e-07,0.25962669883477,0
9.52376513445072e-07,0.346324917850733,0
9.11767349882264e-07,0.338014225793192,0
1.02369971760624e-06,0.328409912284171,0
1.52291930396007e-06,0.403935447732632,0
1.62604820486698e-06,0.415736003420932,0
1.67771770357764e-06,0.411027560705615,0
1.66631206679622e-06,0.418670482954269,0
1.66497481583566e-06,0.422841618752999,0
1.63115906965158e-06,0.421509640671081,0
1.53110060466907e-06,0.45548631239189,0
1.26142036269079e-06,0.405731227127986,0
1.16637895350897e-06,0.370876096051447,0
1.04884453137403e-06,0.381973619573795,0
4.04206108435297e-07,0.236691129965456,0
2.17650196283171e-07,0.174914532183002,0
2.63598237214262e-07,0.185017554381767,0
2.99752531200305e-07,0.187557100423102,0
3.47278076468324e-07,0.190462082196986,0
4.34305216121284e-07,0.206509610056922,0
4.29272581129922e-07,0.204335416017876,0
3.94706029234686e-07,0.202785422917223,0
4.25387576092476e-07,0.210924996521594,0
4.96056565524755e-07,0.216824502949863,0
5.22146034647806e-07,0.21899407488066,0
4.86805753375126e-07,0.219290620890031,0
6.12786545020602e-07,0.260288636001874,0
5.84490839936494e-07,0.254747733913424,0
5.83010705541356e-07,0.276012685686545,0
4.40088990663597e-07,0.248225815007082,0
5.94160954875452e-07,0.284292279889512,0
5.87754012705687e-07,0.275081001341837,0
6.50057866978857e-07,0.285139864642695,0
1.06142806625128e-06,0.36813920952481,0
1.02536891660836e-06,0.359088765302267,0
1.05386514813258e-06,0.365289038393053,0
9.71251815760938e-07,0.349399309201336,0
1.02963149446008e-06,0.357325354347951,0
1.02135393660861e-06,0.338847850965395,0
1.04966099224593e-06,0.33864222076096,0
9.11433510081843e-07,0.322483920911222,0
9.2557585426719e-07,0.31919294419343,0
8.84381358254307e-07,0.320018354491526,0
3.19480794206247e-07,0.208194665359863,0
2.78882647356853e-07,0.205821259505588,0
2.87213174456651e-07,0.208439650902868,0
2.51110403079808e-07,0.201556732283911,0
1.45775822611502e-07,0.169539106876728,0
1.21438122201198e-07,0.170770219949697,0
1.07035828091257e-07,0.179336161126472,0
8.42567144291905e-08,0.167669725136833,0
6.355920320269e-08,0.164519486931162,0
6.56507095523343e-08,0.182055862750214,0
3.65951850824666e-08,0.160304636513579,0
1.74461341302568e-08,0.138530126244799,0
1.70658905975751e-09,0.125503607146838,0
0,0.121504183057398,0
2.42002696924626e-08,0.137592352573081,0
6.85970683509261e-08,0.170484247458298,0
7.11008668540916e-08,0.162110206258564,0
7.30370264166061e-08,0.160746944171463,0
9.29144045334035e-08,0.1719329128699,0
9.49698561846022e-08,0.166216560472969,0
9.41161165349892e-08,0.159443707142814,0
7.62481201769324e-08,0.153185206823703,0
7.81026002682769e-08,0.15516667347633,0
7.88931329156767e-08,0.156609092612852,0
6.66273022485024e-08,0.154294474761727,0
3.90743907203343e-08,0.134698795430606,0
5.0943619704607e-08,0.147140038547429,0
4.60511974294216e-08,0.143539429889594,0
4.15154273410205e-08,0.140041574017653,0
4.64790687736293e-08,0.147689981574598,0
5.91338228082952e-08,0.152998802769236,0
9.93907853816579e-08,0.165246167018627,0
1.6366340423785e-07,0.181896565509825,0
2.13822166571665e-06,0.481742571782607,0
8.67395210857058e-06,0.847480968365266,0
1.64109664591064e-05,0.861197764466589,0
1.5766349290635e-05,0.675589675701832,0
1.52453909467171e-05,0.661780133598017,0
1.50831142017303e-05,0.658163514957775,0
1.56110301009287e-05,0.670773525905912,0
1.58652274093631e-05,0.67577063328021,0
1.58322118771806e-05,0.673900824202077,0
1.60631690391886e-05,0.677154064060631,0
1.56839202378332e-05,0.73129268519312,0
1.13628693435474e-05,0.723478849204411,0
1.67312774016164e-06,0.337358221415204,0
6.2824477441928e-07,0.281394851174935,0
5.51712556572186e-07,0.275185645925222,0
6.28366625946431e-07,0.288064891894198,0
6.34275256574103e-07,0.283556298349979,0
5.99613782895613e-07,0.28858952222644,0
5.48560775016401e-07,0.288010729640274,0
4.84360599396902e-07,0.292761951310265,0
5.20407285687275e-07,0.316209785992202,0
5.40123530460401e-07,0.307895674055538,0
5.87409490031651e-07,0.297482521645754,0
6.5270766475474e-07,0.301752521820543,0
6.54633252723574e-07,0.29574109297286,0
5.29269619589146e-07,0.273186133843794,0
4.07591800411244e-07,0.248373954005247,0
4.52677866977645e-07,0.25510789556779,0
5.09993375672975e-07,0.27396608988065,0
5.18953635916303e-07,0.287734104148803,0
2.29650624309009e-07,0.2113061692373,0
2.0238882108681e-07,0.220995271839991,0
1.76443793317408e-07,0.232266123393646,0
1.51515419020225e-08,0.133025376155331,0
2.21820968189778e-08,0.135511668100348,0
3.16325451692588e-08,0.135904515203549,0
9.53514350764844e-08,0.173417413910686,0
9.31181580915941e-08,0.174215483099726,0
8.5607318981765e-08,0.164491625065963,0
8.747237066679e-08,0.163667508521622,0
1.20257998506707e-07,0.182562482800804,0
1.56274416655175e-07,0.187987185970838,0
1.55291703562666e-07,0.182903602397808,0
1.53430212835512e-07,0.183791723193348,0
1.59367998805752e-07,0.187622147496412,0
1.56010126813174e-07,0.189198415788387,0
2.16692298615827e-07,0.18399454315935,0
8.96194279592242e-07,0.357980356188919,0
5.8754332640764e-06,0.56629600881309,0
1.52839112746487e-05,0.886131606754594,0
1.91375659728358e-05,0.92119835810036,0
1.83269531952808e-05,0.883697814943867,0
1.65676637395088e-05,0.816245336230767,0
4.11411786809159e-05,0.262614904496843,0
0.000110342896454287,0.285838784924356,0
0.000102533986920732,0.223103086522017,0
9.95987369753392e-05,0.206745194923857,0
0.000107878932161228,0.202384618624261,0
0.000102245609758171,0.160751977842712,0
9.94826444073023e-05,0.151433899816332,0
9.7662826123476e-05,0.144685083395059,0
7.99999623045457e-05,0.118270665133654,0
5.76250155803785e-05,0.0969911420481861,0
5.11669496286948e-05,0.117209486210376,0
4.1691267106859e-05,0.105432295562756,0
6.30317858375936e-05,0.151916710341743,0
7.06138988545734e-05,0.169530717559005,0
6.15253417503442e-05,0.174158038636061,0
6.36609949639164e-05,0.227242610694349,0
6.68618065696697e-05,0.208780592957906,0
5.63823068272215e-05,0.190595922146587,0
4.96259807195252e-05,0.197933687833555,0
5.26701773920269e-05,0.194044767553892,0
3.24916107877678e-05,0.17801122844324,0
2.64155434758755e-05,0.246315299670261,0
2.66070409960335e-05,0.258784584122493,0
2.8076892235079e-05,0.223367935309431,0
2.91351047563726e-05,0.219510751027777,0
2.83552033486975e-05,0.222764146610107,0
2.62300112278314e-05,0.28183461280397,0
3.3931115877675e-05,0.235187849325707,0
0.000103012183390774,0.297187384234008,0
0.000103623645370746,0.220440303385596,1
9.81702627313975e-05,0.222762740887341,1
0.000102305536339226,0.236998460359497,1
9.8048712884143e-05,0.232238845324406,1
0.000100997489573129,0.257934972259431,1
0.000102334085317438,0.266950924767368,1
0.000106211926597886,0.265660387360146,1
0.00011088082409782,0.264764290449557,1
9.95262887310506e-05,0.327148825619303,1
4.21258511904936e-05,0.265363589394406,1
9.37428916502726e-05,0.884633189144572,1
0.000143981306936389,1,1
0.000155046747162467,0.942499050513266,1
0.000140827886783584,0.696555011562513,1
0.000182859663698797,0.426691540564082,1
0.000336123471748911,0.553880046209052,1
0.000434169348330109,0.591049721155207,1
0.00042092508072443,0.51504789599424,1
0.000526267381015561,0.513679606703915,1
0.000545537022915838,0.388448596992646,1
0.0007633724384166,0.249719910731145,1
0.000777675287325273,0.168838959665506,1
0.000631053274294846,0.151350263094869,1
0.000434376695339912,0.11071411293108,1
0.00048944688645027,0.0585304704754582,1
0.00601651393613734,0.047191501726763,1
0.0133249501552013,0.0615043588895752,1
0.013740584775455,0.0410340357860767,1
0.0136160267374859,0.03491777829687,1
0.013209571758965,0.0333846277970006,1
0.0129509538957906,0.0330807260905208,1
0.0123732796733185,0.0265530862668459,1
0.0133081748209612,0.0260636847729458,1
0.0123912715638581,0.0215812445440435,1
0.0118082078974144,0.0192234927768645,1
0.0131368209810371,0.0347537255740218,1
0.0116662671673405,0.0288615364232889,1
0.0117009338145344,0.0361028846436058,1
0.016681332156097,0.0371929794490118,1
0.0167528745817271,0.0222927215237796,1
0.0124947426900649,0.0174379333111713,1
0.0093896427406561,0.0144717655483985,1
0.0101388977080668,0.0137472156150976,1
0.00893616105320548,0.0128230038730453,1
0.011929283188388,0.0141745365235557,1
0.0143014963728569,0.00545141566744675,1
0.0183742071090132,0.00959974373974769,1
0.0186179882790526,0.0100353050639513,1
0.0185756860037653,0.0135228203892389,1
0.0187478508664222,0.0163704942885229,1
0.0200191345087681,0.0170178035224075,1
0.0239956938228573,0.0193893880681147,1
0.0256683743191737,0.0240159043702334,1
0.0249599281056791,0.0224499318795381,1
0.0130055329929753,0.0163994828705822,1
0.00470606708265536,0.0591927805588077,1
0.00461394640773056,0.0628697336193472,1
0.00315913946699935,0.0598848015803478,1
0.00244809882717715,0.0576165972748171,1
0.00237835445826091,0.0355565859973897,1
0.00199724061056191,0.0333750735362937,1
0.00391136740235506,0.0641247746153247,1
0.00466850201906279,0.0552829947807159,1
0.00526301615296702,0.0577809776458439,1
0.00601952908017866,0.0544674754830319,1
0.00834951557380701,0.0635655809582624,1
0.0098529586851762,0.0722366565621253,1
0.010447865564246,0.0792870430239383,1
0.00738458845599901,0.0389832593473049,1
0.00605765765211203,0.0385410628608651,1
0.00523686131801105,0.0216314800544498,1
0.0100201073485541,0.0303657391182777,1
0.00935796297006356,0.0234416851215174,1
0.00801162100379835,0.0200064219797207,1
0.00757807497977784,0.0166544506010518,1
0.0125201565190657,0.0241428387597302,1
0.0134618485855103,0.0236271142630918,1
0.0212184641040145,0.0324149538114615,1
0.02580852561773,0.0482424217484123,1
0.0216967760781762,0.035862581922545,1
0.0185837189994814,0.0330390426732677,1
0.0196246366739399,0.0265547259949972,1
0.0161663452123676,0.0259572411437255,1
0.0218255222423801,0.0162410253701932,1
0.0284776938532417,0.0202336615837388,1
0.0729292536555165,0.0327385137004301,1
0.0857927275939083,0.0354351237757463,1
0.0896722334365459,0.0218062966672559,1
0.120424492792331,0.0223138762136926,1
0.150976468842298,0.0255369391570145,1
0.168256611365987,0.0284503013886198,1
0.187736918993214,0.0321652141134787,1
0.192185834058524,0.0318296836616841,1
0.206317294878536,0.0409209035774257,1
0.210654699161152,0.0390545307230279,1
0.143857254857453,0.0381093800915503,1
0.0710467345524052,0.0167028620290979,1
0.0112864472769214,0.00207415137552276,1
0.00916276058526964,0.0133411969077006,1
0.010635016689616,0.0239190575096581,1
0.0106525402509886,0.0229795582044305,1
0.0101483329251988,0.0223107777550631,1
0.00443404380039292,0.0111715546629258,1
0.00311331968064279,0.015038496442199,1
0.0033880920349564,0.0177700428668651,1
0.00505669287404033,0.0180515135760564,1
0.0220725893150053,0.0353653852274474,1
0.0547302752658812,0.0702351064220358,1
0.0653837531244218,0.0623617259195974,1
0.0745408953011363,0.0481671878423931,1
0.0936077645322147,0.0441165032941097,1
0.0847785702991865,0.035640295672846,1
0.0679460323427907,0.0303932597647992,1
0.0519848231789849,0.0238048206720514,1
0.0505166207667015,0.0208182641143228,1
0.0515604156096569,0.0224644545969933,1
0.0607120690219434,0.0294423082527643,1
0.0524576675871008,0.0221630695419613,1
0.0509712296288513,0.021059981675763,1
0.0533875431311888,0.0322017360259483,1
0.0238186544788099,0.0169898012517928,1
0.0226022397144964,0.0172168964128841,1
0.0270500007282214,0.020338352603196,1
0.0237941507576413,0.0158046809945102,1
0.023700519470528,0.0188288693994915,1
0.0236625329198323,0.0190336286413722,1
0.0234433860306999,0.0217312769394519,1
0.0134388075236699,0.0195600976254201,1
0.00463439067598534,0.0124321858271553,1
0.00641479141115437,0.0137094744101984,1
0.0116448680151016,0.0257722178641527,1
0.0114353417044232,0.0277708145110916,1
0.00851302105401447,0.0198657088130284,1
0.00900265887290539,0.0177389823720702,1
0.0124353845590706,0.0250728668225154,1
0.0132704405347528,0.024334484586075,1
0.0130007376100292,0.0238189228697389,1
0.0125894879060042,0.0177803630196111,1
0.010270640874567,0.0137632588149801,1
0.00960397203881739,0.0236318389377555,1
0.00964354274026662,0.0253564378123876,1
0.00928129965955852,0.0289903858865773,1
0.00826982480858418,0.0252194931025062,1
0.00796307189446296,0.0301051950239742,1
0.00696366463084606,0.0210891355169667,1
0.00772082000348699,0.0224341495829674,1
0.0243688116882153,0.0332854191469324,1
0.0573439737641326,0.0828632499392849,1
0.0931824748654378,0.113612658325118,1
0.138111706071846,0.154624097217187,1
0.134962779086608,0.082879944180215,1
0.122448389754809,0.0567711869400444,1
0.151566680104331,0.0441617497099795,1
0.120703027470117,0.0251714226900169,1
0.0878621739475278,0.0173343437004311,1
0.0561423425646868,0.00733385425698636,1
0.053370160172346,0.00781535157428501,1
0.0537003205204627,0.00790741147712486,1
0.0688549828094124,0.0099211931167102,1
0.102622243417883,0.0160896030562025,1
0.136676882214485,0.0221171134613997,1
0.1641064819557,0.0325998667780721,1
0.110070344525907,0.0297486504890077,1
0.101391063077103,0.0359855614252616,1
0.0909053091736021,0.0437068585229253,1
0.0685094428590708,0.0453360804891006,1
0.0587247977481577,0.0488805253967421,1
0.02413542600691,0.0244698346862847,1
0.00717143265536857,0.023619688827067,1
0.00781305517845269,0.0354467347187594,1
0.00744252181670193,0.0367572205876553,1
0.00742462933909235,0.0451864668522759,1
0.00625968092262345,0.0251796961663966,1
0.00789515976801256,0.0286742733374072,1
0.00661973302062226,0.0254541839597392,1
0.00642328911810431,0.0311239332700904,1
0.00639520381766873,0.0337097184429166,1
0.00648120839488501,0.0354019634712368,1
0.00636134946079741,0.0236790470154829,1
0.00876418786711815,0.0268355697973239,1
0.0125636649487608,0.0347352288139385,1
0.0139704499652805,0.0392791179337483,1
0.0168378322797269,0.054481091208719,1
0.0184789091957054,0.0605068623654154,1
0.0290971790234989,0.0557188033672136,1
0.0320437293513255,0.0318378268551957,1
0.0271641387838528,0.0265876441266804,1
0.0221270573144218,0.0192231754760343,1
0.0157675950819536,0.00700968937547264,1
0.016420608169286,0.00323501906845726,1
0.018986881409971,0.0012792058783643,1
0.0247182489319035,0.00397412863861462,1
0.0255916230818307,0.00441946305062169,1
0.0278955554141235,0.00474349841210955,1
0.0298284733811592,0.00773465911441407,1
0.0265133906635822,0.0076319037742108,1
0.0322447938677593,0.0103762503737827,1
0.0252405185639494,0.0081779083111541,1
0.0291015074612665,0.0135633298001465,1
0.0255325286503384,0.0222118533353887,1
0.0107621427826828,0.0221620253002975,1
0.0106533581842053,0.0250047630845718,1
0.00761223746711271,0.0177126151350144,1
0.00990291118436676,0.0284051865921633,1
0.0142092353613614,0.0260582881219118,1
0.0139290109157008,0.0237768013246958,1
0.0193044514733036,0.0297427862044795,1
0.0293751591099173,0.046431090616729,1
0.0361786373172175,0.0488827807987839,1
0.0303082480739614,0.0277697569998039,1
0.0301080924669863,0.0243216487655044,1
0.0301594746720671,0.0243621581692786,1
0.0290476824346348,0.0178840715768174,1
0.0399836590675448,0.0174098446697663,1
0.0476382425224831,0.0177862631365853,1
0.0440889823372736,0.0115281056507936,1
0.0487438631023617,0.0141464509760229,1
0.0469902673261159,0.0118028568594228,1
0.0399352678890278,0.00890821980019329,1
0.0400426945437073,0.012337844474615,1
0.036801940386261,0.0128032389290001,1
0.0281575150293907,0.00693759275380168,1
0.0359378884638274,0.014078096833414,1
0.0534522021695027,0.0252960480828459,1
0.0926965964817495,0.0560030965517426,1
0.14352211594749,0.0992858224697695,1
0.205063438600734,0.108572355374301,1
0.203837101493272,0.0607876620084685,1
0.211335662392875,0.0440981627485669,1
0.172605407796476,0.0293353706082919,1
0.13206402017006,0.0226889721545336,1
0.0915903569944844,0.0151412373851057,1
0.102233369646188,0.0158116456746524,1
0.131444751270796,0.0202095613588179,1
0.146258742122407,0.0222848960036911,1
0.159742805981735,0.0272639112589877,1
0.139053352207498,0.0240078267404737,1
0.181027846003599,0.0348231198860461,1
0.136488211602463,0.0414748533922967,1
0.146022331135867,0.0590402799868114,1
0.102412035142821,0.0466686112265904,1
0.0831369850627037,0.0471342416140041,1
0.0715271556195972,0.0457651340965399,1
0.0592562702840049,0.055207710509091,1
0.0305602876199737,0.0330675748759161,1
0.0118889410351277,0.00998115115752281,1
0.0050133669082717,0.00782858401973778,1
0.00814656171238855,0.00403701246622745,1
0.0479845202711357,0.0309684977352676,1
0.0559623191585301,0.022604992585356,1
0.0544645373438926,0.0226619107211542,1
0.060593930149911,0.015990738561367,1
0.0807802515812109,0.0215861174096192,1
0.0880602790639337,0.0246614109270517,1
0.0816701051982971,0.0245972955461728,1
0.0638633005565153,0.0170589537700607,1
0.0516027584494845,0.0133649324235903,1
0.0372172975821909,0.0105738378745059,1
0.0398419139197435,0.00882767354136334,1
0.0512188116969965,0.00908504527921705,1
0.0462423441462661,0.00690309089881923,1
0.039467877935177,0.00768245082218871,1
0.0466697009740139,0.00727574058154913,1
0.0656146750258248,0.0121007623537828,1
0.0750557088177601,0.0146919418236138,1
0.0860827679876397,0.0173457079260081,1
0.094801898731657,0.0215888827093052,1
0.0974389348722455,0.0223231241921937,1
0.0854636268082497,0.028094120480792,1
0.0323668484303821,0.0209036865216244,1
0.0347038596211517,0.026520193233684,1
0.0173641038201638,0.0220551183306135,1
0.00540966686943221,0.0381350373637349,1
0.00739107129241876,0.0381793832396701,1
0.00680435548810841,0.0359737088324867,1
0.00682987628205207,0.0350419901146836,1
0.0107649591807629,0.0289394403577991,1
0.012001679860214,0.0280887595514904,1
0.0123420478239321,0.026309541324482,1
0.0117671566904515,0.0223245561399899,1
0.0102132913481524,0.0188460924053896,1
0.00944810803713454,0.0176173559621559,1
0.00897008228842659,0.0173089490602326,1
0.0149280942143873,0.0220553950181975,1
0.017816884386947,0.0128151820524771,1
0.0190602672540219,0.0129677728110061,1
0.0224795005175508,0.0182058653035092,1
0.0225263364146674,0.01684927697494,1
0.0234387784458839,0.0182511569651716,1
0.0232783075940551,0.0205792263216874,1
0.0228197704845986,0.0213055641526821,1
0.0203489600096672,0.0186219023711876,1
0.0163352113223884,0.0155285902337146,1
0.00905699145666111,0.0076665578290023,1
0.00962546882873767,0.0254227210032875,1
0.0154232921546282,0.035410183938441,1
0.0171716884764682,0.0375798678418805,1
0.034261622024179,0.0594670863150524,1
0.0531384716563593,0.0666331970908722,1
0.0876427809690542,0.0669566650215158,1
0.0799967159307065,0.041092746878308,1
0.0682932397734158,0.0321655806125373,1
0.0575388891633195,0.0292701090824666,1
0.0714801944006888,0.0337262389916796,1
0.0679593172350279,0.0321073187662322,1
0.0922088292430419,0.030436554778437,1
0.0764380638286113,0.0109284196222199,1
0.092053698200996,0.0140082768033824,1
0.0949831068996557,0.015519111011435,1
0.0976964188242788,0.0157496537990911,1
0.148192270483357,0.0209290516765126,1
0.209387247368312,0.0307946845071744,1
0.253590987030931,0.0350985950809184,1
0.263305794034385,0.037871906197377,1
0.237103551698077,0.0311368005201174,1
0.126727468626833,0.0176863222527561,1
0.0823918949748158,0.0290146916157652,1
0.0743672797700091,0.0274472560604043,1
0.0441158947749191,0.0182803642096554,1
0.0107825197809937,0.00121696383524349,1
0.00803904263616339,0.0152284610733537,1
0.00840848852144108,0.0177710208234291,1
0.0112580274666689,0.0029035909303483,1
0.0283963607792563,0.012242981342249,1
0.0306288270251775,0.0121010388079286,1
0.0399655115542437,0.0147354556417662,1
0.0405875986686783,0.0144702237858307,1
0.0452622016092036,0.0154997882887995,1
0.0435395391043726,0.0127198514952958,1
0.0424292040406129,0.0120556209902016,1
0.0587267019125138,0.00553733207590137,1
0.110177775542871,0.0139567147048575,1
0.129083012623875,0.0181503058758637,1
0.195279829612386,0.0282446879280014,1
0.187178626412334,0.0194896983171764,1
0.186428759662569,0.0201487984331079,1
0.175477724552055,0.0193113786924955,1
0.169380590638658,0.0189671083323104,1
0.139484672691938,0.0163175587797606,1
0.125733611425417,0.0135702342961119,1
0.14779133655391,0.037619873028205,1
0.157248845516597,0.0372515607580865,1
0.149729077872879,0.0469466666178713,1
0.069850018352709,0.0259493771461563,1
0.0526387314896795,0.0554095211830588,1
0.0492720415928252,0.0500696581460681,1
0.0509377062418709,0.0554132539735599,1
0.0410381275380866,0.0505724107658601,1
0.02951884008333,0.0459602149658595,1
0.0088188555178694,0.0143927198150025,1
0.0102921058300803,0.0299014985121585,1
0.0157842859173341,0.0437452406267693,1
0.0199172639955118,0.0412978106357384,1
0.0196425294234064,0.0431912662640337,1
0.0196221313563544,0.0357872016574308,1
0.0252011622689976,0.0448049485428714,1
0.0225760521261838,0.0393371451707048,1
0.0172580037678455,0.0309483439700292,1
0.0109082206350581,0.019231730806938,1
0.0102535442475615,0.0152728223607257,1
0.0116092330882677,0.00943463808014641,1
0.01179498130696,0.00833356960374931,1
0.0109087860066701,0.00870794901876282,1
0.0104583958742948,0.00802469169504798,1
0.0106377120618661,0.0107478486875605,1
0.0165182952828113,0.0136453542266077,1
0.0264490138938302,0.0250267056892259,1
0.0404728752349721,0.0346487931443058,1
0.0636755755437251,0.0479472170482399,1
0.0718281812973945,0.0587113915606417,1
0.094616250863762,0.0574159762461114,1
0.0908001060188526,0.0440892225253882,1
0.0701487659103789,0.0379208874237455,1
0.0467676425829666,0.0233412062242576,1
0.0492346457196886,0.0215029798907329,1
0.0559941087547387,0.0241224960713668,1
0.0632452241953348,0.0248653702638279,1
0.124880887901253,0.0372610972686201,1
0.198306363100582,0.0518717761320245,1
0.230615586004275,0.0209684524233911,1
0.23414620312839,0.0210722319503434,1
0.221956683153209,0.0211494796179471,1
0.187638045854931,0.00744375104218011,1
0.198141857627623,0.00849004217213681,1
0.201194147716505,0.00888031698595294,1
0.256424132329865,0.0111922406113582,1
0.285760172268125,0.0114432071312347,1
0.294753741550247,0.0112157720624713,1
0.297812689978582,0.0118396006243796,1
0.288536597995235,0.0151748133913593,1
0.357806965481268,0.0213725006683071,1
0.267839011489751,0.0175744635730228,1
0.181083653623459,0.0212119957326928,1
0.191328100243267,0.0222770088764218,1
0.129779346004147,0.0157710235972963,1
0.115340322843258,0.0164299215705914,1
0.0659895355280417,0.0166448520950838,1
0.016868051785958,0.0152145174680804,1
0.0108888042964937,0.00590848332667776,1
0.00811014546644064,0.00689432479750626,1
0.0113676373459546,0.00507666002472809,1
0.022001555936315,0.0155220039440054,1
0.0312164148969425,0.0229910350609466,1
0.0311405496660899,0.0229915732977077,1
0.0465253555267527,0.0321198155945785,1
0.0773962377756541,0.0299606839697235,1
0.17738629909956,0.0560522751203796,1
0.195818893273478,0.0340324011922292,1
0.172179242265039,0.0259384045996024,1
0.132708831524686,0.0204404616357885,1
0.111454728578565,0.0160989428887655,1
0.115510983886698,0.0167251249830058,1
0.1122734185283,0.0138595272522316,1
0.0941628421178596,0.00924674096628005,1
0.0915685831022844,0.00875667808088703,1
0.0897806618217246,0.0128698092766583,1
0.0486402775642477,0.00517820429394806,1
0.0307828050575524,0.00228686081028269,1
0.0291517085387965,0.00306035946184387,1
0.0390787161558806,0.00543311160272158,1
0.0491051288105238,0.00916630603380666,1
0.0572163885249414,0.0121804609194719,1
0.0640475395849542,0.022192065247684,1
0.0677089583164668,0.028417083868088,1
0.0643414554434718,0.0327837415087037,1
0.0580218644952435,0.0334658509272369,1
0.0309239956839802,0.0239507051405914,1
0.026509319583807,0.0224580636938188,1
0.00986349634793532,0.00643862538270206,1
0.00485140485670506,0.0153993156132963,1
0.003438047085462,0.0171566621706427,1
0.00239818120990581,0.0242207050634219,1
0.00275915694648653,0.0262635695090656,1
0.00301189642547563,0.0248193835081146,1
0.0032065055586943,0.0211971494068361,1
0.00332237401395279,0.0204670664098886,1
0.00616874750955576,0.0307086204473037,1
0.0075227246960734,0.0292103160061314,1
0.0072283616951979,0.028761221143592,1
0.00792992109217383,0.0170985279222578,1
0.0175317361350654,0.0297182446980143,1
0.0223277039118322,0.0195859823865639,1
0.023028916356448,0.0172881591040941,1
0.0212220853297623,0.0145805593656258,1
0.0170465014615028,0.0102599031329496,1
0.0164334351312433,0.00841154171574998,1
0.0276682259975321,0.0151576281135763,1
0.049587084065671,0.0189547625613641,1
0.106966666099196,0.0271971926162031,1
0.104864622791194,0.0258948488491083,1
0.157312116682041,0.026620986521362,1
0.220894949596833,0.0400177388686897,1
0.231152306158152,0.0325349966364161,1
0.204427439114449,0.0335073190608616,1
0.139766158607036,0.021473163783571,1
0.105652832300837,0.0151099451370822,1
0.0785409408817064,0.00731171825743898,1
0.139431690926949,0.0146881691384841,1
0.144508185218867,0.0136230050378115,1
0.162541487150268,0.0140921060465469,1
0.185361232969447,0.0224506003629487,1
0.158621279075318,0.0151897900698767,1
0.138351378700388,0.0101147758057095,1
0.188909264386275,0.0141790974129349,1
0.195601901755695,0.0161317993953079,1
0.135228627052544,0.0091089282441559,1
0.132385649288036,0.0101028415959567,1
0.145033419036646,0.0138457918697609,1
0.12431922778216,0.0156384300663077,1
0.113839277227453,0.0159856526978921,1
0.111658078930386,0.0144273134090457,1
0.0670397815339207,0.00876134888316916,1
0.0174737843218126,0.00392604005767609,1
0.0170647393568109,0.0044157917667785,1
0.0127995281292262,0.00487032020686111,1
0.00723667325563455,0.00807070186721946,1
0.0052692645411507,0.000812910865960744,1
0.0302528835393036,0.0128486979105185,1
0.043499676939857,0.0171092123588218,1
0.0654819633219603,0.0240469426931472,1
0.0667610416174336,0.0215212956379252,1
0.0660949755946538,0.0188184572909176,1
0.0895449909338745,0.026168477325174,1
0.0959589552318854,0.027678677648991,1
0.0903318953604696,0.0245730777150184,1
0.0996724742463164,0.0270117005678447,1
0.0601319065350905,0.0133612036419006,1
0.0591522288917609,0.0180501676632541,1
0.0549212542850899,0.0159247185264338,1
0.0543831960594512,0.0175700870795172,1
0.043164685036584,0.0185966161967287,1
0.0351326495945637,0.0181716206289698,1
0.0445618744667874,0.0246863417216538,1
0.0589942104384566,0.0290608530233937,1
0.0720516109150603,0.0422808632639499,1
0.0599582822272037,0.0330844964740142,1
0.0837996524066943,0.0457769683813212,1
0.10465610011635,0.0567162677320272,1
0.107878952785405,0.0750162952536111,1
0.0904357813498415,0.0698850977938527,1
0.0570356281064439,0.0472252952631806,1
0.0355565617011159,0.0374872326558072,1
0.0234633969185861,0.0229731158853098,1
0.0151222540624416,0.0159470255433419,1
0.0231277037486464,0.0165017279653103,1
0.0286134837343305,0.0327152511002433,1
0.0243439185617257,0.0316850508156946,1
0.0239865353953084,0.0313743994341044,1
0.0231573804331425,0.0306388297788827,1
0.0351829590744394,0.0217460005227064,1
0.0468043149519222,0.0223081642253194,1
0.0396799631831205,0.0154203069718812,1
0.0319715936646614,0.0112306607385053,1
0.0268223217122541,0.00779006945413684,1
0.0259976322155176,0.00897491898930071,1
0.0260642914817029,0.0106347603857277,1
0.0259543985209555,0.00763299641125823,1
0.0307544741710947,0.0107277408812413,1
0.0424344080244458,0.0141696212559869,1
0.0394585790278402,0.0237060105835371,1
0.0244351238243264,0.0167245572809427,1
0.0226571606342589,0.01692555523748,1
0.0259716239758497,0.0191818833868945,1
0.0264843750596756,0.0237615995447644,1
0.0287970302506063,0.0299112002795239,1
0.0342575044936001,0.0351777068972254,1
0.0336997669746917,0.0335098148481106,1
0.0337823915730438,0.0226381290925304,1
0.0474386127676096,0.0291177549261076,1
0.0691610932745433,0.0363461689720722,1
0.115797495892637,0.0480063498885056,1
0.114437643372117,0.0357406608548058,1
0.121051445246175,0.0376574871711685,1
0.115693250579693,0.0340839041487834,1
0.104819975958432,0.026328727921103,1
0.106166840988903,0.0217360036245262,1
0.0996420566643632,0.0120858644182498,1
0.0933496594560986,0.000764280078139179,1
0.174193435850005,0.00878035701806163,1
0.257398723340395,0.0155238651476491,1
0.299202563450773,0.0188039414540927,1
0.339612921506059,0.0213637991974982,1
0.327979316855899,0.0201296902654059,1
0.309469966121117,0.0193265981728556,1
0.260178141392817,0.0159960708785875,1
0.250922209278376,0.0150733773970634,1
0.0762136282938725,0.000350345471863113,1
0.00735151539954668,0.022176168065666,1
0.0064429544243766,0.017920399775625,1
0.00625923983956914,0.0175702775445414,1
0.00607936670316396,0.0169473034621703,1
0.00760117051481489,0.00593189072535755,1
0.0321909447676058,0.0207433371654077,1
0.084697021554341,0.0425027671349921,1
0.136975495942901,0.0425977579293137,1
0.144584446851544,0.0465531001018367,1
0.173776220707837,0.0518987403341432,1
0.195287281291411,0.0565431444143991,1
0.165332964115443,0.0406510572180251,1
0.129062058373706,0.0327003238705069,1
0.0915908454416168,0.0204162998090485,1
0.0465514741147185,0.00713476601843591,1
0.0400916253681412,0.00325537642383662,1
0.0603500492115134,0.00724132433877854,1
0.0622460697868791,0.00637735989402271,1
0.050199567772034,0.0040957133037529,1
0.0757162145891037,0.00776584785854185,1
0.113654078250792,0.0134376363871514,1
0.154332436735619,0.0195633220293956,1
0.196132089816537,0.0241761312628611,1
0.196717847865173,0.026607850648573,1
0.190130100464591,0.0285684111062071,1
0.174816241736775,0.0414619611932396,1
0.0885488957878364,0.0281997516793551,1
0.0620283639662084,0.0290788363230928,1
0.0211003541531916,0.00981966242293337,1
0.00990481242662303,0.0167952737411827,1
0.0103809118186404,0.0151301330304607,1
0.0102917766970872,0.015318768406135,1
0.0092820743236874,0.0134510382245669,1
0.0105463396023894,0.0250417015062359,1
0.00813464269231085,0.0191064508423598,1
0.00848527828467596,0.028253300172298,1
0.0111176810493208,0.0314028211348324,1
0.0128913436880383,0.023720068133042,1
0.0120614121028828,0.0162377480036467,1
0.0172623278286395,0.0249912883892363,1
0.017424027273807,0.0218469984600227,1
0.0143126038758964,0.0152781511643748,1
0.011991449012367,0.0107302254500848,1
0.0133835428062222,0.0133027691057273,1
0.0120209658642705,0.0111346376708428,1
0.0119359888326064,0.00888849294457786,1
0.0119839242975397,0.00786827342278249,1
0.0122166674664252,0.00989581492050248,1
0.0115120614228378,0.0133099064832321,1
0.00764077245254145,0.00619807539587993,1
0.00803239429443394,0.00691295937159716,1
0.00813627236968818,0.00581769503393398,1
0.00804826938157925,0.0065438934165507,1
0.0207389661577301,0.0106118570368636,1
0.0366240943717503,0.0137847861950187,1
0.0352691237954982,0.0120661875347488,1
0.0516798883924715,0.0183503312581333,1
0.0834413581113401,0.0297120654094852,1
0.141450087060919,0.0447083419637204,1
0.197210388145043,0.0606593898918626,1
0.16845364626911,0.0298956235404859,1
0.155770494481766,0.0202147057942646,1
0.127839387329013,0.0130278397850121,1
0.142598282007541,0.00761868513226576,1
0.232045614451092,0.0133901919668759,1
0.179548401555621,0.00518919454190427,1
0.244690646917982,0.00798238539500174,1
0.332186727132214,0.0114374778285882,1
0.335772261744663,0.0115364881351987,1
0.382509725705201,0.0116195362798613,1
0.446327631074073,0.0143162845606282,1
0.502202428983672,0.0189938334714788,1
0.532765903354253,0.0172078556988445,1
0.464837080077604,0.0299522527941623,1
0.178378984544197,0.0113060339815518,1
0.0872229947528746,0.00872617282490558,1
0.0841439080752124,0.0137243968255436,1
0.0847554874065514,0.0205358179147007,1
0.0223188792841343,0.0018523777178928,1
0.0129193363639535,0.0113567717124058,1
0.0113831008144125,0.00909863969044031,1
0.0123798001784408,0.0140626593173946,1
0.0136449156451821,0.0259413176393108,1
0.0114477720753805,0.0289628579615658,1
0.0132724601400216,0.0283337027440682,1
0.0172437377070814,0.039107758702167,1
0.0679913704441626,0.0123199272560695,1
0.216740384359414,0.0412270971684929,1
0.356249248209555,0.0470780883753833,1
0.374657814382685,0.0456363004719229,1
0.348889747614811,0.0433653447654356,1
0.331806804900311,0.0411660605423383,1
0.291769280856749,0.0268982016988985,1
0.243130582717641,0.0221214569827597,1
0.178652033634821,0.0155176239248845,1
0.130458208370656,0.0101790028225246,1
0.14824653017208,0.0218405229832343,1
0.160182904800643,0.0260829842071728,1
0.134354612550585,0.0249830909025025,1
0.12445106005106,0.0174538546175242,1
0.11642716329009,0.0145329298730541,1
0.0978987949945063,0.0101229335553214,1
0.0915168443140104,0.013617452142433,1
0.106698157241097,0.0170731518802164,1
0.0926316381398076,0.0194674469220683,1
0.0635971074845761,0.0089316766217595,1
0.0572433065805543,0.0103606318631294,1
0.0619996778421545,0.0109173447809703,1
0.0636998999047872,0.00910859360525207,1
0.0556257737755902,0.0157337257787541,1
0.0190138835115341,0.00191457299878994,1
0.0246280251978205,0.0287521791575217,1
0.0482931913667672,0.0441000964618098,1
0.0592381371894674,0.0475242960248387,1
0.0905692022186886,0.0426020305455398,1
0.115580795443768,0.0451046158341062,1
0.150187646405563,0.0483701700257863,1
0.191592537275236,0.0648714590411439,1
0.178829648943217,0.0473393967613603,1
0.147707624452378,0.0335848058288286,1
0.127969867705295,0.0264021047890139,1
0.115059321141091,0.0204614349261738,1
0.109497745546288,0.019655372159041,1
0.115216688094452,0.0162258178336956,1
0.175138886463305,0.0302469302880177,1
0.227723912834042,0.035343141736476,1
0.248858169121699,0.0516951347569273,1
0.169433543968286,0.0292964953656159,1
0.0949948669461107,0.0179326405128699,1
0.0791213631575732,0.015142622201535,1
0.0815119642538286,0.0142136389356486,1
0.0683668988555508,0.0193196948939779,1
0.0356852628123033,0.00527489085908293,1
0.0385620091482043,0.0130479695228252,1
0.057780875390814,0.0259372075059067,1
0.0530366776816638,0.0230111699365789,1
0.0479640713756387,0.0148637234985462,1
0.0867250356055057,0.0265572943807364,1
0.10763382074274,0.0358012710058182,1
0.0966698447126069,0.0390378197766343,1
0.0847481862014767,0.0356814778648368,1
0.0690360834636357,0.0284191359029936,1
0.0533495988353756,0.0205294674694044,1
0.0824992626721625,0.0292454600976077,1
0.105216334773435,0.0216972766565997,1
0.0792145702182052,0.0143516070234976,1
0.0805096357726659,0.0156768169694673,1
0.0854931255421108,0.00966101466542228,1
0.093808654525658,0.00493933291112533,1
0.0959242651549241,0.00667716309486195,1
0.135840611111672,0.00997832226183108,1
0.142165253512662,0.00342600263910952,1
0.139654384684912,0.00229818433816169,1
0.14495485037721,0.00215390620903948,1
0.156397741134828,0.00316819348121781,1
0.157929549548757,0.00237891652512082,1
0.251526414309414,0.00753298729930023,1
0.3708842546437,0.014399570127452,1
0.475767493230179,0.0248334771759158,1
0.514196841333818,0.0237902347998427,1
0.398673259956515,0.0191091911128672,1
0.387105643798022,0.0295158267654476,1
0.346266089736555,0.0400890722309557,1
0.245551996482345,0.0335083115295152,1
0.162578600408874,0.030481304529985,1
0.0166202813468136,0.00553857004695623,1
0.00455845822637769,0.0347417338154526,1
0.00455534461951436,0.036589212355394,1
0.0045450180389873,0.0431129976633529,1
0.00459898819991272,0.0282457852965265,1
0.0119465897325246,0.0345666879317123,1
0.0220137353719126,0.0440470782344197,1
0.0827081234855508,0.0424859790292944,1
0.137698187098788,0.0396368782204112,1
0.139852437140649,0.0413815747768339,1
0.147845458936103,0.0404195176212685,1
0.137961174482167,0.0287582541340156,1
0.121429596578119,0.0269924007615189,1
0.0916561408179834,0.0202794775777712,1
0.0604537461350542,0.014189121168827,1
0.0533288506271257,0.0126336378907737,1
0.0504358150339657,0.00706633087858807,1
0.0480620108446783,0.0124343719092024,1
0.0381281079272047,0.00602220585719074,1
0.054326777412715,0.00935929323016329,1
0.0525456741797893,0.00572387203103832,1
0.0600755258197889,0.00357089202702945,1
0.0753778734330255,0.0063692603992598,1
0.0972078088479461,0.00959165079632684,1
0.110808146888058,0.0112179768238197,1
0.117981776223001,0.0117866776274963,1
0.114313210446956,0.0163715716668831,1
0.0803599831420081,0.010305869390433,1
0.0615096060027014,0.0101995672569364,1
0.0626115111467955,0.0117391537816049,1
0.0166964534353098,0.000860282106897201,1
0.00314285370025804,0.0192735303527163,1
0.0148174783532638,0.0429724036454124,1
0.0327148100505186,0.0999695453183249,1
0.0470010260549201,0.115917293568506,1
0.0644922235132469,0.0775716013440969,1
0.0611118777959773,0.0578107507137321,1
0.0603850958904742,0.058352301548994,1
0.0574214126570485,0.0615348868344682,1
0.0601643574979893,0.0560040327384381,1
0.0548063001330285,0.0315521370688981,1
0.0345449541284566,0.0221715234196753,1
0.0295869692934505,0.0156826262588789,1
0.0362985290272516,0.0198855866439381,1
0.0435990728780559,0.0242845986337641,1
0.0560367352677035,0.0341138983763267,1
0.061887049800248,0.0362107601098981,1
0.0682224372590801,0.0346070603127261,1
0.08224071233699,0.0392447421255404,1
0.0630564452073406,0.0347300613357547,1
0.0324672794249723,0.0252515824368434,1
0.0187062518206685,0.0117646191756778,1
0.00974182259492618,0.00807320951606369,1
0.00923872537193571,0.00663527103472081,1
0.0100130615558533,0.00744292904165388,1
0.0106563813688895,0.00721240050707527,1
0.00990485265153698,0.00912444759384171,1
0.0141029658198005,0.0233987943874256,1
0.0152774525580432,0.0160644784586555,1
0.0162727705537363,0.0167586522721738,1
0.0177147869370727,0.0170338387492712,1
0.0177427384142633,0.0205782828251435,1
0.0171896986513025,0.0213910645258199,1
0.0169771120399647,0.023852455795672,1
0.0186000194525032,0.0169638270169883,1
0.0226247600857325,0.0215966462436214,1
0.030916429931339,0.0234297053874014,1
0.0325674573787864,0.0196512815913376,1
0.0652001002448938,0.0371156664607742,1
0.123402056585234,0.0599501558047524,1
0.175491405452519,0.0747332976392001,1
0.251518396348841,0.0598012456914941,1
0.219675296544503,0.0331658226981205,1
0.258812878964613,0.0225005298893871,1
0.25936138148681,0.00690841837444734,1
0.251412039228637,0.00410555485407405,1
0.235761761346939,0.00295647566443089,1
0.196190918523678,0.0011362063727827,1
0.201266398152699,0.00102353588514674,1
0.277846642964872,0.00287624106832529,1
0.31392482639488,0,1
0.392248250143506,0.0022014927576423,1
0.512889802656311,0.00535466440714649,1
0.528913044839842,0.00736450259803946,1
0.537585613347245,0.0124093724670324,1
0.555809745875907,0.0167181459148963,1
0.510090781256059,0.0142095280515376,1
0.533323747508047,0.0146097853102452,1
0.55043721313808,0.0165074526142153,1
0.251345831729492,0.00772475573208854,1
0.0243228613158583,0.0132745761132733,1
0.0190763644282057,0.0338340129704885,1
0.0215222515747172,0.0395692180514147,1
0.0223011346864283,0.0523597420982651,1
0.0210751834699551,0.0487641837986715,1
0.0134172349498893,0.0876987335743157,1
0.0035863563844898,0.1074891084443,1
0.00112865326723634,0.0469366558534628,1
0.00202457502972726,0.101383228256099,1
0.00825184005298,0.101523106458873,1
0.0276307557877308,0.037672128553235,1
0.0746514595781128,0.0785629767294068,1
0.0948232212765641,0.0915083956457725,1
0.179172744025347,0.0352623174135641,1
0.259807545412067,0.0256772276741488,1
0.245110476880974,0.0258419492189773,1
0.227876879276626,0.0226057428213328,1
0.18889377572404,0.0159601444560632,1
0.182319524245514,0.0129697117188319,1
0.136055315141893,0.00575407466453465,1
0.13534196792377,0.00632484855930909,1
0.145033234668831,0.00702834619684437,1
0.153255217087908,0.00763960857088234,1
0.140809132938975,0.0102721612957731,1
0.116655138668112,0.00966472791385025,1
0.118675966894355,0.00768354961046415,1
0.122186845173188,0.0076075732587267,1
0.124699107384613,0.0100662081412687,1
0.0810222783034732,0.00567574835919982,1
0.104300529184155,0.0129553415321558,1
0.123358070787881,0.0161762583581952,1
0.145225444007219,0.0196136272649849,1
0.175497569783625,0.0224214371274969,1
0.155251004560587,0.0252274006394901,1
0.137742925707672,0.0276437267429026,1
0.120069107371797,0.0544408807576239,1
0.0418749129196661,0.0320283840154158,1
0.0228287995247432,0.0335177663566097,1
0.0124555170788173,0.0325400823625567,1
0.0127690859022174,0.0364441921984423,1
0.0113468965954633,0.0312564010343138,1
0.0101051625515895,0.023167782429732,1
0.0135698197832028,0.0322144380016555,1
0.0127285197790622,0.0376826775030689,1
0.0102446358207323,0.0460153752493462,1
0.0105998249041814,0.05983624085996,1
0.0128579989803538,0.053051473443952,1
0.0117774348722196,0.0310075858531761,1
0.0104798879304779,0.0273294834016069,1
0.0104324216000445,0.0276250376279716,1
0.0121290694135309,0.0328429008703491,1
0.0140688900733933,0.0570757905631079,1
0.0126678041837751,0.0555503205027924,1
0.012441472807863,0.0656307622856743,1
0.012305886919918,0.0672969546022183,1
0.0109162556854468,0.0819527840484884,1
0.00309090386079906,0.0643212414646437,1
0.000451870619193999,0.347058979539067,1
0.000102335304945509,0.573218084107065,1
4.26208457003333e-05,0.790760665995664,1
2.92966102201405e-05,0.615995707660481,1
1.4354681432486e-05,0.412329158467566,1
5.85205590949198e-06,0.290642616638946,1
5.19387961496653e-06,0.356704406027654,0
4.74599924848081e-06,0.342748563487024,0
4.54476874022153e-06,0.333770675663931,0
4.66706260511115e-06,0.345555821671556,0
5.20092764083303e-06,0.365551230031918,0
5.54878693239389e-06,0.370423716127245,0
5.31620352543818e-06,0.406667775043953,0
3.79228270207685e-06,0.46742127755436,0
4.10113292423832e-06,0.503208271794459,0
4.02996684734321e-06,0.493232053192708,0
4.21876827727291e-06,0.483287485648421,0
3.56140210066315e-06,0.448420466450973,0
2.50038354456706e-06,0.356810701992703,0
6.46155747087643e-06,0.390501761991514,0
1.44751540899843e-05,0.450319145219936,0
1.71252429741737e-05,0.262042428815856,0
9.13131821027349e-05,0.360586311836618,0
0.000112466662745366,0.248855884563141,0
0.000103586514261504,0.236008368379636,0
9.74355543303049e-05,0.220957746881082,0
9.26286110683379e-05,0.185428274435404,0
8.77038815577466e-05,0.161417639227723,0
7.77169682273777e-05,0.147190650737983,0
8.54565997706689e-05,0.16330030440823,0
9.74500906054547e-05,0.17966570891207,0
0.00010336702627712,0.229503937545817,0
5.94698945503429e-05,0.264287476833999,0
3.38481464495162e-05,0.331013458429741,0
3.5451479415403e-05,0.339007176665025,0
3.65961901628258e-05,0.364933093275567,0
2.23440803413399e-05,0.57522404533112,0
4.98133327283214e-06,0.423475713742365,0
3.81836226728582e-06,0.303392375145275,0
4.87762204403335e-06,0.334999753435013,0
4.86634549197477e-06,0.318296808146225,0
6.13770760392212e-06,0.34569438182906,0
6.06471686995785e-06,0.344521266963184,0
4.37538955348072e-06,0.308881302495152,0
4.41123192981324e-06,0.328553725228153,0
4.44962072486344e-06,0.32765683415913,0
5.02856125555805e-06,0.349386370532593,0
5.00552630932893e-06,0.345945594408582,0
4.94250770404305e-06,0.4341652720014,0
3.46972802226825e-06,0.378731787719732,0
4.22861076482882e-06,0.444982441826769,0
4.03969927904492e-06,0.413729961927343,0
4.01041051183449e-06,0.42549255930823,0
3.90771693802732e-06,0.390726576842813,0
5.66024947623875e-06,0.458243498464822,0
5.70151207557092e-06,0.463109290351824,0
4.40534555517227e-06,0.39082619435983,0
3.70224299206488e-06,0.330541503514046,0
5.66500068427836e-06,0.418773780063219,0
6.1783455889877e-06,0.436504163356051,0
6.7665321467948e-06,0.4749395530441,0
8.24330143674452e-06,0.562946934318414,0
1.01431873019044e-05,0.618866886224001,0
1.02068492164857e-05,0.641950849184207,0
7.28462670162468e-06,0.572589349091057,0
6.47963701038802e-06,0.517589874041377,0
4.35525901351527e-06,0.435519883431739,0
4.07723678260404e-06,0.489902651918791,0
4.24702892917797e-06,0.486364001818625,0
4.62096789722774e-06,0.485681845716769,0
4.7915204195871e-06,0.473868744395171,0
3.95845869593261e-06,0.429449358459377,0
2.62254943753317e-06,0.348899477823753,0
3.11548204148551e-06,0.402266809212508,0
3.18067394387213e-06,0.39753424620929,0
3.23431031540695e-06,0.415646203940344,0
3.49623212042342e-06,0.434593692334698,0
3.63779232531513e-06,0.41279169854138,0
2.496017810217e-06,0.342616463128834,0
3.16207773162943e-06,0.416275146984164,0
3.3668144480326e-06,0.441280813605869,0
3.3246790801822e-06,0.448641568588714,0
3.5155918242897e-06,0.439401930186334,0
3.87249016228679e-06,0.449690082756826,0
3.96274430873056e-06,0.447548859503104,0
3.73428360075019e-06,0.448385589683903,0
3.55288696015372e-06,0.438069221529568,0
2.96538766721575e-06,0.39099365920119,0
2.98284971437649e-06,0.39001417972564,0
2.68251240712578e-06,0.348742542345733,0
3.45397690408467e-06,0.391472896336549,0
3.49076927720925e-06,0.390483454656256,0
3.93082978020987e-06,0.374741868508436,0
4.17203337593223e-06,0.373617806870156,0
4.39557873797112e-06,0.383307228177229,0
4.6988699710559e-06,0.364187822956631,0
4.67552622301138e-06,0.36603521457974,0
4.30192031580251e-06,0.359596168235944,0
4.79684794640217e-06,0.286585317040291,0
9.59266766621903e-06,0.35112835601425,0
9.99243025563078e-06,0.310101144019115,0
1.071289259964e-05,0.317380577988258,0
1.06241579806879e-05,0.33654825740341,0
9.87377235128749e-06,0.328886417833805,0
9.01219959587762e-06,0.322735364799856,0
8.95664498084958e-06,0.341891805098741,0
9.54631167305181e-06,0.353296535231682,0
9.61807432167029e-06,0.359209114458829,0
9.38871302518831e-06,0.471737777252793,0
3.01829426494684e-06,0.341172463433458,0
2.63892795198168e-06,0.435156176897741,0
2.59526359784534e-06,0.425649685509218,0
2.61486477916726e-06,0.431453134204241,0
2.52990088076084e-06,0.420184418748127,0
2.60625616351371e-06,0.42997543183127,0
2.7946825800676e-06,0.438503552716928,0
2.41980351913985e-06,0.405171305116638,0
2.24549908254348e-06,0.444839116131678,0
1.4913582005081e-06,0.398833917267866,0
1.49832432434357e-06,0.409400298496481,0
2.23395100744721e-06,0.516430668534875,0
2.67248608511978e-06,0.552526837646805,0
2.7167421146624e-06,0.555468975892648,0
3.62580569600104e-06,0.467181980712057,0
6.37467599665639e-06,0.533443743939513,0
5.94824194406952e-06,0.487927852124751,0
6.0192553448959e-06,0.491798558757618,0
6.10412287487993e-06,0.489626023860836,0
6.01061434678171e-06,0.485479532523426,0
5.95525691979579e-06,0.481590785242689,0
5.11299523892126e-06,0.44215581163444,0
4.42859415887366e-06,0.40605922417316,0
4.80393158184739e-06,0.42231631994428,0
4.07252685941976e-06,0.479596963916605,0
1.06644011445495e-06,0.273630893125273,0
1.33374085761576e-06,0.311217574379781,0
1.57361399045349e-06,0.324260080646293,0
1.54999059593616e-06,0.326506642126604,0
1.96612413276093e-06,0.360583504246885,0
1.8799587449128e-06,0.358189267535396,0
1.73848188869126e-06,0.353650642976323,0
1.81749064145782e-06,0.380590080513314,0
1.8214006844803e-06,0.377851721758647,0
1.98026703334595e-06,0.380985074671948,0
2.88703680141589e-06,0.484949389679325,0
2.84285955806618e-06,0.459893790054758,0
2.59989540251633e-06,0.427085868895076,0
2.64637536152943e-06,0.426868469309463,0
2.16057112755557e-06,0.391511909508664,0
2.3327342043921e-06,0.39271620045626,0
3.43269661984656e-06,0.449481564837199,0
3.64071898756549e-06,0.400556914061404,0
3.52925822419958e-06,0.354540511964176,0
4.1848813119314e-06,0.399501086484071,0
3.64832508229838e-06,0.37577835031293,0
3.32756568165651e-06,0.380429565470514,0
3.17919380947699e-06,0.390419172181638,0
3.06603113080853e-06,0.386067699139482,0
3.24736178240445e-06,0.396368426013291,0
3.34044021355979e-06,0.398325133367522,0
3.21147122186074e-06,0.419220028920245,0
3.03305833012051e-06,0.509052912152597,0
2.33025577771377e-06,0.459631523559553,0
2.99492136155976e-06,0.476891939334466,0
2.99795318334726e-06,0.441277595092191,0
3.12452242328094e-06,0.439660412863707,0
3.12423543233251e-06,0.435376951340377,0
3.42359837248573e-06,0.459154793947364,0
3.74804136148545e-06,0.486217392202956,0
4.00516032457319e-06,0.513679313475504,0
5.71139640438181e-06,0.573510686969615,0
5.6659585819457e-06,0.51105663168672,0
3.79065300745112e-06,0.430828684103501,0
4.78802444919708e-06,0.508438936615416,0
4.61628835346529e-06,0.44967263709098,0
5.48613632984802e-06,0.48675267443294,0
5.20217497760735e-06,0.458493986475904,0
5.61043512529904e-06,0.47067995344134,0
6.04149352680134e-06,0.495776846711019,0
6.41456172937168e-06,0.470190164913657,0
6.04596519964807e-06,0.456183359514381,0
5.20237606044714e-06,0.44136710527317,0
5.47212752158285e-06,0.457195776405546,0
5.35161458074855e-06,0.46054104726242,0
6.42897170179703e-06,0.587756450473406,0
5.0209044171755e-06,0.474453105971515,0
4.72408689422058e-06,0.472668504689767,0
4.83272915943147e-06,0.47252073077088,0
4.90124899950856e-06,0.465572144485555,0
4.25606575001553e-06,0.486102801001289,0
2.79213994486765e-06,0.417115970802543,0
2.93152918953721e-06,0.407091279154758,0
2.93960544198902e-06,0.399497422880123,0
3.05735619231462e-06,0.347041170578543,0
3.92946103702815e-06,0.36257584700094,0
3.87222309044645e-06,0.364034206547851,0
4.27111981069583e-06,0.379610470874133,0
4.22027200301395e-06,0.384371416736967,0
3.93950560894324e-06,0.365341189093575,0
4.85297042293072e-06,0.401582379758965,0
5.95484128924427e-06,0.449936453930365,0
6.00429041944232e-06,0.434335741099759,0
6.19965436088877e-06,0.424423016561053,0
5.69565863979025e-06,0.457417096036636,0
2.27838274800478e-06,0.308096398620843,0
2.17255341695225e-06,0.314684548446486,0
2.50753305773289e-06,0.311301787195916,0
2.71193037033898e-06,0.314482920544459,0
2.40769904437621e-06,0.304361063224752,0
2.3761604194708e-06,0.31004521118688,0
2.04668279244092e-06,0.282773930162155,0
1.93894512180924e-06,0.291663849127121,0
2.41440254756868e-06,0.335564573237784,0
2.32887724189789e-06,0.341849649946311,0
2.39182696490494e-06,0.344071629404806,0
2.34493883109586e-06,0.342803664473693,0
2.14821460374262e-06,0.340172119728537,0
1.87211929615942e-06,0.310164834766554,0
1.5379462123366e-06,0.284038588554448,0
1.44359062138477e-06,0.277586032221047,0
2.62547253882567e-06,0.360338328254729,0
3.02672794854497e-06,0.364658890675287,0
2.64598276592413e-06,0.344851858912167,0
2.63651150822629e-06,0.343285940291873,0
2.56737406451842e-06,0.33140408329208,0
4.12128794578914e-06,0.384027282164577,0
4.69085481128756e-06,0.400842781195003,0
4.05925605967338e-06,0.380155054589749,0
4.41502078898816e-06,0.366206511429604,0
4.19903266979136e-06,0.354371399731686,0
4.26387593214641e-06,0.369882929613369,0
4.03582940807843e-06,0.373966618489728,0
3.98162506376316e-06,0.36378525477561,0
5.35609649134915e-06,0.401851038631536,0
5.46582017495354e-06,0.396081559524565,0
4.23881524600833e-06,0.388664776285816,0
3.3754338578397e-06,0.364637304842866,0
3.66839107990241e-06,0.380455802373384,0
3.64862921035656e-06,0.379853164142937,0
3.76848125966596e-06,0.402766296122068,0
3.90939225742577e-06,0.411674496492102,0
3.9332204070207e-06,0.403804537080145,0
3.8023659994088e-06,0.423210284044012,0
2.34918082215989e-06,0.36218294925301,0
2.45783098824606e-06,0.395907391128841,0
2.47984627644476e-06,0.353419441308216,0
3.08058465434806e-06,0.402410091071451,0
2.20738715196776e-06,0.357156860328505,0
1.95903782659731e-06,0.365116100001622,0
2.06534666288318e-06,0.374347692549659,0
2.06712769821843e-06,0.386269597038555,0
1.75979477794987e-06,0.37223087101617,0
1.75060305544492e-06,0.363215047319195,0
1.71639782949367e-06,0.35473551199707,0
9.13148111296809e-07,0.256226955155257,0
8.42370957769194e-07,0.272256467343166,0
6.93318163676749e-07,0.260575356688666,0
7.17790846646356e-07,0.272007418287557,0
7.38626344990365e-07,0.278119623445444,0
1.15570943348748e-06,0.331033337836696,0
1.5305664609884e-06,0.373672916494171,0
1.57157890303012e-06,0.362231456991411,0
1.65675256411114e-06,0.369828536832925,0
1.72526183259455e-06,0.386449027740305,0
3.89035092544917e-06,0.521707912953521,0
4.65741207544048e-06,0.377031625653605,0
5.9764095659502e-06,0.427028935445689,0
6.11185861073531e-06,0.431400630422371,0
6.08242284273276e-06,0.429813481716137,0
6.21995627195178e-06,0.442053208566839,0
6.12490451373614e-06,0.42961974621491,0
6.6132681861799e-06,0.449709943069766,0
6.73257629917447e-06,0.457209126074158,0
6.78836271030393e-06,0.463749366392275,0
4.50596453717968e-06,0.420197768912291,0
3.59596932023799e-06,0.573334480796923,0
2.67637420599536e-06,0.502932227465895,0
2.62317872555697e-06,0.462225038342709,0
2.7010823573042e-06,0.461311879768839,0
2.64730922273115e-06,0.457371278492495,0
2.53121698853404e-06,0.47735982338308,0
1.70311323103555e-06,0.396409866025054,0
1.0941907704249e-06,0.310063171612566,0
7.8440791114098e-07,0.274650027881339,0
1.16653418901616e-06,0.320253054122073,0
1.2662500230835e-06,0.321911818260943,0
1.42675530280935e-06,0.342933858444588,0
1.45252150372566e-06,0.35420060403332,0
1.38369753559038e-06,0.341722679476765,0
1.35367999609563e-06,0.336768689229232,0
2.04834486952728e-06,0.388681786827915,0
2.78758292031196e-06,0.427154705527668,0
2.68275177026269e-06,0.408830672561021,0
3.25504543925096e-06,0.461491500562866,0
2.98615439456087e-06,0.472277794457585,0
2.9212665089525e-06,0.447923316993422,0
3.71086941250778e-06,0.482186876547885,0
4.20615002305642e-06,0.517706523306896,0
4.46179530598517e-06,0.492331214480427,0
4.47631900650253e-06,0.479102754249249,0
4.23324891245602e-06,0.486248377975672,0
4.08448099499327e-06,0.498089672284306,0
4.98753290048584e-06,0.563211122610019,0
4.75481762680896e-06,0.532388803775516,0
4.46603062025319e-06,0.515860574766194,0
4.41857061886598e-06,0.563215301576131,0
3.08327050682239e-06,0.49637389886978,0
2.13717118314465e-06,0.413561072795267,0
1.42653763925948e-06,0.370449248656278,0
1.3213281374364e-06,0.370413175590118,0
1.12662831463291e-06,0.351283339987644,0
1.15233453566508e-06,0.351640968512826,0
1.09290437439394e-06,0.339588576597303,0
1.12791916186121e-06,0.331420377882102,0
1.51945015203401e-06,0.377299256540145,0
1.55781580085805e-06,0.376511892626642,0
1.58844593638658e-06,0.372219889955771,0
1.71050967437377e-06,0.38217181431414,0
1.86537628859056e-06,0.385055775460865,0
1.89486101976384e-06,0.384121256488912,0
1.88459689254e-06,0.373124082000134,0
1.892612608708e-06,0.37127478975591,0
1.75462193024234e-06,0.365495093985775,0
1.91770222762878e-06,0.404261028489366,0
2.02096878181341e-06,0.419644342915442,0
2.04713870632836e-06,0.406980015443821,0
2.08725823818388e-06,0.39432266065143,0
2.48032344479949e-06,0.438876609908394,0
1.99416222479905e-06,0.36092067664028,0
1.89936062387386e-06,0.342916163757907,0
1.98900606908153e-06,0.354041630004922,0
1.93666165757435e-06,0.337899392118058,0
2.01909338109457e-06,0.344149634732669,0
2.00707659491851e-06,0.344204844092471,0
1.89489885494122e-06,0.335227978378798,0
1.78367934647107e-06,0.333740883614364,0
1.48413346210723e-06,0.329396507653264,0
1.09505241094979e-06,0.29293931797519,0
9.29515942871703e-07,0.30824253721527,0
7.13329411553516e-07,0.281691449510301,0
3.80063815588174e-07,0.21355706806381,0
4.67503136114722e-07,0.235821057334164,0
5.31556644781904e-07,0.232390057134577,0
5.64426956651195e-07,0.235370311069578,0
6.35761956485315e-07,0.250230112412904,0
6.0932351349089e-07,0.248384807255797,0
9.86647617116934e-07,0.305055487186393,0
1.13753374811336e-06,0.296421786379975,0
1.39664161745208e-06,0.327481573030488,0
1.90221083680993e-06,0.375743528237066,0
2.56697790795525e-06,0.416256904616297,0
2.44091999931588e-06,0.417092304652292,0
2.47577109400101e-06,0.437490753867288,0
2.47859137263497e-06,0.457243114969957,0
2.43350964598598e-06,0.442839987561868,0
2.54216248279054e-06,0.458471530750494,0
1.78375112202816e-06,0.395916052197077,0
1.81945106004583e-06,0.431713185664907,0
2.84799623979534e-06,0.554748513262988,0
3.00708704028681e-06,0.626222300783918,0
2.05430947396149e-06,0.530643304984104,0
2.15487548672057e-06,0.553050886739451,0
2.99098561287265e-06,0.616442217693992,0
3.79181387971712e-06,0.685339940288897,0
4.11166857449984e-06,0.636629269697147,0
4.12740745189074e-06,0.615897127383172,0
4.15157667448176e-06,0.618419328609613,0
4.01710678183129e-06,0.617082834923014,0
3.14364476704912e-06,0.513265849313661,0
2.61414557695722e-06,0.428408410181089,0
2.3256918538022e-06,0.373639570911291,0
2.44805081745289e-06,0.385364901313823,0
2.08772027246767e-06,0.368065014611711,0
1.60625194982169e-06,0.313965128976908,0
1.61354356746257e-06,0.341870734008077,0
1.43650208962248e-06,0.321899385006284,0
1.4401583031167e-06,0.318742722607891,0
1.81201845072923e-06,0.34388303636078,0
2.21685929990507e-06,0.391604999739505,0
1.25918552778683e-06,0.310213300230417,0
1.35143481215786e-06,0.357730950142233,0
1.39008633913099e-06,0.368487478323393,0
1.44700201902535e-06,0.352917533640632,0
1.70555994293284e-06,0.386787978147254,0
1.38342779303164e-06,0.347830198903672,0
1.3087267977698e-06,0.348232184851818,0
1.25910585135446e-06,0.346886797362091,0
1.05679615030036e-06,0.350366172511941,0
8.0182722680727e-07,0.316315033657209,0
8.74437383399069e-07,0.347646613271174,0
5.74431467790243e-07,0.279708527238115,0
1.31993146299137e-06,0.362543789352806,0
1.67454043891709e-06,0.391647181946127,0
1.73075371987136e-06,0.394708770204578,0
2.08050488158121e-06,0.427867418673822,0
2.09365015756263e-06,0.431250799966436,0
2.14175558256398e-06,0.427147225200708,0
2.26923876459129e-06,0.431677822131422,0
2.21108387135777e-06,0.425783145795982,0
2.30870975699453e-06,0.421601620288495,0
2.25265137770765e-06,0.406857902331324,0
1.59914127335263e-06,0.382372328615485,0
1.22273945781522e-06,0.366485520033657,0
1.08385375484463e-06,0.367100686943179,0
7.23653407381567e-07,0.300312686458142,0
1.10655341463419e-06,0.358029660730074,0
1.21373746759684e-06,0.374916501757091,0
1.0776882901305e-06,0.345161006504556,0
