Activity,Complexity,Tag
9.22032189545917e-08,0.195780640256451,0
1.03212952449192e-07,0.230088405155687,0
6.18894854241246e-08,0.190310518035651,0
2.58152500841174e-08,0.150804859553249,0
2.53117623639143e-08,0.153175322981133,0
1.84937840775163e-08,0.151620427633183,0
1.39724609664396e-08,0.146455503993359,0
2.36961521542105e-08,0.174664048432444,0
2.18551059945166e-08,0.175925316159215,0
1.63133574182502e-08,0.159627747229172,0
1.33188235984946e-08,0.162715747802533,0
0,0.117661830297482,0
1.81905240847521e-09,0.119079089676627,0
1.76153028990369e-09,0.114463966849518,0
1.12201967754903e-09,0.117334604038392,0
7.5096817622211e-09,0.123316030170554,0
2.86642867804272e-08,0.165953520326626,0
2.8549242543284e-08,0.153495977614796,0
3.50401906673324e-08,0.168720411828525,0
3.57588787840738e-08,0.166187010030087,0
3.0096249167456e-08,0.15466964669044,0
4.04726472183129e-08,0.180826380247645,0
3.76519486245345e-08,0.162348532394721,0
6.97646018219771e-08,0.202793420537212,0
7.4891176048318e-08,0.194256323652075,0
7.29790731539181e-08,0.198933790774764,0
6.09991614565278e-08,0.18240899243803,0
7.04490304416279e-08,0.187993352956858,0
6.5109624376572e-08,0.178081313245846,0
1.09737314156822e-07,0.210978128677229,0
1.24246422652994e-07,0.205593244928115,0
1.05586924119181e-07,0.184804112124886,0
9.78489303010415e-08,0.185291344050212,0
8.70181921048199e-08,0.17429742381633,0
8.78333143615197e-08,0.177092275337822,0
8.39836465761167e-08,0.17173805964911,0
7.60331592846655e-08,0.164760711902958,0
7.56097795737086e-08,0.168526086951814,0
7.50177247091756e-08,0.174905386876934,0
3.02789664852718e-08,0.132320456406787,0
2.27550733761094e-08,0.134808557537552,0
1.3551534404657e-08,0.124339783718433,0
1.29681924492604e-08,0.123289937130822,0
1.37545536466743e-08,0.12994181911223,0
1.04031289177224e-08,0.122216304064711,0
1.93681202798044e-08,0.135715055760846,0
2.40801122956758e-08,0.151223805004215,0
2.67160633792184e-08,0.149228339939119,0
5.69913078450532e-08,0.191686965098727,0
1.20786382629563e-07,0.243723593061268,0
1.19565560254232e-07,0.240491533493386,0
1.26543247011017e-07,0.246546139588563,0
1.39438775489905e-07,0.238658401524625,0
1.79760088781565e-07,0.257823322032485,0
1.80898265407124e-07,0.260210257834576,0
1.49494995277831e-07,0.236828602433737,0
1.29190025787467e-07,0.206025228766785,0
1.46202953677169e-07,0.22394594205091,0
1.45121622439374e-07,0.216573728819062,0
1.17630702286456e-07,0.205834449279075,0
1.24992180002005e-07,0.209783981978396,0
1.61883525495456e-06,0.303959389098663,0
2.27975417024767e-05,0.551216470710234,0
5.03065731173836e-05,0.641425928054723,0
9.39728578330218e-05,0.131387913846667,0
0.000361020929636662,0.153252464794783,0
0.000406844956318194,0.147632035507486,0
0.000430612491391359,0.158208488466481,0
0.000526052488755474,0.157958821232957,0
0.000693060289368947,0.19086285772588,0
0.000803974709090986,0.203118230494072,0
0.000691197171549401,0.163666630712923,0
0.000784066751849157,0.136926141564795,0
0.000780240452847381,0.109003664353828,0
0.000553910156824745,0.0914845220916204,1
0.000541361496448849,0.103169582171327,1
0.000479899499929731,0.0856448609214716,1
0.00036806641543064,0.062542392042733,1
0.000485838210591861,0.0728334969002886,1
0.000739907405043533,0.0872774934658998,1
0.00072373175667683,0.0641904711248446,1
0.00077268531372341,0.0514010568782477,1
0.000658883599682365,0.0400534079688954,1
0.000665042865119768,0.0347019333418517,1
0.000665209898608998,0.0314637452556636,1
0.00068019929031815,0.0317228255893264,1
0.000681496066252304,0.0343403784906276,1
0.000665658322435285,0.036146187055457,1
0.000601467354714995,0.0368784888690584,1
0.000490579418514712,0.024741646292408,1
0.00107558036087377,0.0402963720956968,1
0.00104208602131276,0.0323063663534371,1
0.00110436443239064,0.0419239104673801,1
0.00108586211642948,0.0440331078438644,1
0.00115957241819872,0.0461230957446906,1
0.00168952149104837,0.0520657894244939,1
0.00197306336241911,0.0562109707097791,1
0.0021699379090979,0.0589127107104129,1
0.00266833966831258,0.0663057208580077,1
0.00354601673875189,0.0910422643982378,1
0.00405148515553762,0.0908690216312853,1
0.00366741922074532,0.095766969558066,1
0.00311529830472978,0.0447001582474056,1
0.00425024966239422,0.0448144111228668,1
0.00370347555460989,0.0377118893859552,1
0.00348776422462061,0.0375620792563585,1
0.00314479347144374,0.0347290579230647,1
0.00293656048085233,0.0296578311252102,1
0.00357951382583998,0.0344930627569508,1
0.00369899957711539,0.0325536552660471,1
0.00372316825697835,0.0350595989174471,1
0.00313639317539641,0.0303902212839243,1
0.00325885064637343,0.0380822587165375,1
0.00257009811639248,0.0288009608488866,1
0.00366101512975145,0.0273652430930739,1
0.00785104629448989,0.0346939166556498,1
0.00921161016053515,0.0340438311671847,1
0.0110226517490528,0.0361155589757283,1
0.0102948878066546,0.0291032626367611,1
0.0111198288751474,0.019231212200864,1
0.0116390361408571,0.0146361659900474,1
0.0141934227097705,0.0139534106983464,1
0.0106697377810815,0.00758816792382004,1
0.0118271032758183,0.00863509491818699,1
0.0119585473363595,0.00840171741310527,1
0.0117797947866505,0.00806659060300902,1
0.0119288212284058,0.00827167577533014,1
0.0117537399262359,0.00805061957382574,1
0.0113726369424903,0.00868282401519848,1
0.0102243176428366,0.0104441717652831,1
0.00807468994324029,0.0107541115821183,1
0.00473484998117584,0.0107608368505178,1
0.0046535451162298,0.0215190136762088,1
0.0050099845072482,0.0266547612206343,1
0.00535990216836508,0.0498070135282072,1
0.0048871746704917,0.0427637012099487,1
0.00490656013326729,0.0513603169172705,1
0.00369306767292712,0.0521663367932643,1
0.00324442792078832,0.0499442246429247,1
0.0021099971515778,0.0383523106605644,1
0.00193853028209658,0.0400656850877476,1
0.00229422865964892,0.0309079457197017,1
0.00257954995339536,0.0358608857297514,1
0.00306316970361856,0.037910923087457,1
0.00259408326956758,0.0244131844067526,1
0.00267522261047246,0.0307886409079951,1
0.00260413303359739,0.0310896686302906,1
0.00259863802952487,0.0276400189069171,1
0.00288504434345332,0.0226733052446941,1
0.00314560696683958,0.0184159806436643,1
0.00309092728184806,0.0159236386897959,1
0.0030057183189811,0.0166858041665376,1
0.00453488247051982,0.020399619959561,1
0.00451582163001377,0.0151091773950968,1
0.00494993219919834,0.0184139337129868,1
0.00615545824665639,0.0222500243466535,1
0.00676214046629752,0.0226665750506345,1
0.00695503189506011,0.0237684703044362,1
0.00726501943795584,0.0285065038003643,1
0.0061799125870278,0.0309558182128202,1
0.00640329708924439,0.0287171166380255,1
0.00835895297279521,0.0385674738316252,1
0.00801284201450154,0.043506130275162,1
0.0114469587477754,0.10507120675429,1
0.0226927696151184,0.0973583288180945,1
0.031716449587153,0.0896281465006907,1
0.0308485805387109,0.0847829689729019,1
0.0268857888887098,0.0760323753864795,1
0.0213206401187794,0.0493427691137489,1
0.0238856093069375,0.0459773851410495,1
0.0239778026730299,0.0464825782336714,1
0.0210226134741523,0.0329129273828904,1
0.0344868190743699,0.0205714435457848,1
0.0552106512666536,0.0245187971759531,1
0.0589477059656839,0.0256029412030924,1
0.0909958162003059,0.0328560133400446,1
0.0896040251044847,0.0187051426543375,1
0.0794582426260956,0.0169282493711808,1
0.0726531874469872,0.0168382300026085,1
0.0760218955233444,0.0179950652516637,1
0.0763278806785834,0.0173332135447614,1
0.0691069720413874,0.0158179738126542,1
0.0685382596051995,0.0170681487845279,1
0.08629480067522,0.0212905701052032,1
0.0879776332749755,0.020020211042827,1
0.0675849964046443,0.0169041651857625,1
0.06139125601302,0.0269917993592467,1
0.0561059535960556,0.0241571904072564,1
0.0468470179465364,0.0186619118811592,1
0.0407549739637744,0.0168298391440386,1
0.0393472467289995,0.0164479874578938,1
0.0392674650637954,0.0174182686326073,1
0.0356235061985057,0.0289486118920131,1
0.0158665295093913,0.0197205204082884,1
0.0153188715531918,0.019523679285702,1
0.0155121413493387,0.0180675637347743,1
0.0158110556113485,0.0153802245773562,1
0.0211893386603919,0.0196845929148282,1
0.0412513592703191,0.0413865372287148,1
0.0582631703656355,0.0516084067164791,1
0.0774524982990532,0.0681084948316477,1
0.0819603486106479,0.0689017960751628,1
0.0984590283673928,0.0761838868879328,1
0.085329333599922,0.0596333761745919,1
0.0722508271504505,0.0611876291431848,1
0.058181579735034,0.0569182400552442,1
0.0255064521879621,0.0323930753432442,1
0.01644898597124,0.0223624108495764,1
0.014615056312033,0.0188316453155727,1
0.0128776302179209,0.0155987680369931,1
0.0371052611591876,0.0242340744956199,1
0.0438261444509253,0.0201586529120472,1
0.0403445723708774,0.0191929178094239,1
0.0349265041227237,0.0158183955025424,1
0.0327263195969879,0.0151482270566756,1
0.0280043531753761,0.0137087784130877,1
0.027966944822096,0.014599821262401,1
0.0250296722026123,0.014446611962097,1
0.0214551173926201,0.0119181850307299,1
0.0184476907868372,0.00990597897583863,1
0.00888737897778083,0.00833214773767264,1
0.00615590188092039,0.0136539876873898,1
0.00600898336942942,0.0153100834446177,1
0.00638855827454225,0.0261230241769464,1
0.00547356957705676,0.0192402209182127,1
0.00532459692795652,0.0192868998937342,1
0.00931411509479764,0.0255746274856043,1
0.0110526417657795,0.021781080241234,1
0.0102771506029664,0.0226745068913249,1
0.0107679795624979,0.0222859568088539,1
0.0104894534797833,0.0193278730835503,1
0.0122702222959328,0.0176265217378391,1
0.0127279739770632,0.0152431001628655,1
0.0124836843720177,0.0154596532948139,1
0.0114278336530327,0.0161733953572382,1
0.0113688942516341,0.0183299388923815,1
0.00987249299761713,0.0158265223464696,1
0.00983350468701318,0.0198079778740309,1
0.0105863173035383,0.0200260165189486,1
0.0114777706045809,0.0228318203746467,1
0.0101935028996895,0.0221618583216726,1
0.00969542003667127,0.0294383917238201,1
0.0100891949805535,0.0386110725819185,1
0.0128026583092408,0.0427519024166505,1
0.0120443216010612,0.0359966723386908,1
0.00579198189783645,0.0203145622869978,1
0.00459656038087893,0.0279017809506457,1
0.00557494715578847,0.029328877916408,1
0.00520072031297363,0.0262388776236564,1
0.0046023174465878,0.0249191113864519,1
0.00466526751493696,0.0265716639971156,1
0.00416466562063172,0.016291712082096,1
0.00400055597561293,0.0159209464096701,1
0.00327343406870969,0.0143140687821528,1
0.0029929233378966,0.0158041449756709,1
0.00286924201177513,0.0151895757486005,1
0.0036387611463537,0.0168923510996851,1
0.00813614290041224,0.0294045698168999,1
0.0148488364114918,0.0277236368253802,1
0.015361025480239,0.0181301864144016,1
0.0264166713408603,0.0207061469918278,1
0.0260190451831165,0.0150039817536593,1
0.0253865356703744,0.0140639389316433,1
0.0242942992526411,0.0133234339583121,1
0.0232098109404378,0.011129411601574,1
0.0208608918476203,0.00951928391045135,1
0.0193936188963416,0.00874907848939784,1
0.0190003899354905,0.00926869423914227,1
0.017468778520982,0.0096392049782125,1
0.0199035563450797,0.0141065206916251,1
0.0199430600686696,0.0185668914988745,1
0.0272595066952039,0.0395737498812706,1
0.0271866419036961,0.0423186969882084,1
0.0334014246019367,0.0463540151992532,1
0.0337318869031215,0.0413321741619392,1
0.0276274828428657,0.0349805039931909,1
0.0235028780909376,0.0301995141684107,1
0.0216583804247958,0.0267855986534341,1
0.0197222351546402,0.026388665181427,1
0.01994145504972,0.0245593047737582,1
0.0271555498538595,0.0256637839238885,1
0.0765226800592582,0.036351411581536,1
0.123056441398424,0.0243330971727817,1
0.128426123373849,0.0193231650315232,1
0.126694034721929,0.0161749781657036,1
0.122606026666647,0.0167777953390918,1
0.120041641791553,0.0166537036577959,1
0.106557134871116,0.0149693252177591,1
0.0905599575563547,0.0125085735527628,1
0.082791059814467,0.010809648634983,1
0.0971783326805793,0.0130117826795185,1
0.0906704470245739,0.0112342211227724,1
0.0703532216115091,0.013201868034518,1
0.0556959218081218,0.0149025441306408,1
0.0536149303946203,0.0207384695892007,1
0.0559772383730613,0.0219984212699952,1
0.064007107566642,0.0243871219369492,1
0.067595843822986,0.0241916060450009,1
0.0661837537896298,0.0238572618221945,1
0.0743332252818268,0.0309218418069057,1
0.0522768975316439,0.0234651841818166,1
0.0436949608770141,0.0326481469420024,1
0.0543009248875581,0.0383661415479722,1
0.0729657618691854,0.0453319003672469,1
0.10182819567336,0.0544591999410594,1
0.130318911929712,0.063314833461447,1
0.156351032046704,0.0687375155572575,1
0.16743444436494,0.0816661187903065,1
0.149070885253283,0.0865130801065289,1
0.0738867002674413,0.0534167515682687,1
0.023526886265395,0.0421928989542606,1
0.0155253523517017,0.0466166560282312,1
0.00999470425895401,0.0334293483735052,1
0.0110341147444068,0.0481140699417103,1
0.0120124167482089,0.0539297358764084,1
0.0100016491249434,0.0513704484275739,1
0.00678325236748704,0.0417698296309113,1
0.00588764328861449,0.0381793485555215,1
0.00384642964955591,0.0297642353832884,1
0.0041542914101132,0.033626800188281,1
0.00410328351472207,0.0308561891593356,1
0.00449856033853435,0.032035922955817,1
0.0046050017841778,0.0225405757056333,1
0.00597326995908857,0.0279414857995508,1
0.00718640370244605,0.0324684863814238,1
0.00717410941841309,0.0272507819167636,1
0.00866891779885286,0.0299825384020716,1
0.0141122837518953,0.0343227593415745,1
0.0242958349119278,0.0367697187236936,1
0.0234471174015692,0.029866926447224,1
0.0223579731154343,0.0281268324917578,1
0.0227532149742577,0.0289245737601261,1
0.0214148371974077,0.0329359089359542,1
0.0188391986277863,0.0267986703330712,1
0.0214016515311693,0.0280422341965247,1
0.0224060529498197,0.0295787451763609,1
0.0241765822637932,0.0296751590334864,1
0.025786430303546,0.0193214496206736,1
0.0228493094795193,0.0181551885844165,1
0.0342599881553977,0.0208715653466644,1
0.0524434505927562,0.0279550023015611,1
0.0532209567020058,0.0287780856515889,1
0.0610951831107876,0.0294048627040322,1
0.0680889719388052,0.0319611453681319,1
0.050269576494655,0.0272926174505992,1
0.0377051108633495,0.0193921774459241,1
0.0196439544593323,0.00668765147772283,1
0.0291124673203818,0.0134116123402565,1
0.0325582135812105,0.0164019287847273,1
0.0360706202596026,0.0208016736903716,1
0.0354733496987797,0.0202324167861847,1
0.0345299813462222,0.0193933544051239,1
0.0346760736786902,0.0199017632272459,1
0.0346196746761001,0.020772645407351,1
0.0326227367019454,0.0197062000458101,1
0.0299969054233944,0.0208721263182991,1
0.0214703664283448,0.0310990599277177,1
0.0174826746659156,0.0316000163026899,1
0.0153985796443072,0.0272969369579278,1
0.0183087818546025,0.0264532695890282,1
0.018978266616292,0.0214103933885212,1
0.016508257675549,0.0178412167181121,1
0.0162043685928126,0.0216422410740339,1
0.0192252709671496,0.0250363836679662,1
0.0188160093245896,0.0253192961994171,1
0.0183487455428166,0.0209664312730965,1
0.0186325071167894,0.0130410562851974,1
0.024156244129164,0.0110471371426143,1
0.0362102505909377,0.0136454852067767,1
0.0573202597510888,0.0225413531171925,1
0.0634023239416716,0.0286990837131372,1
0.0831831945440685,0.032237084461738,1
0.100967709734841,0.0318574879008802,1
0.0934059003443096,0.031921656046305,1
0.083640218287018,0.0313241730052089,1
0.0787097372813739,0.0321182556266629,1
0.0647842402096454,0.0348004830478556,1
0.0219711764039231,0.016015057748928,1
0.0244053474376814,0.0239308930243061,1
0.0251019549046242,0.0225254954832293,1
0.0557615747241711,0.0312753638364569,1
0.1015308377495,0.0602416830814256,1
0.132721309149387,0.0755170628365572,1
0.191206101625387,0.0959743980983384,1
0.217210119501513,0.0911193217591612,1
0.2136458560542,0.0909427049931872,1
0.153558833052527,0.0697632786803301,1
0.125204546183605,0.069247755231085,1
0.0887197639861187,0.0371544776024204,1
0.0345879651051727,0.0180055724386565,1
0.0234162686679256,0.0260193670716921,1
0.034013631257942,0.0356939406797171,1
0.0446873240318381,0.0559108765474849,1
0.04185580331397,0.0522392766561714,1
0.0472421401215407,0.0475341650217141,1
0.0376292387419728,0.0316455537367332,1
0.0334785373891277,0.0241510800210423,1
0.0250801724676756,0.0179293502734487,1
0.0430932363745743,0.0224610257033449,1
0.0446234000064214,0.0136017578611367,1
0.0446963900198593,0.013755773535521,1
0.0449491879187297,0.0135800112596428,1
0.0513326272826836,0.0147362037161592,1
0.0559607277546188,0.0155857057040377,1
0.0546686923623996,0.014877757221568,1
0.052552497228769,0.0144566630337852,1
0.0522553445439973,0.0159937442117094,1
0.0513953189440812,0.0159017579644197,1
0.0201822453398238,0.0072784433605249,1
0.01850894667653,0.0162635969969713,1
0.0206239432523133,0.0109108720414984,1
0.0228417810216071,0.0129933406726944,1
0.0195542023580908,0.0120588637044697,1
0.0217101440555087,0.0113274653062241,1
0.027877361485252,0.0158434055982717,1
0.0252786809215887,0.013764240579672,1
0.0256000902724789,0.0154678006514246,1
0.0258061544376918,0.0164539015121503,1
0.0276994392258748,0.0190150876359529,1
0.0242557997223668,0.0202250040544529,1
0.0202518164528037,0.0293449102339493,1
0.0255134915733662,0.0301795524137633,1
0.0444465374748353,0.0405022210911386,1
0.0372212274285203,0.0365205506731585,1
0.0366114182267439,0.0198165945839822,1
0.0497279440920365,0.0254256775825453,1
0.0526031052711648,0.0229006496029665,1
0.0477879106487048,0.0201975937460867,1
0.0643180709133191,0.0215759067794571,1
0.0598912516028489,0.0157314698473959,1
0.0479941830372196,0.0117941698259044,1
0.0467998540321925,0.0113296832417905,1
0.0476774797213378,0.0118022129169262,1
0.038493919406548,0.00957043728975648,1
0.0418296799592619,0.00953334999062157,1
0.0604055479117642,0.0135755962115355,1
0.12268894810293,0.0262423414529962,1
0.130794609929171,0.0116319464542136,1
0.149776401344564,0.0122508538313965,1
0.153247406129344,0.0128442663862572,1
0.178197185016913,0.0149246779844762,1
0.181306157306689,0.0135967369070226,1
0.177887255342875,0.0130622077932087,1
0.162216088685098,0.0107556728044279,1
0.150838962125943,0.0119934938128337,1
0.14645048402043,0.0114051339886553,1
0.107535652192389,0.00764051588333237,1
0.105297324312407,0.0141979935516341,1
0.0775285985869041,0.00795946204449945,1
0.0822124624959038,0.0103195012589336,1
0.0557651064796421,0.0064937326094403,1
0.0586827272690142,0.00766084575475804,1
0.0634367535485849,0.00784907791688789,1
0.0700292851277645,0.00968841224289539,1
0.0683856745149447,0.00808086438180954,1
0.0671272985562652,0.00836695666210796,1
0.0715619494960733,0.00865622665266402,1
0.0629655117880741,0.0113322518856446,1
0.0557623449429703,0.0167069835937296,1
0.057349283902672,0.0158977609634136,1
0.0570552282656941,0.0138038160288909,1
0.0603648746511665,0.0166957011948941,1
0.0936836701643598,0.029284368949003,1
0.0952679136126308,0.0388198178265342,1
0.104055679117269,0.0465408289368723,1
0.102939752246724,0.0477242269720422,1
0.102403935033969,0.0545394122585478,1
0.106017756947779,0.0544767517084192,1
0.0986317801236629,0.0465364331857118,1
0.0600013287867817,0.0368136136524367,1
0.0306195864396487,0.0352066746386932,1
0.0199314265234485,0.0326752756843861,1
0.0268372506917757,0.094632548773973,1
0.0301195135599418,0.108736982765988,1
0.0268874256399899,0.0907366065521956,1
0.023152651713432,0.0691333900622258,1
0.0154425495563958,0.0504284931665807,1
0.00798652263380295,0.031570159545622,1
0.00433144773921896,0.0206179352680511,1
0.00467000661272856,0.0190711982715861,1
0.00936473981124842,0.0307442923417169,1
0.015707890189003,0.0393746211189476,1
0.0166175295900872,0.0405527413067944,1
0.0315553666963765,0.0390631869796418,1
0.0383606971052877,0.017002809018222,1
0.0397712402266774,0.0143844063950302,1
0.0351166408227263,0.0113222946206731,1
0.0356735482990486,0.0119006649279125,1
0.0318968682746698,0.0107236727957909,1
0.02838568203114,0.00971179202492281,1
0.0283251267232929,0.0102114713518563,1
0.029853426308592,0.0101682569775076,1
0.0430985264245468,0.0144394309628244,1
0.037898597194406,0.0144923714162996,1
0.0308682365677681,0.0235508742482538,1
0.0292974598547946,0.0301924763101012,1
0.0233704356799747,0.035720474208646,1
0.0273105491846509,0.0339184436114741,1
0.0353796959168151,0.0410488978511833,1
0.0434404678430974,0.0426730545299576,1
0.0681485219793651,0.0595507032786889,1
0.0940406578088413,0.0935002728894261,1
0.0831328342418241,0.0832702465553931,1
0.073045428652314,0.0713175423926486,1
0.0682071820207882,0.0733305401646968,1
0.0618515980071005,0.0682556462151906,1
0.0471570662226384,0.0475227488344697,1
0.0431866068972405,0.0276177671885737,1
0.0420353291442621,0.0210075865782949,1
0.0321022817902813,0.0174103937965778,1
0.0342050225005472,0.0110452593509933,1
0.0697004924717986,0.020805052400432,1
0.10574397677855,0.0274348032431253,1
0.119575194631842,0.0132140806707259,1
0.202574999856621,0.0202030753175249,1
0.209885521020091,0.0146024915979876,1
0.210424072099855,0.0136661594888592,1
0.214272393231472,0.0134395441500089,1
0.219120420138694,0.0091423064199531,1
0.281797405980038,0.0124147549867824,1
0.309181604950483,0.0131684747995865,1
0.290309190984359,0.0130445529826737,1
0.257147615198368,0.0109558869483022,1
0.278594352985562,0.0157725398467517,1
0.287079078153768,0.0156136700717139,1
0.330713680333028,0.0243839069231643,1
0.330660839347971,0.0216785304250357,1
0.323623935395259,0.0223769213313471,1
0.321928493527032,0.0373701143947643,1
0.253883201731036,0.034319222139022,1
0.207374717810907,0.0355926751167439,1
0.200860331660136,0.0330805848379909,1
0.225531635251607,0.0369593915896867,1
0.244034276812069,0.100975679910042,1
0.159881984521858,0.0754696737303694,1
0.0699840638080287,0.040743425102896,1
0.0341872933396355,0.0327269582045268,1
0.0192181874573742,0.0236854263393352,1
0.0173900478582249,0.0214924567944763,1
0.026382080581333,0.0229475587744858,1
0.0475218937826881,0.0347124217690715,1
0.0677132594889831,0.0444801266396428,1
0.0814680171810771,0.0623755405944234,1
0.096816124635852,0.0732392776266449,1
0.110909365265661,0.080075210919267,1
0.0960225909411841,0.0589514547192514,1
0.0777163086521299,0.0466927233192626,1
0.0537279148808413,0.0325276838931289,1
0.0227529840686309,0.0133228529458046,1
0.0195779783616887,0.0195137752765683,1
0.0220875531578612,0.0265218109382429,1
0.0243273082138829,0.0296547469156749,1
0.0241419502877224,0.0296250498816689,1
0.0224159606630623,0.0313755940287585,1
0.0154414605402876,0.0229715302074343,1
0.017059173695372,0.0364393796388277,1
0.0183138494958111,0.0394637996162127,1
0.0127593892147539,0.0369283210039669,1
0.0103283497173599,0.0151021533086507,1
0.0171710565913189,0.0212072885165759,1
0.0183943127609001,0.0160064103142206,1
0.0192582065596059,0.0151583837746144,1
0.0191825855682945,0.0148636753234321,1
0.0200826757876101,0.0149894846371968,1
0.026539684106346,0.0115136245590938,1
0.0329460785159376,0.00902101802152464,1
0.034094769306291,0.00918536722562665,1
0.0354503832011649,0.00881243436774901,1
0.0354347393068875,0.01096643728348,1
0.0274084430667958,0.00792450029397133,1
0.0260968858667003,0.00874431846605247,1
0.0260112201871786,0.00889581722490054,1
0.0279190957028377,0.00792380926584928,1
0.0293922235877041,0.00786555800211275,1
0.0241280355981652,0.0101527333943154,1
0.0156853323508507,0.010786500270813,1
0.0228369320311916,0.0170626569702198,1
0.0481575032591725,0.0225584805031191,1
0.126411538340018,0.0375717978167254,1
0.136693977405092,0.0337345377476902,1
0.143106894083601,0.0353328852966529,1
0.135423097093887,0.0353912917936634,1
0.12215929625558,0.0272438420227163,1
0.12173632447863,0.0226225536085183,1
0.0996404454414243,0.0207707703945983,1
0.0712154690211038,0.0149830767873618,1
0.0787832451002103,0.0167066054581494,1
0.0795299087085069,0.0168162306162556,1
0.0957018812917128,0.0205174792314507,1
0.138253620598241,0.0288018846476904,1
0.152100832703306,0.0289208956452673,1
0.155540147844174,0.0295315157297763,1
0.161447521035388,0.0327335032846561,1
0.182171001799756,0.0389441783432044,1
0.195527900691989,0.038348781037676,1
0.172082582605128,0.0282939017428636,1
0.113310243816815,0.0205071974051121,1
0.104918854801556,0.0245072227357263,1
0.15204719918958,0.036341482160058,1
0.216150887889471,0.043336364684217,1
0.226834578628814,0.0305083037575645,1
0.229349513277119,0.0306636141817112,1
0.214111018324078,0.0383677966350239,1
0.136952013833065,0.0275950516673471,1
0.0833785292586539,0.0174048192582268,1
0.0644020542181462,0.0156771916823708,1
0.0631838769633475,0.0143867333607495,1
0.061650659646671,0.0138802618878661,1
0.06142864343527,0.0149840227230678,1
0.0480789664392722,0.011663416840535,1
0.0420510592802676,0.0158777117033789,1
0.0316945083457617,0.0135315515115185,1
0.0226661506990689,0.0102112084073125,1
0.0195728454012383,0.0111296151802224,1
0.0195780899024905,0.0105063235467275,1
0.0340114264457111,0.0197910678100559,1
0.053580693486212,0.0347959651279203,1
0.0773794098664547,0.0485894689467265,1
0.111193742912859,0.0584458793720201,1
0.137539896898843,0.0815806817282529,1
0.130174980091812,0.0880822339049414,1
0.116840890521897,0.0813430962897206,1
0.100494606092898,0.0697084994898634,1
0.0566203970577163,0.0559564703599548,1
0.0152530657581548,0.0404839526410424,1
0.0157529889829041,0.0271720726435268,1
0.0245614516540031,0.0315578454487989,1
0.0248474137039695,0.0327106837527614,1
0.0238355474911113,0.0302997885845763,1
0.0224525814833856,0.0322111981463174,1
0.0265739596127726,0.0317032853182932,1
0.0355774460387903,0.0366422106345145,1
0.0415695610403505,0.0262758754806942,1
0.0387047198175552,0.0205782466931667,1
0.0342159324181934,0.0133342751568939,1
0.0435050010812116,0.0195177144169911,1
0.0479277846220786,0.0239836607304703,1
0.0411342951787494,0.0196438836824562,1
0.0333888782233279,0.0167593591794703,1
0.0309175396731946,0.0114308786359102,1
0.0374351925735136,0.0122903444553942,1
0.0402900680841909,0.0125193944718303,1
0.0447161723688423,0.0155663567646012,1
0.051575053709596,0.0193819089550307,1
0.0590550419814424,0.0290446178824436,1
0.0545565923516693,0.0285159153349779,1
0.0495138886941624,0.0249045666721562,1
0.0478926677228747,0.0266294114690731,1
0.0488177305058414,0.0264708460331564,1
0.0422128740393392,0.0328492209683399,1
0.022066339953369,0.0235307302257139,1
0.0311792368406001,0.0177625933546212,1
0.0533048297131613,0.0232741885028331,1
0.0485609062319986,0.0208166531243647,1
0.0616737891923381,0.0253061851662931,1
0.0686623395859106,0.0244379542930878,1
0.0589952803930559,0.0213047844998254,1
0.0682116873656928,0.0240083910641635,1
0.0708235133150542,0.0264668556167871,1
0.0612098827058492,0.0192582839891416,1
0.0476521226245233,0.0148448604022997,1
0.0463725196904718,0.0152035788830354,1
0.0673227803905208,0.0237192410540971,1
0.0838590499703104,0.0298171201371854,1
0.0981335972482061,0.029806944632262,1
0.0943037979822038,0.0303070557038389,1
0.0832647476483395,0.0273927559920815,1
0.0851969494977772,0.0242983874891454,1
0.094269354713449,0.0253573175168307,1
0.0989397210668001,0.0308209316255924,1
0.0865478278218959,0.0323931960846919,1
0.10135000182961,0.0509526098930994,1
0.106297511745834,0.0728421307309614,1
0.0766289474775687,0.0516061987230967,1
0.0562856674217428,0.0459242405051512,1
0.0728925681393882,0.0620283317985294,1
0.0534140118772914,0.0517835927338805,1
0.0402576193204571,0.0469756946850821,1
0.0339363196052826,0.040722966832756,1
0.0299981709205769,0.03206772459426,1
0.0266158805692335,0.0255977769274387,1
0.0265818872489795,0.02287533617056,1
0.0279969141914275,0.0234542403931974,1
0.0218628892962237,0.0189548889500271,1
0.0212884784347432,0.0252663646918527,1
0.0229514648611723,0.0283140537862622,1
0.0228256453770823,0.0275770076692262,1
0.028472792756793,0.0275142366570161,1
0.0285752756012931,0.0235653685280637,1
0.0278029765793872,0.0254169192523941,1
0.0239175906658993,0.0244778690226319,1
0.0287057668273962,0.0323464959269656,1
0.0300113753069658,0.0208100519749181,1
0.0297769582664415,0.0194194950407187,1
0.042655251210225,0.0188162669136409,1
0.0719726450483978,0.0279875720558751,1
0.102893370109064,0.0383345653675889,1
0.116450545452339,0.0522902021151119,1
0.115104353805429,0.053557405907365,1
0.112902196150906,0.0513873171843521,1
0.0998808382520815,0.0439586674892444,1
0.0663189024881156,0.0291577623649143,1
0.04440197215798,0.0218570627197533,1
0.024667735226893,0.00902329624609639,1
0.0259282830756957,0.0229855147633886,1
0.026791939913895,0.0249940338712512,1
0.0256329524930198,0.0240605941828477,1
0.0244694904285711,0.023074142826758,1
0.0223617822652316,0.0205418102458107,1
0.0193353316693035,0.0142208070117408,1
0.0139152356789181,0.00987161734589354,1
0.015920923298372,0.0111430633961878,1
0.0143922696535208,0.0111609218208909,1
0.0111757384901266,0.0101359875363747,1
0.0111851042008686,0.00958084381746044,1
0.0116280443179739,0.00998781944141453,1
0.0116982914093204,0.0103133402480858,1
0.0117946804871277,0.0105805048315367,1
0.0131800059408351,0.013272048029536,1
0.0134073073357527,0.0168842849532522,1
0.0169312414951774,0.0238871340077219,1
0.013473259138845,0.0339289278022177,1
0.0126363626887931,0.0559442903162927,1
0.0149782658690374,0.0730406227112272,1
0.0103275543722227,0.0477448201758521,1
0.012695302037322,0.0483147191196145,1
0.0192907957964136,0.0520391601996961,1
0.0194278190806837,0.0425945197163382,1
0.0250837275413446,0.0493614904724179,1
0.0381323012532615,0.0599467459934748,1
0.0648183455695364,0.0772601659863725,1
0.106610023779965,0.0510691975680958,1
0.25096125107052,0.0529312681632584,1
0.223964419999457,0.0271548633651132,1
0.192435752952269,0.0244390557157004,1
0.184811098564305,0.0202175732635006,1
0.222125487107657,0.0236681627722254,1
0.191633699646892,0.0157806971725525,1
0.164591655164961,0.0137458430286878,1
0.144964878931024,0.0103569405035063,1
0.283834063214684,0.0143765069427082,1
0.401709803149108,0.0169891385416846,1
0.394000256043296,0.0148205758415136,1
0.360293731806061,0.0163047901391778,1
0.316267360720531,0.0143579578629282,1
0.313876059781453,0.0164449273768956,1
0.320085147666875,0.0128834180754931,1
0.348713212440092,0.01692856483433,1
0.277305598642382,0.0128333035783592,1
0.251079577065662,0.0127647828797064,1
0.192203809771335,0.0148923833052615,1
0.109180442797623,0.00876002588908762,1
0.139730258643083,0.0117215381035952,1
0.178882019667942,0.0144837827400592,1
0.181484105751911,0.0145341059070907,1
0.189759846808238,0.0149159203347814,1
0.195709440479675,0.0203739930756797,1
0.183417883024238,0.0209701652008503,1
0.222945882883234,0.0256875670084424,1
0.217779403572636,0.0262307262025093,1
0.213613598328866,0.0343611764058468,1
0.112685307134971,0.025635074504255,1
0.104519355774387,0.0305689252060111,1
0.102730663427756,0.0333610840004233,1
0.0672778390952256,0.0226504460646621,1
0.0546539790009811,0.0191169190206841,1
0.032794879585237,0.0172234916334133,1
0.0286248615078713,0.0244852530343789,1
0.0238289065807094,0.0207051895351405,1
0.030663002614217,0.0215371733935757,1
0.0386175669813126,0.0261878951270397,1
0.0545244820033324,0.0370769903672922,1
0.0712489731749533,0.0456788060002217,1
0.0796600383015942,0.0480569953707298,1
0.0626170422961165,0.0825859152033268,1
0.0428825378400608,0.0784133671109069,1
0.0318563352326952,0.0557091722554425,1
0.0202729443256861,0.0357237453161567,1
0.00783753241406405,0.018383333950992,1
0.00585326162469518,0.0218833882177892,1
0.0085055831648178,0.0198301429273008,1
0.0246430810380172,0.0386487646144278,1
0.026052563606258,0.0346629723732946,1
0.0297340995523435,0.0388722591199176,1
0.0308695145159515,0.0333701128081493,1
0.0282382238602443,0.0311738603606624,1
0.0302928325168688,0.0318379701515955,1
0.028545021608797,0.0331582589450509,1
0.0174476848111624,0.0235201185947359,1
0.0109085055614361,0.0167333248606936,1
0.00941288951267573,0.0154266637434842,1
0.0154305236348706,0.0198864713986367,1
0.0177312082064287,0.020137007270176,1
0.0408786779301788,0.0238621551701649,1
0.0449454539921296,0.0148105184759818,1
0.0441094647092829,0.0141763663321035,1
0.0532429746117528,0.0170048002824718,1
0.0548041029875139,0.0175345570722181,1
0.0601210552058641,0.0185652492929973,1
0.064184879570463,0.01936330422912,1
0.0653429800605834,0.0205219685314261,1
0.0587259151087715,0.0206209830686583,1
0.0548345239316994,0.0198020719729368,1
0.017877372159179,0.00800283310285627,1
0.0112959193579697,0.0210747915798559,1
0.0342220500443842,0.0503137095660749,1
0.0361968864699397,0.038176856870824,1
0.0442000162164695,0.0380054016879019,1
0.0474782938020267,0.0338500350923134,1
0.0417786663390665,0.0293555844419767,1
0.0411394471581269,0.0314034887969207,1
0.0433678212541332,0.0309471082479214,1
0.0362428970990506,0.025896642650455,1
0.0307649924653999,0.0216825306304931,1
0.0684842369496045,0.0300603655846897,1
0.150468928584074,0.0387292636875966,1
0.138609048468895,0.0280410002190834,1
0.13288129075518,0.0256566447471795,1
0.141898382073711,0.0277530792325125,1
0.157905717469782,0.0322916515476099,1
0.197372784154242,0.0365231860135662,1
0.182065834156051,0.0262351711061293,1
0.162940779475829,0.0175123483991147,1
0.216822304716345,0.0193467071595032,1
0.219443334228025,0.0133666220963736,1
0.242409246901701,0.0154039062855091,1
0.21227598701166,0.0148575126717343,1
0.24923609892265,0.0174900009704186,1
0.305397429623518,0.0222898083137384,1
0.346539519314866,0.0228583443977113,1
0.302753036702131,0.0194458537315582,1
0.330020611253011,0.0199390704556425,1
0.315318521666658,0.0298108005391077,1
0.105217890539791,0.0126736529628629,1
0.0880443199373439,0.0249030899239211,1
0.0901635718861068,0.0259806807642127,1
0.0798489560730526,0.0233563659020003,1
0.0778386207168346,0.0241491372985055,1
0.0777311779234441,0.0240878612538168,1
0.0739652927745891,0.0252177553133104,1
0.0263429168154095,0.0114533926707897,1
0.0124918855894265,0.0177916742239657,1
0.00949654294211036,0.0163622376113351,1
0.0060619200963313,0.0118297804612507,1
0.00850087506408866,0.0150432216547182,1
0.0127450216584635,0.0155477688061642,1
0.0150626930158002,0.0209642611837909,1
0.0162157060687287,0.0178236453299315,1
0.0213487304859812,0.0208672779881731,1
0.0216936350376192,0.0206324231061706,1
0.0276416821727596,0.023389867433289,1
0.0348031396190417,0.028817364198512,1
0.0442539389690024,0.0353094992816765,1
0.0505285150629924,0.0295430272035807,1
0.0525642264068808,0.0277877274886621,1
0.0437030149569039,0.0269256037834109,1
0.033993450482766,0.0142331779462183,1
0.0332308180728496,0.0132433782399658,1
0.0331223890184949,0.0139309099092287,1
0.0320705882818134,0.0131653456928496,1
0.0336914646148262,0.015535267440272,1
0.0302467458935106,0.0142892534932349,1
0.0223805209142005,0.0110990096284221,1
0.0137894119548559,0.00848061793150195,1
0.016556383387123,0.0110086882112453,1
0.0213321155797687,0.0186159483133414,1
0.0223640667121831,0.0243726474660136,1
0.0226175172762977,0.0332982225736052,1
0.0180908893789275,0.0188661198819793,1
0.0189093243737706,0.0210714186076349,1
0.0191515596239762,0.0188439669064215,1
0.0184843301042436,0.0173893291243106,1
0.0203016709850532,0.0181358507718265,1
0.0211034971563094,0.0120124345332617,1
0.0257148735114682,0.0116170031865881,1
0.0266327990661064,0.0112579643461067,1
0.0329238794066954,0.0145150699488122,1
0.0383283395314531,0.0179595519486773,1
0.0476567660349474,0.0250038376406209,1
0.0544943873160596,0.0276348875295667,1
0.0584701315860037,0.0327613498510912,1
0.0555359612598235,0.0311320670691019,1
0.0542754240749449,0.0301710229481784,1
0.0422577544014542,0.0404014745144289,1
0.00817329084184109,0.0244575458200964,1
0.00631002359268841,0.0278414778522736,1
0.0108738230095501,0.0149897379500369,1
0.0287729349658001,0.0334095546972512,1
0.032753129523353,0.0365862459478908,1
0.03219724191377,0.0373768170774368,1
0.0501110909499227,0.021880409453066,1
0.0859130870658478,0.0321345548828682,1
0.091073719568111,0.0342239074497067,1
0.125890103399488,0.0376492231659926,1
0.135191904450728,0.0278346650420122,1
0.120669232975026,0.0208744929120737,1
0.162105847947088,0.0244998741448677,1
0.155350737669085,0.0217461892450959,1
0.132929941968612,0.0194619935432515,1
0.086546131284156,0.0135873722879776,1
0.0628045419284298,0.0124261637687916,1
0.110161992782267,0.0114178530178084,1
0.346429565249922,0.0272852106073882,1
0.638324713376772,0.037295591188506,1
0.623413400334673,0.0235820190504217,1
0.571013266132528,0.021580957438948,1
0.682675152608592,0.0201065820837355,1
0.791289140519382,0.0206836664191008,1
0.709529237165878,0.0142904250486824,1
0.776814354357717,0.0150106501093687,1
0.751313674058237,0.0128765048188769,1
0.760473321848378,0.0154148414850461,1
0.753784831192744,0.0165954166161054,1
0.771406329858979,0.0165790548609884,1
0.864456667189154,0.0224114643111074,1
1,0.0280716354505716,1
0.897313852298604,0.0435789591842231,1
0.407450563828747,0.0247364134592963,1
0.263915498207647,0.0285915361166894,1
0.268003006937357,0.0318046352160691,1
0.225583125028988,0.0360697852108938,1
0.120028819518846,0.0246761777261856,1
0.0196233144688422,0.0113432109141299,1
0.0166981752402192,0.0202107811050344,1
0.00914664230305723,0.012329849230296,1
0.00961643401800339,0.0212197162718647,1
0.0140699538102106,0.0292099802853993,1
0.0222269142500684,0.0393713460837449,1
0.0244498445251832,0.0345256139015338,1
0.0238160930886687,0.0350433954424779,1
0.0308141002981219,0.0371245673613193,1
0.0403695350940168,0.0357835766549829,1
0.0343745140979506,0.0293413105502961,1
0.0260142327308353,0.0234817722997669,1
0.013539229965094,0.0134313951560057,1
0.0147645485076755,0.0109698870612728,1
0.0203035583083494,0.0129248745297853,1
0.0218469711678683,0.0122515547718355,1
0.0215873651155739,0.012708112117866,1
0.0242631337654154,0.0148304504667379,1
0.0356159705451686,0.022848971781592,1
0.0507419113594895,0.0315879139757079,1
0.0700954328239541,0.0410201489643335,1
0.0714793544192281,0.0423124967759161,1
0.0638692424464203,0.0473296530956179,1
0.038023525730498,0.0413460694662991,1
0.0360944147404893,0.0499926895418893,1
0.0281201770254417,0.044427155347935,1
0.01534420353052,0.0334545614244999,1
0.0117201828763995,0.0291801126735911,1
0.0132851269933159,0.0449185258464501,1
0.0219739801633526,0.0596730994285867,1
0.0191226716472113,0.0434645147060527,1
0.0171509337736531,0.0414634328520928,1
0.0174809193513982,0.0354767857955452,1
0.0159489678519979,0.0277805638688218,1
0.0101405762987107,0.0194486821995142,1
0.00855812113265975,0.0195986200464974,1
0.0084294352418855,0.0155967562922678,1
0.00937545476461022,0.0147499254791838,1
0.00856861327028865,0.0154588407804284,1
0.00970578976850073,0.0130968307871628,1
0.0254542316520403,0.0307620888772278,1
0.0385267920886705,0.0353734840053278,1
0.0397159984939958,0.0249044233486356,1
0.0404478936404366,0.0225134994964302,1
0.0393315404715251,0.0193524484895016,1
0.0446486675511944,0.0186414078701625,1
0.0544275126065262,0.0223593041712591,1
0.054644287392332,0.0223485523553339,1
0.0621834770238427,0.0223791048253321,1
0.0746190657919554,0.0315902106564495,1
0.0578894192572184,0.0273278495284681,1
0.0312500095310846,0.0165499903361818,1
0.0256032006666731,0.0191542301794164,1
0.0206583213496075,0.0207615054223,1
0.0112064796944596,0.0125372934178919,1
0.0182520399830501,0.0262021033777358,1
0.0190826661383868,0.0275888381453711,1
0.0221877080957573,0.0332411303667241,1
0.0296015730617229,0.0507912017835924,1
0.0283547625761664,0.0491867088801213,1
0.0826279528514546,0.0263407473636126,1
0.178146106798786,0.0472008608626903,1
0.170064983238448,0.0338863115293038,1
0.170920644419013,0.031401720303441,1
0.168914384434516,0.0294651971849724,1
0.165625948966524,0.0305792093269194,1
0.13694325580857,0.0228209859923943,1
0.100730817120399,0.0174685928959651,1
0.101931556613387,0.0145761398842172,1
0.0759044404821036,0.00919717734105262,1
0.0721137492803122,0.0125902976820862,1
0.0692140079129064,0.00820391538795257,1
0.075862069286909,0.0120643900638767,1
0.081178159082649,0.0148369364440877,1
0.141230753862677,0.0177283448980535,1
0.215954259684395,0.0184008118240853,1
0.200708179260055,0.017980819912004,1
0.191159991618103,0.0156766568435191,1
0.221128293581989,0.0208491512569005,1
0.267806339295116,0.0242592589280758,1
0.307888438793532,0.0268337917188942,1
0.303504146588068,0.0308101302199399,1
0.301444249587594,0.028761124218581,1
0.302857260280983,0.0272261211941252,1
0.261940324745111,0.0405387350316864,1
0.124401377888768,0.0300655907353803,1
0.103848781832143,0.0258520869282733,1
0.103857838878182,0.0290324731876084,1
0.0984634346022792,0.0261880660797118,1
0.0988571441934216,0.0300521914091424,1
0.104218290858236,0.0351173971362245,1
0.0784526991362338,0.0436382323751325,1
0.0413782006175889,0.0184115481097952,1
0.0191435718917897,0.0106349993311239,1
0.0195302152651515,0.0200680606631472,1
0.0185967383814211,0.018773773770582,1
0.0175824003156487,0.0175977897484302,1
0.0164763514864917,0.0189194358077039,1
0.0158705977631728,0.0172269805143632,1
0.0210730702818472,0.0217707360958858,1
0.0227871398931841,0.0187128612902316,1
0.0169996611426535,0.0134690432693484,1
0.0163595025029448,0.0203320113683079,1
0.0151092277608244,0.0197798905016768,1
0.0161413981429388,0.0275211095395725,1
0.017421905262435,0.0172029937495711,1
0.0268893291471342,0.0251285789622542,1
0.0414627549687647,0.0329981968325549,1
0.0424462572595271,0.027754088276476,1
0.0411960690099481,0.0250951384076105,1
0.039229607952384,0.0257078247514645,1
0.0425474262389483,0.0290422702052618,1
0.0375903599716698,0.026070488243221,1
0.0306713773017555,0.0218000475458669,1
0.016724439899788,0.0126190831586992,1
0.012909306784856,0.0139584349012923,1
0.0124801148200315,0.0134372952110135,1
0.010962869683215,0.0128059980843904,1
0.00546765936014525,0.0114064283050378,1
0.00458434274786048,0.0161193786796741,1
0.00743401210685912,0.0203636343059882,1
0.00748014819281032,0.0191871087756884,1
0.0101243461510128,0.0242956203594322,1
0.00876211551932267,0.0205913581347201,1
0.011715841805276,0.0258006113540616,1
0.00966026084119975,0.0142660468773722,1
0.0082604549032713,0.0079412723497646,1
0.0222488998047234,0.0169149653856787,1
0.0260287113657203,0.00856599776049359,1
0.032333855350323,0.0114592621852906,1
0.033844578875412,0.0103887491779818,1
0.0331871456580525,0.00945887341154685,1
0.034663449687094,0.00859931889712961,1
0.0355442052305892,0.00852853931547433,1
0.0364978485790075,0.00899743315411644,1
0.0656238791464816,0.0132788913338881,1
0.0748546384324704,0.00720814554674783,1
0.078479961351404,0.00855887188675129,1
0.0759261172902554,0.0101700651588008,1
0.076278778680296,0.00984401976014074,1
0.0845398876620791,0.0119291968146534,1
0.0892700829076562,0.0129595560154216,1
0.0987526086206042,0.0154346157557346,1
0.0981397841202846,0.0154240291550115,1
0.100626612282506,0.0157053699234703,1
0.041680833760612,0.00777820178623648,1
0.0112063435294539,0.0228738134879163,1
0.0143982047709115,0.0307244979339345,1
0.0383378281703461,0.0385495533592182,1
0.052998644809997,0.042867864236418,1
0.0522917923598662,0.0407168937375854,1
0.0503790626177562,0.0417001700848858,1
0.0544810965070864,0.025547822862788,1
0.114459247734742,0.0376581358774456,1
0.1227506759803,0.031395379850169,1
0.11812599411656,0.032659592970784,1
0.153740382870041,0.0326901568007497,1
0.164398803270389,0.0237379632897645,1
0.156095153595607,0.0251028529265611,1
0.143781203728102,0.0272846370794139,1
0.126703500478185,0.0238310553651836,1
0.0832387940669499,0.00996397513993019,1
0.097432375006111,0.0135097524530421,1
0.127551102025606,0.0179157858049095,1
0.141007195648484,0.0209694289738117,1
0.148767033692563,0.0190589965583781,1
0.149056880354494,0.0160914647717688,1
0.209536532583797,0.0296309062696493,1
0.512317353711168,0.0351612048899053,1
0.83193734560182,0.0331781948057731,1
0.852929531158584,0.0202614141363,1
0.872049948280834,0.0222624301072598,1
0.78454341646823,0.0217480236058724,1
0.709151859237553,0.019512786238106,1
0.642080236073983,0.0167253766490499,1
0.564785986320074,0.0149066839656011,1
0.612392239144098,0.0178873955178751,1
0.683857028102102,0.0178098396479121,1
0.554990609163819,0.0237292849310887,1
0.172495484235085,0.00831134282686218,1
0.139798957478476,0.0235826432519494,1
0.14932924364059,0.0268276671741882,1
0.124724683321966,0.0242636035286554,1
0.119094154552976,0.024698793163361,1
0.112129776965295,0.0355793841724361,1
0.038143983064954,0.0178565220362251,1
0.0224101219694068,0.0126722790263307,1
0.0185202664995846,0.0122812660442871,1
0.0192794036068117,0.0133663726595263,1
0.017111168385245,0.0142385048981564,1
0.0189809109727951,0.0173735864495456,1
0.0171901533631009,0.0158877484509304,1
0.014778818576579,0.0149062952008338,1
0.00907187263673218,0.0148317795328472,1
0.0108451816029537,0.022138848437868,1
0.0145915538070758,0.0270239907685468,1
0.0134269444210844,0.0297719215882957,1
0.00959887451798831,0.0279220489222607,1
0.0114473164477162,0.0321217615406512,1
0.0117540062430709,0.029118884881504,1
0.0135587008431402,0.0252621022102861,1
0.0138138203062935,0.0185498687476818,1
0.0249953559722177,0.0262986152713672,1
0.0282103198230031,0.0284269806348546,1
0.0238656294961104,0.0249194461858495,1
0.0151100309113747,0.0163133927991745,1
0.0141878107300711,0.0164634478612669,1
0.0154901341239868,0.0185829615438412,1
0.0162192437957569,0.017428899682304,1
0.0202164364025959,0.0150062003894723,1
0.0235718621569455,0.0110400449716268,1
0.0265488800050267,0.0125250270741862,1
0.0219187506811905,0.0109345883110282,1
0.0191564316038677,0.00852406312278135,1
0.0252161078449993,0.0113381093906812,1
0.0354927746285805,0.0159192430719027,1
0.0456197394254012,0.0197621254009046,1
0.0508282949072686,0.0205389401485111,1
0.0454178325038172,0.0197266601550236,1
0.0458881963999051,0.0251041685945216,1
0.0419841025211843,0.0455965877581164,1
0.0167462920252063,0.0357684743055879,1
0.0107988266546464,0.0245953736858525,1
0.00712800472642697,0.0195102810001138,1
0.0203252866464223,0.0527299466298256,1
0.028483310132759,0.0673366928509477,1
0.0343210346081565,0.0754653407875125,1
0.0322777410179304,0.058006729357841,1
0.0382858371371035,0.0246976438981399,1
0.067268905325516,0.038877766522112,1
0.0766053263640332,0.044186587415342,1
0.0665320869932476,0.0436524014261462,1
0.050494020127194,0.0225753769826744,1
0.0447964245934836,0.0204448400860962,1
0.0431967219844878,0.0200114260781863,1
0.0496629281859946,0.0213235759472976,1
0.0549182025120883,0.0137349350848751,1
0.055198671770469,0.0135116444604552,1
0.0517644055866103,0.0181033425802587,1
0.0423173901662969,0.0152135672416783,1
0.0375381092368895,0.00983403720024583,1
0.0650792089046856,0.0134556765583758,1
0.0652571239248196,0.0122459323847959,1
0.0602842848704919,0.0113965547762957,1
0.0599099830588461,0.0112617659024059,1
0.0522239494136707,0.0100145897406976,1
0.0468381544911878,0.0136236808431972,1
0.0473453396456205,0.0125669402741851,1
0.0506417461771578,0.0118671851553493,1
0.0542755133777802,0.0102771959968913,1
0.0670374604007501,0.0156839238770561,1
0.0367977818023755,0.0109288155112454,1
0.0293939431962123,0.0142084691926365,1
0.0358371984087442,0.0155767630346411,1
0.0364640674070941,0.0118866879277129,1
0.0359928483887142,0.0115737345362306,1
0.0365059454840301,0.0121247763178445,1
0.036171539302458,0.013534636346446,1
0.016829857049489,0.00555757651407568,1
0.0201270687309779,0.0124844460745628,1
0.0280703298543315,0.0170575462260159,1
0.0324398324917213,0.0212598489699841,1
0.030772557807848,0.0201679152708492,1
0.0311619151529263,0.0238093668421731,1
0.0289258596537851,0.0420031619777586,1
0.0169746663538938,0.0272584746821079,1
0.0161557113747482,0.0266791041239665,1
0.00761097277346347,0.0178770527749695,1
0.00425919352461328,0.0238830173086641,1
0.00507802469754961,0.0288082030411241,1
0.00513541363752862,0.0268519952234243,1
0.0100230414136395,0.0329035310005739,1
0.00954748011735576,0.01974837319922,1
0.00947482394867482,0.0160700442854665,1
0.0120057901870378,0.0206278321005086,1
0.013750440375406,0.0248234155670629,1
0.0140150072603166,0.0277713369185611,1
0.0125456712559232,0.027774210309647,1
0.00963195396768011,0.0192985605995159,1
0.00840525327652793,0.015521235322276,1
0.0085518597193596,0.0128606192173534,1
0.0151149950387395,0.0236680909578262,1
0.0133234717497564,0.0215238462359699,1
0.0110778425818497,0.0200450472492689,1
0.0119033009112265,0.0204631596589493,1
0.0233112627196571,0.024312065492489,1
0.0395250663429476,0.0361987352344558,1
0.0687064950232424,0.0414825341480224,1
0.0678575434252689,0.0232783657855039,1
0.0573427277795344,0.0195177592201184,1
0.054546764018612,0.0181177226949707,1
0.0553597175360471,0.0145504111454555,1
0.0569897151209489,0.0158356111545293,1
0.0541581563291905,0.0134461479448331,1
0.0522853828054553,0.0112383641014594,1
0.0516702689498557,0.0133696643267528,1
0.0482437435709549,0.0119959641399871,1
0.0275240524168812,0.00615969449024522,1
0.0252642245624825,0.0103535235531526,1
0.0261511942448092,0.0107454837823169,1
0.0238595099272792,0.00965163662799754,1
0.0226714740977434,0.0107451822463071,1
0.0219086632099739,0.0110789055948806,1
0.0187469896443541,0.0139204701863385,1
0.0221604683483037,0.02042968710901,1
0.0232500472834939,0.022462994593599,1
0.0231252979969819,0.0270512253961398,1
0.0299270229134105,0.0315936236208032,1
0.0335997074625599,0.0341309871225325,1
0.0353804341962887,0.0457669838418322,1
0.0168850157854513,0.0412697119884006,1
0.0108675605723563,0.0380340295875145,1
0.00719598687005885,0.0288091091695341,1
0.00494681309674747,0.0230887517508431,1
0.0050373895692948,0.0242678968689058,1
0.00616989328358212,0.0216163155926973,1
0.00598461586740891,0.0132894840405356,1
0.00653191418999377,0.016701107106322,1
0.0062266781720358,0.0156341143344969,1
0.00641963129369351,0.0147074707065865,1
0.00695325529101444,0.0174233605991275,1
0.00786664660840306,0.0230924529579995,1
0.00895980712100135,0.0255379309565976,1
0.0100017563416891,0.0272127462744981,1
0.0108586609024353,0.0318464741363413,1
0.00713766183745433,0.0422449664824225,1
0.00293659062819467,0.0605923430336786,1
0.00293331782901154,0.0892363414461193,1
0.00151304389045867,0.108441126635993,1
7.76594470376291e-05,0.0796445702482483,1
1.35461293557037e-05,0.342977473758464,1
1.28354754716911e-05,0.339859101065957,1
1.02413801885445e-05,0.295919685750845,1
1.04614651434544e-05,0.3223760399995,1
1.25023733421782e-05,0.373026002162834,1
9.96119197917471e-06,0.361701662880411,1
8.99016244902953e-06,0.402366982749932,1
8.5382131090137e-06,0.386884937326399,1
8.49340515506481e-06,0.402208681782126,1
4.72246653988929e-06,0.353467290188016,1
6.64047086528924e-06,0.552704130859318,1
7.38027188351284e-06,0.439326779002997,1
8.29192547563278e-06,0.466616396985539,1
9.59288123761493e-06,0.373261897022732,1
2.38842156453993e-05,0.370435991952346,1
0.00021007561065778,0.286754445867099,1
0.000528766881060286,0.465945733707298,1
0.000789147320477204,0.405186347587655,1
0.000770338509496248,0.201149447019646,1
0.000762203019482456,0.193240274254526,1
0.000788065846872165,0.189460095453109,1
0.00078872650219235,0.192678142378611,1
0.000742980835524391,0.18494255097252,1
0.000746267934029466,0.19212624263168,1
0.000791617817645811,0.209476945578369,1
0.000731537926640406,0.337831090772511,1
0.000476901148333129,0.255254916317526,1
0.000427543138636569,0.0807218103462896,1
0.00107677766643061,0.168237007121205,1
0.00127154122342965,0.151183199900582,1
0.00121821549524935,0.115147155099057,1
0.00122547390009572,0.113595705027145,1
0.00124948752671952,0.113074985955863,1
0.00124276361223884,0.108985746985957,1
0.00124405282917447,0.107819143591393,1
0.00126562678837043,0.107764767824998,1
0.00128558589047348,0.10802606106125,1
0.00109147407244329,0.261360220959416,1
0.000452712445443648,0.182001301938562,1
0.000127468839565929,0.11958256030277,1
0.000104044436703336,0.299146950800611,1
0.000100761310354322,0.298917639593043,1
0.000102000645377602,0.307466075789556,1
0.000102432084275736,0.275524533401031,1
0.00024409309688434,0.115493231816327,1
0.000427597165778889,0.123120470761375,1
0.000461943063713741,0.132127391439235,1
0.000877507343899828,0.111410298180443,1
0.00125653566140706,0.0815443484191647,1
0.001221834288876,0.0797513486210048,1
0.00123069901309483,0.0790286906150985,1
0.00120147476202473,0.0762336811049836,1
0.000992214573246211,0.0677602007458243,1
0.000665853435769652,0.0352875620316243,1
0.000898387710948874,0.0536788945654625,0
0.000977450844699418,0.0574352379153162,0
0.00110696316564837,0.0580305383285932,0
0.00128363061494513,0.0869570847491307,0
0.00126418650050265,0.122955557567496,0
0.00139510696824349,0.148229021655353,0
0.00128939320920632,0.154614814908463,0
0.000875559071774001,0.129895209221169,0
0.000311427044148547,0.0743122612335337,0
0.000119125978000527,0.131456340242769,0
0.000125774413141498,0.152798774089098,0
5.41616425680858e-05,0.168498993548542,0
1.57222608891309e-05,0.431531067341766,0
1.88872642141966e-05,0.574341919111025,0
2.40763802098681e-05,0.661995582733411,0
2.84567352184232e-05,0.700593122822336,0
3.00303559733967e-05,0.831995925171207,0
2.46624912631344e-05,0.803533385178663,0
1.62171249440724e-05,0.627259267338045,0
4.99984970006515e-06,0.378959563352819,0
3.3943654134224e-06,0.397793874916329,0
2.97298874106197e-06,0.38563856819824,0
2.82417436779301e-06,0.43620729940241,0
3.05825859912762e-06,0.430587889362384,0
3.86070661832212e-06,0.473008021551383,0
4.9957385604143e-06,0.556216072570873,0
8.18959455719881e-06,0.705868677036076,0
8.98591663994813e-06,0.672866713339343,0
1.19405787494419e-05,0.730705197060226,0
1.52717083215002e-05,0.720736960609986,0
5.27648371077883e-05,0.42487878140895,0
0.000114840692081301,0.380859045855284,0
0.000105798102704535,0.295942523947755,0
9.2670655617485e-05,0.285049483766748,0
9.57047900322232e-05,0.291813154639508,0
9.35224421341967e-05,0.274275061858255,0
9.16295279418215e-05,0.264875666616579,0
8.7347409461137e-05,0.257722569700277,0
8.58698286504268e-05,0.251594243598198,0
9.47455524517938e-05,0.25824654549114,0
7.98240351507295e-05,0.393364636025194,0
2.41744824066736e-05,0.305496289177384,0
1.81075399695784e-05,0.307473731367341,0
1.90969695565844e-05,0.272877005164603,0
1.99119465699346e-05,0.285015509513639,0
1.92762628702921e-05,0.33193398316756,0
1.29899818277754e-05,0.275176731877972,0
9.8210071079704e-06,0.225808735516068,0
2.5537521537456e-05,0.220308739189148,0
9.15642200353186e-05,0.452241283657987,0
0.000203202043926499,0.532277635709983,0
0.000210778459467033,0.341729717826393,0
0.000229399760607192,0.335985011977787,0
0.00025375080588795,0.367241679189683,0
0.000304447109630388,0.358741491147783,0
0.000268311008490535,0.191599740200957,0
0.000210739811370661,0.16953342776053,0
0.000157361008039097,0.140195762728343,0
0.000171919994979379,0.168119030356828,0
0.000258734431897429,0.218252608936786,0
0.000307908510897837,0.268248291197835,0
0.000363609816545746,0.358659515022819,0
0.000377170100403003,0.405329127386743,0
0.000339672662533303,0.457791296820485,0
0.000163029322871222,0.418091659081473,0
7.36737894352929e-05,0.850081688775385,0
3.99420902658409e-05,0.520711637028271,0
2.29574264612389e-05,0.456373723868528,0
1.20370562001717e-05,0.484902512599989,0
1.17297737194932e-05,0.579197191571501,0
1.07081098369272e-05,0.552746059555414,0
9.33509544027966e-06,0.503227914485668,0
9.79544969232363e-06,0.536263820122788,0
9.95878543983465e-06,0.535204899148597,0
9.06758239891987e-06,0.516322587759194,0
8.32147653354407e-06,0.50372681045643,0
7.79838392187028e-06,0.715627454403787,0
4.97386662074096e-06,0.564546143053324,0
3.90930942486107e-06,0.506070240237193,0
2.43465616007988e-05,0.187535583836081,0
0.000260927322246328,0.266659033789135,0
0.000315025724997256,0.165795826723032,0
0.000311289828772123,0.157369798570779,0
0.000311248686245997,0.152519097286819,0
0.000314521988240116,0.150357537155297,0
0.000312139822967293,0.150037138352211,0
0.000310009578012129,0.151672531988818,0
0.000312158053841452,0.152020337095201,0
0.000322387905413157,0.144390873274756,0
0.000327062954694287,0.199097706495844,0
0.000110577508359406,0.266755003328543,0
1.37323061214032e-05,0.489987186008812,0
7.65044718386628e-06,0.480806398281939,0
8.03382127645294e-06,0.388661240342478,0
8.0376414218569e-06,0.408419637404057,0
8.0691608359109e-06,0.41016845014467,0
8.49133934968594e-06,0.42021842833364,0
8.43116486930876e-06,0.417591154241562,0
8.23578820206582e-06,0.411510324801844,0
8.35302572375356e-06,0.407095046108716,0
7.8743825678838e-06,0.394028569214553,0
7.61547711942879e-06,0.441628201864945,0
3.70164349535072e-06,0.360142989545063,0
3.46766381892574e-06,0.534635086182078,0
4.99736000742721e-06,0.624266051150142,0
5.20807156393323e-06,0.566477988863481,0
4.38831167101516e-06,0.519864490425524,0
4.65808879988019e-06,0.542623946539058,0
5.32968728016643e-06,0.59584938453291,0
6.53984200942553e-06,0.713753813858508,0
7.27974766715011e-06,0.735495816797196,0
7.15079585060661e-06,0.779218659450798,0
7.03553844325934e-06,0.773071919269038,0
5.92822818652518e-06,0.705582497210287,0
2.73430553175621e-06,0.526149440499433,0
1.08818051488103e-06,0.35373724778791,0
2.73521869538854e-06,0.490355138331042,0
3.02724834041433e-06,0.420144267790533,0
3.00124157551191e-06,0.411962856324052,0
2.88442498038595e-06,0.404613871172537,0
6.7387690602546e-06,0.46710827457272,0
1.79894660086136e-05,0.772667713197305,0
2.67761808450251e-05,0.901670013217301,0
4.42958737776354e-05,0.945632359703323,0
4.28007791736471e-05,0.541661271544494,0
4.42589162394099e-05,0.486748047069338,0
5.03768563487776e-05,0.535498635617338,0
5.03969200637354e-05,0.565919396902617,0
5.13683283093583e-05,0.565353925459946,0
5.48452135160305e-05,0.583156295562415,0
5.62719206653885e-05,0.640363263969407,0
5.13635318951742e-05,0.615045519020377,0
4.28913576465261e-05,0.58131277709508,0
1.60761315487368e-05,0.396541024691591,0
7.14856373863199e-06,0.408369531499119,0
8.79620251773046e-06,0.613192889684979,0
9.52548485525109e-06,0.55385012674949,0
8.76394521332308e-06,0.49940742282977,0
7.342975979884e-06,0.456698630669703,0
5.40007633534032e-06,0.369159796693795,0
1.03732221531808e-05,0.328550103363919,0
1.42617647397759e-05,0.302378140425968,0
1.43096576556986e-05,0.313723994260739,0
1.72940368759253e-05,0.340300257909147,0
1.93528854621094e-05,0.328003599630701,0
1.90170940043705e-05,0.312929399165773,0
1.94896766975007e-05,0.323056009292993,0
2.0316021857899e-05,0.332035421354101,0
2.05148528129535e-05,0.330599784861837,0
2.05578324094453e-05,0.341654326469706,0
1.42436883294234e-05,0.406256035126017,0
6.53820296741164e-06,0.341325892256361,0
7.32759515751741e-06,0.344344491745135,0
6.85629892965085e-06,0.27968481964592,0
7.55034693935397e-06,0.352423094344857,0
7.14163968279164e-06,0.374617258373898,0
6.82992258513661e-06,0.369753888097134,0
6.43607616790724e-06,0.358227657170369,0
6.42849737501139e-06,0.370468010058751,0
7.33869125878122e-06,0.379170494552664,0
7.68638768028061e-06,0.404986880022219,0
8.29479312242628e-06,0.344288322280993,0
8.40109061389252e-06,0.371091463690974,0
1.03956733744247e-05,0.477847790494657,0
1.24072777757556e-05,0.523577269669354,0
1.37951189214218e-05,0.545992520278423,0
1.47684849492685e-05,0.459572747745296,0
1.74180579472196e-05,0.472797959682002,0
1.71508963829226e-05,0.456162977168889,0
1.65438963414798e-05,0.426406477835673,0
1.55820503867473e-05,0.38438697682028,0
1.4093839488525e-05,0.392796988331686,0
1.44007172841812e-05,0.386241009870559,0
1.22621930351452e-05,0.370927618511165,0
8.43292868356513e-06,0.293119041972872,0
5.77698494179953e-06,0.220342358736897,0
1.02732362761748e-05,0.336781558215073,0
1.19246823427919e-05,0.351707638605386,0
1.1386309572459e-05,0.35563677544967,0
1.24806205071268e-05,0.393360600296701,0
1.12741301905948e-05,0.393557919375512,0
1.02746833804136e-05,0.385476583812452,0
1.18905480409007e-05,0.380790622809212,0
1.13969900764162e-05,0.369441265657466,0
1.15966273562269e-05,0.352912323207664,0
1.17636269243255e-05,0.353885962947861,0
9.03400445434317e-06,0.322761780278989,0
6.37755307988117e-06,0.289162654551895,0
8.58596932531344e-06,0.338557528591928,0
1.17446842139491e-05,0.413073543260846,0
1.28527202644734e-05,0.503217680848796,0
1.20987396210652e-05,0.521170344259141,0
1.30368187898656e-05,0.609581712853961,0
1.20349235676257e-05,0.594153346074736,0
1.26341581230613e-05,0.614531391145618,0
9.2933601825587e-06,0.560645287085079,0
9.40534212821007e-06,0.577365302973842,0
9.1362652465473e-06,0.554629071845002,0
1.24784448175832e-05,0.578059632289987,0
1.2748214417818e-05,0.516133135233549,0
1.32503997695834e-05,0.468354509710338,0
3.86268944804496e-05,0.467242282018639,0
4.59589090285003e-05,0.33851603503547,0
4.53182801184876e-05,0.337002330988173,0
6.66037194491589e-05,0.264500002230948,0
0.000185398079052466,0.387369794786106,0
0.000224676459742809,0.255833641627177,0
0.000199161343155128,0.198871722226606,0
0.00021341189218147,0.200187930746275,0
0.000200761389655965,0.168792216091875,0
0.000184432418027811,0.14154886949067,0
0.000202528323218403,0.163487335253422,0
0.000230692289125029,0.18195829032869,0
0.000256057022931205,0.188309675152343,0
0.000254341868665121,0.193059226445818,0
0.000167866079262588,0.166595694937526,0
9.41764252269926e-05,0.144773027650836,0
9.28539619448765e-05,0.167119387835123,0
8.47681214709982e-05,0.166937372514288,0
7.86588930864882e-05,0.208234648707344,0
6.51397863532192e-05,0.233910285724531,0
6.66624678039522e-05,0.223839325274066,0
6.14561158129988e-05,0.213017600758168,0
5.15464650901172e-05,0.207565595619975,0
4.09114983489732e-05,0.27437776499098,0
1.78065625898261e-05,0.229231111679087,0
5.75895200294226e-05,0.404893854813654,0
8.0873662480734e-05,0.211473966232129,0
8.16917022085327e-05,0.205626198403261,0
7.88886689957331e-05,0.20860958843241,0
7.05620702021217e-05,0.187571490834779,0
6.99120720386811e-05,0.185569215913809,0
7.45379331411268e-05,0.185051255807526,0
7.20543483370836e-05,0.185049299387377,0
7.2562785666407e-05,0.189746378949197,0
7.46878868753002e-05,0.198405507701095,0
4.77000138908301e-05,0.176772737087823,0
1.99485121118403e-05,0.173655211928877,0
2.11912784140841e-05,0.173768303571973,0
3.01483625996463e-05,0.173115130040848,0
3.76725862918078e-05,0.205639332628746,0
3.87379866096815e-05,0.203217310738171,0
3.60084232690534e-05,0.202922892851051,0
5.15009797286308e-05,0.184317307509005,0
9.80454733138298e-05,0.235970075914476,0
9.39057166627635e-05,0.160445017385746,0
0.000101011667593001,0.120716506709976,0
0.000246618022581226,0.15875545776585,0
0.000266878090559607,0.0998966619912717,0
0.000291593773287107,0.0610124993475735,0
0.000796851105976021,0.0823205652823452,0
0.000911719815643225,0.0588462871689037,0
0.000876978885235814,0.0519185086395098,0
0.00087769741457459,0.0487831625424291,0
0.000879409802111362,0.0463623951736903,0
0.000833512847449852,0.0421075333853176,0
0.000818285490119824,0.0381448330237914,0
0.00086732818648663,0.035316132153173,0
0.000899476519639127,0.0389956828994783,0
0.000858132152459825,0.0448003436574209,0
0.000522061112862413,0.0394622798727863,0
0.000344468045464155,0.0433080661608546,0
0.000297599812996885,0.0446186851749959,0
0.000271903643849173,0.0472125324934565,0
0.000275587939604067,0.0502812251552247,0
0.000266118514367523,0.0604568890278654,0
0.000126951658789991,0.0547648332247048,0
9.36870311025705e-05,0.0961831295859353,0
7.28298756664212e-05,0.0999695891418152,0
5.68683225948499e-05,0.10929547921352,0
6.51582272677024e-05,0.154146739828561,0
7.3985194306272e-05,0.163067426551685,0
8.96114435046507e-05,0.205993276020554,0
0.000107061550069415,0.212649015153005,0
8.19166690994824e-05,0.201515537382474,0
6.12194732008494e-05,0.142870533570096,0
9.30830684827623e-05,0.124762810310259,0
0.000108867194072051,0.127274037379551,0
0.000109230961835114,0.128880546631376,0
0.000105366375942034,0.13416457315185,0
0.000113090060625631,0.130141882336655,0
0.000120891573750752,0.138664407196231,0
0.00011076714524972,0.115436439015282,0
0.000142971362832236,0.127642659274015,0
0.000173916969644947,0.143604775083218,0
0.000173114868788657,0.16132623641799,0
0.000138912205835347,0.198167114884364,0
0.000119566010703175,0.183870697923384,0
0.000117399874822129,0.177529495707092,0
0.000118166108438115,0.170742400477066,0
0.000107745774570137,0.180462787639238,0
0.000100967972522864,0.102381157449029,0
0.000138292483931468,0.122748904272508,0
0.000117508586973705,0.120443392163444,0
0.00011159587072614,0.114946277592788,0
0.000112249760514676,0.108831412516183,0
0.000134504516400638,0.119368114876137,0
0.000142778298300386,0.126338696282108,0
0.000139288318014238,0.136400802071012,0
0.000136992967237547,0.146371532533089,0
0.000165037409202863,0.145304808922426,0
0.000149450741820187,0.118999372702966,0
0.000130240330271235,0.102324945714616,0
0.000127498820009537,0.0884698237314008,0
0.000156827131722018,0.103039697274307,0
0.000165454957524458,0.0922167572578247,0
0.000172304460892531,0.0919488007118142,0
0.00016967975233788,0.0922017965449263,0
0.000170390211408012,0.0896674858311547,0
0.000189805655219356,0.0956837909561554,0
0.000185939889699889,0.0986858352775608,0
0.00016852128199348,0.146882379891649,0
8.06346094380423e-05,0.120850315471366,0
7.39295584902328e-05,0.152466423591495,0
6.87166121805247e-05,0.146428518535612,0
7.72793354642617e-05,0.25792014589054,0
4.39263753735098e-05,0.258663262322785,0
3.55134137169884e-05,0.267915383847867,0
3.43732508019197e-05,0.240745169983894,0
3.51564002349248e-05,0.17052256430087,0
4.3192413527052e-05,0.218152617586426,0
3.67411593868375e-05,0.184642487147145,0
3.89952173185726e-05,0.181993968235633,0
3.79557873067291e-05,0.169493737135565,0
3.97293484323234e-05,0.177556461157346,0
3.90133767130402e-05,0.169746326628854,0
3.96101369714638e-05,0.170518754993751,0
4.06915379125317e-05,0.165276552288678,0
2.78211194456354e-05,0.175694289143646,0
1.85089327812163e-05,0.209380193918381,0
2.05730006537472e-05,0.163720555581887,0
4.58599746219853e-05,0.24849510629138,0
4.48792526994522e-05,0.211526802974831,0
4.63915183325648e-05,0.220176057323336,0
4.3520502011792e-05,0.188638613699572,0
4.45937855668332e-05,0.195366922270405,0
4.43257061863796e-05,0.20341661972527,0
4.84101568430836e-05,0.221707376084989,0
5.13861685406592e-05,0.190383493528085,0
7.07522518607354e-05,0.196629549178603,0
7.11133547424727e-05,0.177048379144115,0
6.59329519943032e-05,0.177828152553096,0
6.44453271449596e-05,0.190029291919934,0
6.15072533993658e-05,0.180102646190464,0
6.45006668066795e-05,0.192273999567274,0
6.24763971345266e-05,0.185882106859518,0
6.55836835271398e-05,0.178493811533444,0
6.4486607047439e-05,0.170431703353621,0
6.48886426687519e-05,0.217579287765944,0
3.5680791577608e-05,0.192066827189698,0
3.14096943348418e-05,0.273050122042732,0
2.8856219141638e-05,0.257073867959945,0
2.86612845487945e-05,0.266013794207486,0
2.87073437780051e-05,0.279090251490996,0
2.84957760724372e-05,0.258823994095581,0
3.79447413681363e-05,0.236496969438374,0
3.44910236176755e-05,0.203799058168863,0
4.17396713592805e-05,0.199769718510845,0
4.32620009945853e-05,0.193038217141616,0
3.78893712535301e-05,0.173082611754767,0
4.66397843884592e-05,0.203046308456106,0
5.22781484685401e-05,0.220327768850368,0
5.86117722448336e-05,0.239219691341493,0
5.90609727043125e-05,0.233603459106164,0
5.66979129802161e-05,0.25487851570851,0
4.55704725665226e-05,0.293340015960413,0
4.52956417811757e-05,0.374899014033337,0
2.3396479596045e-05,0.423757943779422,0
1.27657822649692e-05,0.415726133706302,0
1.26772909144895e-05,0.514017683551484,0
1.27875039704035e-05,0.521747870236413,0
1.27278353463043e-05,0.508646296790863,0
1.21465106408513e-05,0.500514753975199,0
1.12537680373513e-05,0.713947621964252,0
4.42617315241572e-06,0.530871106786421,0
3.57611086120819e-06,0.584581940517662,0
2.98007343587757e-06,0.538509321436437,0
3.17787237645183e-06,0.363362677749775,0
8.27640093256112e-06,0.467374649662894,0
7.86397072605694e-06,0.406159954824839,0
7.81783316525554e-06,0.415032975967694,0
7.72408700006162e-06,0.420100802963778,0
7.346574072992e-06,0.409563190897188,0
7.28027543258802e-06,0.411624333381641,0
7.35366561970702e-06,0.414622108830134,0
7.37379556969249e-06,0.401888824088738,0
7.06659065928265e-06,0.395396403085556,0
6.93858229007507e-06,0.521448388826157,0
2.71711318561138e-06,0.421114337735843,0
4.28301438768125e-06,0.501007057528218,0
4.18719920263712e-06,0.399840778983213,0
4.08294839890446e-06,0.392334106963708,0
3.86776559736707e-06,0.372187429812222,0
3.58079493807829e-06,0.354680329355165,0
2.9176402818416e-06,0.317594736568564,0
2.95691816082064e-06,0.338991215855438,0
3.12506639487232e-06,0.345227827161063,0
2.81725538743371e-06,0.321114429339993,0
2.81057140184704e-06,0.334848691680898,0
8.93872490173255e-07,0.226907588301655,0
7.84465420650115e-07,0.270550262480085,0
7.30868340757539e-07,0.26701631579662,0
8.08393945245085e-07,0.290382551481903,0
9.38118080821759e-07,0.332288972626007,0
1.15116850358717e-06,0.387688075150174,0
1.46293474881703e-06,0.449754951213156,0
1.4775896082107e-06,0.474757009095486,0
1.26673255458124e-06,0.487743043252043,0
1.27538244316144e-06,0.48281420366176,0
1.25215298148982e-06,0.486035718056959,0
9.24896791050783e-07,0.415656706138486,0
6.42858399655464e-07,0.346241064930782,0
7.09640310446804e-07,0.377351617751048,0
7.94267866385519e-07,0.410988588648504,0
8.14609294748095e-07,0.388383309814091,0
8.82823167926463e-07,0.401483057200773,0
1.06591099585874e-06,0.454446178185276,0
1.21231383889795e-06,0.468978882578054,0
1.20827713963584e-06,0.45474828610359,0
1.25424137275937e-06,0.46338515868937,0
1.2978005045958e-06,0.481902982423591,0
1.18691004114432e-06,0.486461103097274,0
1.14985877570211e-06,0.47317847067149,0
1.06541249902824e-06,0.439265890558024,0
1.08901052521547e-06,0.459147160515929,0
9.64196663781042e-07,0.441551385759989,0
6.97328462288715e-07,0.378149207667603,0
1.31556468827232e-07,0.170233231734095,0
1.36158238312958e-07,0.188041660220848,0
1.44230283375567e-07,0.189255775983107,0
1.58881589932502e-07,0.184356192189973,0
1.23602377944235e-06,0.440622637928973,0
2.05504747383406e-06,0.518557651289256,0
2.092493611702e-06,0.524992204191808,0
2.02870944920174e-06,0.515422987079471,0
2.36457703915634e-06,0.545424750856418,0
2.49401491760178e-06,0.552990636901773,0
2.71589194027929e-06,0.578411259469831,0
2.94763840504208e-06,0.611113278334453,0
2.9831559447022e-06,0.617243295341395,0
3.0182133920051e-06,0.640686563805814,0
1.98914032220176e-06,0.612653024663164,0
6.38001587246955e-07,0.383539770811014,0
2.86894611664374e-07,0.270130233924892,0
2.26341838766231e-07,0.235417873236875,0
7.21211053780178e-07,0.422567136140789,0
8.57865335774465e-07,0.41809058716317,0
7.65228670738166e-07,0.399962143021575,0
6.86436479954484e-07,0.384702107970985,0
6.63137315009769e-07,0.381288842946339,0
6.83298563795055e-07,0.387024010720277,0
7.11050279082614e-07,0.408968456638104,0
7.84920522117637e-07,0.429888702412478,0
8.02230619422842e-07,0.419310187398487,0
7.75788632020347e-07,0.449443078457062,0
3.76078342350712e-07,0.310497326314416,0
2.09369430133583e-07,0.246368296858094,0
2.19509818315594e-07,0.239548688159804,0
3.43056501314436e-07,0.278067617257885,0
4.58832707416414e-07,0.300777272290071,0
7.26861756016327e-07,0.370843590424058,0
6.56962569355163e-07,0.327637271270376,0
6.82900561489349e-07,0.324857093718635,0
6.19411791986234e-07,0.306682557500669,0
6.13729621767572e-07,0.300439588912655,0
6.12642369135218e-07,0.304998811036814,0
6.2537209856646e-07,0.314778242151802,0
5.72006714383836e-07,0.304033620590472,0
5.66904248692484e-07,0.304409034866556,0
6.55367768617767e-07,0.341983792596063,0
4.73388764112302e-07,0.277293855409135,0
5.12759016846462e-07,0.291631922029513,0
4.04177474316174e-07,0.259745221655873,0
4.09185282285935e-07,0.267605740561286,0
3.75689137545495e-07,0.260891005459782,0
3.5482358117311e-07,0.258567221592804,0
2.44769218633338e-07,0.218371075269495,0
2.75412604658031e-07,0.235608760703615,0
2.5904485500119e-07,0.236294898533298,0
2.59694093618892e-07,0.242667611975289,0
2.68322411404628e-07,0.278889645991694,0
1.51822526296209e-07,0.210137519266932,0
2.30776709516749e-07,0.258099655656808,0
2.3332189408084e-07,0.263647938483981,0
2.29701384264864e-07,0.261701013860214,0
2.51084808887094e-07,0.274728117598996,0
2.42078113989047e-07,0.274551154045577,0
2.1183882084732e-07,0.260929014055634,0
2.12937493312037e-07,0.266327372563962,0
1.90588458419962e-07,0.259492242172602,0
1.7256204155584e-07,0.243023693085435,0
1.35520504118971e-07,0.246536871986528,0
6.54981524509827e-08,0.187365080910131,0
1.75359646710839e-07,0.267038790536795,0
3.53325891306479e-07,0.363966540446275,0
3.15950048851088e-07,0.33028444040581,0
3.4321494091456e-07,0.33917169365285,0
3.35506300295161e-07,0.33519147631746,0
3.48709318334355e-07,0.316556105605341,0
3.90575185101012e-07,0.305510659586764,0
4.79671532921933e-07,0.336294654041297,0
4.63578874338025e-07,0.316692541682285,0
4.62171950990845e-07,0.321484724683418,0
4.22782834385449e-07,0.314284632322289,0
3.2061179360456e-07,0.27352449255842,0
3.27385446023118e-07,0.272880976526205,0
3.505151744921e-07,0.284348848752177,0
4.18154080258804e-07,0.317962703910028,0
3.3395827857478e-07,0.298702125088091,0
3.25558272844961e-07,0.314611119706841,0
2.82523353609688e-07,0.284278348172924,0
2.64561226172205e-07,0.291916730878988,0
2.09872917853785e-07,0.255221745220521,0
2.70267335743154e-07,0.281791412036107,0
3.12859503848128e-07,0.308619640615558,0
3.2659164078683e-07,0.335253788408479,0
3.07753908276795e-07,0.345822560232356,0
2.34614196147631e-07,0.307081680504019,0
2.08062662945797e-07,0.294317261226438,0
1.49267275361368e-07,0.270468798445014,0
7.09971823950747e-08,0.195517268295852,0
8.54034278086246e-08,0.204912846414339,0
6.59589215390114e-08,0.171114150611684,0
9.6281960118071e-08,0.183089080844472,0
1.65960532536243e-07,0.229606537663262,0
1.92980025090927e-07,0.234531854153541,0
1.92065000448884e-07,0.229197161440863,0
1.99305766306783e-07,0.224220852933953,0
2.15858855613315e-07,0.226200706963236,0
2.06685515754113e-07,0.217655405340571,0
2.31527880712213e-07,0.232138069678962,0
2.27840374546372e-07,0.225161741403953,0
2.33355730621176e-07,0.233278483113872,0
1.76777397750927e-07,0.213848464785224,0
1.29097905806402e-07,0.191157439453923,0
1.35150670733096e-07,0.195133505783293,0
1.55413344548039e-07,0.205575226629735,0
1.42386276518594e-07,0.204095016498782,0
1.15496039547994e-07,0.189857146156798,0
1.11399111244085e-07,0.187921629002043,0
1.02127476235206e-07,0.185269170508388,0
8.07953139715853e-08,0.186202182706447,0
5.45841763655345e-08,0.177953198581642,0
6.49776618692607e-08,0.201451624967563,0
6.20062214882846e-08,0.190110138122868,0
7.97923989160199e-08,0.210326735922643,0
7.29438831519686e-08,0.210368928874049,0
9.2642417248156e-08,0.224045444531523,0
1.06430215295711e-07,0.241803731486201,0
9.07165259635691e-08,0.225716334153529,0
8.76790197375865e-08,0.226619998069614,0
1.06255534156225e-07,0.224819347648956,0
1.44585567049097e-07,0.257713244740282,0
1.67266622993221e-07,0.258236854144285,0
1.82355351425353e-07,0.264932139424663,0
1.10924976722624e-07,0.222059855079257,0
8.46124140869147e-08,0.204292446331247,0
8.25192011103653e-08,0.20927271103135,0
1.0615334780441e-07,0.22867742034563,0
1.37615324331187e-07,0.252084253440823,0
1.76950302472045e-07,0.268885979354142,0
1.6151102748203e-07,0.277811411913871,0
1.15314929465845e-07,0.236989876449261,0
8.6897649429872e-08,0.2174071725034,0
1.14015690908285e-07,0.231760197309295,0
1.18066263151934e-07,0.222184908108178,0
2.51172783891968e-07,0.279324777041353,0
2.32871614320316e-07,0.250917854188337,0
2.43406621153998e-07,0.241912355892662,0
3.20702729306714e-07,0.268784954649725,0
3.21870089948313e-07,0.27169068276436,0
3.19941407149148e-07,0.261735132593054,0
3.25411845216656e-07,0.261690727663136,0
2.80929229603098e-07,0.252036546463779,0
3.40453879223124e-07,0.285059248650454,0
5.13233997281431e-07,0.367525705873785,0
3.84240054245212e-07,0.33455636432503,0
3.77269303979197e-07,0.35467249476936,0
3.68065088276937e-07,0.3830766197047,0
2.06266196427996e-07,0.272786756561427,0
3.23658012739679e-07,0.334145138864729,0
3.66654781275723e-07,0.333291032058933,0
3.68592007801322e-07,0.338308657731537,0
3.79786065849405e-07,0.321028325104291,0
4.02555350572455e-07,0.346416709055558,0
3.53154086272921e-07,0.313659405385756,0
3.28177982389143e-07,0.290006867627769,0
4.48677261973953e-07,0.317215197237269,0
4.80403501880756e-07,0.308437896624922,0
5.02375259348082e-07,0.326642212521471,0
4.75889707399904e-07,0.314272170085311,0
4.8694342839694e-07,0.336954280379291,0
5.35001720410529e-07,0.337528123009567,0
4.761762183052e-07,0.307320507632421,0
1.86491648543944e-06,0.459043572991463,0
3.062900549505e-06,0.494262830632774,0
3.04348759580925e-06,0.494380056050674,0
2.54988581300495e-06,0.454213174165002,0
2.2141955265217e-06,0.43068310702967,0
2.21339563070816e-06,0.433882050347235,0
2.20868152390852e-06,0.43341127528512,0
2.19599620493646e-06,0.42881036398876,0
2.17946916976599e-06,0.426187174592591,0
2.14061636232492e-06,0.422956398784734,0
1.27549748739858e-06,0.431554714565953,0
2.20106694887125e-07,0.222891237053429,0
1.59286867094379e-07,0.19094375456249,0
2.00970777865378e-07,0.222784665870334,0
2.22247194428795e-07,0.231445078288524,0
2.23735325472781e-07,0.230083205255652,0
2.08882183952741e-07,0.222708314701818,0
2.02814615539649e-07,0.225466513192559,0
1.64453114664264e-07,0.190479259590943,0
8.84751512360224e-07,0.416877520202427,0
9.50763557267563e-07,0.403467851944264,0
9.35686587033198e-07,0.418827307973065,0
9.46034477798821e-07,0.427339441167119,0
9.22730998695212e-07,0.422023239357828,0
9.98816520026048e-07,0.431577010400285,0
1.02684290342979e-06,0.418612652136914,0
1.05507205230149e-06,0.418415483189469,0
1.06920625193074e-06,0.405809118655725,0
1.0654440516021e-06,0.427458154835707,0
3.50410281217057e-07,0.260397044243453,0
2.47830325846206e-07,0.241557554810499,0
2.83088000876549e-07,0.244818441602192,0
3.02720384536379e-07,0.24666803367321,0
3.81549372557676e-07,0.264390859722163,0
4.58827631935364e-07,0.291299706113386,0
4.34681115429278e-07,0.286769417913012,0
1.70054237909686e-06,0.430932460535376,0
2.92193616900268e-06,0.484634885476122,0
2.85387946655418e-06,0.482167353974821,0
2.89123297689295e-06,0.476520605513592,0
2.90973471255744e-06,0.478070845190045,0
2.99487903705844e-06,0.490574782938115,0
3.0853321455555e-06,0.502517295835964,0
2.89512409444026e-06,0.491696970349388,0
2.57194385365013e-06,0.461526516953977,0
2.64325774606275e-06,0.471487533909587,0
1.79965595009296e-06,0.548438142062606,0
4.53780911944216e-07,0.347273936055102,0
2.43635694532075e-07,0.263715151538348,0
1.71321932352517e-07,0.250399754441953,0
1.77160004430779e-07,0.261424744013774,0
2.58388003161913e-07,0.300390783101204,0
3.13954792658812e-07,0.313422460844492,0
3.97325574898089e-07,0.356975492924255,0
4.28326697745486e-07,0.37447393878481,0
5.72225721391161e-07,0.426940787630443,0
4.80983121816715e-07,0.386870098745073,0
3.32672490042003e-07,0.319103183066952,0
2.47661566101278e-07,0.261118461399535,0
1.90584398035122e-07,0.223769776351056,0
2.53552507773815e-07,0.242451556365771,0
3.20521365450511e-07,0.271522967296097,0
4.09843487586825e-07,0.30951973775826,0
4.25052589511203e-07,0.321841869628867,0
4.22798483785354e-07,0.348476178266462,0
2.53535843277699e-07,0.270480484541314,0
1.7480430449257e-07,0.223977827388285,0
1.37592992214564e-07,0.203533906552305,0
9.20750630580684e-08,0.182997107328611,0
1.06367194739335e-07,0.190940935505355,0
1.92420707079169e-07,0.256649668481768,0
1.89358077221987e-07,0.252164392688562,0
1.80235069216534e-07,0.252809185024797,0
2.07308784827106e-07,0.266359013283983,0
1.93724428978323e-07,0.248695445010899,0
2.27819395891364e-07,0.26578506684097,0
2.54052865614036e-07,0.292038061623029,0
2.62434176655319e-07,0.287191981861098,0
4.3381286980425e-07,0.339749448171484,0
4.57643353023596e-07,0.334839610078018,0
4.98931291681309e-07,0.338473653562286,0
5.1330031690049e-07,0.335813362101931,0
4.98816247444168e-07,0.328598570885193,0
4.39924425719779e-07,0.304704272574814,0
4.33502250363963e-07,0.306215526430837,0
4.04240156507146e-07,0.298470678868656,0
3.44711784867683e-07,0.270227836860731,0
3.30615482163613e-07,0.262638805663449,0
2.40010701374504e-07,0.231601837307701,0
2.31801364549481e-07,0.233961757240582,0
2.03260242775878e-07,0.228325126973149,0
2.62823719825939e-07,0.263172679284861,0
3.14172277021823e-07,0.278998297906679,0
4.09548686729146e-07,0.320773002227362,0
4.15703976373059e-07,0.307822929463967,0
3.51785059850918e-07,0.283879674095235,0
2.68714661498476e-07,0.250566380245812,0
2.36824398962393e-07,0.245779875614817,0
3.10136931221324e-07,0.287893032174538,0
2.98301332368468e-07,0.2916606623127,0
2.90083113451607e-07,0.284640095224217,0
2.70626003070718e-07,0.269679273160047,0
2.85148054043569e-07,0.283754660892192,0
3.46649941898142e-07,0.257473546174051,0
9.32835266370416e-07,0.400812513488457,0
9.19712356340468e-07,0.389118001309882,0
9.26275291704082e-07,0.382098674254424,0
9.27592294445317e-07,0.384676233484336,0
8.5615997414152e-07,0.369398918188352,0
8.35085815497961e-07,0.367081923410776,0
8.24710178769265e-07,0.367190245135803,0
8.70159419748877e-07,0.37265374949029,0
9.53112405306352e-07,0.386221064673064,0
8.41679626704633e-07,0.431650209659197,0
1.91387000771897e-07,0.224993450626189,0
1.76578015936996e-07,0.220316026880309,0
2.05512064535253e-07,0.242054479140242,0
4.64719165747356e-07,0.345451276020153,0
5.1180990189003e-07,0.333805879600232,0
5.21048884637485e-07,0.335368547494111,0
5.17092124201918e-07,0.339839831806036,0
4.84651341154565e-07,0.348099773757976,0
3.57748327128423e-07,0.297560249936791,0
3.28637398015558e-07,0.282131068635297,0
3.09096795971389e-07,0.266549201469523,0
4.40042853610956e-07,0.316057798324496,0
4.66168469361307e-07,0.327869558169471,0
2.37921633374146e-07,0.250086965913167,0
1.64752229680837e-07,0.239453545942567,0
1.71451103345251e-07,0.24726155095788,0
2.20952608395531e-07,0.279472568729202,0
2.00579712050442e-07,0.255803446269237,0
2.35243809571937e-07,0.272474984181601,0
3.84289709368156e-07,0.335452515265024,0
5.50798055492443e-07,0.409663138547982,0
7.8324823570287e-07,0.470714920945061,0
7.74330277131856e-07,0.467313765905215,0
7.52924351210303e-07,0.470492025556933,0
7.07550904081042e-07,0.427594270957841,0
7.68380544470485e-07,0.432993571578411,0
8.56030718557435e-07,0.450533075581235,0
8.25528346314594e-07,0.432705464219518,0
8.74133183045962e-07,0.440194753413171,0
8.3199789282688e-07,0.442676393133128,0
7.32481244044015e-07,0.422373741164022,0
4.69448245216097e-07,0.352244995448262,0
6.30596037437618e-07,0.382289325066844,0
7.67512637210861e-07,0.392153541910686,0
8.22574416343241e-07,0.41483843503835,0
7.98293314997968e-07,0.382510230770914,0
6.32366788184763e-07,0.339382574390119,0
6.17449188055381e-07,0.341449831513439,0
5.82256563773834e-07,0.332913107051732,0
7.2240683711566e-07,0.355762857745036,0
8.51351801759742e-07,0.387467082659384,0
8.4723448694028e-07,0.364198747739371,0
1.17414495252843e-06,0.411969903912303,0
1.13670685083882e-06,0.394352397233618,0
1.09092736522552e-06,0.389646378132065,0
1.03676851417201e-06,0.393050875170759,0
1.11549269350962e-06,0.394297336896096,0
1.16187277771388e-06,0.390466847509733,0
1.13007691912534e-06,0.403180435759111,0
1.0216009466009e-06,0.389440787683512,0
1.08877874491417e-06,0.387686510280602,0
1.04086958745212e-06,0.38387133004956,0
6.96845699449468e-07,0.338743648255337,0
6.56305717515886e-07,0.348151695250697,0
6.58004311840764e-07,0.346165825518517,0
7.77434187568249e-07,0.383763511542753,0
7.52609248428421e-07,0.409662318934581,0
7.54808623550276e-07,0.429161930171242,0
7.66668330938121e-07,0.414322793148262,0
6.95893792978459e-07,0.389964097344074,0
2.21918303256727e-07,0.229461086132056,0
3.46429073881098e-07,0.295572205281928,0
5.12928114956792e-07,0.35164970130298,0
5.12481895581108e-07,0.332669009674418,0
5.21433267735704e-07,0.331612052119473,0
4.33850766729427e-07,0.30650204490512,0
4.10520472167602e-07,0.290857455610967,0
4.98207866448921e-07,0.321485642218083,0
4.86622235037799e-07,0.310642325067586,0
4.88107659158559e-07,0.314463596500308,0
5.72725402500577e-07,0.347369493530189,0
4.61170135622841e-07,0.324021385204762,0
2.73923712291886e-07,0.260584841823088,0
2.67095583043387e-07,0.270679946313546,0
2.17173489796729e-07,0.244360917291865,0
1.99248244188211e-07,0.246112703524909,0
1.95814173709489e-07,0.241641701337001,0
2.14031005704353e-07,0.246473358815969,0
1.92829706260483e-07,0.245206647026858,0
1.83448271678213e-07,0.239580172695378,0
1.74720136098484e-07,0.229410687253733,0
1.42264380382033e-07,0.199131619891788,0
1.32143194436662e-07,0.185924455982327,0
1.34589999259725e-07,0.192845284073982,0
1.85490560661556e-07,0.231036640779857,0
1.56684837142524e-07,0.206480205979284,0
1.19759697404411e-07,0.182793332618853,0
1.40776926068852e-07,0.189154064466294,0
1.8413033174004e-07,0.195749600099342,0
3.37843051770781e-07,0.266522791211416,0
3.89441745591099e-07,0.293455362445085,0
5.22946184045488e-07,0.349053660535144,0
5.45442407888025e-07,0.365716860166153,0
4.91498080500249e-07,0.340961944447773,0
3.65906993734293e-07,0.29057941561839,0
3.06982012200376e-07,0.267970481092275,0
2.97618510984484e-07,0.268763276308335,0
2.39422622303461e-07,0.268072260230362,0
1.77863804469772e-07,0.243330746666712,0
3.07166759710611e-07,0.310014647839608,0
3.74124282146296e-07,0.334926084020558,0
3.32513796667826e-07,0.298074045763346,0
2.92178525803278e-07,0.28266360831063,0
3.35674044943878e-07,0.305561429723262,0
3.41258427560969e-07,0.311442273269439,0
3.31251609121934e-07,0.306704945990833,0
3.32894119381205e-07,0.307500321454956,0
2.9028367954445e-07,0.282157141649259,0
2.96910227603895e-07,0.304464653109788,0
2.38809504192568e-07,0.277816240093828,0
1.96835698862239e-07,0.251708970940551,0
1.82756314428337e-07,0.242415740184061,0
1.87313673454872e-07,0.239293086925644,0
1.67141004837223e-07,0.220146876487106,0
1.88353216565352e-07,0.224749137896919,0
2.00327206868183e-07,0.228992112447002,0
1.77494732406054e-07,0.220919961708202,0
1.77195617389483e-07,0.220894008369008,0
1.99552350094484e-07,0.241511013916231,0
1.7603299386353e-07,0.231152820075286,0
1.81772009469956e-07,0.244343664196408,0
1.62417423806286e-07,0.251792235877658,0
1.43325240512924e-07,0.240768476901905,0
1.0499004754765e-07,0.224382155047446,0
1.4027360753135e-08,0.120829335022543,0
1.67436736199761e-08,0.129989053163308,0
1.11025302064721e-08,0.122403476886605,0
1.08784477180954e-08,0.124626874623941,0
1.1726476010272e-08,0.131807123234907,0
4.13766749847459e-08,0.180118124853084,0
4.5390111625376e-08,0.176383193861783,0
5.61666267657086e-08,0.173914442297461,0
7.42289949539382e-08,0.200341484246046,0
7.628921730366e-08,0.195704938812891,0
7.42415144738624e-08,0.190487340276307,0
8.69105073152001e-08,0.191091311864839,0
9.29537134192492e-08,0.183732580334268,0
1.01014000284092e-07,0.195257471285584,0
1.10560895548606e-07,0.191899922853616,0
1.09996248281745e-07,0.191658550029495,0
1.26701686611141e-07,0.209927726651445,0
1.17835751720894e-07,0.212089973899223,0
1.59876299627036e-07,0.231233351739307,0
1.65511437054631e-07,0.224547124440753,0
1.88656391966764e-07,0.242810119058215,0
1.93619535703281e-07,0.251719058503492,0
1.87165215634146e-07,0.26071982927675,0
1.63479214442037e-07,0.245079357133142,0
1.40400409966261e-07,0.24219283471498,0
1.46574478890061e-07,0.233119413719211,0
2.12588638581171e-07,0.269850119693897,0
2.23262036864828e-07,0.275912607216472,0
1.62038454554521e-07,0.248210412871701,0
1.56258919691041e-07,0.257984909580043,0
1.5261768499411e-07,0.259230932944699,0
1.52715810961085e-07,0.251534629362704,0
1.65918236860823e-07,0.243412288540274,0
1.754865337371e-07,0.240398280278424,0
2.02527258720844e-07,0.253914210916367,0
2.24818094763541e-07,0.285263507531492,0
1.02221541817341e-07,0.19659055923652,0
7.08990564280997e-08,0.181132007942798,0
7.17591812834466e-08,0.174179681828209,0
8.06552306945933e-08,0.175515941671321,0
9.12606175321755e-08,0.17767897760765,0
8.22315905175072e-08,0.176919982060579,0
7.10716227838144e-08,0.171304263895054,0
8.28424246619269e-08,0.187339932936628,0
8.08440385896695e-08,0.188828131914544,0
8.82098304641109e-08,0.201841402953078,0
9.24591077908843e-08,0.211782075483542,0
1.24033252448876e-07,0.216928505159894,0
1.92035985615546e-07,0.271352140618368,0
2.29689287701694e-07,0.299426849756098,0
2.22141624422945e-07,0.308172795500189,0
2.289502130694e-07,0.308031434600189,0
3.24392942395782e-07,0.367860980265201,0
3.4837560545529e-07,0.370899952214902,0
3.17978887809648e-07,0.339907529426804,0
2.73999929098994e-07,0.279619830733535,0
1.68982135588268e-07,0.208040868509237,0
2.02734084573649e-07,0.21660381595149,0
8.86263582756499e-07,0.273098874841021,0
3.49336360181596e-06,0.404536918414663,0
4.98975829027527e-06,0.319460311132641,0
2.45741282377339e-05,0.516786469660607,0
4.29845556597666e-05,0.397250545005313,0
4.13905865399397e-05,0.34512619841512,0
3.9481248513842e-05,0.337848558942332,0
3.87579805367748e-05,0.334622982136277,0
3.65748956788999e-05,0.327369416486872,0
3.59247509186484e-05,0.276172648333732,0
4.64167512557898e-05,0.309402667861961,0
4.74488070166238e-05,0.271868046669657,0
4.63475778629188e-05,0.293175028436003,0
3.98152276864805e-05,0.331798120195389,0
2.91211646663171e-05,0.401293656255985,0
2.88966639583019e-05,0.424725008759077,0
3.78797589691514e-05,0.307602860040919,0
0.000178001048945621,0.253559495177779,0
0.000316839318895045,0.140305494278527,1
0.000319520243731584,0.129301017549178,1
0.00032628020833907,0.131115834427793,1
0.000323967024013795,0.13578129121017,1
0.000314592157104004,0.133168400166778,1
0.000345162039589168,0.132495389074801,1
0.000408185896804483,0.133943724217833,1
0.000411621064517618,0.11299615828642,1
0.00109541334953846,0.105480435348904,1
0.00229488836864567,0.136123793213875,1
0.00245007702494667,0.113862705972047,1
0.00216134375775876,0.109049290340416,1
0.00181237129899457,0.0854398042567547,1
0.00171858562025016,0.067417378942622,1
0.00150842245382224,0.0452517027139854,1
0.00160118963451539,0.0476383995502378,1
0.00161174759064419,0.0471215419185795,1
0.0015233575305247,0.0467723524475875,1
0.00134299095153377,0.0573144985892933,1
0.00106793281373518,0.0417320104196251,1
0.003996877088629,0.0713729038548939,1
0.00579349288504048,0.0512798301832588,1
0.00615208727092066,0.0435785977120233,1
0.00904116656919325,0.0511643044794308,1
0.0088580233844272,0.0554673140118429,1
0.00708953693288183,0.0389642704485626,1
0.00671075248944756,0.0336327426891384,1
0.00662927760713697,0.0284620213485287,1
0.00614000714579553,0.0223763014270815,1
0.00644506521163566,0.0164317262946895,1
0.007233585467003,0.0176957326844223,1
0.00716133515679571,0.0176897046292905,1
0.0072345204555422,0.0197072331243766,1
0.00608218681834993,0.0176077517141452,1
0.00570151797991823,0.016377371797846,1
0.00569044135970415,0.0184244784069766,1
0.0068661658867806,0.0226339428819795,1
0.00765907723543635,0.0268661125601587,1
0.00870611598932052,0.0312773593377184,1
0.00738816715168525,0.045068255977511,1
0.00386453221555405,0.0349934500808882,1
0.0037486472063648,0.0431914152752852,1
0.00351242453275016,0.041777360385144,1
0.00371990742789432,0.0388112846058454,1
0.00351815249285918,0.0255436464873196,1
0.00478634637089318,0.0333601332021119,1
0.00444510080079458,0.0337222800130543,1
0.0034699506142178,0.0278442593538071,1
0.00295622525826241,0.0252032120004158,1
0.00427391677264586,0.0293560311624325,1
0.00496416361180011,0.0309264610349929,1
0.00582075982971308,0.028193504644423,1
0.0062542432201816,0.0244134996262478,1
0.0100871138059413,0.0343782432307089,1
0.0148345045816817,0.0587014573846275,1
0.0113504498557939,0.0387279336519953,1
0.00974683828360563,0.0361061938938801,1
0.00812533278381094,0.0244955856599532,1
0.00893290716617636,0.0267422379150191,1
0.0106661323424835,0.0304241914836794,1
0.0111074702067763,0.0306581107895125,1
0.0108019971025246,0.0318705133713454,1
0.0116440388438235,0.034892807618465,1
0.0106543367278474,0.0318056942796536,1
0.00814548364748527,0.0234475363758395,1
0.00660679989526566,0.0196910920075428,1
0.00505632449557512,0.0165982861593377,1
0.00346086641528606,0.0140067789530737,1
0.00318020895104694,0.0134953859436052,1
0.00374784301331063,0.014649035228939,1
0.00417685762450105,0.0166583400164198,1
0.00554990697353347,0.0126334602655589,1
0.0149491068296934,0.0262930732035203,1
0.019964707188218,0.0245324549838327,1
0.0452481389718866,0.0449309147044623,1
0.0682459933486912,0.0574747213824285,1
0.0904821176776575,0.0708811063803237,1
0.0942324669292513,0.0637077285418898,1
0.0787760038111549,0.0588687836842371,1
0.0759726092245274,0.0529402609194178,1
0.0560379360671003,0.0341842441513604,1
0.0396940524901961,0.0230079861654503,1
0.0348483715645508,0.0207253724489897,1
0.0163416101342723,0.0126048865744703,1
0.0155802710774702,0.0134330316831554,1
0.0181318893984031,0.0142836099171399,1
0.0262908692494288,0.0197186018394344,1
0.0273375204378035,0.0218114049286429,1
0.0348162310097422,0.0228957365909525,1
0.064020219206397,0.0394664603590742,1
0.0560819890088143,0.019199644336865,1
0.0690571650570903,0.0254789467055657,1
0.0889894098883365,0.0261819398185645,1
0.0952825927608236,0.0237916700969558,1
0.127030672709593,0.028612883246638,1
0.136368117094769,0.0320000983751081,1
0.133836881297607,0.0249475958866314,1
0.137269981266107,0.0226404872885477,1
0.136671313461978,0.0213436601067578,1
0.0994139018461957,0.0151559545789737,1
0.0616019459434934,0.0131728596126467,1
0.0653695320235094,0.0158236967475841,1
0.0647272596232465,0.0175529374293879,1
0.0675077223673901,0.0193953112391271,1
0.0674063688654716,0.0173671166095198,1
0.0685687004714941,0.015680118789133,1
0.0621365940923594,0.0203086864911601,1
0.0229104733147047,0.00443843335191575,1
0.0546891607729537,0.0178221642500911,1
0.0698343369298403,0.020736659042666,1
0.0940595765116002,0.0266331433955667,1
0.0974970198268151,0.014902836232095,1
0.129908774879684,0.0189142512732004,1
0.160808725741961,0.0227098108526437,1
0.18540623590721,0.0279299242054202,1
0.203043555837005,0.0310397879106135,1
0.215555817090944,0.0316183023968046,1
0.216748289541933,0.0402111836982621,1
0.170871531722457,0.0423272194545525,1
0.128082696802969,0.031974329249562,1
0.0592054445150278,0.015169248588018,1
0.029005611213012,0.0310951433657625,1
0.0299568863022143,0.0395720687784094,1
0.0240826277365675,0.0341259366612289,1
0.0200404460461569,0.0291618222634003,1
0.0142570314666063,0.0219614820730885,1
0.00923747619038422,0.015451586988511,1
0.0090282853753109,0.0107720630635554,1
0.0114683231816393,0.0139210167967479,1
0.00937131053079273,0.0110393700776678,1
0.0100974214921297,0.0211591862063224,1
0.010354422091314,0.0171097262049022,1
0.0115925819630887,0.0184315352045614,1
0.012325852400364,0.0187906757687124,1
0.0155904541010465,0.0231913898991014,1
0.0156671751233597,0.01845330520387,1
0.012866165256833,0.0157628246825488,1
0.0124887872945024,0.0206199501201586,1
0.0130990683283082,0.0191967595259227,1
0.0157461564149783,0.0266063675195897,1
0.0107331558315385,0.0188773842379098,1
0.00914162047804686,0.0224465574860849,1
0.00951943704873102,0.0188925220311322,1
0.011689763000349,0.0213479725641115,1
0.0102155510746993,0.0146115126071403,1
0.0119404558931089,0.0220311209306606,1
0.0102213597687935,0.0162187259981241,1
0.00935129361177025,0.0143552807147759,1
0.00982785023738018,0.0159061884541573,1
0.0100485200036819,0.0148499233025565,1
0.00985069177022252,0.0151845932854548,1
0.0106304781399977,0.0174781532859782,1
0.013915216377202,0.0246351442799401,1
0.00959266097231127,0.0115041865948618,1
0.0082991186318712,0.0102216804042898,1
0.0110682705673528,0.0147216261729193,1
0.00979948548273628,0.0132578247761586,1
0.00955070622575065,0.0135527803099971,1
0.00935947538695675,0.0137682007421387,1
0.00962036933444693,0.0141524645967694,1
0.0130608409043009,0.0197311065266987,1
0.0198239626018455,0.0274343939654878,1
0.0284677922777333,0.0380895448536008,1
0.0488369178395164,0.0687229939428077,1
0.0589573952671039,0.066928027835721,1
0.0490392622340688,0.0645488290121163,1
0.0411666128148079,0.0476620344093096,1
0.049453005594154,0.0498834634778594,1
0.0390356825005196,0.0428151057305991,1
0.0286311024901608,0.0357132108230794,1
0.0231840809784835,0.0223492557844876,1
0.0186730334558299,0.0172186085233295,1
0.0170858360468809,0.016749915508218,1
0.0295593622624725,0.0148798386991694,1
0.0519635018141351,0.0302870694906377,1
0.0601712084527593,0.0287211897927801,1
0.0714488037067503,0.0265365403323318,1
0.0998396725486025,0.0277150237263482,1
0.0946235387752122,0.0247325955640811,1
0.104755713204138,0.0259286896104775,1
0.0911724242766253,0.0215082031628801,1
0.0798336970585093,0.0187620778115222,1
0.0789742606392974,0.0116721317490574,1
0.105170820548578,0.012158954266144,1
0.124906773121262,0.0123899232908331,1
0.133589998790778,0.0127078026912395,1
0.131720810217785,0.0142315879529189,1
0.132585118295779,0.0146300994735718,1
0.138472958216651,0.0144666704105542,1
0.142773709151929,0.0133734485094489,1
0.181473388413496,0.0192067674350988,1
0.200912972624292,0.0194044477833236,1
0.159136858455682,0.0267676007190489,1
0.0529442156672455,0.0165606565487066,1
0.0487185380388609,0.0199993545094093,1
0.0405226266364957,0.0186672693945484,1
0.028988718296479,0.0143359033823708,1
0.035636535776868,0.0207193562316333,1
0.075487335993731,0.00990561657763619,1
0.270270450787166,0.0294717413095209,1
0.258145838257198,0.0222023335574352,1
0.239139194002154,0.0209003778439521,1
0.232334641318255,0.0199172404869944,1
0.217961945548823,0.018936062834405,1
0.217573001478511,0.0190726312301359,1
0.243943380733434,0.0206303295408857,1
0.290994891605252,0.0235813663364845,1
0.338278848746284,0.0264059252503358,1
0.332571404995558,0.050475095184141,1
0.106068049625244,0.0347727091380248,1
0.0699897314545045,0.0725277840953332,1
0.0406913549997232,0.0354619694431147,1
0.0334172576805407,0.0291448508004667,1
0.02838494414527,0.0228014584295412,1
0.041232181599345,0.0194131899571819,1
0.0740049711164671,0.0387923973143704,1
0.086565319364265,0.0490975244881451,1
0.0796381630787613,0.0389994294196008,1
0.0652012973045294,0.0350711341992613,1
0.0516941334278858,0.030000957586834,1
0.0348479733537274,0.0214934736377593,1
0.0329569490945453,0.0170010770985994,1
0.0460259727916667,0.0242690043580236,1
0.0304509126748088,0.00800447024149335,1
0.0472531235508472,0.0175485100468179,1
0.0627742058983111,0.021396776021511,1
0.071792509515709,0.0222284262053757,1
0.0705548453482352,0.0200497640727325,1
0.069385942671022,0.0193484666674011,1
0.0686201908091233,0.0188056512037972,1
0.0921879460877918,0.0189628038888599,1
0.0985684437976713,0.0153772724903656,1
0.0661970525343715,0.0105843524717551,1
0.0608097133010216,0.0143810877797764,1
0.0577662661283737,0.0133613020295853,1
0.0545696762859806,0.0127239910802452,1
0.0489779769475282,0.0102030888408054,1
0.0524285115118376,0.0117164471421282,1
0.0525456435717964,0.0124531009559098,1
0.0502274105539442,0.0123527970119094,1
0.044641334593199,0.0126643435057649,1
0.0572276223737933,0.03224431930161,1
0.0548843976677928,0.0323194033262575,1
0.0544992583080933,0.0333719521935543,1
0.0480919317546005,0.0366265612126583,1
0.0357375439845902,0.0275672250716588,1
0.0438387428070279,0.0318185585973293,1
0.0568789860465441,0.0228273299964434,1
0.048692392554717,0.0209548998944454,1
0.0433364404101861,0.0149023925134215,1
0.0465033288529132,0.016406939838747,1
0.0542285364764721,0.00946139591532381,1
0.210716321792362,0.0237852644911136,1
0.3831944377878,0.0378392852499009,1
0.440822701391175,0.0254402733276831,1
0.436635936211448,0.0226357119419488,1
0.44325429066603,0.0223728980342657,1
0.438593179028487,0.0221216217087282,1
0.384090402064401,0.0165778869646711,1
0.389308409355441,0.0165576205113401,1
0.409068610056523,0.0170637295084589,1
0.440092090644616,0.0217606246835365,1
0.421149090880162,0.026412837789593,1
0.270597159800821,0.0185604916392811,1
0.150627507300173,0.0159700622240881,1
0.177972161799882,0.0214253517012115,1
0.19273582554564,0.0246035944278119,1
0.136357879079963,0.0256566967468199,1
0.0487757749756265,0.0160290676184362,1
0.0453097709720664,0.0187535944756091,1
0.0310453242698565,0.0164158639610808,1
0.0205290513951444,0.0208604873930782,1
0.0209583717369872,0.0250953656454735,1
0.0140857854323207,0.0105193835155585,1
0.0241183440016973,0.0220294787411042,1
0.0270827413172918,0.0108292268958506,1
0.0301543479727586,0.0128065274731,1
0.0291639520394534,0.0131518165736981,1
0.0299149483230129,0.0140663645090797,1
0.0298538413790637,0.0138461516466405,1
0.032044501435971,0.010263627791193,1
0.0380969159001066,0.00963910477988805,1
0.0448754491634754,0.0118926330045495,1
0.0502700248321135,0.0152594024094995,1
0.0404307226218861,0.0126329956274641,1
0.0417935078848042,0.019036745601323,1
0.0494093211350712,0.021445531260679,1
0.0587644390436506,0.0233238109600103,1
0.05417809890392,0.0177202556181817,1
0.0526637143505192,0.0173031125093069,1
0.0415106593187311,0.0200715061530605,1
0.0257963136521955,0.0138070926268865,1
0.0772878793991297,0.0332071302319421,1
0.0862865494342084,0.0205101741155033,1
0.0873330176998775,0.0191790705158752,1
0.108217037623728,0.0221819147619953,1
0.114058121041996,0.0226009537180709,1
0.0854489019411169,0.0167209750514579,1
0.0751246990350729,0.0164894653064935,1
0.0716322213246377,0.0164632294235105,1
0.0586957582329829,0.013274600329943,1
0.0566584686137005,0.0158042861972687,1
0.0499890621469695,0.0152400511840326,1
0.0465210228352428,0.0256085237286585,1
0.0435677904379215,0.0273920305794041,1
0.0351710067926571,0.0349736259382578,1
0.0178972065012207,0.0218321857052036,1
0.0119378179394943,0.0163623171576422,1
0.0124594035861136,0.0134297612353388,1
0.017721933312961,0.0158362235344922,1
0.020079691461344,0.0215496896671756,1
0.020853417278036,0.0280930931122494,1
0.0252994523074857,0.0370022972284285,1
0.0281073066198327,0.0349831383895137,1
0.0241925465127065,0.0315078384725075,1
0.0151164480677565,0.0212329762194621,1
0.0124339040982855,0.0189996452559799,1
0.0104340406901941,0.0189020058388514,1
0.00909011505591885,0.0162305041642852,1
0.0137671260531113,0.0283422042525128,1
0.0378997270633996,0.0210349433726292,1
0.0964717533501199,0.0495569473698053,1
0.174372416653334,0.0692481157923597,1
0.200835927008724,0.0607122582174241,1
0.19345589823534,0.0586392017884561,1
0.194491429559049,0.0607706409412189,1
0.166871920697622,0.0484437407055491,1
0.11485092971367,0.0356781917638465,1
0.0838487198786647,0.0290352376670365,1
0.0579890472803272,0.0225975305540935,1
0.0431636963625565,0.023994405081181,1
0.0471947348486169,0.0239536851693441,1
0.0411257175052132,0.0186240708067488,1
0.0471859094228328,0.00995798642241892,1
0.150538855682497,0.0183278771826743,1
0.186436380874877,0.0110825374448199,1
0.202724219186535,0.0117301776655766,1
0.22252685438455,0.0123464520104594,1
0.216545754592167,0.0115231498053463,1
0.208460191870182,0.0103865033414422,1
0.238179192742514,0.011628689651641,1
0.292229786402388,0.0135082856691215,1
0.324500689376963,0.015886783576245,1
0.330222921925813,0.0168579834606116,1
0.173906910831927,0.0106274427625046,1
0.0838607049425675,0.0112793561154764,1
0.100414291393146,0.0127658391607808,1
0.135112652502569,0.0186520832117123,1
0.132699628052539,0.0192096997247671,1
0.113046827740303,0.0166771960636106,1
0.113704670346387,0.0216126546660033,1
0.114482391249487,0.0189763838274603,1
0.11523734920697,0.019130732891053,1
0.109521386579195,0.0297856902493038,1
0.0571546287319786,0.018977044271209,1
0.0235461527224359,0.00539738288181867,1
0.0554317329442785,0.0199246607326424,1
0.0622567423482911,0.0167012310413375,1
0.0554412859066884,0.0156247931037869,1
0.0557429120053292,0.0160816147936779,1
0.0631023906932646,0.0150455544190077,1
0.0622330985017606,0.0140779264659893,1
0.0625524272539365,0.013723143157523,1
0.0748038351815749,0.015352077174889,1
0.084424646357626,0.0172876489135077,1
0.100729794942201,0.0295348825029309,1
0.0833998534802429,0.029582016958281,1
0.0666796666446826,0.0277229178370221,1
0.0629449968290144,0.0260490075869581,1
0.0626182263743776,0.0272364154733098,1
0.0416513351297976,0.0204935661305211,1
0.0561045954518033,0.0402366062669779,1
0.141881088798496,0.0650787136777903,1
0.167565241139147,0.0260331961795188,1
0.15024402200608,0.0248220202807453,1
0.126324528197626,0.022033349736993,1
0.106607586964704,0.0191819302210186,1
0.0981670669230439,0.0177479137378209,1
0.0878507718934286,0.0160937759336139,1
0.0736168784250263,0.0125993775162347,1
0.0697675232425618,0.0140867123664704,1
0.077889076120736,0.0155487200493945,1
0.0395258932382902,0.00897681518927529,1
0.0180127109166659,0.0185710158381502,1
0.0198539204697139,0.018001913737779,1
0.0233673993350188,0.0155669960288822,1
0.0250772538223639,0.013040025918752,1
0.025467265393989,0.0127020563959917,1
0.0203337348402072,0.0106762923812577,1
0.01817159472636,0.0110063520531116,1
0.0186877252951785,0.010633985791255,1
0.0235045792511719,0.0117942858786833,1
0.0266922359162487,0.0121138289784196,1
0.0269899288595857,0.0153641418862388,1
0.016268986623605,0.00889281374176553,1
0.0162431323769082,0.0106399418400412,1
0.0161504286113055,0.0134432658031524,1
0.0156942775410693,0.0156919270745641,1
0.0293505731233381,0.0134073438949192,1
0.0394244372312797,0.0149547517559285,1
0.0483990106441995,0.0179050858549932,1
0.0557789370187386,0.0242564619843577,1
0.0517005917174041,0.021644482036444,1
0.0534778498777877,0.0211702872988337,1
0.0541299802961585,0.0221795261314665,1
0.0518974730082975,0.0213376437383646,1
0.0468187333361914,0.0202291075712827,1
0.0289359832620038,0.0106116962936168,1
0.0642109481350994,0.0157629332362727,1
0.132170765273309,0.0305666561154921,1
0.15035174164463,0.0270604954317233,1
0.15163383760092,0.0254147488140901,1
0.154259098517128,0.0271115892401637,1
0.152952629354061,0.0271768654012046,1
0.15600399329868,0.0280719288493502,1
0.134901587435847,0.0255488920224418,1
0.0850121707063367,0.0154855018145899,1
0.0680518051520306,0.0126298295023154,1
0.120343974437337,0.0500418892563261,1
0.110178875152458,0.0210340544258358,1
0.110526183250933,0.0231797788176442,1
0.115756360829381,0.0182463694746227,1
0.123292838024931,0.018435605275981,1
0.127794255584544,0.0187525673073084,1
0.115838244064595,0.0171667744929956,1
0.104699620412679,0.0142924739004329,1
0.0888038233692768,0.0128514203596009,1
0.0903855339948253,0.0139410632139576,1
0.102342268639538,0.0157674155962496,1
0.11611889409833,0.0335723564245593,1
0.0501255445143845,0.0185267835113217,1
0.0266706489060453,0.0218192614140136,1
0.0270471843644912,0.0236077435052713,1
0.0291283876613086,0.0251743099326125,1
0.0298657788985669,0.0259869916913026,1
0.0329267006533566,0.0185226533723845,1
0.0436263162545262,0.0221569968771858,1
0.0442970006976053,0.0256948320325077,1
0.0548895907038363,0.0245584314163045,1
0.0553022147081101,0.0121549810231283,1
0.0417110808636502,0.00885054762920228,1
0.0395836284458582,0.00766911744427928,1
0.0589833213652712,0.0110050337023075,1
0.0821204660391893,0.0154427692786304,1
0.104013521984548,0.0196389087841725,1
0.119386284280821,0.0263167524460248,1
0.113051783988152,0.0237385646529803,1
0.112197556554852,0.0222432263223851,1
0.0869221693600932,0.0231302482807679,1
0.0495370784188778,0.0261783979400515,1
0.0514711126679702,0.0275518941784326,1
0.057950568635742,0.0371019858410579,1
0.0599655469580257,0.0372297621210824,1
0.0568993861948388,0.0187018540598077,1
0.0811984622418844,0.0235172989526359,1
0.0609258505265137,0.0187740069513706,1
0.0471899950429649,0.0157677420297453,1
0.0483339115131262,0.0161143180890932,1
0.0515132412469653,0.0154959560145642,1
0.0402672579547033,0.0119511336353106,1
0.0369068584313514,0.0117984895724361,1
0.0422382547389169,0.0122960187041251,1
0.0473182487275129,0.012990603454866,1
0.042869318299216,0.014543208467249,1
0.0354120492087201,0.0143460625844037,1
0.0355823306133188,0.0137552097726903,1
0.04131773556313,0.0137397126060068,1
0.0492724903888364,0.0162099842978795,1
0.056621728664985,0.0132330493134435,1
0.0600499294494374,0.0107470460821691,1
0.0596859523200743,0.0109792356286085,1
0.0630467569772058,0.0124902817758019,1
0.0512040184335668,0.0132003802941046,1
0.0416649952737445,0.0120679593570922,1
0.045279419722864,0.0126958098710609,1
0.0458769022808629,0.0126178348456737,1
0.0584515300876142,0.0166452990602824,1
0.0596591638741601,0.0186107585788516,1
0.0846475938642232,0.0323835077546068,1
0.104313862135963,0.0375546937973816,1
0.0960435501395897,0.0334593202183612,1
0.0798248741534628,0.0268285645681444,1
0.0611183805475273,0.0192433712766489,1
0.054721473880245,0.0182123589785021,1
0.0592807786816845,0.020738134645156,1
0.0537193490756409,0.0195263765657467,1
0.0719641432044095,0.0262384397044494,1
0.0781258604273739,0.0153863900286393,1
0.0880883118943615,0.0153660692735405,1
0.075013888119213,0.0135070532925996,1
0.0745362731685903,0.0134853179942436,1
0.0654725856626144,0.0128336238411334,1
0.0898116389879821,0.0160039677628418,1
0.124483344775353,0.0187141156753625,1
0.123164424600952,0.0137013154528579,1
0.125963327843728,0.0130194244134046,1
0.107218028532507,0.0105748746942729,1
0.121131033851761,0.0169103046588203,1
0.121101154331471,0.0186145827679725,1
0.127255761120502,0.0196411019423948,1
0.13154345544346,0.0172852298950768,1
0.141175847477264,0.0175457083659604,1
0.116537033042235,0.0170498565359864,1
0.0639185514191875,0.00974850204310051,1
0.0605999568492164,0.0150599286351717,1
0.0717534626493647,0.0207736503451657,1
0.0815581073744073,0.0249627004399531,1
0.112634158961911,0.0309747138908579,1
0.131826562320051,0.0283147462591174,1
0.132634238520119,0.0325144463899214,1
0.105135090273513,0.0410639292613315,1
0.0461068564525067,0.0256481451246961,1
0.0329979234754822,0.0258030889448661,1
0.0276909172998999,0.0231155307897243,1
0.0296417151603708,0.0234783302026343,1
0.0398632340475254,0.0280667762898883,1
0.0392017411485335,0.0280317156911646,1
0.0260916670944151,0.0236948653311731,1
0.015951996701145,0.0249207573893878,1
0.0200519223794521,0.0173439055856613,1
0.0315244908097552,0.0203247105038611,1
0.0278836846352656,0.0147893526956453,1
0.0374015129585923,0.0181813433859198,1
0.0450275443676224,0.019763612204321,1
0.0507892755502854,0.0236850217591038,1
0.0599854002154548,0.0287097821184867,1
0.0675205110204494,0.0298167738804463,1
0.0692653118481647,0.0302463812183365,1
0.0692374060438948,0.0300615131561531,1
0.0591928531665571,0.0425140655855351,1
0.0182649045818858,0.0194402290069467,1
0.00731261748238708,0.0111727954884153,1
0.00723407506237025,0.0195854219980416,1
0.011811300088837,0.030494128704261,1
0.0130155614185372,0.0267453679657069,1
0.00997052676805594,0.0223726798098804,1
0.0112237215021823,0.0152407085647605,1
0.024542898195803,0.0185338912470939,1
0.109792864757649,0.0397986927311785,1
0.148397673721422,0.021407354853523,1
0.140249544940969,0.0224590767706888,1
0.134250448500095,0.0223403730689053,1
0.126454034103843,0.021255074241485,1
0.125558925434581,0.0193802674151459,1
0.118581978512059,0.0198195756398358,1
0.0935828301312642,0.0122927732550278,1
0.120480998588669,0.0151007901596689,1
0.127167951709964,0.0091949123789604,1
0.118264465409266,0.0108647129011096,1
0.0994005168281734,0.011871534261257,1
0.104438584665469,0.0107309760386513,1
0.122917367202097,0.0123959879253464,1
0.120136725975025,0.0114013787969686,1
0.117840709585199,0.0119091104625326,1
0.115488487109027,0.0115995157000433,1
0.113537018196282,0.0154400142986278,1
0.0477299952311065,0.00752900387113858,1
0.0196840203399043,0.0109666845584999,1
0.019661102482993,0.0109726840135231,1
0.0194432249770263,0.0114647676272435,1
0.0260900696140775,0.0213262002710312,1
0.0326138602283263,0.0219717330860665,1
0.0329000485410386,0.0224573237966343,1
0.0499819592305002,0.0265761650232076,1
0.0513144461417253,0.0206126626385107,1
0.0506721781822547,0.0210656297949772,1
0.0522526177943341,0.0231236218461718,1
0.0488446311818076,0.0166594102310013,1
0.0401670057429289,0.0160186531033565,1
0.0454838831253412,0.0191591664881305,1
0.0519989986768775,0.0217295868725986,1
0.147076394251273,0.0298703110679864,1
0.264079998441301,0.0432523021073272,1
0.322475112167503,0.04891096728942,1
0.319100365369652,0.0328443914154924,1
0.329014403260952,0.0275369110756652,1
0.332323060454032,0.0208655978151015,1
0.299551336049617,0.0215519724537021,1
0.311330513675959,0.021884306994419,1
0.346528688457565,0.0236702806654938,1
0.351991884790137,0.0195793159427438,1
0.308006828361782,0.0226384270319366,1
0.205123739311663,0.0159344994855912,1
0.133794546539206,0.0101092376956665,1
0.115090229849727,0.0114833821616669,1
0.0965410415866619,0.0118697285924286,1
0.0664752797655716,0.0147468469886334,1
0.0705258232434244,0.0146569338078327,1
0.079095068062249,0.0153197570499666,1
0.0988113203642608,0.0173304127130399,1
0.107226640277409,0.0389970605239634,1
0.0872290877426794,0.0353553055970615,1
0.0981109830214593,0.0385678562081507,1
0.0829389364377967,0.034457038295214,1
0.0715028958075302,0.040349928340392,1
0.0641797442535514,0.0454028626203424,1
0.0354888491585702,0.0325707019707788,1
0.0273075823796222,0.0336083961764285,1
0.0150744586597207,0.0221981775091684,1
0.0138163799423594,0.0237096694165377,1
0.0106108972717938,0.0193188942008451,1
0.00791734333002677,0.014340941723546,1
0.00755763570099087,0.0171519759323552,1
0.00894402809119503,0.0125967150045289,1
0.0127160405797811,0.0151266029788665,1
0.011593063557806,0.0146728896893444,1
0.0122849727246044,0.0164829164683838,1
0.0135642494984311,0.00944777843997527,1
0.0264111489285979,0.0175411684216512,1
0.0280709621257006,0.0177303414159663,1
0.0314087312877745,0.0184878003593934,1
0.0307277933670132,0.0131172166919473,1
0.0296014019969483,0.0118416035763626,1
0.0301943090469308,0.0137453549205771,1
0.0292609145430796,0.0141756454163848,1
0.0321318462830755,0.00906114974549282,1
0.0613313363173082,0.0174157227740862,1
0.0588015267083281,0.0152159028717056,1
0.0602376566392517,0.0151348031351201,1
0.0612963077785919,0.0138727278751964,1
0.0612360245644924,0.0147633942493235,1
0.0592071751674444,0.015675789866703,1
0.0923387493477782,0.0167010549703352,1
0.141091506939017,0.023555650424061,1
0.134642444627445,0.0163978640297764,1
0.14051991793537,0.0202203608833155,1
0.143856728347194,0.0152788149439848,1
0.171730137051865,0.0187767907237012,1
0.158994975794786,0.0146718227840464,1
0.13946861845472,0.0138531097331099,1
0.141583105924818,0.0112260836366581,1
0.194708325849079,0.0158397109097545,1
0.226532555825583,0.0239284421201225,1
0.194727972393331,0.0196660544264665,1
0.180122558620704,0.0213310375928557,1
0.197184541522258,0.0243075825836775,1
0.207643883326119,0.0324324847208013,1
0.117908063335806,0.022784437501139,1
0.0826416616248544,0.0255923583494482,1
0.058529742559067,0.018450656290173,1
0.0403151652992035,0.0397373045099885,1
0.0409997601476262,0.0675383787940359,1
0.0357420330399075,0.0401321541942935,1
0.106939803033569,0.033466983613926,1
0.127325062907817,0.0266055125907569,1
0.10951008936411,0.0240906098283519,1
0.0813520586908496,0.0189325348866939,1
0.0726844662768104,0.018150993436356,1
0.0724636226514279,0.0179199228520217,1
0.0717643035114538,0.0146327861017101,1
0.0808350874699356,0.016339076900267,1
0.0808336630896405,0.0147780497460464,1
0.0728783535762838,0.0135019299186046,1
0.0412147915780167,0.0135311941926781,1
0.0334219939638089,0.0193848437752192,1
0.0319586944679147,0.0182864840780171,1
0.0347256837638449,0.0176230015648046,1
0.0417592131442501,0.0216166428968294,1
0.0486420769657689,0.0251654441455973,1
0.0481033939750131,0.030388718024447,1
0.0425243629113061,0.026846105503501,1
0.040456461386078,0.0351152250621629,1
0.0365405351703469,0.0345408425369515,1
0.0307253981667208,0.035603874390229,1
0.0180627110529623,0.0214493572095796,1
0.0157514717185989,0.0194087818956334,1
0.0159449708226957,0.0182913105269458,1
0.0170530684461646,0.0195273353155245,1
0.0154793775318015,0.00849247483581739,1
0.0420640934874687,0.0222185745666824,1
0.043513223725948,0.0161203446883204,1
0.0440486059386775,0.0156173339550205,1
0.0555417210467515,0.0157085060759592,1
0.0659487027630698,0.018758088482103,1
0.104786152474279,0.0248452647734026,1
0.106154347439351,0.014761134559913,1
0.0912615263633773,0.014491576407648,1
0.0844028532265542,0.0136131620470645,1
0.0835716853102252,0.0163642680473131,1
0.0868229547024328,0.0173816022285701,1
0.0836621309585264,0.0157325884078143,1
0.103198933270537,0.0173340315215399,1
0.143961842767713,0.0241343561456562,1
0.162476257583541,0.0144919840282516,1
0.179756337427962,0.0190421366774535,1
0.181817106882735,0.0180517343437464,1
0.279317977948281,0.0131040575536217,1
0.397128598407835,0.0146519659985207,1
0.393305088958117,0.0102872991137139,1
0.410684346271388,0.0108939748289141,1
0.426262877856222,0.0125579596146988,1
0.411201857130305,0.00952975622189478,1
0.43213395472664,0.00963449339995826,1
0.42706400037226,0.0126519614809561,1
0.387721661796528,0.0114494477600277,1
0.333939385159505,0.00900552110425033,1
0.305754695176556,0.0146847866224446,1
0.258384011179754,0.0136300090076434,1
0.308489401888546,0.0268086151515787,1
0.332390599082251,0.0280888475322141,1
0.375410327070042,0.029599305277923,1
0.382662478389909,0.05999848782761,1
0.305663135444684,0.0509484628879422,1
0.261234491044352,0.0438831177036705,1
0.180064980390998,0.0395069368517587,1
0.0578591080573681,0.015115505160068,1
0.0274718386238206,0.0137469082113251,1
0.02433666662363,0.0163069025703905,1
0.0228947736424978,0.0159594831052071,1
0.021470705123739,0.0150329434832734,1
0.0184155684613801,0.0111406893636915,1
0.0247553479408845,0.0143553572642349,1
0.0281424877245487,0.0112174346141311,1
0.0290786987069003,0.0129390035409106,1
0.0280923283373364,0.0120245741828576,1
0.0270918289535931,0.0152277040809404,1
0.0271908123198902,0.0150619495929103,1
0.0284222700568346,0.0131613638369976,1
0.029853694704767,0.0150383985985536,1
0.0293404074839611,0.0148450427491039,1
0.0287061517100063,0.016629533047874,1
0.0213221322454959,0.0160457620479107,1
0.0141169480428484,0.0168183018703588,1
0.0133229191753671,0.0194658980700548,1
0.0113237057808347,0.0158186190053536,1
0.0118859651458602,0.0112295631486859,1
0.0341319894191994,0.0232947233693332,1
0.0463378823769406,0.0311890350244862,1
0.0681428016909303,0.0382074677892584,1
0.0861258174314851,0.0415405704849732,1
0.0947626871912287,0.0449270206899458,1
0.10601106496831,0.0338174366101159,1
0.112059834194124,0.021452233077765,1
0.111032578467984,0.0207190091297562,1
0.0993359091262387,0.0158148527889697,1
0.0948718567776401,0.015020698292639,1
0.0987561820110075,0.0158054811579018,1
0.0987367066157831,0.0154180777336729,1
0.0962794831053381,0.0157092767433859,1
0.0917359709791358,0.0146773772578922,1
0.0889777879841541,0.0139064541016249,1
0.086491560929425,0.00931821692047197,1
0.121404737049035,0.0194018257885054,1
0.159666521220053,0.0258206894748993,1
0.19835561910443,0.0469359732658692,1
0.178257484626846,0.0534799342073576,1
0.143995227993568,0.0502006312631906,1
0.125734858834902,0.0449791931575486,1
0.10660549349863,0.0384285095493285,1
0.071214700494893,0.0307072426275287,1
0.0174320216520508,0.00750863526099094,1
0.00859994681345927,0.0462070747407748,1
0.010670331911564,0.121991825454941,1
0.0154625811612382,0.0345900017816517,1
0.0520800426522004,0.0552965546818742,1
0.0737065730401006,0.0382688186880894,1
0.0707494218155587,0.0375646285490399,1
0.0785642230420525,0.0302497717177232,1
0.103630902004567,0.0376495215604479,1
0.104480800809455,0.0237876844833812,1
0.0907224973368129,0.01579282944387,1
0.0798337036626406,0.0132225110277867,1
0.0649571398658564,0.0110025239187522,1
0.0619466562368464,0.0129573815404268,1
0.0628464281582801,0.0135030667865179,1
0.0607499972622014,0.0159523439121915,1
0.0585373370181965,0.0152477314988598,1
0.0576463657745013,0.0196796629425629,1
0.0380486686945433,0.0132811749739449,1
0.031010197902681,0.0118920039210239,1
0.0341690012619422,0.0133267770153072,1
0.0320712683043234,0.01523081534505,1
0.0353160598642959,0.0154931543392894,1
0.0485979305758205,0.01997566918118,1
0.05354409613246,0.0165039790552759,1
0.0517555258150282,0.0179046872961432,1
0.0923570761241668,0.0146968547131977,1
0.155178917857841,0.0188437786433957,1
