Activity,Complexity,Tag
0.000263048495574386,0.092648023129152,1
0.00022718940193315,0.103599337102349,1
0.000247395538801735,0.10829434420788,1
0.000251064123389717,0.124290805840031,1
0.000216853421018267,0.113688941486285,1
0.000246604007590884,0.125811800009245,1
0.000336187797056041,0.154300100931586,1
0.0002582804182915,0.121796046814866,1
0.000200453015057324,0.102725942413583,1
0.00019358185950357,0.110002169492763,1
0.00018700175135884,0.125156549770016,1
0.000177274029294967,0.131672014571752,1
0.000181567821352559,0.134474271560822,1
0.000193384749091262,0.132399483477402,1
0.000197449018366676,0.134199828679195,1
0.000185152098881019,0.13464076283049,1
0.000139415930955781,0.142215399404703,1
0.000139928463883422,0.145915070848646,1
0.000153586601677018,0.157979616822702,1
0.000199671471999209,0.234303391250419,1
0.000229852588609868,0.122229595161518,1
0.000543746686409414,0.168259206875076,1
0.000856433237079526,0.200821118176968,1
0.000904635761287187,0.127028776886497,1
0.000921753450663864,0.12223157417694,1
0.000987988138424839,0.110805557393024,1
0.00145795417201567,0.126410788497141,1
0.00153892590077969,0.0963412666862115,1
0.0014331283329948,0.0742603644301909,1
0.00133893826275595,0.0514354192031692,1
0.00144615866622446,0.0465753184666023,1
0.00142303851334778,0.0428779365640294,1
0.00136539361264534,0.0395644794492421,1
0.00135693362285708,0.039875935838291,1
0.00128337683982256,0.0306845725372676,1
0.00143390422761001,0.0346984636090506,1
0.00143663159104985,0.0355235693768562,1
0.00178055296206984,0.0478792216182605,1
0.00148659687421027,0.0479280537142591,1
0.00101751841396018,0.0457868248787642,1
0.00114747236943777,0.0649614733155143,1
0.00107000744849173,0.0550630389140197,1
0.00121421605326984,0.0234565614772876,1
0.0025207561031991,0.0293668008981774,1
0.00211753766078616,0.0214085227445457,1
0.00219781559019382,0.0220953088382717,1
0.00226417137290291,0.021265799953398,1
0.00232065405168736,0.0198282027262543,1
0.00243180451722525,0.020128667762695,1
0.00255178082057917,0.0193728751592023,1
0.00284645810831068,0.0217797783345169,1
0.00361988487793482,0.0271259833277583,1
0.00306995834452158,0.0258702647491734,1
0.00242649188234264,0.0269794504663935,1
0.0023821379617872,0.030573629478804,1
0.00221427442198307,0.0168781288009743,1
0.00567896219304149,0.0304793645294417,1
0.00629033294637352,0.018427233255129,1
0.00593730393578428,0.0182557067964173,1
0.00641736354440155,0.0208103219513995,1
0.00813920522896861,0.0151253223131834,1
0.0119263244412943,0.0225343581364851,1
0.0132627881566399,0.0255129942280713,1
0.0126156722621941,0.0238685708216247,1
0.0118006521656085,0.0229404265158717,1
0.0107685598325899,0.0257340946999526,1
0.00988754360828101,0.0270068674139015,1
0.00934614098468325,0.0416044964009442,1
0.008100771454462,0.0354333699539575,1
0.00626955241853541,0.0286174027844573,1
0.00616501571227234,0.0558712047501113,1
0.00457779687120164,0.0377191594857759,1
0.00317156563581029,0.0358659409205674,1
0.0031000609437267,0.035096497579482,1
0.00326980712701493,0.0335485203690313,1
0.00329889582957858,0.0310035323869933,1
0.00318192665397982,0.0281065810210821,1
0.00332208491686744,0.0277241725126352,1
0.0027164771240721,0.023331652055812,1
0.00260185210289504,0.0156587855474337,1
0.003115678395278,0.0207933853718905,1
0.00312108823006946,0.0169818670536362,1
0.00430274756057726,0.0187799157496184,1
0.00412773479290627,0.0185314406460745,1
0.00406949229137242,0.0188511499974419,1
0.00446608765318787,0.0185065212756148,1
0.00469375974025409,0.016858549265724,1
0.0051447799102452,0.0151486226109892,1
0.00492208841869777,0.0137043255056207,1
0.00630961742375007,0.0190112157017594,1
0.0104664442641256,0.0287189122571387,1
0.0108770265376557,0.0331872988602975,1
0.00875949861840907,0.030724796279454,1
0.0084057379689573,0.0267269123221625,1
0.00749253434375716,0.012474030228618,1
0.0478856020327608,0.0231258765774717,1
0.0539022988051693,0.0142344278917315,1
0.0513260236107253,0.0133781777958053,1
0.0506421086017843,0.0130951761657594,1
0.051255842379184,0.0124195068506719,1
0.0535000879747458,0.0124674425299362,1
0.0561374107699734,0.0122089725896799,1
0.0600610404042017,0.0093030757972867,1
0.064639282066874,0.0103664527861773,1
0.0572782411443749,0.00960500934048876,1
0.0353889823197977,0.0088664425656537,1
0.0282994566299187,0.0132806599085381,1
0.029758848528933,0.0140783773729916,1
0.0249772186985802,0.0105710688775887,1
0.0278585063833647,0.0139755522782446,1
0.0322907469645877,0.0136743758237816,1
0.0277504072991835,0.0127503453414834,1
0.0280947758685891,0.0266790478868631,1
0.0229051483521104,0.00962107666530082,1
0.0418924947903573,0.0169632565252557,1
0.0456543173817621,0.0121388880549976,1
0.0456188532330952,0.0119996911807615,1
0.0437623956285499,0.0110751147539424,1
0.0440780959784391,0.0116059242707152,1
0.0455257406898904,0.0105086683116065,1
0.0409131257163739,0.00897446019968198,1
0.0410910085869522,0.00915096663930786,1
0.0339600928353529,0.00803004709223616,1
0.0371162730895078,0.0166147669484412,1
0.0258641691927024,0.00708414083824463,1
0.0241897121727325,0.0099483081211528,1
0.0297466212833196,0.0116687458864529,1
0.0351063464595978,0.0146644254186941,1
0.0347066579037764,0.0145179272212059,1
0.02965936575621,0.0163355659250625,1
0.024116332901633,0.0098378969333819,1
0.0253069821352067,0.00721496881227325,1
0.0295848704693282,0.0081660900763756,1
0.0306325339403356,0.0078367786058147,1
0.0342267901359689,0.00631783045576531,1
0.0393737048292811,0.0076321001752445,1
0.0357606204388562,0.00734480598257546,1
0.032032890729681,0.00590880614960225,1
0.0302574155483609,0.00518422421374208,1
0.0319097317129786,0.00598863654931888,1
0.0354805326109931,0.00997655791878072,1
0.0376310225359931,0.00956678676518064,1
0.0792803582562619,0.0089369026135223,1
0.141740650073524,0.0151058384963238,1
0.139137365064546,0.0166857258427169,1
0.1516611459197,0.0172652919248591,1
0.186004284524458,0.0211513640131524,1
0.189424485626303,0.0206207028572784,1
0.198938411179637,0.0213553355479471,1
0.164238340362566,0.0176616604302057,1
0.116545937660659,0.0114488240284759,1
0.0853875009618421,0.0084881211328783,1
0.0797838287239049,0.0120662464417118,1
0.064257095892037,0.0107259284087332,1
0.0604553749314427,0.0106418000872,1
0.0762209974575711,0.013814677463757,1
0.09059499712755,0.0172312411338141,1
0.0912024811897185,0.017136722019075,1
0.0868619167825296,0.018230710780575,1
0.0950718217335308,0.0185273037816025,1
0.106403106162186,0.0191185443685922,1
0.0858924910285379,0.0157612646898143,1
0.0843867818517149,0.0185087026878137,1
0.0882180149814469,0.0213078305214354,1
0.0910606156061306,0.0212860727114458,1
0.0718362633454917,0.0226191976054436,1
0.0400659365023144,0.0129529909440928,1
0.0385977318873586,0.0150492484813552,1
0.0501465380209647,0.0142794810816779,1
0.0546518821970072,0.0180398200970039,1
0.0529284871765941,0.022010158584157,1
0.0468264975277678,0.0235647120053762,1
0.0491794892157684,0.0286509806663995,1
0.0584150135807173,0.0324893666225357,1
0.0684161915368083,0.0494264021328088,1
0.0740359654751275,0.0514183877677859,1
0.0600739928221974,0.0481781455731712,1
0.0298490535010991,0.031200157693043,1
0.0277647145384738,0.0547812402004564,1
0.0307031490885767,0.0663365016023434,1
0.0291732956602416,0.0855865651023176,1
0.0139554649197623,0.0724588836914074,1
0.00716824700116898,0.0395183431349526,1
0.00498450975002664,0.0325840274871563,1
0.00468671558772364,0.0221745988876983,1
0.00606427751149048,0.0271461171740215,1
0.00661271591086651,0.0201929612825832,1
0.0068666759843574,0.0171711430769688,1
0.00789146528040939,0.0212510152619136,1
0.0079715162094746,0.020000010287431,1
0.00859548343931338,0.0192970470584296,1
0.00925773859160055,0.01915842553224,1
0.00961632522702224,0.0206481802513722,1
0.00750178761648216,0.0161104770953764,1
0.00565907806132591,0.0137365728331646,1
0.00568366354492915,0.0114136329485867,1
0.00990996644961878,0.0179339863241902,1
0.0139625283158444,0.0245067679538072,1
0.0147661474203879,0.0255490556429294,1
0.0163722639405757,0.0234238517182866,1
0.0151923747154128,0.0232651349587384,1
0.0159736576750048,0.0161138382165454,1
0.020398145989891,0.0177202508241808,1
0.017946703523096,0.0136562721678408,1
0.016907645324409,0.0113112794415039,1
0.0183963395110244,0.0108146243334959,1
0.0272686929148098,0.0135624001217228,1
0.0283817629855285,0.0129084966460828,1
0.0289418858846208,0.0126873864372623,1
0.0284766647181979,0.0136514129200316,1
0.0246418794763144,0.00987036484330342,1
0.0283787274505594,0.0151783204780437,1
0.0259040419763687,0.0150134354941638,1
0.0282336071086448,0.0134417578284924,1
0.0584599586600449,0.0267163799988374,1
0.06057711613292,0.0188625935984951,1
0.0655765031583126,0.0156566137676368,1
0.0821610725057823,0.0208587128440041,1
0.0800101495501948,0.0211125299235141,1
0.0814682653556183,0.0200206465986945,1
0.070923867965908,0.018772191277945,1
0.0550773865753575,0.0117396453363892,1
0.07026805337587,0.0153366087558176,1
0.0824091907767733,0.0202365613198927,1
0.0864276920119359,0.0203569131445029,1
0.0729287370522852,0.0255933611106728,1
0.0726472263423007,0.0362023722963889,1
0.0740081970990047,0.0380173698568124,1
0.0660099022181626,0.0277845306883111,1
0.0892267516140539,0.0267673765798726,1
0.0970028684650301,0.0241873884727898,1
0.111917451556479,0.039745868656816,1
0.108506657825587,0.0338946240056669,1
0.0995234906409146,0.0249737331681276,1
0.100812096106166,0.0218978859116155,1
0.0986195581406318,0.0197265660999245,1
0.0832797914960635,0.0135639049282283,1
0.0701929484771174,0.00969476743264118,1
0.0839535250926417,0.0128828863680129,1
0.0739909578366374,0.0109826525881494,1
0.0712669804176487,0.01167325736746,1
0.0650320552608635,0.00939146633039517,1
0.0626932169835673,0.00930157331141249,1
0.0704724252871992,0.0114766712906967,1
0.0865212914534502,0.0167489967487332,1
0.0946093872957586,0.0219029273245746,1
0.113695309870146,0.0309598253894744,1
0.137756071972228,0.0410881241234257,1
0.0885837729764078,0.0263949672375436,1
0.0729939156453352,0.0313021246402139,1
0.0784247426727968,0.0329760002814846,1
0.0567101984222649,0.0310374560957111,1
0.0274897426854127,0.0179312666345893,1
0.0157704457801195,0.0190442648718262,1
0.016322863020121,0.0218804046035278,1
0.0113397236177741,0.0135832703674672,1
0.010393233484661,0.0169873314018611,1
0.00878491671084096,0.0131233060596344,1
0.00828396611784442,0.0151835947880842,1
0.00665167025973991,0.0122105308888135,1
0.00646630953225416,0.0130143367096066,1
0.0058105473989663,0.016473219066485,1
0.00686744612171112,0.0153248589224507,1
0.00849548025342688,0.0135902037990019,1
0.00853256885176017,0.0106377394074544,1
0.0115192000771992,0.0158120104952826,1
0.0111440970221895,0.0163654803014584,1
0.0125275832620339,0.0139026411525814,1
0.019110850728043,0.0227092852065212,1
0.0148268285084646,0.0168508165717631,1
0.0133135667032182,0.0148452503906349,1
0.0168667894397561,0.0168298940502867,1
0.0178410483487103,0.0174673006563424,1
0.0191447113212211,0.0206528449076625,1
0.0194738056239913,0.0168207211554759,1
0.0278931596387076,0.0202196833951179,1
0.0309738679631231,0.0200457954768478,1
0.0298965268325844,0.0263816406402465,1
0.028565124804355,0.0233182832580738,1
0.0283432286157206,0.0218465993442999,1
0.0280430662514841,0.0230712959324505,1
0.0227690062800504,0.0207402529943934,1
0.0244470408414263,0.020766197947868,1
0.0242743691391215,0.0155074517655305,1
0.0186314165461774,0.0130477004631795,1
0.023851184499849,0.0218018456769709,1
0.0356898903551777,0.0347621146718639,1
0.0537469311807346,0.0463987868066237,1
0.0625277542187637,0.0451899383539671,1
0.0664281062902598,0.0296045173457751,1
0.162302831435061,0.0437878083849538,1
0.227918228468352,0.0231879621916138,1
0.22286737463918,0.0183500717128227,1
0.222272038326232,0.0187259109658169,1
0.204617702065998,0.0112558145477757,1
0.237498477424165,0.0123537048856473,1
0.236136749857977,0.00711961232203658,1
0.262440111635672,0.00903427581215998,1
0.262015035784845,0.0109742154559264,1
0.326355274314959,0.0121450908719425,1
0.332220355953091,0.0117640208914486,1
0.28766173221476,0.012955448448039,1
0.255523871233111,0.0135771824820192,1
0.21939498889934,0.0108225904058682,1
0.273951008544306,0.0187815489782211,1
0.246722394035338,0.0125758993817565,1
0.23905348702218,0.0170587154591748,1
0.213362720813442,0.0139195388979807,1
0.241331031610308,0.0142871335359746,1
0.203947860694134,0.0173189438131249,1
0.168273913800817,0.0186297941618073,1
0.170646800088373,0.0180281623913725,1
0.175752219451286,0.0170452437154686,1
0.200038120795626,0.0178433405371186,1
0.227725740709963,0.02145475491765,1
0.241203070567966,0.03309679338514,1
0.293209213808281,0.0310774023371172,1
0.375251136947813,0.0472928588560625,1
0.309619245742384,0.0471179785179868,1
0.239799560570035,0.043745583639574,1
0.227229603478464,0.0435235686124799,1
0.135388627081909,0.0331724724774974,1
0.0786883800262633,0.0223263950635776,1
0.047803547761692,0.0216547610126821,1
0.0472831448241254,0.0213028448375916,1
0.0191154746138896,0.0109861520543115,1
0.00809001558103029,0.0353153726761961,1
0.00722760078272632,0.0259965737297452,1
0.00726808694971253,0.0275982240536222,1
0.00874022779649755,0.0308264113804671,1
0.00974711706763719,0.0252055483738765,1
0.0135846211718262,0.0219963556161725,1
0.0144904399979628,0.0152726070390853,1
0.0137946628331226,0.0149284277775163,1
0.0150955853487892,0.0180174279713784,1
0.0156062474376091,0.015857593259495,1
0.0137956740862321,0.0139415402395809,1
0.0135023076010392,0.0147548151878866,1
0.0179694020824698,0.0146848121592896,1
0.0209097607587075,0.0176666163943553,1
0.0211924357322234,0.0198350911567065,1
0.0205965771363303,0.0243412348920099,1
0.0265616153972623,0.0436754618049997,1
0.0237265846112914,0.0286987379018975,1
0.027775328632825,0.0143912174863975,1
0.0803359242709108,0.0334137897022759,1
0.149211490743106,0.0621919898463322,1
0.147052196147906,0.0232292969070225,1
0.137314391554597,0.0250755146093907,1
0.134167000592048,0.0235996972003567,1
0.142120315971718,0.0245281391722629,1
0.135108763891634,0.0201972362598248,1
0.135963059874326,0.0202582645642967,1
0.119249966597819,0.0184782096111337,1
0.11820611115455,0.0240064694230487,1
0.108387439198721,0.0235909882551768,1
0.065786985648692,0.0108362030512126,1
0.0476648317716354,0.0173309251665654,1
0.0513159998185163,0.0129827888358462,1
0.0824388207236643,0.0218057159767434,1
0.0891917076593059,0.0213985628470422,1
0.0834007146076398,0.0200345059892828,1
0.0836297130203399,0.0200195163130537,1
0.0839917458788415,0.0206947365895434,1
0.132139759531067,0.0218719705042859,1
0.164308663628278,0.0237231936451449,1
0.163145068429436,0.015553779921533,1
0.161605548510992,0.0129298540722286,1
0.197724484449888,0.0177528507965339,1
0.209492599840949,0.0101321981365061,1
0.257931865206909,0.0139185404541206,1
0.269955081636178,0.0169206755506125,1
0.261056161603496,0.014848526077252,1
0.246780803857188,0.0132970155416605,1
0.241027112560958,0.0184772638604732,1
0.204937614020443,0.0172979660644093,1
0.204850464115167,0.0214109189757194,1
0.174176430011622,0.0216959800104207,1
0.105518284088408,0.0138988107985694,1
0.133104565128399,0.0370270689818512,1
0.120154636950251,0.0369627072883941,1
0.1079168459678,0.0274700264882819,1
0.0656131603380916,0.0187949174454547,1
0.0746953093265564,0.0183376612645727,1
0.0882863458763454,0.0157530129257707,1
0.106102442726907,0.016644597261956,1
0.0895030289522216,0.0144968951783177,1
0.0787382521060666,0.0114261130136321,1
0.112771166180397,0.0171377310492071,1
0.11812118227093,0.0106680993080481,1
0.134018468066893,0.00910764415308664,1
0.173359302442393,0.0154115973439818,1
0.236884805153045,0.0210589371056458,1
0.317401303959916,0.0277391142697269,1
0.376950874628563,0.045379646725231,1
0.363312172297094,0.0393474304846783,1
0.363230377915009,0.0411070664980489,1
0.361347685803557,0.0468518645495327,1
0.213351081673354,0.0416831291329354,1
0.0527747972371349,0.0269065631092669,1
0.0214249280168709,0.0411312632007633,1
0.00919427981225515,0.0197983777626949,1
0.00415562234750499,0.0355322092001079,1
0.00599140829529206,0.0460275286015985,1
0.00736318505434635,0.0491849857495878,1
0.00713478871378202,0.0586896919501551,1
0.00733039987446492,0.0569271136092427,1
0.0108426319039394,0.056885051845828,1
0.00959395370237038,0.0290527393166294,1
0.00802478043737425,0.0251525472149709,1
0.00856869883746045,0.0249728302729064,1
0.00787376254217013,0.0213499475588837,1
0.0064363671647219,0.0178908252355248,1
0.00654118225330447,0.0190295844374354,1
0.0117719199724149,0.0282066624803874,1
0.0139819041371724,0.0298293949704222,1
0.012563692424795,0.0213902763841974,1
0.0130357150134287,0.0224083394366409,1
0.0128333562452397,0.0247073246153767,1
0.0122533198291162,0.021766748863386,1
0.0130505901787267,0.0228557561645043,1
0.0184969611781276,0.0289407177005278,1
0.0191545972907905,0.0215911043427238,1
0.0207142555583343,0.016915963229087,1
0.0205074229186671,0.0174629435325948,1
0.0147227997156544,0.011671476108972,1
0.0136874833070964,0.00918580468838367,1
0.0178723882928588,0.0126215984262875,1
0.0191944810040167,0.00955977295256477,1
0.0454473085812817,0.0219693684260421,1
0.0482316819494068,0.0169088115362485,1
0.0410872798262019,0.0149343060775901,1
0.0432906959664841,0.0141366179252123,1
0.057320544808205,0.0206336091639877,1
0.0792284274246725,0.0244643380941634,1
0.0741966667055544,0.021239111501563,1
0.0658430939290929,0.0181275272558078,1
0.088115449655782,0.0213697642870521,1
0.100017424378139,0.0208755635948935,1
0.100365677826246,0.0205340430360272,1
0.0910376461119295,0.0228988938694676,1
0.0690247546416259,0.0144445932551998,1
0.122379466449974,0.0177858923120962,1
0.201378993229356,0.0211193612080825,1
0.205292206455245,0.0214139681385487,1
0.251511261791446,0.011232892689003,1
0.547105663287816,0.0247891631831214,1
0.582323746896877,0.0112055627985262,1
0.603263411860951,0.0128638620462516,1
0.544102625114649,0.0116821564503757,1
0.477191447138037,0.00912474728486984,1
0.542637790269757,0.011451974352012,1
0.619546838881601,0.0151833074408098,1
0.617069268732304,0.00942841276367453,1
0.67567633856479,0.0101887804077969,1
0.673590399554429,0.0146273974434714,1
0.353705131711268,0.00532559961602246,1
0.264398504569636,0.0104822579684924,1
0.305588344176438,0.00770287140664725,1
0.413917903094199,0.0117858647957297,1
0.467649755724061,0.016102763495094,1
0.455773763695736,0.0149323835964975,1
0.357674157272301,0.011507532992433,1
0.352023459166477,0.0209210797063213,1
0.339097799230629,0.0247673419738715,1
0.371660944965021,0.0297224255240486,1
0.485462820214752,0.0350195356145007,1
0.65216604172927,0.045901933662214,1
0.784110943108332,0.114390969349844,1
0.744202355873148,0.110391176762168,1
0.645366994460033,0.125606048505388,1
0.417488655965518,0.106696427078191,1
0.244514887764288,0.0619264566601395,1
0.126933543967581,0.0648283857957478,1
0.0576044131414397,0.0324863569939451,1
0.00686323767744878,0.0158832123181996,1
0.00264338208707391,0.0512618584163098,1
0.00271945965478169,0.0470602116441753,1
0.00492654396209219,0.0203988660636496,1
0.00986237261207094,0.0342599966886696,1
0.01273584163702,0.0390118754843893,1
0.0156543202946227,0.0397110112612933,1
0.013057960602098,0.0272478118901098,1
0.0119047002355016,0.0199104284357646,1
0.0156037242140081,0.0204238192337036,1
0.0181741830657011,0.0220991076905323,1
0.0174601826145738,0.0218050371052255,1
0.0136825922955785,0.0166505979916026,1
0.0113663026524935,0.0210919137528882,1
0.0118190736155704,0.0219241899246326,1
0.0117819618646948,0.022385356678756,1
0.0126813958129419,0.0238042447771952,1
0.00915111316200728,0.0202498678240788,1
0.00342086748347761,0.00985446977960907,1
0.00436671235423844,0.0137314913362281,1
0.00470182099691659,0.0102979669377877,1
0.00487932079690418,0.0102596982767685,1
0.0054933818166668,0.0134088125134121,1
0.0142363710137871,0.0195167202577791,1
0.0301729107370294,0.0352795670832554,1
0.0443176592596396,0.0441552785714554,1
0.0679363093495283,0.0457744790011732,1
0.0639883475183032,0.0352253684726627,1
0.0541286548507155,0.0286217838256618,1
0.055850428614528,0.0313071435888364,1
0.060061058094558,0.0205045542307874,1
0.0553071039605653,0.00953470979883763,1
0.0523320943254361,0.00871870822085362,1
0.0521889216658394,0.00991503020903034,1
0.0542139164064922,0.00697979234399351,1
0.0687658942395965,0.0102709592466462,1
0.0612373102395003,0.00878178583739725,1
0.0609998091865862,0.00992346883841457,1
0.0612138938966515,0.0096147410093418,1
0.0519687122189222,0.00596290734536155,1
0.0497041232345168,0.00493722690441437,1
0.0922951725718623,0.0193489451902192,1
0.176380165312717,0.0302105014302571,1
0.250419838074009,0.0386966209020888,1
0.243323702577247,0.0286619776384551,1
0.244213746167692,0.0301005506838317,1
0.228055784180674,0.033367651585793,1
0.207796157773446,0.0242601581951181,1
0.233508131899759,0.0274776075304259,1
0.245028851372672,0.0286034922621267,1
0.167744514391465,0.0186036044992247,1
0.182400776843761,0.022664529791823,1
0.208923505885028,0.0282587294985591,1
0.189106200458846,0.0218507262341797,1
0.192949355229642,0.0262466898260134,1
0.17638191267283,0.0237326309370341,1
0.200510066203425,0.0220493582626813,1
0.224407368228656,0.0362849449180265,1
0.178496697875982,0.0277403051158717,1
0.0741296934085954,0.0130966687137699,1
0.0577572487847826,0.0112693683492793,1
0.0627762585894242,0.0110597537701258,1
0.0613445567610702,0.0113877119396884,1
0.0433632576082636,0.00960227311076929,1
0.0475491995453996,0.0116622154870073,1
0.0463638506211077,0.00485304957543676,1
0.114577115262911,0.0155176375717403,1
0.101203821138825,0.0117413484664592,1
0.0912582878208715,0.0111355676317213,1
0.0872557261494604,0.0113704803040121,1
0.0790482637319528,0.0112024958101421,1
0.0832780768470652,0.0088466089926959,1
0.121219225017273,0.0130864914896152,1
0.130572870271661,0.0111546543182793,1
0.137428112713559,0.0105598357031007,1
0.180351647343739,0.0199080574190939,1
0.182706851392197,0.0237605273699419,1
0.201381091016135,0.0260862771640631,1
0.25243554762988,0.0286037632416621,1
0.269731100561586,0.031072537484335,1
0.224605238544438,0.0272441089163394,1
0.182860632844403,0.0278549568253715,1
0.199264121455086,0.0311539096989673,1
0.148254406771712,0.0448791807961306,1
0.0572348618365781,0.0337024630117396,1
0.0408615968084453,0.027781048618412,1
0.0337767970548462,0.0290743893514966,1
0.00521555106154543,0.00721270092740145,1
0.00374825514136141,0.0186297881989634,1
0.00273347098184019,0.0149725575598203,1
0.00405793406396401,0.0320579867858897,1
0.00891760426999717,0.0315857874216906,1
0.0148353268068177,0.0331763889062848,1
0.0150568909896195,0.0366505136694531,1
0.0151634361126276,0.0365433108056521,1
0.0137207026328291,0.0355976432457614,1
0.0144139631520242,0.0343524280332195,1
0.0148547654211415,0.0351376694083833,1
0.0148545137353068,0.0317248930360537,1
0.0146129607850293,0.033080707447,1
0.015001304064675,0.0351773790712171,1
0.0130490342503416,0.0521554291333602,1
0.0133451577054701,0.0471926700333613,1
0.0179828373170666,0.0261280776014362,1
0.0183823311290266,0.0222444888523324,1
0.0217625808670396,0.0240248275764213,1
0.0227204352485928,0.0164218940895437,1
0.0400245020151604,0.0209136476521832,1
0.0324629142634711,0.0128721597225666,1
0.0337730476203393,0.00946775566240838,1
0.0407517857480271,0.0101939621011381,1
0.0379365949244413,0.00745426357975256,1
0.0681726075032576,0.0123803456330019,1
0.0793485381590697,0.0144095633571305,1
0.0628945443136881,0.0103285975494325,1
0.0585647759101944,0.00956995354243376,1
0.0604425320759045,0.00812843187549495,1
0.0758807923555624,0.0090509788948037,1
0.0643662273126722,0.00743277918530595,1
0.077898227679664,0.00989447222768641,1
0.0976788886043164,0.0140192319807637,1
0.115828691679906,0.0177114251727738,1
0.132056905443771,0.0232264952784575,1
0.284090390563999,0.0294779944735503,1
0.461560559573327,0.0461857875877945,1
0.527663462129844,0.0266950847620809,1
0.48897070511171,0.0227527952660743,1
0.534943583355431,0.0252853816189552,1
0.490808606490068,0.0226707726497251,1
0.501057677237104,0.0242124528959368,1
0.510372625549147,0.0206575416970392,1
0.52096529302535,0.0208343128432808,1
0.530717103422543,0.0200557686997539,1
0.501717503120502,0.0173052851106103,1
0.429177654701609,0.0157943773882558,1
0.295858687805694,0.0163326458567657,1
0.291397238340276,0.0192189183445398,1
0.223494862650786,0.0154771613643829,1
0.22200446202199,0.015199217652451,1
0.207872273924675,0.0113422190541883,1
0.191116535654272,0.0125141430480797,1
0.187550329875662,0.0128441112046618,1
0.176108924649591,0.0130502131274331,1
0.162754513399729,0.0230880577855444,1
0.16059569409253,0.0245053025007581,1
0.210463088131838,0.0195310981583752,1
0.223338674353654,0.0178687319619834,1
0.225940584137856,0.0173581586445969,1
0.229093994565921,0.0180757772581475,1
0.230155770672176,0.0225234888058104,1
0.246504121002323,0.0244432191531845,1
0.284972755002797,0.0282142323492002,1
0.3055493021365,0.0300945707097854,1
0.281382364305911,0.0312316444356742,1
0.203299710600285,0.0248559836802688,1
0.116945901540113,0.0201642573487753,1
0.166302714933834,0.0337095088978418,1
0.183197952920809,0.0429740948805874,1
0.211124587850311,0.0507490161408882,1
0.18381698144838,0.0632478197790557,1
0.164507352239198,0.0615671812865988,1
0.153897524387762,0.0553874009180114,1
0.111335937113918,0.0468812845886338,1
0.0360208501862956,0.0163763811104557,1
0.0104675711527809,0.0153793935836459,1
0.00742823033376795,0.0159974679419848,1
0.00835993945748222,0.0166242961822619,1
0.00893296927980427,0.016210164246646,1
0.00933750556329263,0.0198124949920837,1
0.00985363459033367,0.0269361367426673,1
0.0112410911909268,0.0234573440114589,1
0.0112085574783572,0.0260826798562714,1
0.0101361953504106,0.0236727462889273,1
0.0111913449735902,0.0340039367707784,1
0.0144099721171394,0.0238779243878428,1
0.0350577145695843,0.0500450901537988,1
0.0588026988268864,0.0738631937849111,1
0.0666934749718273,0.0654912709921771,1
0.0652900485790763,0.0359066397815569,1
0.0671857872701169,0.0340221499073368,1
0.06433041578426,0.0348748926318328,1
0.055718822082821,0.030351536490319,1
0.0475847121351586,0.022133746932212,1
0.0454765333262892,0.0214136557911076,1
0.0448182472489201,0.0153073050926665,1
0.0547893761838936,0.0168475104848983,1
0.043185427768137,0.0112204893578639,1
0.0342315365589893,0.00882312776430161,1
0.0325547974483827,0.0141908038998618,1
0.0333586770273787,0.0153277634920733,1
0.0467981811333618,0.021350895046477,1
0.0411615685295089,0.0172678937349298,1
0.0525578446527918,0.0203588337256309,1
0.069302764027742,0.0245239633305674,1
0.0686447540067588,0.0419526754963789,1
0.0484862638283952,0.031052544139523,1
0.121043983403899,0.0392721712456226,1
0.188891408864751,0.0411503519957913,1
0.171262742944338,0.0294054019458359,1
0.162427912686859,0.0258044386417523,1
0.164304786472658,0.0182400839270067,1
0.153355385045246,0.0180582746303588,1
0.154169029513288,0.01942097399885,1
0.163575718494992,0.0233117089941743,1
0.138282110231844,0.0199926572627409,1
0.16937236431612,0.0216383295911059,1
0.190244295306011,0.0126500932100302,1
0.200902298096527,0.0111313643741709,1
0.204738088480218,0.012107264060888,1
0.149886560836564,0.00394703198617037,1
0.305090653625289,0.0118461146881888,1
0.310249206939523,0.00780742075893982,1
0.328114642633848,0.00869704565337642,1
0.368970074235183,0.0103088378315192,1
0.39381598948986,0.0107076230161396,1
0.472478479063037,0.0141168094467427,1
0.499545494145394,0.0165915877796075,1
0.497980597824304,0.0168849849568479,1
0.594209948672022,0.0196169952732941,1
0.607164714489089,0.0263010891133125,1
0.223453265308419,0.00995519663230786,1
0.153175703394491,0.0121727925364249,1
0.143314905991558,0.0106999546887813,1
0.146974952477886,0.0122346999670973,1
0.321633776005507,0.0110540332092585,1
0.602189211909611,0.015898862922413,1
0.595384101266566,0.0129487613400363,1
0.631303886218117,0.0141434644276181,1
0.545961835464059,0.0124149348891467,1
0.477244406812245,0.0106322453379373,1
0.512658999510176,0.011434820844918,1
0.519279398384249,0.0113742695263586,1
0.577098571431311,0.0113274642230511,1
0.736973876935834,0.0136894164609932,1
0.620436088692719,0.0220122020692588,1
0.213649880694663,0.00824496148622681,1
0.247902530290039,0.0195524978190353,1
0.28860671476897,0.0261428402427955,1
0.249234774938406,0.0263430043678502,1
0.198943745858757,0.0252921800616825,1
0.168292463521172,0.0228940995597665,1
0.0839722409662986,0.0108535923953862,1
0.0429323604410444,0.01312635485293,1
0.0426809357790874,0.0130176980469287,1
0.0249242553959053,0.0137115803527129,1
0.00686046087798627,0.0278473133252097,1
0.0071949717838098,0.0314582562527658,1
0.00781685871907572,0.0421898536818829,1
0.00694103758446426,0.0466774665533874,1
0.00680155746839417,0.0643465640416769,1
0.00551390034583318,0.0611093111944855,1
0.00544529974183477,0.0584619424853382,1
0.00391114814389889,0.0454202241799709,1
0.00196115875135566,0.030106289456208,1
0.0019006739394577,0.0311808118160064,1
0.0024673412561022,0.0372925620265945,1
0.00298728885261745,0.0353741214659512,1
0.00290355024510145,0.0201089227337087,1
0.00775610958611532,0.0326718699105437,1
0.00888907798026236,0.0295655740052939,1
0.0138635939321469,0.0367457781368349,1
0.0142275654597523,0.0374825911638257,1
0.014293218434699,0.0371633764727681,1
0.0124944392163543,0.0321293151576285,1
0.0109116475038721,0.0176593555503892,1
0.0117786720552744,0.00846984396745876,1
0.0141161395182364,0.0100192516630555,1
0.0110352766141339,0.00810412184877858,1
0.0139304335180366,0.0109813920961495,1
0.0249791182834705,0.0199726280205623,1
0.026092056584519,0.0167813231247379,1
0.0273686336840103,0.0182262264626846,1
0.0429992006919927,0.0110603711609409,1
0.0637964273215062,0.0155356559254191,1
0.0624602526464997,0.0178976915787909,1
0.0543650834302057,0.0159770111751076,1
0.0714323344923148,0.0173029545584516,1
0.0689604585247789,0.0120575120025024,1
0.0648606726455927,0.0114199274719345,1
0.0673216541358412,0.0122777952040885,1
0.0852849495743174,0.0148935763242746,1
0.0743822983259849,0.00811591920414136,1
0.0648631547180602,0.00910901792308288,1
0.103940760025718,0.0132245267091028,1
0.20754248477498,0.0239685001247219,1
0.249194777348066,0.0298293535095298,1
0.302853957193924,0.0294833147941883,1
0.281185111676338,0.0258479113466338,1
0.228431015568838,0.0193569624828205,1
0.195438123603268,0.0120695345945595,1
0.214389236256059,0.0135506149993437,1
0.201154845654257,0.0154118774289114,1
0.162411617337888,0.0132378426021573,1
0.162877787693382,0.0163580529302133,1
0.13174830478741,0.0141218863334566,1
0.10620250641655,0.00903828668619834,1
0.0834288184033348,0.00841258899264033,1
0.0722574730092307,0.00904689430327856,1
0.0940391937566716,0.0139170452091362,1
0.0933606908892226,0.0196203208795498,1
0.0765411059511312,0.0170675144852809,1
0.0943292358647075,0.0168145780612558,1
0.103106951996072,0.0174756958058209,1
0.108199732329736,0.016976241826413,1
0.106118124525282,0.0157043691279406,1
0.111946161453633,0.0129756944934364,1
0.409154658764708,0.0181444062765471,1
0.508294666170261,0.0108276056095461,1
0.503499684735291,0.0104243001848719,1
0.514875360560478,0.010184914977637,1
0.5120328663868,0.0111515226404821,1
0.49644521310485,0.0110939463091517,1
0.473557850452358,0.0103258459912854,1
0.508488627314987,0.00997150033745824,1
0.667294561484007,0.0137512196295986,1
0.795910617529991,0.0174512726532045,1
0.534572202778164,0.0215560550757889,1
0.394587914493264,0.0387897767752135,1
0.410176594037314,0.0510599678112302,1
0.297264847037736,0.0550060516335486,1
0.283206447629996,0.0486082478161824,1
0.234597500927885,0.0373120563753684,1
0.0748921810111704,0.0151804418828005,1
0.0127668205992288,0.0294481489771491,1
0.0123058975516669,0.0354787924841598,1
0.0110563533628182,0.0356430248606924,1
0.0101022084640466,0.0320516959367298,1
0.00843828343658947,0.0282303345803255,1
0.0085242474192635,0.0265456875754948,1
0.00738718223768941,0.0279347217114635,1
0.0059962923216701,0.0234697756174813,1
0.00621662910529267,0.0318870182681007,1
0.00319266786157874,0.0345965799917149,1
0.00319455898468654,0.035450842745197,1
0.0034156094273073,0.0368594915569329,1
0.00633231509448106,0.0265035479634455,1
0.013375301083295,0.0328373603267196,1
0.0141082864955215,0.0327298058743141,1
0.0171153930487756,0.0363340105940265,1
0.016478733669018,0.031551624683357,1
0.0225154659927884,0.0248491783329705,1
0.031276082816131,0.0260993586896366,1
0.0265079681789939,0.0228014846276524,1
0.0211400920795526,0.0186444115880489,1
0.0166380851454263,0.0144219152384338,1
0.0178922136276242,0.00926278262993992,1
0.0342888552924816,0.0152439087045964,1
0.0311887646395142,0.0114833568977916,1
0.0383029886596235,0.0107287102268018,1
0.0353696479931409,0.00785552905252953,1
0.0330927062562138,0.00951283269605053,1
0.0349481108066414,0.0109700989092262,1
0.0330503009603958,0.00950056432843914,1
0.032803920944314,0.00866972279091179,1
0.0261367596707095,0.00592107969543288,1
0.0222932574662655,0.00657779541546178,1
0.0208334350370867,0.00825677599099682,1
0.0173391626252422,0.00815128618146473,1
0.0164073688785149,0.00811391128780083,1
0.0240875484240274,0.0164261657642343,1
0.0256037910056004,0.0162149290987029,1
0.0271528542230547,0.0179901249228701,1
0.0899180292240827,0.0242575099701373,1
0.149826054946889,0.0311933882628471,1
0.179312484137411,0.0366118235165793,1
0.198573214692286,0.0434761970868165,1
0.271258625896867,0.0333260701716646,1
0.345935727983953,0.0270798313110233,1
0.279997121497499,0.0203434908261967,1
0.255991204078015,0.0169450232348965,1
0.212689737332613,0.0135089977334205,1
0.148546249026357,0.00780195329336036,1
0.148494304181087,0.00908526274434869,1
0.145295225476496,0.00833438170271752,1
0.186713693760742,0.010729218227121,1
0.29339443323359,0.0173127286082524,1
0.36148520896951,0.0152316620844246,1
0.368280941343483,0.0177274982878304,1
0.33755977232952,0.017635785096468,1
0.343217604930568,0.0180458434915571,1
0.388876058655686,0.0177383197375857,1
0.365603091357555,0.0167637975891869,1
0.410612289398241,0.013987205302597,1
0.500342242386675,0.0180777454429503,1
0.467191733428283,0.0150011439972471,1
0.313494615900941,0.0100525219612277,1
0.191536988500303,0.00657540620097365,1
0.249090354620776,0.00719487342104194,1
0.265371349022443,0.00793272282160346,1
0.281642635602178,0.00939700298515385,1
0.274039136642851,0.0108998021964602,1
0.22683591037228,0.00881503704145435,1
0.218690862657785,0.01491905736055,1
0.169726980601928,0.0109302257777102,1
0.16150439414144,0.014176900378938,1
0.171284779633748,0.0150520010433752,1
0.148200610620808,0.0209275285453585,1
0.0734765299343445,0.0178560196224816,1
0.105835430182061,0.027760190604275,1
0.141944150457949,0.0344052016804388,1
0.168986819411116,0.0403252915131668,1
0.192431304932321,0.0430057283674197,1
0.209301673045955,0.0488194310653545,1
0.193750873034339,0.0430859528276892,1
0.156012082747852,0.0357968103638823,1
0.140228270505965,0.0348104275329079,1
0.122441881632168,0.0413658080681501,1
0.0835264397012017,0.0489261885277862,1
0.0781906157911515,0.0403914964124074,1
0.0687142210033228,0.0366657993183796,1
0.0419319401215266,0.027458547440559,1
0.0173350360017881,0.0237076421250651,1
0.0171831909749988,0.0358166823902868,1
0.0132152744575147,0.0377106130121633,1
0.0105694453313523,0.031314213838439,1
0.00335000419941784,0.0120104566398424,1
0.00264273643107685,0.0326099592685731,1
0.00246389853773942,0.0278856999755007,1
0.0031751648079436,0.0385921206673074,1
0.00401259981248726,0.0436306410485686,1
0.00322087758303991,0.0399213244841773,1
0.0023174997917374,0.0343335653684474,1
0.00216879315775888,0.0335085515086505,1
0.00192823398306344,0.0246412951709593,1
0.00313772480446379,0.0595498742427587,1
0.00433853411651984,0.0476096005720915,1
0.0101002279841916,0.063783643661472,1
0.0181840890623158,0.070228934504546,1
0.0217226705003499,0.0362000167108611,1
0.017901366611891,0.031744819840019,1
0.0196461002451552,0.0295151255864742,1
0.0200048238092594,0.0236821193262631,1
0.0159448037943081,0.0176856684169806,1
0.0139724840655739,0.0100719541282352,1
0.0148837147058612,0.00867558708698753,1
0.0144778522292192,0.00707633202277443,1
0.0180823906946933,0.0096501791264929,1
0.0176162318785224,0.0103377095182884,1
0.0191777225171431,0.0122389802584469,1
0.0504796691852823,0.0224828377542561,1
0.0715803629198787,0.0237390136089788,1
0.0727780047019399,0.0262445927750729,1
0.0631936255678493,0.0195938479875645,1
0.0631193566630686,0.0227386618520444,1
0.0611310928749843,0.0228422793875442,1
0.0585140177672243,0.0244908976293801,1
0.0594651221766187,0.0208522814219869,1
0.0597618730880917,0.014844691186571,1
0.0693784746828981,0.0189143129854095,1
0.0498075220051418,0.0150535078400955,1
0.0307384024784522,0.00986817776570746,1
0.026141299148017,0.00769026413828139,1
0.0251166746599648,0.00963603609141337,1
0.021955257233821,0.00792781611892004,1
0.0254116295124847,0.0102371160055924,1
0.0267445488019392,0.0106339599723604,1
0.0334440678698641,0.016602168152205,1
0.0385329416842293,0.0274123740164981,1
0.0387681195497823,0.0340049248827767,1
0.0344871396158467,0.0496743095656035,1
0.0313959836129373,0.0405293003322766,1
0.0258396418374478,0.0361060174415478,1
0.0147273341241676,0.0261093848419092,1
0.0139598856899301,0.0251245364507249,1
0.0118035288715254,0.0214701096194449,1
0.00676061581205974,0.0134140677423029,1
0.00728400705063027,0.0224304443978352,1
0.00894563686152709,0.0306328466181828,1
0.00692609955088321,0.0297790006085657,1
0.0066487631726909,0.0474250996743391,1
0.00588337181633147,0.0824123318348168,1
0.00226939166877684,0.0628787785258982,1
0.001888463069394,0.0843695194717487,1
0.00187501846577151,0.0984508220353006,1
0.00102161982630294,0.0865541270871361,1
0.000672713476147315,0.0777361310269024,1
0.000828719376655546,0.0563459208051796,1
0.00115638457984159,0.0541013091414724,1
0.00106003141447487,0.0438791305936334,1
0.00111495738251934,0.0390497340716983,1
0.00132408093573166,0.0383258070232243,1
0.00134932600537407,0.0354814651581304,1
0.00151957199614407,0.03876272256939,1
0.00172868206066214,0.0431463175224098,1
0.00183043590108057,0.0449596090682189,1
0.00192129973690772,0.046883794808996,1
0.00188087295803495,0.0661320021954795,1
0.00136767868921306,0.0656661395639516,1
0.00138624588734947,0.0754860363672292,1
0.00136211378555716,0.111312786132216,1
0.000270492753609884,0.0800250006151472,1
0.00016002761830691,0.245814799694518,1
0.000351168327071884,0.325078552813127,1
0.000492226069443512,0.195714821310247,1
0.000497149161687692,0.18646013847366,1
0.000503792663734517,0.192995104560083,1
0.000478147705464991,0.17887108821187,1
0.000472904763687733,0.174880136376329,1
0.000480174016664344,0.178997745586912,1
0.000501440334887243,0.17781708009545,1
0.000523312520356773,0.221497974223875,1
0.000468724198616145,0.271222565452613,1
0.000274807591052118,0.284082397785965,1
2.13159330370061e-05,0.272963229736823,1
7.54289827197622e-06,0.34268490126372,1
7.50734863746622e-06,0.434945269635297,1
6.71536152742655e-06,0.370378599149811,1
7.59977039887878e-06,0.341770891188606,1
7.32374577285684e-06,0.347477899817813,1
7.9057925082788e-06,0.34751943829018,1
1.01325392864112e-05,0.383596774167403,1
1.01594788414772e-05,0.388297645911519,1
1.06969190741477e-05,0.459625937933899,1
9.05419699872211e-06,0.472326580416111,1
8.90501939443557e-06,0.473396434856269,1
8.95394814542691e-06,0.477112802257263,1
5.55765646576126e-06,0.50436144363241,1
1.01210746175387e-06,0.319532294937807,1
8.34480128428359e-07,0.294761901981977,1
1.52579133555752e-06,0.411413694195807,1
1.24229365760069e-06,0.364182585680148,1
1.51127848143079e-06,0.402128797120816,1
2.65593531098335e-06,0.492875865887532,1
2.78454430779822e-06,0.434835109787796,1
4.75322911572783e-06,0.545910547219401,1
5.84794543466712e-06,0.559723700917953,1
5.8762559771648e-06,0.561324155368443,1
5.70492746749861e-06,0.542973138388841,1
5.99996801185756e-06,0.513727199426118,1
6.95742906603725e-06,0.500879056123176,1
6.77233424823849e-06,0.503324375162617,1
6.14178340730935e-06,0.413954460313736,1
5.82369381212647e-05,0.315775780997255,1
9.52761990012643e-05,0.198595331915567,1
9.89633467717249e-05,0.198634355677454,1
0.000101052635831947,0.197904915811984,1
9.8390510642406e-05,0.196572121523996,1
9.65743032985904e-05,0.198348839521769,1
9.47257794970856e-05,0.197381171297692,1
9.41124051610838e-05,0.20051657613946,1
9.3760237904985e-05,0.175378215350012,1
0.000102559906626721,0.182717172744436,1
6.85107082196543e-05,0.245556124962033,1
4.27997233978719e-05,0.416872989251392,1
4.08278701981297e-05,0.417838185081236,1
4.72459978543731e-05,0.396387251742605,1
7.55492024376008e-05,0.35038202927996,1
0.000118682693516546,0.308722962933706,1
0.000107697886820929,0.219497242071352,1
0.000134433069859707,0.193524387489372,1
0.00019288805559202,0.0787492338475558,1
0.0012947354041375,0.124747002064964,1
0.00166799566679443,0.106867523199021,1
0.00171066978268998,0.0981256920584048,1
0.00178407741431259,0.0837171913578887,1
0.00156998445124462,0.0774908625894042,1
0.00140766919445189,0.0702899581490448,1
0.00149551108194096,0.0676771213615004,1
0.00109462066855625,0.046646173175591,1
0.000873448093414969,0.0382820489576872,1
0.00115111187479395,0.0448767921049201,1
0.00126211146363948,0.031724187784724,1
0.00135593644758054,0.0299827502670038,1
0.00144079696340432,0.0315048882908765,1
0.00147154158697657,0.0334441839328582,1
0.00157012524134139,0.0280271486986784,1
0.00196477486325025,0.0325984561821083,1
0.00197066042283543,0.0341887428803949,1
0.00217088941019523,0.0366364687057517,1
0.00238863416550111,0.0325761791292585,1
0.00167561687862692,0.0280557671288266,1
0.00156132893789716,0.0424025167349895,1
0.00153937053256543,0.041026341432456,1
0.00225230372508243,0.031024875790863,1
0.00285063964718192,0.0248892971990848,1
0.00268066911733245,0.0252932111418503,1
0.00252124641524849,0.0242192786278079,1
0.0025067480648655,0.0208743900183666,1
0.0027297432792872,0.0234585151433782,1
0.00271380575259409,0.0274670888126631,1
0.00288909234599682,0.028924129710946,1
0.00290184596512094,0.0295052384407911,1
0.00286706543962919,0.0304657982048059,1
0.00214571148667099,0.0439844802277955,1
0.00152117920679802,0.0735418586837053,1
0.00155643407458155,0.0843947088074136,1
0.00242518197667154,0.0821309455433341,1
0.00270500789089326,0.0734975777915336,1
0.00255394757441508,0.0574218712899605,1
0.002282076426625,0.0312100217488297,1
0.00195093206679886,0.0236281924022131,1
0.00165155020501127,0.0184099850119538,1
0.00191090479872501,0.0224883925654272,1
0.00220107654725646,0.0246453930055616,1
0.00235440278949962,0.025802410296574,1
0.00241022969038866,0.0263469696371887,1
0.00170674381523558,0.0215012748606533,1
0.0016167208199822,0.0253396448188957,1
0.00123119228445434,0.0225896742436602,1
0.000933325617604383,0.0256538042432595,1
0.000905801177409773,0.0338125704254886,1
0.00111695168574899,0.0321408884783362,1
0.00114604604586594,0.0273260205063484,1
0.00146192602939926,0.0251617272180895,1
0.00171496948460811,0.0166951615652209,1
0.00213234968904445,0.0219766623519065,1
0.00235533355887731,0.025939353171891,1
0.00229318635303737,0.0249341917569299,1
0.00233337599625682,0.0264816323293314,1
0.00248959521924609,0.029645670405625,1
0.00241748574949342,0.0293498585294328,1
0.0021735770700415,0.033568743699499,1
0.00209196107499477,0.0359309173653985,1
0.0013051123983913,0.0375560365091248,1
0.000478120941158434,0.0518740425727587,1
0.000597675838278627,0.0587203887754955,1
0.000600379428151082,0.0583007386767446,1
0.000498945801807934,0.0326291087273777,1
0.0024762437278768,0.0598377832930575,1
0.00305016496761878,0.0508846678751738,1
0.0030435447678031,0.0463339096319669,1
0.00326691599276809,0.04978737125795,1
0.00347462046732112,0.0511504691936798,1
0.00341449243823149,0.0501051744890507,1
0.00347432249525513,0.0502816456525363,1
0.00363563111347838,0.0530492482964224,1
0.00394473744795677,0.0557514760346714,1
0.0039924090356127,0.0768333370939015,1
0.00173639569273765,0.113498437345555,1
0.000461840311669461,0.0743015728408388,1
0.000487113242155312,0.10599782843887,1
0.000505295389582585,0.0821784553208349,1
0.000551884022561917,0.0905403230565153,1
0.0005628420018109,0.104885116645864,1
0.000585235845277717,0.118832020858562,1
0.000608698662259597,0.128186243357978,1
0.000607134706607085,0.11089729550174,1
0.000664700916933079,0.114989646257133,1
0.00093026292101448,0.119251715462454,1
0.00106947760518701,0.106807773775296,1
0.000856943966276125,0.0976945596547153,1
0.000880889220385955,0.124267136442259,1
0.00088930708384909,0.125081600196945,1
0.000856575058675105,0.121769656046696,1
0.000844927852980315,0.117571893734892,1
0.000804749142863684,0.104684022030141,1
0.000828975404604249,0.110492072555831,1
0.000792868968634088,0.106556261331624,1
0.000491462816382655,0.114621147636452,1
0.000213968416546698,0.14921448598076,1
0.000214889263568926,0.182917020102473,1
0.000214985608366272,0.18779693425577,1
0.000226641390988802,0.207460060461358,1
0.000242644919939789,0.221420816653565,1
0.000243739032948338,0.229079520337708,1
0.000236518414279917,0.349480250018055,1
9.54911790674756e-05,0.139273888989623,1
0.000312145306975401,0.175517548157586,1
0.000328416415219217,0.129538035441972,1
0.000334742862598713,0.131413067415145,1
0.000342959390199213,0.133021469918627,1
0.000335170777701245,0.133451233882296,1
0.000330579854897044,0.132484057474277,1
0.000319216038947373,0.123898076883312,1
0.000313060925771539,0.121820031654948,0
0.000316546967463691,0.123065042808688,0
0.000310806776453291,0.192773838960678,0
5.06353582973492e-05,0.161682545237217,0
1.82713715676997e-05,0.407467552317242,0
1.8390986583283e-05,0.403179238216776,0
2.02056342786369e-05,0.423729821649009,0
2.07699599101555e-05,0.374393005673712,0
2.30785072512681e-05,0.416637282504809,0
2.08212220602449e-05,0.549267401915583,0
1.03208065450856e-05,0.454658033633594,0
1.03436590771665e-05,0.522185548311843,0
1.17101611592795e-05,0.556834152643176,0
1.19120854013848e-05,0.56048365887109,0
1.20359127078404e-05,0.551450185603648,0
1.15454001032973e-05,0.650447040010787,0
4.37048472757307e-06,0.412538467207341,0
1.63451829414892e-06,0.349316837169592,0
1.79626861870987e-06,0.355408766526924,0
2.57896730471661e-06,0.415310177869029,0
2.3277729249941e-06,0.388998562220488,0
2.30805310235784e-06,0.401012198112255,0
1.87928453326194e-06,0.365099746490433,0
2.67247029248854e-06,0.452506464132606,0
3.50668963595181e-06,0.543906708851827,0
3.63289829759558e-06,0.582295837418023,0
3.78316927543053e-06,0.588338227620454,0
3.9154471029405e-06,0.600328543410258,0
3.12762280928427e-06,0.6069215322974,0
1.40778329185991e-06,0.438868246748455,0
7.95669859388894e-07,0.367865907845555,0
6.42827220403842e-07,0.339413318664268,0
5.91115750852529e-07,0.328362126875977,0
5.45206335541353e-07,0.294368479842719,0
5.48317028205888e-07,0.27952834860667,0
4.98452437524227e-07,0.27011822827385,0
5.4420988643896e-07,0.275954569335404,0
6.82108825685391e-07,0.292877356276438,0
1.13713683379328e-06,0.316353217177645,0
2.87372492079709e-06,0.414085268421167,0
2.85256489705817e-06,0.40957943221566,0
3.33580298028759e-06,0.419588970147253,0
3.59433413566775e-06,0.386471131568815,0
3.40698993682859e-06,0.391212536684205,0
3.42646150128849e-06,0.383807152315842,0
4.28043774162129e-06,0.41906088838899,0
4.10446128720866e-06,0.407234967449029,0
3.71645982338949e-06,0.387864109595742,0
3.47888927539455e-06,0.405820121792794,0
2.07649731094476e-06,0.353255335263144,0
2.26373699334474e-06,0.349387432684154,0
1.97508435203153e-06,0.349771685253407,0
1.47432825071579e-06,0.352091355875845,0
1.36875652448214e-06,0.352157699564007,0
1.20670985912146e-06,0.353666353731688,0
8.9090534000017e-07,0.320406931429916,0
1.04118175876356e-06,0.348970363944474,0
1.04967213778203e-06,0.35153677058194,0
1.045403413094e-06,0.349643169191956,0
6.98826394626099e-07,0.29240370174746,0
1.02929004027569e-06,0.367250265907296,0
1.23255059971063e-06,0.395237925485567,0
1.13349077907767e-06,0.371793371272934,0
1.17276365356709e-06,0.384214193055529,0
1.18518921570739e-06,0.391820613231208,0
1.17691697995908e-06,0.404375595135362,0
9.94826440387386e-07,0.364831545295931,0
9.95310303418183e-07,0.375845082728403,0
1.00776129873559e-06,0.38448035086969,0
1.08755922045311e-06,0.406275570743146,0
7.57424814240272e-07,0.342534065827502,0
8.98910211055999e-07,0.359586279071209,0
1.01284894641927e-06,0.366232875959459,0
1.22616459466318e-06,0.383602688525576,0
1.68028890251847e-06,0.432571577811232,0
2.33501884980026e-06,0.480606794475784,0
2.32605523654141e-06,0.470155496268635,0
2.47911791679491e-06,0.395436489484257,0
4.14880675192865e-06,0.427441958314997,0
4.40079613986835e-06,0.417905047933403,0
4.49411780553694e-06,0.425959760150686,0
3.41325586185088e-06,0.381324235928573,0
2.95037710014832e-06,0.356894139482283,0
3.06399444113444e-06,0.363857138687126,0
3.02715543311925e-06,0.356915802357835,0
2.73548383572553e-06,0.34182222512404,0
2.78703283662321e-06,0.34736465395783,0
2.53386112228188e-06,0.39587137134235,0
3.62894868968675e-07,0.230083734716698,0
4.05894399834425e-07,0.255993833968516,0
5.73327204743229e-07,0.291411333261777,0
7.98622132462802e-07,0.330213612920702,0
7.46672527392667e-07,0.318322136357611,0
1.30057726256511e-06,0.38847307161599,0
1.78962714309256e-06,0.446322774323834,0
1.74859558338738e-06,0.47118077663736,0
1.66969997005704e-06,0.465866448930838,0
1.74104964831814e-06,0.461518546158981,0
1.68277743134345e-06,0.458416247697748,0
1.57520053318274e-06,0.456017201839085,0
2.93555057017082e-06,0.525345839163154,0
5.08840991979484e-06,0.605126737922459,0
7.69326136599486e-06,0.620027371587712,0
9.23550581606464e-06,0.551948285926401,0
8.42406852567915e-06,0.495645143328671,0
9.69241119754805e-06,0.525494479516313,0
9.67932930759897e-06,0.526173475217652,0
9.85164123344596e-06,0.523806869605075,0
9.8507123530827e-06,0.510092154695059,0
1.01343144209455e-05,0.47902410762873,0
1.08526860223652e-05,0.494493166817328,0
9.45763640103467e-06,0.475649326561224,0
7.14528901427848e-06,0.475226423211287,0
1.40755260914771e-05,0.454725788124883,0
2.13703028429628e-05,0.347319061288329,0
1.9345878506977e-05,0.322725133191019,0
1.8570028051868e-05,0.320290713102691,0
1.94743097246187e-05,0.310368932731586,0
1.95262845097995e-05,0.288413097409819,0
1.88035881294756e-05,0.290939719173006,0
1.78459123484227e-05,0.285998673565446,0
1.88660554288047e-05,0.291128088193641,0
1.92270163640488e-05,0.296484433512515,0
1.13166914358528e-05,0.341812960785327,0
2.8439019267285e-06,0.312986117805591,0
3.08498225316182e-06,0.321781064631405,0
3.17541756956378e-06,0.323953989197587,0
2.83918540097718e-06,0.349686476402577,0
1.97076298952424e-06,0.361215742428114,0
1.9999364885779e-06,0.328845891878946,0
3.91570219391071e-06,0.399366049714205,0
4.12641543343223e-06,0.397335292449134,0
4.8571982987384e-06,0.449059420536452,0
5.02625680244944e-06,0.456290269063817,0
5.31555539584743e-06,0.466042354252423,0
6.15415683776328e-06,0.466692007634342,0
6.23288264351324e-06,0.464964883991512,0
5.90168852158834e-06,0.426955258960842,0
8.13444107244406e-06,0.448534742767248,0
7.70436781932343e-06,0.458462343531054,0
6.3791506164208e-06,0.453917681345091,0
7.72708116486311e-06,0.515441817988143,0
6.96695144999276e-06,0.488541286832448,0
6.73706197454532e-06,0.480724248458796,0
6.70252738952096e-06,0.484564363938782,0
6.54513119957111e-06,0.502590483158245,0
6.46914445842044e-06,0.514351674031089,0
6.54882799410768e-06,0.541964417647207,0
3.81986390904244e-06,0.496232833629262,0
3.25546387599089e-06,0.510528610824158,0
3.07696156545357e-06,0.496364996154217,0
3.67487088485307e-06,0.50924864791186,0
3.45049269030771e-06,0.484634602904222,0
2.39519792239057e-06,0.419569908550861,0
2.25580082982702e-06,0.402767752738502,0
2.32551557236087e-06,0.40071912912577,0
2.32110006913838e-06,0.404682868219297,0
2.24061747617095e-06,0.416352094909353,0
1.9768568293682e-06,0.37845210456781,0
2.61012724878088e-06,0.433544355137385,0
3.87760810289278e-06,0.563907294152868,0
2.37907113705101e-06,0.465153400773953,0
2.02573673853687e-06,0.429568912189843,0
2.74804845787391e-06,0.462077218112144,0
2.96153290143244e-06,0.488832125142856,0
2.76839765674322e-06,0.497677238714062,0
2.73639930356754e-06,0.507539580492946,0
2.82357980596813e-06,0.517068347183073,0
9.42252912665953e-06,0.337505926509048,0
5.2250883702207e-05,0.622366610663263,0
6.39475007456871e-05,0.596013310036251,0
6.22981426355726e-05,0.564117155321529,0
5.85393515032488e-05,0.544487283738042,0
6.17905996719705e-05,0.492226942201817,0
6.2163460676895e-05,0.405789521243896,0
0.000133140148363046,0.35899223492308,0
0.000146241151534513,0.203622328491746,0
0.000128311064859915,0.130100356624403,0
0.000187881939714761,0.145748787007586,0
0.000191538327259597,0.135756788813287,0
0.00020647912723643,0.131178366914368,0
0.000191911684274742,0.112528724542965,0
0.000157338780436365,0.0829182819037506,0
0.00017335577290149,0.0777043786441319,0
0.000142238601494035,0.0688968183943072,0
0.000152773609546433,0.0730177025636501,0
0.000172189697920432,0.0751489065176546,0
0.00014172090854171,0.0488034591462122,0
0.00088785173608741,0.075893449110159,0
0.00128917072507806,0.0627043004010789,0
0.00126186125179021,0.0618390586898331,0
0.00118058421633561,0.0607093774281862,0
0.00105647250128943,0.0590106460587956,0
0.00112078434722784,0.0647491865263847,0
0.00109295213408368,0.0616660091365682,0
0.00114022437087868,0.06054629174898,0
0.0012369183118423,0.0544323715435377,0
0.00129394501893801,0.0538293201181904,0
0.000903334650687103,0.0611845654744598,0
0.000595882937468083,0.0660381024726325,0
0.000722379387278214,0.076703997200862,0
0.000895352808677196,0.0873059015906387,0
0.00104278650670146,0.0966806021675173,0
0.00113471769894912,0.0979327203013511,0
0.0011755881439061,0.105482049858457,0
0.00123847260744271,0.122598396974278,0
0.00121309753959527,0.183808095022833,0
0.00053118536665153,0.188475414301566,0
0.000268971019182405,0.170592533508063,0
0.000210496501908887,0.163754045834252,0
0.000223852241631019,0.176672576098924,0
0.000233442131438652,0.182097641271003,0
0.000244120793161113,0.188504117824075,0
0.000252933394210533,0.205150320904893,0
0.000260669885777452,0.221082829805495,0
0.000267487501709701,0.22799069310848,0
0.000251986420609173,0.361112849812312,0
5.45599924712139e-05,0.286156597894018,0
3.76268595134871e-06,0.373127126091304,0
1.9379651994687e-06,0.314792665147972,0
1.99629233186058e-06,0.316517972254639,0
2.79030106314583e-06,0.360990466979731,0
3.03793973287135e-06,0.337312484398547,0
3.08456912220063e-06,0.33724461286142,0
3.43352648359097e-06,0.332251568451111,0
9.47446443347588e-06,0.471966251277896,0
1.98994724765627e-05,0.537764558805431,0
1.94684689512134e-05,0.481071109920302,0
1.93123564407739e-05,0.509690228931869,0
1.85334805763902e-05,0.537523765284576,0
1.81116643750316e-05,0.502756205019506,0
1.64684337625975e-05,0.456190256115481,0
1.3169957196286e-05,0.397215532549488,0
1.22160283169245e-05,0.380346934238526,0
1.23867530100679e-05,0.399174150298578,0
1.48198795180255e-05,0.536082015198171,0
9.17786234265692e-06,0.485568383849558,0
9.23784921128703e-06,0.536297686979955,0
9.62987152121753e-06,0.515649575251716,0
9.75004454829823e-06,0.519546394319876,0
8.80013246598504e-06,0.55426111059744,0
4.20963367460204e-06,0.405873663728233,0
4.70879216749024e-06,0.398990210109652,0
5.99647569500345e-06,0.446574996143567,0
6.84969880961468e-06,0.470462105222322,0
9.6655517380099e-06,0.505151515090936,0
9.36434396453976e-06,0.355261672925055,0
1.08709021242226e-05,0.258448102849718,0
6.44378082398816e-05,0.293212801033403,0
0.000148641786715872,0.343565470938921,0
0.000146461125360759,0.246790068323784,0
0.00013594380564016,0.236797170188305,0
0.000136121530150998,0.244019933183724,0
0.000137823639454128,0.233715177427377,0
0.000207059408200776,0.152031910385351,0
0.00030861349821781,0.134608012923548,0
0.00029245755355092,0.122919017254937,0
0.000295717217317528,0.124455907767276,0
0.000305603621528459,0.153482145794583,0
0.000258837102708435,0.149853220489785,0
0.000254885630079546,0.164270552768165,0
0.000258291620910075,0.158663989228298,0
0.000268174318456879,0.161711396661785,0
0.000267537454494036,0.166486354608391,0
0.000188049932935298,0.304070418067316,0
2.22026854302139e-05,0.241974832968505,0
1.58202439378242e-05,0.351865692127384,0
1.49439686217119e-05,0.368434723329028,0
1.85666272185315e-05,0.390655187918569,0
1.93506064207181e-05,0.355390340362901,0
1.48084712829688e-05,0.285704711824532,0
2.43628558692521e-05,0.445353088961189,0
2.02152831958118e-05,0.311130788544318,0
2.27693997558474e-05,0.345186766120754,0
2.91455960746628e-05,0.393576282975914,0
3.43236571844993e-05,0.423849287175371,0
3.79984703702044e-05,0.446616480909866,0
3.99321481180685e-05,0.47342309740016,0
3.39538128580574e-05,0.463650896063932,0
3.20093500512418e-05,0.510773978228123,0
3.34444021376044e-05,0.687125803735483,0
1.08227405441402e-05,0.51942539548572,0
1.95967361818028e-06,0.402244490612023,0
1.39639530211828e-06,0.357916400594831,0
1.3053876759652e-06,0.362778421403055,0
1.33662404609394e-06,0.353004001928206,0
1.65502426767701e-06,0.352603310235078,0
3.1151739650316e-06,0.458766604236986,0
4.51360493358281e-06,0.541993761728997,0
5.99577659896654e-06,0.598592504597363,0
7.18836433854262e-06,0.617472550179295,0
6.74056934885252e-06,0.516532321823295,0
1.75435777966342e-05,0.728121992014786,0
1.99875183396505e-05,0.548897617302853,0
1.78452558940807e-05,0.503762328416862,0
1.44037703444593e-05,0.443954257873677,0
1.20256918605141e-05,0.409723673841273,0
1.19529131160736e-05,0.410518417156604,0
1.15752423304152e-05,0.404001332976641,0
1.17402865677423e-05,0.40718633193763,0
1.30897386781473e-05,0.410420583717138,0
1.3028088024216e-05,0.429266106245329,0
9.37716544912342e-06,0.299708501755559,0
1.70088389216637e-05,0.363709959519204,0
1.86840375193009e-05,0.30020137664812,0
1.96533457522752e-05,0.298995042871744,0
2.49164842558735e-05,0.316270418829498,0
3.140422011368e-05,0.350735919539478,0
3.26665022239416e-05,0.352319280295629,0
3.31284952531087e-05,0.341899362964349,0
3.25456771711816e-05,0.360515791535197,0
4.10109094837802e-05,0.374675954597713,0
5.18031727305745e-05,0.404900685747306,0
4.4048074200683e-05,0.357278806589691,0
7.28558903524201e-05,0.490977878193611,0
7.73810228418854e-05,0.406243289600915,0
6.96506115757555e-05,0.36833038309589,0
6.39205365166433e-05,0.354092958845386,0
6.32623075462468e-05,0.348002511458596,0
6.74300263327394e-05,0.373615224916178,0
7.2211106928445e-05,0.369195815284182,0
6.85049584236337e-05,0.403788120248851,0
6.35186067821708e-05,0.434052759123662,0
6.43023569592303e-05,0.580543174186469,0
2.61742447015416e-05,0.488268719014374,0
8.14996113099682e-06,0.292603623782752,0
1.97761177716814e-05,0.533210820169258,0
1.9726479422396e-05,0.477668817842561,0
1.86147676675663e-05,0.466445444365636,0
1.68256750007922e-05,0.439828438128594,0
1.57272274702807e-05,0.444712071327349,0
1.59014296758916e-05,0.451234730805333,0
1.38090688952368e-05,0.457599838861108,0
1.35898519907087e-05,0.254715044430615,0
4.68278401079856e-05,0.338726680853976,0
4.88132899348132e-05,0.261249085888061,0
5.12938731062882e-05,0.255308446598005,0
6.0847388662421e-05,0.234083420360694,0
6.46809915484206e-05,0.202589178769305,0
6.81385411229047e-05,0.203195601890697,0
6.88526383056415e-05,0.201990898252109,0
7.18310106275048e-05,0.203038948992671,0
7.07121097612845e-05,0.195231257235001,0
7.16703519050273e-05,0.229397402236124,0
4.12590036730953e-05,0.195431761382879,0
4.11506446731058e-05,0.256914591750609,0
3.91516829964498e-05,0.255770703446241,0
3.32825813340403e-05,0.353985660912198,0
2.41251937112063e-05,0.425928804615932,0
2.75529765989045e-05,0.490959817523274,0
3.12751071350524e-05,0.528582943986406,0
3.37867463668186e-05,0.564319162083243,0
3.35094919644378e-05,0.582118875216797,0
3.56492825835676e-05,0.749952663460384,0
2.20868366759046e-05,0.727085915897053,0
3.80866015166819e-06,0.394162382162877,0
1.80636812067884e-06,0.319168242839423,0
2.10728284321296e-06,0.356714671365946,0
2.35023004076459e-06,0.407276757037394,0
2.39026312683587e-06,0.397002985214116,0
2.37181774678491e-06,0.390704406262866,0
5.19403441038097e-06,0.411934478690511,0
1.19708138971485e-05,0.614618879128524,0
1.2223815550843e-05,0.600938540296967,0
1.15387231983785e-05,0.574113427979883,0
9.46251463624033e-06,0.527656817801623,0
9.52027097727972e-06,0.458051037314121,0
1.63592143367163e-05,0.489648485464814,0
1.63254740007098e-05,0.42333532999599,0
1.41691297996916e-05,0.400865366808903,0
1.05853896578141e-05,0.336902175856834,0
1.04896544975196e-05,0.406446820511712,0
8.77003780509449e-06,0.36932484512092,0
9.01685603342574e-06,0.330676155243899,0
1.3535511540459e-05,0.327952237888303,0
1.36059754861846e-05,0.244731264189237,0
1.82210620862188e-05,0.308329593105178,0
1.63912782340996e-05,0.327778572240448,0
1.88955884087345e-05,0.383322726734889,0
1.96826882997099e-05,0.391654898712382,0
1.88390057898378e-05,0.382814518924136,0
1.93537792411933e-05,0.396161479679407,0
2.0381591373467e-05,0.415053480994614,0
2.03650293138528e-05,0.460580512217815,0
1.12627501979101e-05,0.329753953272391,0
2.57910035439676e-05,0.575560923611207,0
2.48101210643528e-05,0.398375115648746,0
2.39779691471605e-05,0.394206081381442,0
2.1275712555237e-05,0.370460260912761,0
1.86130800940198e-05,0.344565884789346,0
1.81039454690515e-05,0.339224394792474,0
2.09475724390943e-05,0.369609584512505,0
2.15917577405415e-05,0.367021881451708,0
2.15250245002552e-05,0.366785151460418,0
2.06887873315429e-05,0.465765005757175,0
5.46603262282993e-06,0.322612035962147,0
8.54236696311517e-06,0.47811940719007,0
2.0031546838656e-05,0.559637748327904,0
2.06459097787006e-05,0.432429185171261,0
2.22665537053477e-05,0.453627996362769,0
2.23865729945669e-05,0.452873360913158,0
1.98718163638755e-05,0.427497946233033,0
1.82367456256909e-05,0.40777249188694,0
2.18630712817405e-05,0.384851158946848,0
2.57216728297545e-05,0.368582172689279,0
2.72860252904426e-05,0.35231579805361,0
2.90449591439838e-05,0.427998475301082,0
1.81750868736335e-05,0.363914784456229,0
1.77655182021756e-05,0.437361227652949,0
1.6141225943215e-05,0.413814200368004,0
1.57847488391318e-05,0.410970576232645,0
1.71565922680332e-05,0.432815784705963,0
2.12931903357596e-05,0.49790465804771,0
1.76751628547682e-05,0.582904430847072,0
8.79532407711647e-06,0.486948847939103,0
8.39977731089416e-06,0.532772337927128,0
9.80475852461154e-06,0.557216816284971,0
8.30459990903057e-06,0.503567524867754,0
4.89589215721606e-06,0.386659125536442,0
5.02134427674133e-06,0.401274255102102,0
3.09932605890749e-06,0.322250531639278,0
2.78450584169953e-06,0.305973668608712,0
3.12201688153412e-06,0.324807898643562,0
3.33310630431677e-06,0.334648001699982,0
3.34572824601351e-06,0.330855530440584,0
4.48955754831151e-06,0.372292021455985,0
3.77459234769002e-06,0.365215233740919,0
3.32235743386609e-06,0.397936838701093,0
3.51768790337783e-06,0.442442600115961,0
2.39098297432075e-06,0.345780948587247,0
2.28619512138098e-06,0.30810634936639,0
7.74211217252308e-06,0.423823725059811,0
1.09568911898298e-05,0.382337591947092,0
1.21558020474433e-05,0.392344493461276,0
1.29700205379902e-05,0.380048047045486,0
1.31816640497404e-05,0.39254319858106,0
1.3213120714204e-05,0.3815922413727,0
1.41383538839481e-05,0.387385779782446,0
1.56379127320694e-05,0.425708652546287,0
1.5473350586308e-05,0.432210926012119,0
1.50206406667786e-05,0.456485342535175,0
9.49781120431163e-06,0.453039963614751,0
5.63327714630833e-06,0.431356139803296,0
5.39363841284308e-06,0.444391338218888,0
4.74235434472389e-06,0.457577996479509,0
4.08890782388598e-06,0.426527783913861,0
3.97060343938865e-06,0.415595189314303,0
4.44909032676464e-06,0.437295257039557,0
3.99407484544546e-06,0.422760258921871,0
4.03652724667074e-06,0.414104190383551,0
3.66707808347288e-06,0.368245190908298,0
4.76499607246142e-06,0.378168271710093,0
5.77671014243632e-06,0.413186611952636,0
5.85366979751058e-06,0.396833446077644,0
6.79343960962665e-06,0.413654380235703,0
6.51333049128405e-06,0.408453414507987,0
5.79067751185442e-06,0.420994247953322,0
4.29620276848673e-06,0.362949437793691,0
4.16555658684029e-06,0.352750433098305,0
3.73299012316556e-06,0.347493080245252,0
2.91603092308758e-06,0.328882237450384,0
2.52676071067798e-06,0.332353016855453,0
2.44967363665184e-06,0.340191333453522,0
2.64153987968418e-06,0.351384640557871,0
2.49346058374161e-06,0.368990029433948,0
2.50660143817091e-06,0.379451269145426,0
4.29581494416941e-06,0.479227414327185,0
4.87332774127556e-06,0.475384143457222,0
4.26612012825202e-06,0.427213308245982,0
4.53697827639462e-06,0.444473770656321,0
4.59719341095245e-06,0.43173896974125,0
4.74388337214653e-06,0.424024453891829,0
2.9586464256326e-06,0.358103682319324,0
2.10756627762431e-06,0.327562435499212,0
2.2942483281266e-06,0.297730731943671,0
3.67950010268305e-06,0.37154389714545,0
3.37026493524404e-06,0.348934991288942,0
3.39191590787404e-06,0.381061388246194,0
3.20615641107404e-06,0.381888610151498,0
3.92211173413696e-06,0.410771695876546,0
4.17971476835318e-06,0.409852865872616,0
4.10972102007066e-06,0.434734262459593,0
4.07581530514647e-06,0.435085792272756,0
3.5028860473781e-06,0.405611627967853,0
3.03845940480323e-06,0.441373060139812,0
2.03070329392964e-06,0.377147824070954,0
2.1910472017575e-06,0.381515903402669,0
3.29272651722447e-06,0.460834521973747,0
3.74967896906548e-06,0.466055043932562,0
2.88584009695033e-06,0.421119959409401,0
2.3432251617413e-06,0.432622509881285,0
2.42956434476642e-06,0.433208744754091,0
2.42856789566402e-06,0.430385947089584,0
2.28190526564531e-06,0.435618647962495,0
2.25662177735417e-06,0.414533533137339,0
2.46894413982617e-06,0.419098231824748,0
2.47885776449592e-06,0.439883151207056,0
3.32557504710097e-06,0.49185594743971,0
4.3925936239239e-06,0.547781346250135,0
4.64831789289919e-06,0.521185790759927,0
6.13938788040059e-06,0.537693256057313,0
6.17293082458489e-06,0.535349813958645,0
5.78673157340895e-06,0.503403362203673,0
5.69598764248499e-06,0.490839327770322,0
5.43955478748133e-06,0.481508997482371,0
4.86519836153189e-06,0.461685280628784,0
5.95689306719307e-06,0.504764835650903,0
5.45646468691545e-06,0.499261101598564,0
4.19841574550722e-06,0.46883899520122,0
4.22311907898763e-06,0.458240277912897,0
3.54450788455156e-06,0.464685371278356,0
3.75978277316391e-06,0.479390551187644,0
3.76092157213807e-06,0.47663668809564,0
5.11075467406654e-06,0.484310897198,0
4.98419728687024e-06,0.483055706085505,0
3.63886054289142e-06,0.423288269539707,0
2.20646097240601e-06,0.34858060504099,0
1.72126946933625e-06,0.312056324597072,0
1.68963464609977e-06,0.296311864801865,0
1.5809890483684e-06,0.316836563498985,0
1.30682610560278e-06,0.295953264308454,0
1.76796060687658e-06,0.30384966114092,0
2.6419559209094e-06,0.371097366435249,0
2.01054908275134e-06,0.379026991190377,0
2.00498263336564e-06,0.379267251480441,0
2.43032354408252e-06,0.392297053825883,0
3.70490291180004e-06,0.471101841212146,0
4.01894811303947e-06,0.427838745311836,0
4.99450771971587e-06,0.487816710557961,0
6.47657448906075e-06,0.553294084290028,0
6.96086267147756e-06,0.520037364113817,0
6.67061735653239e-06,0.557445669130495,0
6.10690617032698e-06,0.545338389904423,0
6.51239667612524e-06,0.558226252409401,0
7.90325741522909e-06,0.628110707644403,0
8.79053365596504e-06,0.684639930247715,0
7.79841705100329e-06,0.542763481032103,0
1.06844478335152e-05,0.638413665701127,0
1.24069315156243e-05,0.692599301772521,0
1.23042508203864e-05,0.676675140453857,0
1.18551503874723e-05,0.715643735098472,0
1.25403277702601e-05,0.745935235357876,0
1.26966495666445e-05,0.705889606589468,0
1.20420834798817e-05,0.693006521155278,0
9.11819838680258e-06,0.587669452859707,0
5.90022896090312e-06,0.419097465892929,0
5.40630084517002e-06,0.471037503838673,0
4.06381995595196e-06,0.447736013456482,0
2.99250114766938e-06,0.383236717210529,0
5.98271343593392e-06,0.452185755125931,0
2.26904213897916e-05,0.748566445091453,0
2.66376049221438e-05,0.550361589004944,0
2.67685136602203e-05,0.54359657480247,0
2.52470214173235e-05,0.526246362966329,0
2.46138259055767e-05,0.517745704075544,0
2.6445627709478e-05,0.551847677479522,0
2.46237572448972e-05,0.516410263323421,0
2.46813652890034e-05,0.515845940935003,0
2.57155689937862e-05,0.529004754308421,0
2.52261960739497e-05,0.598527841308372,0
1.03037277238036e-05,0.460754210822884,0
3.84773044647342e-06,0.430338744087452,0
3.93216353308223e-06,0.459905680925145,0
4.15015660831269e-06,0.459454377974286,0
3.65605083993963e-06,0.431952934201558,0
3.89983239753965e-06,0.432942950726185,0
4.53166691797913e-06,0.493788223101774,0
3.8207921567396e-06,0.437910239040246,0
3.32172476776933e-06,0.398944140615775,0
3.29156228507322e-06,0.408290441234757,0
3.57924024099777e-06,0.40541463634086,0
5.17693268658631e-06,0.385198335143347,0
6.17927304913844e-06,0.417119256879464,0
6.420293525359e-06,0.449391166508287,0
5.45316786388526e-06,0.429729858928709,0
5.30084806016256e-06,0.460949477023349,0
4.0231965924124e-06,0.403628988441562,0
4.00120815568639e-06,0.405293537167239,0
3.97197898201622e-06,0.407297316274145,0
3.50011838627123e-06,0.385495607873333,0
2.52966844405867e-06,0.338956103770389,0
1.87591368829842e-06,0.367664763460106,0
1.64865711607925e-06,0.34369100242581,0
1.12274203516021e-06,0.293817190697671,0
2.00779230350133e-06,0.29431147627609,0
5.6022487967922e-06,0.430205392962462,0
5.78739422787869e-06,0.430268369184706,0
5.6539314167695e-06,0.431443804310659,0
5.71024173617814e-06,0.446597249888889,0
5.03017629545206e-06,0.426944346346953,0
4.97819758774147e-06,0.427610964246315,0
4.77512784040132e-06,0.445698692631518,0
4.47431586284132e-06,0.429974474032576,0
4.75208158596154e-06,0.442869702232974,0
4.52737440504585e-06,0.602531299135568,0
9.82436940214594e-07,0.368352565248179,0
1.12771782747798e-06,0.387356985532826,0
2.30504755879859e-06,0.503093487203537,0
2.49078111628862e-06,0.454467613092986,0
3.48034795034723e-06,0.529539283015913,0
4.08045907429667e-06,0.587527014015216,0
4.87293105963289e-06,0.618201439693852,0
5.04819260135619e-06,0.566702113731837,0
7.5589042180913e-06,0.647309962235161,0
8.30925544577016e-06,0.630546546777643,0
8.33587246766005e-06,0.626888761985848,0
8.41051125042496e-06,0.646700724486876,0
7.49886673617344e-06,0.578999117121083,0
7.69496589499274e-06,0.625667463013951,0
6.85018254611226e-06,0.59123741589015,0
5.72270133575446e-06,0.549554299683851,0
3.85005865770949e-06,0.456161694426691,0
3.67359201360509e-06,0.501226550361263,0
2.02680164211093e-06,0.41122923229687,0
1.17293118354951e-06,0.356599264679585,0
1.07401396585476e-06,0.342847447146288,0
1.20206355930688e-06,0.339943845418945,0
1.26863331867375e-06,0.375134459728147,0
1.1141756096769e-06,0.362579167485304,0
1.15690701665085e-06,0.37304803965143,0
1.26627727012943e-06,0.392195534734838,0
1.50207951638394e-06,0.382061997549873,0
1.56401702112358e-06,0.366242560889523,0
2.54824541865775e-06,0.447692205856808,0
4.32986857642701e-06,0.567110451806398,0
5.71831974343476e-06,0.58787299606909,0
4.35864286317362e-06,0.541395085909874,0
3.39998670273715e-06,0.490813122263286,0
3.23705076191088e-06,0.484839294758954,0
3.20486577223665e-06,0.471186063504026,0
3.37691969684939e-06,0.479976322875102,0
2.48943492936796e-06,0.455082558789302,0
1.73465921460801e-06,0.375344026584991,0
6.12755133039636e-06,0.516532963861682,0
1.76988006520085e-05,0.68183835582485,0
1.83425591569068e-05,0.571949891772316,0
2.32823583412378e-05,0.527109958669171,0
2.75462703382789e-05,0.566312924109412,0
3.49995345021981e-05,0.611638342219626,0
3.63421798846013e-05,0.593643466460647,0
3.2388275919903e-05,0.501890574224319,0
2.49243040088294e-05,0.440939620408674,0
1.71313438294438e-05,0.311064823603409,0
1.78105488442783e-05,0.315827839709855,0
1.77877743831937e-05,0.314261206588277,0
1.4585855696169e-05,0.2751852956445,0
1.53514668301016e-05,0.260619794335487,0
2.88852543554469e-05,0.35563701932234,0
4.22815540479755e-05,0.461439758367743,0
4.3876345466444e-05,0.396107060471386,0
4.29886712787331e-05,0.388475108360877,0
4.50007398989157e-05,0.375072058617527,0
4.78380781679568e-05,0.475141009148662,0
4.03548600480869e-05,0.411797380759456,0
3.87094959590413e-05,0.401284549633122,0
2.19775625876727e-05,0.331257003928025,0
2.63780994609746e-05,0.408979570317361,0
8.79596844753601e-05,0.363584701117961,0
0.000325696337562147,0.417838637214638,0
0.00200996532693173,0.155284026494438,1
0.00291276993692229,0.0644917350788249,1
0.00283064007921032,0.0619482433735861,1
0.00267447918056971,0.059091362189316,1
0.00250133252709531,0.0559485900036491,1
0.00233747904138424,0.0512228121387682,1
0.00222665556488979,0.0491719403871886,1
0.0021555848620094,0.0480557301616282,1
0.00211769914690935,0.0465954652743074,1
0.00218422309517723,0.047268474726818,1
0.00126517150252565,0.0503658046765948,1
0.000551632695195781,0.0902957708762065,1
0.000509762558849198,0.0945000663290259,1
0.000469336884231834,0.0892043436839413,1
0.000480951596195895,0.101863463216938,1
0.000467575212832092,0.108111234804598,1
0.000472085482729613,0.103151874333822,1
0.000388266037315366,0.0769120326897582,1
0.000370514839130691,0.0861547902364251,1
0.000295892443936083,0.0964541472383976,1
0.000245183233892593,0.10443077697267,1
0.000244747755773008,0.114593574669101,1
0.000236746764099152,0.115640869333288,1
0.000263464682565882,0.109281539809731,1
0.00026294617891522,0.0830294430122093,1
0.000349866292020099,0.0957401335252894,1
0.000322490749032161,0.0829155487161317,1
0.000334740466439138,0.0952762837738537,1
0.000353436745667812,0.0848535745435656,1
0.000349894285343816,0.0772550228634822,1
0.000352089188265834,0.0740621069356216,1
0.000422759126909239,0.075893820253668,1
0.000559191401389384,0.0584065526803172,1
0.00164674548054473,0.101787836183448,1
0.00168658407253107,0.0588154934822138,1
0.00169745105655416,0.0577979753877258,1
0.00164285437362493,0.0618790042514579,1
0.00131580489335797,0.0515732040391234,1
0.00140261273961091,0.0428488071027382,1
0.00184503871931399,0.0492168733332713,1
0.00162849860593483,0.0426550646854335,1
0.00169671419553913,0.0366371962661327,1
0.00159127229238853,0.0224239088100222,1
0.00360099068253029,0.0299735730667482,1
0.00357348261573427,0.0226919691670438,1
0.00902571101045033,0.0266891811810371,1
0.0090250368718256,0.0168641523894652,1
0.00797589428821987,0.0134928939587578,1
0.00737036894295186,0.0116339096129203,1
0.0111263210159018,0.0129424127292726,1
0.0152901385291631,0.0158718147033155,1
0.0143095539198815,0.0128578281182631,1
0.0119272439647791,0.0109334391217318,1
0.0118489336915908,0.0114699595579125,1
0.0105376484838468,0.0104988810788036,1
0.00942941486504028,0.0108506647180575,1
0.00909688752293941,0.0146097862481023,1
0.00893372560327337,0.0160759812046263,1
0.0074715251567261,0.0141378950655622,1
0.00602071823359776,0.0245820921347287,1
0.00343069788206113,0.0107240099866881,1
0.00944461516212709,0.0352320763602506,1
0.00962182693189027,0.0281771372056192,1
0.0097758024723892,0.0287730912460302,1
0.00877425443656227,0.0246725450533542,1
0.0079782596186085,0.0175189793304824,1
0.0234332158795011,0.0252177930970511,1
0.0289982922279385,0.019069411997042,1
0.0256108967648777,0.016739207522222,1
0.0261130282601445,0.015713821080892,1
0.0287812074840765,0.0169700155487621,1
0.0310778858543373,0.0150961819711348,1
0.0313878240271836,0.0137704660792432,1
0.0310867036493223,0.013327698233828,1
0.0298434531141121,0.0118859610565897,1
0.0311537921638879,0.013267467947488,1
0.0211450115225787,0.0118998986731285,1
0.0140041334901112,0.00956357573908841,1
0.0146637490070967,0.0101586084942561,1
0.0174965653679678,0.013589668462049,1
0.0162998532943032,0.0144950377361196,1
0.0100390857540216,0.0127430247776461,1
0.0161156241256874,0.0229858820720856,1
0.022877381750616,0.0271391652837895,1
0.0226557213080472,0.0317988371764267,1
0.0211620433585334,0.0317617628559931,1
0.0208387969728545,0.0273726572799056,1
0.0215213188642099,0.0282144522042447,1
0.0196999284813411,0.0284460452979332,1
0.0148907532953586,0.0222041835055572,1
0.0134301259801468,0.0198370658197504,1
0.0130757186324439,0.0203597067403189,1
0.00973773363044252,0.0232403999751332,1
0.00488224934310146,0.0131630071466538,1
0.00527699742152056,0.0139296773377257,1
0.00488449278150922,0.0163004736903197,1
0.00435953658261242,0.0239708534425672,1
0.00317093131921422,0.0244215817055616,1
0.00314168429613546,0.0242990924694779,1
0.00314520960779184,0.021884486323798,1
0.00673236657984162,0.030297718669186,1
0.00865201662016287,0.020274212070559,1
0.00912554832900091,0.0179698293742622,1
0.00937640694624615,0.0198222489582916,1
0.0110894486341174,0.0176221519378154,1
0.0160813468263519,0.0200498887938155,1
0.0155231534662324,0.0192836824786474,1
0.0142131657096213,0.0173185555889939,1
0.0130530830289142,0.0159288915559667,1
0.0223389101294784,0.0143899879407981,1
0.0388135676416781,0.0234528680101456,1
0.0500502682204912,0.0343217091130775,1
0.0523204445773093,0.037522819822809,1
0.070498938529959,0.0421253792875142,1
0.070768401749193,0.026634959681467,1
0.071836482837606,0.0281714456822868,1
0.0605512128367113,0.0201400717958383,1
0.0510085884786312,0.016816725456838,1
0.040265390863428,0.00995039187333394,1
0.0597377211782831,0.0217109359488761,1
0.0651781057413878,0.0132249537672538,1
0.0688590288881546,0.0113627552013797,1
0.067010067401791,0.0102974947456182,1
0.0501014529813452,0.00735513919477752,1
0.046984056600388,0.0102842538384812,1
0.0467474519782665,0.0079052554676848,1
0.0471402578359209,0.00986289155793357,1
0.0458571204961514,0.00775076190295385,1
0.087175692110682,0.0152765894814272,1
0.130728274558843,0.0193445902386141,1
0.133359678525992,0.0246344759451172,1
0.14822388957743,0.0332441619031323,1
0.136844113311422,0.0288661201080194,1
0.135797500834572,0.0288338335922965,1
0.134549173671582,0.0271280008292603,1
0.109633945127961,0.022866732233731,1
0.0954691311783573,0.0168344459781543,1
0.0890217152550261,0.011492888578623,1
0.0940636784609943,0.00866634995395762,1
0.100434876701829,0.0103447979599404,1
0.11768762097221,0.0133248246729324,1
0.107959907786414,0.011179243960777,1
0.106309152995918,0.0109339777670791,1
0.106536924161532,0.0107643117264003,1
0.110442063350144,0.0117455986596092,1
0.0946602334501748,0.0105533750744027,1
0.110986899347879,0.0130841981884558,1
0.0719907801100727,0.0139514033372105,1
0.0409608679723267,0.0336514737365058,1
0.0440088651167773,0.0346624142776478,1
0.0470872545321729,0.0344284841592734,1
0.0512714825375011,0.0456700594132362,1
0.0331937501386042,0.0449699735390024,1
0.018516905745019,0.0282949502709257,1
0.0146681141646492,0.03094954217884,1
0.00957565654447138,0.0243646375749527,1
0.00929506797910734,0.0326667313641767,1
0.00899327063675496,0.0442183127159275,1
0.00700424689129399,0.035570813828397,1
0.00634737667041577,0.0227940710311609,1
0.00397146028489627,0.0158304802346105,1
0.00381752334613964,0.0154354085749599,1
0.00373715806971185,0.0115251735071578,1
0.0054527717947899,0.0166065199595199,1
0.00563276073893352,0.016835067596899,1
0.00568889199877932,0.0169422814653873,1
0.00619570536475277,0.0119098543340074,1
0.0107446116846653,0.0216324943647162,1
0.0134599064973933,0.0327273424691403,1
0.0160493514138083,0.0438116432326507,1
0.0165973687880686,0.0344042261220683,1
0.0143399731475901,0.0250263380416569,1
0.012835566994676,0.0271887220266853,1
0.0135648413586518,0.0287074425880531,1
0.0137521994383117,0.0221344376900919,1
0.011681576520522,0.0189614847102247,1
0.0143006415430865,0.0307040119520714,1
0.0186335290132131,0.00672823880699288,1
0.0293925441534083,0.00895324905338199,1
0.0302109184250916,0.00909488184700749,1
0.0307166819005309,0.00969811180929516,1
0.0352566551917821,0.012888150793613,1
0.0335286409563697,0.009784916522394,1
0.0321389988966614,0.00912567765874254,1
0.0315308968218287,0.00996493666670852,1
0.0318598812909807,0.00980473542514248,1
0.0288282086067466,0.0083472960014251,1
0.0240290904734953,0.0207201018999585,1
0.0105190620512692,0.0204407534019132,1
0.0100839151592107,0.0230952455475981,1
0.0102449617014504,0.0262407515980918,1
0.0055534006349348,0.0159586329069653,1
0.00461472279172187,0.0319271476360734,1
0.00452441934014299,0.0265924893860148,1
0.0082045870681533,0.0325780686424161,1
0.010849109893576,0.0394255257847954,1
0.0198183537778195,0.0670964450661548,1
0.0289464275475365,0.0585726350843077,1
0.0264018398594472,0.0267245841901663,1
0.0258412813973316,0.0273823479190356,1
0.0301086328056632,0.0310647834611855,1
0.0405681394269754,0.0377464351808507,1
0.0459320628732328,0.0317015788315129,1
0.0457359182023125,0.0339200617364452,1
0.0438119795271747,0.0354569482998386,1
0.0470777598244489,0.0249654760506763,1
0.0550230360530634,0.0320190362735734,1
0.0949282822106038,0.0419207409196942,1
0.146809136481555,0.0811934982010613,1
0.172798379967361,0.0453754852702397,1
0.157957482871254,0.0413820580869121,1
0.127892285877936,0.0350438624618611,1
0.0983221203636963,0.0292828913974546,1
0.0844545237483959,0.0259102054057779,1
0.069479601929802,0.0218796632036642,1
0.063240151768832,0.0191810701214335,1
0.0671656113948065,0.0210435231934467,1
0.0805788544300051,0.0241790414939237,1
0.0810516480970202,0.0131649824016052,1
0.0748940226876267,0.010930217553,1
0.121287129554313,0.0152244554259688,1
0.12833342247806,0.0117496122834627,1
0.118526733132441,0.010590558207369,1
0.106949321653802,0.00868279217088587,1
0.0858309208132925,0.00544657308182802,1
0.0841861867170763,0.00558580426384497,1
0.0854427931139866,0.00485229404311495,1
0.0806008453099612,0.00572818746137246,1
0.0851568598147929,0.00934308232841237,1
0.0689485973498918,0.00600686010946078,1
0.0503964451235844,0.00534536512684002,1
0.0459828242250854,0.00765414106087712,1
0.0483717429297594,0.00770187245599572,1
0.12457935058398,0.0202108577415123,1
0.135826553101136,0.0165704187608271,1
0.136922717306173,0.0162032645698058,1
0.150855724701842,0.018499578873918,1
0.15293810115448,0.0174328252987064,1
0.163964943155443,0.021694413487189,1
0.164096706572651,0.0258424367541618,1
0.15590306775853,0.0247877589548774,1
0.154776066073771,0.0238221790793082,1
0.223920549830286,0.0252264594078854,1
0.198019812910844,0.00922813055787836,1
0.225941031520727,0.0127345332920519,1
0.240084308951553,0.01387987619191,1
0.261221157968877,0.0136612543625665,1
0.31003092118043,0.0165300961313925,1
0.374756724402054,0.0195094107873232,1
0.446716384592923,0.0248093286012841,1
0.469933865364399,0.0249845082567333,1
0.462410809042771,0.0255909249863472,1
0.242406882364767,0.0196143995937737,1
0.0588728256778664,0.0255863594171582,1
0.0560096430493861,0.0324285128968047,1
0.0272490576153518,0.0284015040463336,1
0.00659087947090491,0.0360489013684825,1
0.00332661929400044,0.0170638824002316,1
0.00322846283096814,0.0369563140643246,1
0.0024697314112962,0.0251928984651785,1
0.00268009960586346,0.0210341145137543,1
0.00535826846866402,0.0317518905716202,1
0.00462177539705097,0.0213191558938857,1
0.00417241400923762,0.0204306153704115,1
0.00448489973764343,0.020964269727125,1
0.00521037272142985,0.0137561483425188,1
0.008672022326514,0.0213772814839035,1
0.00917108642815123,0.0170923536677165,1
0.00993352777182618,0.0185140078459201,1
0.0102836834578457,0.0175381622703431,1
0.010633538728949,0.0223850241572033,1
0.0172864588785152,0.0254631948241958,1
0.0244468188248477,0.0305262930895914,1
0.0235559213800143,0.0298419404693421,1
0.0197167206922279,0.0261244523872807,1
0.018329927064209,0.0302189574462369,1
0.0224762626274251,0.0342428280579434,1
0.0216903106164599,0.0270500713404827,1
0.0169036879372378,0.0197482241773305,1
0.0112638108612294,0.0145388901599312,1
0.0111259224808006,0.0138599761024005,1
0.0115848870680713,0.0210736124148076,1
0.0106608970381124,0.023377769097497,1
0.010337255266491,0.022943655087803,1
0.0118805199102544,0.0228704697770374,1
0.0131784463516017,0.0158292173479088,1
0.0151624332595524,0.0206853728550006,1
0.0190736479420835,0.0387604922125872,1
0.0166483516282235,0.0364440056566179,1
0.0212685468981704,0.0398532106628913,1
0.0427950113798665,0.0553549606927399,1
0.0508044695421305,0.0382886762629863,1
0.0488613149602453,0.0392794869963992,1
0.043304436527131,0.034440601800329,1
0.0322009193133429,0.012396213479925,1
0.0710476410533852,0.0237280144192217,1
0.121125494097621,0.0353335548987038,1
0.134538511239517,0.0334434037272939,1
0.128299121078195,0.0325049054667837,1
0.128920364020111,0.0278329341444178,1
0.161424564463933,0.0226013630016638,1
0.157761078223157,0.0210379634218561,1
0.133583108872718,0.0164594822651849,1
0.0910550319168468,0.0110139793867303,1
0.0570483866174027,0.00830859598409445,1
0.0553978071453884,0.00826979845259467,1
0.0624207470552766,0.00772415201705746,1
0.134730450355181,0.00802783486805159,1
0.237480763214171,0.0151624925831361,1
0.260624558249951,0.0173975964749264,1
0.282774453729139,0.0212901163934983,1
0.26873963979146,0.0162395166859706,1
0.296454798203958,0.0185897149920398,1
0.346446751605132,0.0215673979766933,1
0.348320827601885,0.0186559819879474,1
0.363372414692475,0.017369096799253,1
0.374936833586413,0.0180928974709874,1
0.319360194871312,0.0279713435851332,1
0.20371528470675,0.0189896195159743,1
0.167977218557886,0.0145758425558177,1
0.0928164431370851,0.00705035053114411,1
0.0938038719605939,0.0113435223485851,1
0.0938277445953912,0.011147528225809,1
0.108041154435043,0.011256786213251,1
0.105682018384888,0.0174695160475077,1
0.125075629185224,0.0292469771520077,1
0.154905573462011,0.0378162161383547,1
0.12303923047786,0.0398082244267616,1
0.0753139615858358,0.0272414687488001,1
0.0686349672321476,0.0369678618884273,1
0.075133073626079,0.0387518233627265,1
0.0686384161922676,0.0468998875106732,1
0.0195260076480297,0.0216954398544157,1
0.00888281608165365,0.0303979386035978,1
0.00448112571671976,0.0148495343419307,1
0.00608880542425038,0.0255654747442942,1
0.00574207950870234,0.0294632082117686,1
0.00513153343600704,0.030276769230006,1
0.00510732924634166,0.0288175669624629,1
0.00536186995293885,0.0307134260451891,1
0.00550385459960445,0.0249289913661538,1
0.00522420146459576,0.0149779184989607,1
0.00570326682022119,0.0132308123375771,1
0.00781810970240216,0.0126232958585987,1
0.0082718567257777,0.0105628247982043,1
0.00770372437120452,0.00817438117739876,1
0.00884523102302185,0.00977439094537524,1
0.00911619043114469,0.00976181225541951,1
0.0173779369622637,0.0160740163069475,1
0.0221965864289534,0.0203698049767267,1
0.0280529713524966,0.0238755899434311,1
0.0276006724720812,0.0223384323215313,1
0.0230852975452619,0.0173389885635934,1
0.025223128289206,0.0214176912713847,1
0.0216805135649471,0.0239840514709158,1
0.0176395173516054,0.0208105298540843,1
0.0168579222606271,0.0198216483156968,1
0.0148825865249221,0.0181878310606197,1
0.0146399224384895,0.0269564168203115,1
0.0135001310484707,0.0164614097226888,1
0.0143059960942491,0.0199500128644662,1
0.0115480435776168,0.0167212906952665,1
0.0154088297136913,0.0268206986679867,1
0.0161097570871491,0.0236361727500695,1
0.013801433248115,0.0209258687629797,1
0.0175444551708913,0.013582035801077,1
0.0221908090850061,0.0132746300013221,1
0.0220304793367516,0.0137911715169603,1
0.0219154655206209,0.0139163560411557,1
0.0284527948985117,0.0065887799163613,1
0.0888131744232244,0.0222296548320044,1
0.111857559856646,0.0228414204446938,1
0.100754692568086,0.0223397218646523,1
0.107886013635828,0.0216045691728513,1
0.104226845965983,0.0195087556626504,1
0.0990739346321035,0.0203970650573303,1
0.114108154396688,0.013642772426589,1
0.126797534069971,0.0119182737890906,1
0.0892128161334113,0.00792608131495614,1
0.068569595561299,0.00833553045690198,1
0.0796075345416682,0.010563500214196,1
0.0863842557501451,0.0144283252503325,1
0.0761374092541458,0.00828618029760423,1
0.0921146728787829,0.0126695461577991,1
0.0954102037299841,0.0132723480352819,1
0.0793720264394701,0.0109976231390846,1
0.0678114080421397,0.020728115621855,1
0.0570693416856697,0.0264857212220921,1
0.0540975613607593,0.0266131076299807,1
0.0779935112556785,0.0215413844733813,1
0.180733824976445,0.0406728511880365,1
0.345362975303292,0.0656449012337729,1
0.407781279903778,0.065795290895536,1
0.334524202229799,0.0582684371507631,1
0.285285040715208,0.0521774803218357,1
0.234767480051871,0.0397451960274676,1
0.215902061803488,0.0356519728727471,1
0.210145332926626,0.0326549204069345,1
0.258702548374326,0.0343114420814268,1
0.343531309603456,0.0503528465513587,1
0.315110951287325,0.043784787010186,1
0.231936914217419,0.0251738476872039,1
0.203787478053855,0.0246558222910106,1
0.183979091625698,0.0210355663898672,1
0.143115378188539,0.0152251626304265,1
0.103682229726715,0.00977676935598506,1
0.104533059456245,0.00894527549261138,1
0.122736150790164,0.0108592707964015,1
0.160647496731417,0.0159389495152191,1
0.185228737266225,0.0217394858859824,1
0.172177971010956,0.0241206082740604,1
0.163417352481566,0.0395159425627966,1
0.198804122353598,0.0469116268252951,1
0.202563628808579,0.0488332583639502,1
0.138164934845564,0.0528795489437609,1
0.0489003473407632,0.0355209261852629,1
0.0314040523737789,0.0307493595774648,1
0.0275911247479505,0.0330585891926593,1
0.0293240930820664,0.0357385417966645,1
0.0296542033938236,0.034786725840696,1
0.0246157120326469,0.0326465160032361,1
0.00966326518859549,0.0148039333729056,1
0.00767623230972194,0.027877009153966,1
0.00795946642821979,0.0386230966603231,1
0.0104456574364516,0.0355549168805946,1
0.0311987498121397,0.0574898480304985,1
0.0360125513328928,0.0399513320014744,1
0.0343005880781601,0.0371220827129841,1
0.0333060458485919,0.0360269888605738,1
0.0289466212294047,0.0296940174010328,1
0.0231224477161781,0.0231978182839055,1
0.0197943936337865,0.0196110844198393,1
0.016870521143416,0.017228867737184,1
0.0205767003511334,0.0174714007136114,1
0.0216988658266713,0.0177223140163055,1
0.0142776837893967,0.012356236220325,1
0.0156016678258625,0.0208364025584502,1
0.0139841005576073,0.0212333707292916,1
0.0135497604969034,0.0218129544886886,1
0.0110480821485726,0.0180527015459312,1
0.0174713923569693,0.0192700865675844,1
0.0182176551500585,0.0131140832205509,1
0.0158986281514585,0.0110379601971397,1
0.0147365938346498,0.0130339766289435,1
0.0143458156784152,0.0154522519944939,1
0.0164811691576481,0.0199361731904843,1
0.0198719008202442,0.0237380849352512,1
0.0268553715869296,0.027928243615616,1
0.0369835999715879,0.032682709187215,1
0.0376666161402907,0.0206604728581461,1
0.0399806487516307,0.0232820254703688,1
0.0382501000147114,0.0252594477546364,1
0.0327263655137765,0.0202911744375658,1
0.0293187187779294,0.0138708320569287,1
0.0331516925680936,0.0153358677241409,1
0.0368455878822876,0.0173207966945843,1
0.0370825220973797,0.0179589838973375,1
0.0364298401681975,0.0164222026606235,1
0.0605391062355879,0.0161712251370924,1
0.141452228049126,0.0458951595203246,1
0.162835801768511,0.0509970594169335,1
0.212663581621611,0.0677094192444316,1
0.237915788147059,0.0446422590513917,1
0.248844273130722,0.0354224334014628,1
0.219879562125798,0.0244318998554046,1
0.174910551436688,0.0168663572562447,1
0.134920483792368,0.0128143531835071,1
0.11129142568633,0.00970524187406479,1
0.155663266239572,0.0121385179834209,1
0.155584610060498,0.00846834979817646,1
0.169915817064596,0.00973849661278204,1
0.162900767982385,0.00898004091986506,1
0.170851718124669,0.00950242544442624,1
0.148987645235193,0.009113729472768,1
0.153108766188856,0.0123306654633567,1
0.146024525593018,0.012313060336374,1
0.148836406976694,0.0123800374002701,1
0.163855458701052,0.0137325727481258,1
0.141326456775747,0.0135928543549064,1
0.132500918330228,0.0211701668371859,1
0.12359135421381,0.018151730505944,1
0.12014903551481,0.0171664956420489,1
0.108185690908017,0.0208046560744014,1
0.0903597995810201,0.0137782295989303,1
0.168534630449096,0.0149071024058968,1
0.340693279678531,0.0248636904245249,1
0.339815681781662,0.0232974199140449,1
0.302433031746445,0.022022563033407,1
0.244412552559401,0.0201940894680721,1
0.228365358716281,0.0187704845928016,1
0.232622927596076,0.0205232286546454,1
0.246530273346655,0.0170303274946951,1
0.217925454950423,0.0137482736628978,1
0.203676631026112,0.0141036426081524,1
0.176884959786513,0.017812526274841,1
0.0929021516450137,0.0111256933621862,1
0.160364621014213,0.0200273934309726,1
0.1955512032712,0.0182182711124532,1
0.199251543142044,0.0173990363920983,1
0.214591512291262,0.019063603508766,1
0.256402378893705,0.0218433230124475,1
0.230098982066182,0.030577091722606,1
0.245486936975044,0.0365785164615447,1
0.196311300305197,0.0334055184953808,1
0.135202199663441,0.02883005957758,1
0.12660209294931,0.0260191522620777,1
0.129892048716499,0.0294027813958585,1
0.117461994784445,0.0529851621619042,1
0.0470668416839309,0.0430986780362034,1
0.0197791567382314,0.0183562368301616,1
0.00475521079600352,0.0174920326621977,1
0.00408265690431165,0.0152073418276353,1
0.00403307830742876,0.0227280598172695,1
0.00369535097588461,0.0273030763381832,1
0.00995888595659924,0.051154122637059,1
0.0151417979633801,0.0330980365104083,1
0.0161191987944097,0.0256742102030245,1
0.0154720654420491,0.0212998441240664,1
0.0133439107424836,0.0190007529195476,1
0.0132961778350582,0.0184451189681861,1
0.0142263891269762,0.01913566283138,1
0.0147928324178212,0.019608057240714,1
0.0155271457468368,0.0199617728702446,1
0.0153384817886786,0.0195043088846391,1
0.0109582093805165,0.0156951964659724,1
0.00929044608438744,0.0158943058154804,1
0.00874721931158835,0.0178532693075551,1
0.0109105614819038,0.0224709415751029,1
0.0113940936606009,0.0177485537235463,1
0.0141695703211723,0.015586173096138,1
0.0142005908787728,0.0120252459124695,1
0.0133430574747028,0.0110773603282167,1
0.0119444461994774,0.00959591688175744,1
0.0128367598294084,0.00939370516352139,1
0.017166705704473,0.0162423193081311,1
0.0183255256928491,0.0205767057112665,1
0.0184582012709544,0.0220238292089281,1
0.0167983393776432,0.0217207938525157,1
0.0170067586169682,0.0246791305717531,1
0.0111950167030348,0.035929030434237,1
0.00530394017977502,0.0314349286647193,1
0.00436344587893557,0.0265744213979966,1
0.00296285041390108,0.0201805210749482,1
0.00173431115828968,0.0165242795970949,1
0.00326376222819569,0.0223936562342556,1
0.00391406865017542,0.0196823610889582,1
0.00388662531878668,0.0202329482178119,1
0.00375132757038041,0.0218651674772614,1
0.00390525859041917,0.0184108901661095,1
0.00462310105585481,0.0200162865087673,1
0.00463027682305216,0.0186816851379717,1
0.00575344966725617,0.0199855295544569,1
0.00560065508862462,0.0175034139509943,1
0.00508440741100419,0.0175022517894091,1
0.00388251343341589,0.0172685927717525,1
0.00354671639295799,0.0188185628325908,1
0.00388597367662955,0.0205078426819471,1
0.00307092388813821,0.0169950446574684,1
0.00260709589953073,0.0194083872705602,1
0.00398666059906506,0.0201664261741263,1
0.00439280644571298,0.0137276687763795,1
0.00473162735806696,0.00817361809277243,1
0.00960740747851247,0.0181776944791785,1
0.0101140196517324,0.0174922559511079,1
0.0111669607366437,0.0188338279010913,1
0.0111132628768707,0.0161286326893177,1
0.00974262497044064,0.013356945994735,1
0.0095694232547705,0.0109273639688463,1
0.00866028879517524,0.00880949095487877,1
0.00850162120854774,0.00933616388042682,1
0.00934201047172457,0.0117734100918188,1
0.0137074637850012,0.0239731657930283,1
0.0165505337507511,0.0301635619425638,1
0.018552704498764,0.0366275421973593,1
0.0194563293699655,0.0392519179777361,1
0.0243755629932386,0.0530379877063752,1
0.0236626651398049,0.057901173513208,1
0.0239340962699696,0.0685556656114946,1
0.023467053823233,0.0545967636053635,1
0.0127924402306091,0.028292609159609,1
0.0230311221702501,0.0504680539983254,1
0.0325298385557591,0.038893457627497,1
0.0407570243449067,0.0235358880925743,1
0.0442963371636756,0.012841684303284,1
0.0486906109750224,0.0138054728179268,1
0.050855439018859,0.0108402003944406,1
0.108322434847988,0.0173905569242366,1
0.172126408114813,0.0254324400885279,1
0.198569001756095,0.0237428587146927,1
0.196986152363192,0.0234582573138381,1
0.184276742431557,0.0198730812600218,1
0.14581787217184,0.0151699111128017,1
0.144557464620475,0.0145960080651262,1
0.132836778886566,0.0170963143661188,1
0.081112594316225,0.0101180705034226,1
0.0648746122718433,0.00761160993222383,1
0.0685977689791142,0.0109657605437473,1
0.0795233538083568,0.00759442943612889,1
0.0989136207107506,0.0124500842660641,1
0.106298778992783,0.0155017116763637,1
0.1042590484385,0.0165610194291022,1
0.0893847529248309,0.013187277771542,1
0.0877601611757853,0.0116397032586622,1
0.207541688036421,0.014564779618944,1
0.339903203123939,0.0179967816442794,1
0.305009873021283,0.0144322004801602,1
0.251376119245777,0.00972304981727564,1
0.262682710467025,0.0100624197350178,1
0.265489819644386,0.00983377557332239,1
0.278939767586175,0.0105404344837833,1
0.298949800046709,0.0120558477351362,1
0.306662237160718,0.012272197609659,1
0.294856653254826,0.0121713035781202,1
0.261509855967668,0.0216204698295019,1
0.165263332380145,0.015253845733149,1
0.170897603523975,0.0153530783791138,1
0.13212269996561,0.014476315223998,1
0.0738052999541107,0.00872256893850409,1
0.075511762475877,0.00761646132095695,1
0.100110576199912,0.00980117025208642,1
0.100387571818451,0.00847632322858063,1
0.132117664848319,0.0115136747070655,1
0.126357006887236,0.0124839961030755,1
0.146018630518768,0.0113670597674105,1
0.171261193836726,0.0118052462926905,1
0.164756933782979,0.0125803012391845,1
0.193729568927855,0.0119884957911067,1
0.253154784088258,0.0162948629181689,1
0.304068817334938,0.0216997212724909,1
0.342550239006524,0.0243912723841291,1
0.366128657625866,0.0297433687376917,1
0.258314124881603,0.0221677332406178,1
0.216035269891586,0.0175210060941606,1
0.204788563206871,0.0198858252579932,1
0.209961975423595,0.0281421817723125,1
0.0648938722059509,0.0100381096740424,1
0.0167625764627877,0.03260692332862,1
0.0121579111569201,0.0312144544896377,1
0.00479568035044336,0.0280846331141104,1
0.00566609245159823,0.0301087064158485,1
0.00595547951601093,0.0244180115751622,1
0.00494390323881391,0.0216444613493744,1
0.00431676217142588,0.0201798813366423,1
0.00338998425794755,0.020725950326353,1
0.00324219615442107,0.022841547820881,1
0.00345729213809419,0.0237070498538307,1
0.00354614596095983,0.0206869857030725,1
0.00381841428437828,0.0234597447322036,1
0.00877182526915221,0.0368272321438579,1
0.00869843881602719,0.0243519601142995,1
0.00848354752742062,0.0288964786354831,1
0.00826273005725719,0.0285689807990093,1
0.0100242286126215,0.0221869181602834,1
0.0186728848125132,0.0328475470515628,1
0.0333676411777711,0.0333741281345338,1
0.0302477703477198,0.0211266072434654,1
0.0262856309795749,0.0185631997878207,1
0.027352301419984,0.0196904905934417,1
0.0268845541276675,0.0181353100696959,1
0.0285624155762888,0.0222982142618769,1
0.0282304544890715,0.0220273304758179,1
0.0271276821228423,0.0157850366060287,1
0.0279333873502053,0.0181373269222784,1
0.0261983044870684,0.0176499091844497,1
0.0179651527053437,0.0113678687663454,1
0.0400405840735375,0.0277158972873302,1
0.0437728103095843,0.0276870815605152,1
0.036379921175697,0.0229227656110642,1
0.0319473956352109,0.0204054783997803,1
0.0408420190770469,0.0254280900347007,1
0.044362750642749,0.0237997835589993,1
0.0358354437348923,0.0246820104334776,1
0.0227645249219812,0.0123347010691715,1
0.0217091483452765,0.00992391073808361,1
0.0201643042746438,0.0118737934553153,1
0.0305311688615926,0.019900694754522,1
0.0427608869647995,0.0247240334079632,1
0.038861688594854,0.0209048823372034,1
0.0403919385257872,0.0213069859013043,1
0.0461535408083352,0.00784138982422735,1
0.116460085879926,0.0212687412148422,1
0.14859519116355,0.0236831300076565,1
0.226365691934778,0.0337677858021141,1
0.200886089172401,0.027127475142427,1
0.250304663896003,0.0222198006699794,1
0.356318637181266,0.0300446863397501,1
0.390496297821798,0.0340341608611525,1
0.398237798523171,0.0385601960313517,1
0.25497557844867,0.0182503829514041,1
0.158957982263911,0.0106083258519676,1
0.162055312973033,0.0095230532696606,1
0.14441549365243,0.00577411569506655,1
0.215923476004501,0.0101436285193233,1
0.171127652149869,0.00550679726106209,1
0.170374617165261,0.00797990125546993,1
0.177884374773537,0.00694411014518876,1
0.194458939329153,0.00541676795045182,1
0.302750401695457,0.00866337728509101,1
0.388518827759811,0.0125100868025406,1
0.407938649496446,0.0160488183938608,1
0.404236380393978,0.0146654806183149,1
0.395343337631943,0.0199802233425754,1
0.285355608347821,0.00907295164490322,1
0.385406200253675,0.0158450850931131,1
0.394899511557107,0.0139878267226396,1
0.365269169569143,0.0133792440955556,1
0.372233798791909,0.0173557977730586,1
0.378295963996175,0.0142604709721016,1
0.361499637069788,0.00727012852610202,1
0.460302307904318,0.0103218958553805,1
0.570459155817194,0.0142658978659393,1
0.735303278048859,0.0170584631136941,1
0.844578321595408,0.0267454008367779,1
0.667843659457908,0.0217462217035196,1
0.57660781856296,0.0195871916618278,1
0.54653865167909,0.0201629022061255,1
0.574468183204646,0.0190514094648177,1
0.338909668031607,0.024859590958328,1
0.0505347731543127,0.0476020251368959,1
0.0256434576742444,0.0417704880330356,1
0.00346349557607796,0.0190200070393419,1
0.00242391193187481,0.0349678490760417,1
0.00361331365596502,0.0472420711216061,1
0.00444952606680799,0.0383708049085079,1
0.00433327547019859,0.0405450932336261,1
0.00466438475526939,0.0482033841909274,1
0.00458437488522159,0.0467373578781,1
0.00375408611363003,0.0461565506641581,1
0.00576299444265671,0.0207203583218434,1
0.00966462067127914,0.0194361710382818,1
0.00971104524672718,0.0171006237749648,1
0.0153014768024844,0.0215473556986318,1
0.024678662175149,0.0293551819662008,1
0.0252037291007354,0.0258131767716379,1
0.0241122437206239,0.024845706685938,1
0.0207719077402643,0.0224568813987636,1
0.0181084483521927,0.019399379874143,1
0.0131558337132186,0.0127242399461397,1
0.0114487149403227,0.0170816041067281,1
0.0108503562751423,0.021515709137415,1
0.0101433647418521,0.021105764942689,1
0.00999452357927318,0.0178937435989223,1
0.00942877113386656,0.0203740228869948,1
0.0170519488083502,0.0401802771620912,1
0.019060650692862,0.0315797880858124,1
0.0205387462419181,0.0294783290268268,1
0.0206985380391253,0.025964566685642,1
0.0191068797746127,0.0243709155715506,1
0.017155588102429,0.021099575275899,1
0.0186478299931581,0.0215996617724117,1
0.0124686891975527,0.0123879317140802,1
0.0120910451959401,0.00962658746762426,1
0.0161059463281909,0.00639142625030666,1
0.0199368318804063,0.00944018934789445,1
0.0187667883175292,0.00901979581103797,1
0.0230901474911826,0.00878571848333379,1
0.042248400836356,0.0146521884644509,1
0.0430940222470142,0.0107554553368244,1
0.0445996235985543,0.00532780010718881,1
0.208502786402756,0.0139734436875565,1
0.350946768743648,0.0222696186857824,1
0.473335887948043,0.0291591932594004,1
0.554137766095216,0.0329046484714095,1
0.484061399986834,0.0256217349348553,1
0.424092478401374,0.0226794900575693,1
0.3817690569031,0.0217825559391659,1
0.364795670777542,0.0216370277358524,1
0.252503270478376,0.016639153121753,1
0.0924950711916151,0.00523757489726141,1
0.0804535363710339,0.0131055516425125,1
0.11693625523142,0.0214078395921654,1
0.111623659773649,0.0214050977167659,1
0.210704134442092,0.0240472743159547,1
0.246219061356297,0.0182773829079939,1
0.236519879003158,0.0136944428030677,1
0.332293302954447,0.0191201873014093,1
0.345704497844886,0.016183478022284,1
0.352523058519702,0.0164796919921012,1
0.361933554396039,0.0168785522450553,1
0.364696342281459,0.0159563323638444,1
0.367734108587394,0.015370496457973,1
0.382119172033451,0.0101639368447296,1
0.301651979567882,0.00936240331600645,1
0.226941564264757,0.00811091158387768,1
0.254457766906375,0.0135126655149121,1
0.276116441181073,0.0142122287847464,1
0.290955806631659,0.013513404028579,1
0.348644090706018,0.0116972052845054,1
0.371088223451137,0.0103100749736717,1
0.371273353020019,0.0111359257422487,1
0.361337739504973,0.00912834219113765,1
0.376322610179134,0.014730870458246,1
0.3579061109559,0.013875313686541,1
0.452412747859519,0.0212470723602814,1
0.535208506734207,0.0264570322952621,1
0.455086936695192,0.0226132504593248,1
0.312245373328442,0.0180263402803141,1
0.334102379732148,0.0269671288260336,1
0.361742992398594,0.03707572043777,1
0.274053335696239,0.038538303530468,1
0.150881514975289,0.0376405080030389,1
0.114382603721456,0.0335914013496141,1
0.0551570655406648,0.0298761036110835,1
0.0515247467901409,0.0247185650355537,1
0.0490114488293409,0.0286671760472621,1
0.0490219991989057,0.0405224368833943,1
0.025866439442487,0.0313043269133271,1
0.0158717811711325,0.023728981620011,1
0.0053729977397682,0.034415150405073,1
0.00675529459670645,0.0582017100092887,1
0.00522413450005275,0.0483226375434412,1
0.00354243439341684,0.0406696801466325,1
0.00200481867364453,0.0486019215666181,1
0.00217852226852484,0.0534144381298815,1
0.00197969909964907,0.0478850870236551,1
0.00223332762776182,0.0236066704340619,1
0.00367729182266908,0.02540169657018,1
0.0041289605890362,0.0217004376452307,1
0.00479626819784115,0.0114046208746883,1
0.00719842807918701,0.0169961381492597,1
0.00696277956737761,0.0150988372677795,1
0.0097424214512473,0.00865096906624079,1
0.0263459209214577,0.020628564158073,1
0.0272421125821126,0.0183216440092682,1
0.0262857287052293,0.0178107817305915,1
0.0246033923084587,0.0164976627345334,1
0.0245207392375296,0.0170987801854826,1
0.0181941997083184,0.014498245197075,1
0.0268672396483872,0.0104203063033513,1
0.0462227211150411,0.0156602022724184,1
0.0431461303486072,0.0158504075937063,1
0.0437001545899766,0.0191274274031646,1
0.0433986606205076,0.0213151408418219,1
0.0624314749271599,0.0199061105807618,1
0.085139692999653,0.0197450633645938,1
0.0758047436312285,0.0135581418050875,1
0.0724360182074435,0.0128121614842718,1
0.0642570915535925,0.0103906622034259,1
0.0735432828257459,0.0191424430453608,1
0.0749612100813235,0.0176982289427227,1
0.0941516673208667,0.0138041625346579,1
0.111625702923637,0.0161457946312659,1
0.117189986785031,0.0161461387338227,1
0.107989683171979,0.0176218511325808,1
0.0900296903031658,0.0161771393190389,1
0.0928999414301802,0.0172966649654349,1
0.0998716926015161,0.0208803035853003,1
0.124534835290802,0.0261734173031535,1
0.115990430992027,0.0219963454884358,1
0.108688136324988,0.0167734817226405,1
0.267913412769614,0.035959189240116,1
0.349255182849018,0.0323226188427247,1
0.425347824135293,0.0324556455478099,1
0.49023636063518,0.0426010102026406,1
0.41105619112691,0.0305840479388695,1
0.333535420483753,0.0207337962142765,1
0.354650546750201,0.0211417414887785,1
0.347487931699224,0.0188116294040058,1
0.337929070908697,0.015752206780677,1
0.433947368770644,0.0234499370073361,1
0.441757518134091,0.0244762590220518,1
0.418278772428814,0.0245228701226328,1
0.378954215699023,0.0282087546269153,1
0.239626831469225,0.0175919174033673,1
0.162927561956427,0.0135035596838215,1
0.158012664080084,0.0142648151395925,1
0.156658249128289,0.00748238721403001,1
0.330226302692976,0.0179810211497265,1
0.541605886544751,0.035360575260088,1
0.471694509468138,0.0178510920964391,1
0.401577052704988,0.0156851620734376,1
0.371373708286107,0.0136146992511801,1
0.326326024952534,0.0105196218010855,1
0.377986107976666,0.0109639653265872,1
0.428781435042228,0.0087829037470099,1
0.444336696479895,0.00978411853103457,1
0.488408750232529,0.0151265392348087,1
0.512786303800696,0.0171998102799445,1
0.435162525544623,0.0133995840151075,1
0.533444321198353,0.0210267635810262,1
0.542846713448886,0.0154127090427188,1
0.55346630380662,0.0161170290744569,1
0.549123986291294,0.0165425934197363,1
0.40217182266752,0.015289597535781,1
0.226041873839116,0.0115400588284919,1
0.266139700202872,0.0155191458084653,1
0.283139869849942,0.0150874590975323,1
0.30905626695171,0.0154934661742926,1
0.339238004805047,0.0206992584183016,1
0.366038877929067,0.0203479510863145,1
0.336372168643362,0.0755708508560096,1
0.163366285621708,0.0461745107219687,1
0.0803122057616728,0.0428037911604366,1
0.0565473777958431,0.0322348784273359,1
0.0421216596495359,0.0262960552770799,1
0.0387440440513603,0.0231771898845197,1
0.028652193311697,0.0180910217707864,1
0.0301894515694306,0.0265434450161726,1
0.0296456919414566,0.0242416183689965,1
0.0289571990471882,0.0303135166728395,1
0.0288071425709973,0.0330197250962055,1
0.0291183158953336,0.0363454582840488,1
0.0261686969093525,0.0297164804437706,1
0.0263507175488105,0.0326062104217518,1
0.0268061357398149,0.0301945472559685,1
0.0273137931735919,0.0316172109591769,1
0.0203848687579579,0.0278623107020511,1
0.00894461921760433,0.0161835164812946,1
0.0117066003830189,0.0124704132669262,1
0.0200354253095889,0.0128574546988192,1
0.019791039188414,0.0116757134463797,1
0.0266278021071694,0.0136078157457456,1
0.0261525736779515,0.00962432081371138,1
0.0259095277095811,0.00350612288997768,1
0.0416681453182201,0.00823035053566085,1
0.0402565721732205,0.0076108489810074,1
0.0482847055320012,0.00851372915576921,1
0.0448325088750093,0.00764168851821729,1
0.0444680648597095,0.00756188406135707,1
0.0485249056704582,0.00982084349790063,1
0.0428631035361888,0.00816005205430828,1
0.0536650520406252,0.0124188316886569,1
0.0545106771490902,0.0145991041580864,1
0.0493247030030982,0.0242987017973164,1
0.0359305831569244,0.0193512874891836,1
0.0459863893910364,0.023372525614572,1
0.0466323687179213,0.0296303467913941,1
0.0507874799942104,0.0317079832272083,1
0.0506997537641574,0.0479695536673477,1
0.0476550506478712,0.0398823841006857,1
0.0481101450966746,0.0363140039256761,1
0.0337334385846665,0.0237595993269049,1
0.0259760455707154,0.0197849323621469,1
0.0237722477261482,0.0175460505670766,1
0.0212707707093778,0.0172110629439446,1
0.0184952898454995,0.0209182840553686,1
0.01345207608743,0.00765108229213908,1
0.0609056283077205,0.0256842430549664,1
0.0769380520961824,0.0215124694070339,1
0.106257721509964,0.0141449597791453,1
0.216889324683741,0.0242351167275492,1
0.2306730004618,0.0238168484265304,1
0.379352058321432,0.0313516552042666,1
0.380047000372465,0.0170333218733714,1
0.333777710059441,0.0151624806102913,1
0.256797405126557,0.0113962016185638,1
0.202318748128394,0.00868992054246289,1
0.192726971945812,0.00818594353247579,1
0.248536124779374,0.00979379119588145,1
0.240944593275753,0.00892999491212197,1
0.2437708731503,0.00991186777345255,1
0.266267236660719,0.00899513359605112,1
0.296843111460181,0.0122729044404851,1
0.296630973440414,0.0154836003895033,1
0.324953852623938,0.013509926287486,1
0.388902174034097,0.0163260258830473,1
0.405755013549823,0.0139530189153813,1
0.408707891010791,0.0145031328638435,1
0.36320252464079,0.0165833880178794,1
0.384836757446554,0.0183913875495824,1
0.368420313803951,0.0151497399183611,1
0.345598905513097,0.0210480809910453,1
0.285528490536112,0.0174608981295436,1
0.254840938499022,0.0177709814090713,1
0.232842750965088,0.0244852881417509,1
0.143439184717927,0.0127476287537088,1
0.131887242056736,0.012728576036443,1
0.156416575080027,0.00965402884692966,1
0.154955115650478,0.00941231491493413,1
0.126597025738639,0.00733432214863853,1
0.137185289360649,0.0059857888735013,1
0.152057219304528,0.00720155341584867,1
0.138502872022963,0.00603580447550557,1
0.173854083518558,0.00833800205440749,1
0.176102673275889,0.00685266522610209,1
0.18438386891296,0.00524948035808025,1
0.249375288415343,0.00941911456377036,1
0.292417345917461,0.0164883832267445,1
0.328965522955535,0.0202335535170057,1
0.414654711422695,0.0242214701200055,1
0.425487978219801,0.035438826709168,1
0.320107863406459,0.0272342424995879,1
0.255371177962922,0.0220651898204118,1
0.264260999127065,0.0235083367574791,1
0.144482348248197,0.0253265632158049,1
0.038498931532835,0.05719151164937,1
0.0314833744550514,0.0506905769500836,1
0.0223891845239302,0.0459465466283719,1
0.0115715342460787,0.0474966666940954,1
0.0106281337909931,0.0366191701728679,1
0.00905916463281056,0.0362222659361604,1
0.00391165063768091,0.0245986566852553,1
0.00309404676603431,0.018097463266175,1
0.00286873594371786,0.0248931816022726,1
0.00276873107177621,0.0211261618128797,1
0.00269349311069025,0.0203619461313287,1
0.00287244230214128,0.0200028617360187,1
0.00309952519688811,0.0186294067534948,1
0.00253662287479355,0.0145587140564465,1
0.0024657279214935,0.0204459262745592,1
0.00168360505982459,0.0179714183734278,1
0.00154319360307931,0.0193717623199108,1
0.00247717300808503,0.0209319043801231,1
0.00343872680923302,0.0289625999912735,1
0.00980814383282816,0.0337243324335596,1
0.0167727760221652,0.034068798578197,1
0.0190369393392042,0.0414941395093935,1
0.0182532550298977,0.0441962566742025,1
0.0195455018089184,0.0474333791273907,1
0.0244855013712556,0.0511352051774861,1
0.0220145194589776,0.0211505388815996,1
0.0177173171305693,0.0178369795994779,1
0.0169294438027599,0.018280092484267,1
0.0176644992656829,0.0162002951652486,1
0.017056029128491,0.0183776063835601,1
0.0165172490962968,0.0198859216087489,1
0.0165005750598449,0.0195711508371442,1
0.0160920232378076,0.0187000381813276,1
0.0148712909582072,0.0168288791112761,1
0.013352589267795,0.0120260227368572,1
0.0139153641208306,0.0193731449344439,1
0.0126745817744834,0.0172511202076709,1
0.0120400410889674,0.0125297309895236,1
0.0179603229925908,0.019927430438186,1
0.0228938538381519,0.0206088505786361,1
0.0212928225816353,0.0197321161372417,1
0.020493376007304,0.0189213539818876,1
0.0197186772101076,0.0176148539613258,1
0.017271548052107,0.0152517654355155,1
0.0159602373334945,0.0178144864986046,1
0.0164240925271238,0.0236392146468164,1
0.0133254153311978,0.0152203124125952,1
0.0132991772199926,0.0176098292658558,1
0.0106575319401612,0.0140045827219833,1
0.00840664930675503,0.0113030905893752,1
0.0105283570772994,0.0109855204584616,1
0.0140090915441166,0.0115060872820069,1
0.017160230945356,0.0108866909908402,1
0.0208627294695055,0.0115704745858864,1
0.022019485830138,0.0111081155981503,1
0.0232443950926545,0.0116097319464137,1
0.0304208065263057,0.0186445469743743,1
0.0380961050957765,0.0240731406254479,1
0.0389220990188846,0.0175236861746253,1
0.0380507075093621,0.0166121265221843,1
0.0436565505601945,0.0189326708188007,1
0.0366068014468526,0.0205841608352649,1
0.0226350853275832,0.0151958977998198,1
0.0232812668815043,0.0177079205471828,1
0.0193703026678114,0.016196126234284,1
0.0179264329581693,0.0168277159903474,1
0.018987636388613,0.0193055820503672,1
0.0199116645521412,0.0200948333372047,1
0.0166806711632005,0.0472076485000891,1
0.00241204581852268,0.0263665263996651,1
0.00149802475038597,0.123739825215133,1
0.00142792750488934,0.141439507285405,1
0.0012262782879241,0.153413138061639,1
0.000898361090288783,0.249686506096741,1
0.00014678833077601,0.250540611012475,1
9.2105978024486e-05,0.519192418376416,1
7.97576709943191e-05,0.355865971883532,1
5.19667295699082e-05,0.305914492688506,1
5.57701713650771e-05,0.272904820521137,1
7.44456198094484e-05,0.234814358590213,1
0.000635206573668703,0.0511734355750452,1
0.00183926494436264,0.0494135793018183,1
0.00177468588051027,0.0446695204712686,1
0.00169094146360111,0.0412193098106042,1
0.0020204824850694,0.0380683827160174,1
0.00206534110475434,0.0294269007482238,1
0.00209495244215173,0.0300407745233109,1
0.00203477867282171,0.0294473966798414,1
0.0020376681712471,0.0300592970839393,1
0.00224313495782105,0.0317695766463634,1
0.00206207209170122,0.0545128375423546,1
0.00106120458303474,0.0573214265722336,1
0.00114944357630583,0.0640602942699075,1
0.00120491454873882,0.0734224608270873,1
0.00044812039377845,0.0922549735406364,1
8.98254871471667e-05,0.286604189000172,1
8.12599492943906e-05,0.293592576956938,1
5.06340595603857e-05,0.315223359127426,1
1.52936217892755e-05,0.254603163102123,1
1.65811792897022e-05,0.330738480453569,1
7.44880817006651e-06,0.32395758626054,1
4.26359452519377e-06,0.37534877079428,1
3.94534424547563e-06,0.409181099333501,1
3.57377894071734e-06,0.4656408317369,1
3.47883208237939e-06,0.520507889266544,1
1.16106882076853e-06,0.336088467670767,1
1.42101727473866e-06,0.346840516385565,1
1.65098013945332e-06,0.369187130136144,1
1.25775804153694e-06,0.335726543564478,1
1.12681994775347e-06,0.34788281496521,1
1.11271592245846e-06,0.348935977485226,1
1.79181869845172e-06,0.40121670737499,1
2.67752149860504e-06,0.44359166802618,1
2.78621404016078e-06,0.448612881638146,1
3.00661959775139e-06,0.42204489451667,1
3.04833405724141e-06,0.434261539487131,1
2.78468438007204e-06,0.465892214674941,1
2.46332644448664e-06,0.433117203329767,1
2.13448647310776e-06,0.405330699323184,1
2.12888801081755e-06,0.407712840553764,1
2.05571245820122e-06,0.401804537636745,1
2.05677217391329e-06,0.402502215205248,1
2.39460878372127e-06,0.446483070308313,1
2.30168987328988e-06,0.424617456769957,1
2.03053285368317e-06,0.455874192869032,1
1.83939582159395e-06,0.432560182238191,1
1.71784143135758e-06,0.408350515778679,1
1.67587884022441e-06,0.417584729109931,1
1.33560671901036e-06,0.378457544015603,1
1.36959860305692e-06,0.382403342756442,1
1.9395011862184e-06,0.446917686466483,1
1.95352106692254e-06,0.482276364023274,1
1.64887829614667e-06,0.456847693623855,1
1.6612111094372e-06,0.470353155243449,1
1.47655966403905e-06,0.441409238893083,1
1.36104495742877e-06,0.435833669494938,1
1.02660247469667e-06,0.404467329733946,1
1.01824014729617e-06,0.409513688433777,1
9.69261668749627e-07,0.394687339669113,1
8.68992317072895e-07,0.389484728591326,1
2.77493550165389e-07,0.27411461921221,1
1.51417748401934e-07,0.245390215601567,1
2.12794584446626e-07,0.24865949299451,1
1.1539943484746e-07,0.231552886582587,1
1.7108569241826e-07,0.233803280190261,1
2.44162169523841e-07,0.242543268153324,1
2.64582100462771e-07,0.253383072721427,1
2.63189096250931e-07,0.257276618563074,1
2.64973720776663e-07,0.262113673534921,1
1.26495385918823e-07,0.240639973681473,1
1.62974786524615e-07,0.242831767330514,1
6.82673290376919e-08,0.221337211075549,1
4.99377268824464e-08,0.228065965614142,1
1.41829820238805e-08,0.218086567297043,1
0,0.230613741885439,1
1.60902805057736e-07,0.269579467112366,1
1.83603370742256e-07,0.258719189835572,1
9.97302442423655e-07,0.369154918531398,1
1.3594961908239e-06,0.365754746280909,1
2.71223955679746e-06,0.427776310404062,1
2.70128038813622e-06,0.398301829732999,1
4.0329326909754e-06,0.253278548946688,1
6.13899114814463e-05,0.419925613037802,1
7.82787670493251e-05,0.296298010979824,1
7.65528285041948e-05,0.29411100867637,1
8.15106227368491e-05,0.230246805508684,1
0.000127684482353811,0.218992348386985,1
0.000117278510853976,0.169567905356023,1
0.000108994968729843,0.118542635206945,1
0.000314349839581544,0.135570773589164,1
0.000557116601774643,0.166962730639671,1
0.000553587629765297,0.12092086496086,1
0.00120079422866363,0.113422597066319,1
0.00139926240517611,0.0954775863928592,1
0.00143184028555775,0.0905487347829704,1
0.00127433396210604,0.0666490598071666,1
0.00137715764051449,0.070323677037463,1
0.00127384117291582,0.0681293483844096,1
0.00116607468864068,0.0687638838818657,1
0.00118434425584467,0.0694523074414319,1
0.00120219106695855,0.0666378113696205,1
0.00124387385505724,0.0686674283736476,1
0.000891362273725095,0.0705169948811137,1
0.000720767723540678,0.0733084016829051,1
0.00163208532150536,0.0278577580898113,1
0.00396227828036214,0.0358313362093489,1
0.00369087625258481,0.0321074353772522,1
0.00341070087777909,0.0299658054284771,1
0.00325503103887266,0.0293298906054255,1
0.00325793765977329,0.0309138593335001,1
0.0035168593108401,0.0334793831997756,1
0.00355468231202757,0.0331253591103733,1
0.00355070571749331,0.0321339410784602,1
0.00357379218887194,0.0324536455510213,1
0.00353963251608252,0.0458738787176387,1
0.00334669958345973,0.0565499727095798,1
0.00361384357670806,0.0566903858605035,1
0.00499492554518602,0.0708151414358442,1
0.00569436004884781,0.074306785680812,1
0.00777918170685541,0.0721981567472741,1
0.00731055612582629,0.0343003706916254,1
0.00555339450667792,0.0255326707928529,1
0.0049172195288561,0.0203158786660205,1
0.00520076123581807,0.0168633218169939,1
0.00639110320042397,0.0246857754348132,1
0.00699686789947263,0.0287618416975595,1
0.00732605237019451,0.0309787733581255,1
0.00744924546241939,0.0319486348372054,1
0.00736417172635342,0.031192530093334,1
