Activity,Complexity,Tag
2.92716898481826e-07,0.0955343569610186,0
3.13541548321403e-07,0.0943689434275085,0
2.31900671432119e-07,0.0807684877174857,0
3.43087025782192e-07,0.103659030494812,0
4.29588530039291e-07,0.112903672588302,0
3.90233996103813e-07,0.107516864973868,0
4.70954044243581e-07,0.10815224658244,0
2.16153615389128e-06,0.188230587702235,0
1.11891629189304e-05,0.353184652004342,0
0.000193906008267671,0.0459520371006974,0
0.00063888464246824,0.0441576981410776,0
0.000628661502737918,0.0354804448314624,0
0.000620061894325833,0.0355545265526266,0
0.000620225369627971,0.0366261913578914,0
0.000621230636733142,0.0374387131838106,0
0.000614673836528012,0.0379764037966144,0
0.000607222504771015,0.0383620565368482,0
0.000604010291606111,0.0373242242367313,0
0.000606006115115739,0.0370407702763382,0
0.000490085511888436,0.065305053772976,0
3.97709570754119e-05,0.0485294298136634,0
2.33252622101753e-05,0.151624891022193,0
2.45799381662583e-05,0.156194804180922,0
2.20450811947609e-05,0.147263997061197,0
2.00658987423273e-05,0.12944631448586,0
2.1082447409635e-05,0.130868520400729,0
2.41760936188228e-05,0.102708082427974,0
3.63208595185127e-05,0.094614542328125,0
3.84021042505641e-05,0.105205987119567,0
3.40931803278317e-05,0.111671653841304,0
3.34806119481664e-05,0.116201529729038,0
3.57040266660612e-05,0.124317015513361,0
3.81646584827327e-05,0.127254555124065,0
4.21765647599019e-05,0.112253524012283,0
8.44250984903801e-05,0.142350559028674,0
8.55422030927253e-05,0.0916882323178298,0
9.53909794078558e-05,0.109371479360094,0
0.000100579175196562,0.127687911377105,0
9.62587887247502e-05,0.126989527689438,0
8.88528066300679e-05,0.112939527665334,0
9.39269405254248e-05,0.114747718379088,0
9.71602457188966e-05,0.113830756378094,0
0.000115949986559947,0.0798191716981881,0
0.000195180838247756,0.0792946763920139,0
0.000162253547347513,0.064721975016602,0
0.000148850269645254,0.0730850985711339,1
0.000141079485039787,0.0719399702162703,1
0.000129263867864114,0.0678837051906009,1
0.000125890922400306,0.0665822222523935,1
0.000128606997034117,0.0665894468755717,1
0.000123107666233807,0.0584874310046616,1
0.000114604335697134,0.0522390659636472,1
0.000111389263143623,0.0744148038719948,1
3.86997867539675e-05,0.0539831407516637,1
5.16864837858739e-05,0.0838120495830883,1
5.36665859134576e-05,0.0710879606056218,1
5.86132195068136e-05,0.0598564952513677,1
9.28277490159808e-05,0.0598897521320683,1
9.79423882248547e-05,0.0478167619709403,1
0.000100499330089547,0.0488023159312896,1
9.61717868146693e-05,0.0533710139475928,1
9.58504779527952e-05,0.0548560893310819,1
8.88597891114334e-05,0.0498323746144419,1
8.56169050686744e-05,0.0536569834780775,1
7.49733121626855e-05,0.0515023380406826,1
7.31548042010023e-05,0.0530238639779479,1
6.65491668741185e-05,0.0575870507275487,1
2.93137253473359e-05,0.0483165520880527,1
3.10802487833194e-05,0.0736450976515946,1
2.87021234276888e-05,0.0601874818123298,1
3.66322006398933e-05,0.0677857010541029,1
3.38656460304742e-05,0.0666926137624747,1
3.2727092040076e-05,0.0663405838128964,1
3.47673065708419e-05,0.0676181854715794,1
3.49359417953265e-05,0.0696552715618886,1
3.31464972346945e-05,0.0789209546463702,1
3.0680843927615e-05,0.0857246681042698,1
3.00239324652806e-05,0.0952695696471536,1
2.86192974195888e-05,0.107498381609241,1
2.86119304050595e-05,0.150932253414619,1
2.07228453253573e-05,0.125909498889047,1
1.9738681400214e-05,0.136004218710601,1
2.43819244798837e-05,0.126253284562793,1
2.35254378701743e-05,0.106334792914522,1
2.09948435769751e-05,0.100189105450025,1
2.0542805872657e-05,0.100219525311101,1
1.94419397212847e-05,0.0937063147069673,1
2.32022537682382e-05,0.113713709253536,1
1.96100627475952e-05,0.110782288228169,1
1.71069539876984e-05,0.10259833071196,1
1.70522482489765e-05,0.107402448319179,1
1.99931500666726e-05,0.130865333852592,1
1.36879758024993e-05,0.151056031577312,1
1.36967722549761e-05,0.165456894290184,1
1.44251047281284e-05,0.136720859670665,1
1.24194716493138e-05,0.113503596640456,1
1.30341617547991e-05,0.113476368644376,1
2.06094896912527e-05,0.131847788613685,1
6.05907874326703e-05,0.168356455416667,1
7.72421808795595e-05,0.143447529572896,1
7.68305977303808e-05,0.137049844297026,1
7.20210757172763e-05,0.093086533839457,1
0.00011494576487227,0.0756052088034049,1
0.000114460896751851,0.0548957449874731,1
0.000115495851739931,0.0567119425679248,1
9.42611100989614e-05,0.0510132199659517,1
8.78041744382408e-05,0.0481876165388251,1
9.23510036459354e-05,0.0503530791971179,1
8.00194456348337e-05,0.049620161866654,1
8.10997150363548e-05,0.0539089512378945,1
9.57774884312022e-05,0.0402636987606376,1
0.00015257619155875,0.0472054794686637,1
0.000123964739384769,0.0318185778282754,1
0.00053486746494909,0.0398530886513028,1
0.000588725451475749,0.0240636097622699,1
0.000624275595916687,0.0245015830753793,1
0.000663149543893058,0.0249599394195593,1
0.000661089921076273,0.0222612894850702,1
0.000721950657583331,0.0235519615478635,1
0.000772672460457693,0.0200057284950847,1
0.00107430641396238,0.0205250955548486,1
0.00142635178004239,0.0161975309662836,1
0.00239629040119773,0.0181920549400669,1
0.00237343413652706,0.0169664248515504,1
0.00230325206080012,0.0188385544753746,1
0.00193262707766837,0.0165585132349804,1
0.00154701125039022,0.00937068845386156,1
0.0029870006890452,0.0102222577699818,1
0.0030117825936424,0.00719425248731811,1
0.00290222742692221,0.0073151217075596,1
0.00288870722819435,0.00753072435758018,1
0.00302251399559358,0.00943295481964189,1
0.00259894167301557,0.0078957303584422,1
0.00310300869140534,0.0100777529030528,1
0.00364470970225762,0.0109649820612978,1
0.00355916756210016,0.00880909812885653,1
0.00344154773720026,0.0110263789527874,1
0.00237604332222099,0.0131459027958503,1
0.00226388298958839,0.0221814995177402,1
0.00236820236287668,0.0173706279656272,1
0.00346775774426125,0.0160535991933338,1
0.00312492231493914,0.0128144503592464,1
0.00439979198499918,0.0136304253434433,1
0.00525263768307972,0.0125219450867125,1
0.00499717104218747,0.0111686897527733,1
0.0198314326546886,0.00952807949738463,1
0.0328954485389013,0.00937091726050153,1
0.0310324215055123,0.00782357013908732,1
0.0279746595630415,0.00695913620044206,1
0.0239027854344742,0.0059783676476797,1
0.0238165705006093,0.00594267038087612,1
0.0225280584183377,0.0040817048843898,1
0.0251537905312293,0.00445206735125657,1
0.0241577713635368,0.00440593728896976,1
0.0223712567047668,0.00364104669334122,1
0.0190247014616657,0.00537614681345149,1
0.0135439544371331,0.00489296043689581,1
0.0141040031023277,0.00579803708000202,1
0.0142493275425321,0.00489406406285199,1
0.0157201748967404,0.00504287735376228,1
0.014268442312337,0.00430359409233955,1
0.0126745081805054,0.00555805707942762,1
0.0119465365244339,0.00701477016130543,1
0.0112445574631925,0.00639486631263383,1
0.00997243632377528,0.00742430274845747,1
0.00832642692885064,0.00619867109300365,1
0.00875183076789091,0.00622730435094506,1
0.00816056362641751,0.00504454131336703,1
0.00743459345328659,0.00672483840842833,1
0.00608739387508225,0.00712647720518945,1
0.00634048705359618,0.00718580921710004,1
0.00667154741694377,0.00572968014161897,1
0.0108884767321334,0.00731192728926953,1
0.0142974019401923,0.0100607754736066,1
0.0140314993343068,0.00707924242762719,1
0.0151249561731427,0.00540301135849377,1
0.0161134139406898,0.00424068385343295,1
0.0173955718901912,0.00502115013682729,1
0.0174838953101429,0.00491688502389425,1
0.0181727723318354,0.00515849816292136,1
0.0174065549065474,0.00393017561783392,1
0.0450700885120737,0.00859389006950919,1
0.0774335061539984,0.012433540414535,1
0.123489076181668,0.0136036364141987,1
0.175694223108708,0.0144758646571214,1
0.161969457991471,0.0134741733221833,1
0.151725677053625,0.0143600735250015,1
0.118909523961189,0.0106173096274675,1
0.128358853911927,0.0100098859368697,1
0.118653502657485,0.00987793394376065,1
0.085685367818694,0.00730224566691341,1
0.0873369529266766,0.00762581224511238,1
0.0929648891279523,0.00761728330220196,1
0.0902448641798222,0.00789247365717883,1
0.150439666300622,0.0124405785819002,1
0.164190463472201,0.0127737574304148,1
0.135281333936665,0.0112427420819679,1
0.100767651956352,0.00668662318127186,1
0.14032896833468,0.00991990238456061,1
0.158749623641639,0.0106783526276486,1
0.160295720936425,0.0103573599348388,1
0.159188887331654,0.0100676539990529,1
0.181019520832933,0.0109567008347905,1
0.191794167860532,0.0121905540244376,1
0.138360277987544,0.0121954221125593,1
0.0976280291436458,0.00949973643541507,1
0.0503197192359217,0.00538851351011084,1
0.0416200069440635,0.00831933585119069,1
0.040841854327039,0.007668463317282,1
0.0485110492742681,0.00642774827118158,1
0.0610765803106144,0.00990925317846698,1
0.0407675103996603,0.00842912598202331,1
0.0549383096801487,0.0120880851291262,1
0.0616873973293709,0.0167179382007801,1
0.061498699302405,0.0164280183603844,1
0.0590942981139165,0.0149868387755908,1
0.0555881361006112,0.0132577112144505,1
0.0578200199901926,0.0142014792561113,1
0.0334512280899943,0.0115314878497584,1
0.0197252649851926,0.0145627884667521,1
0.0256875371441721,0.0212505882831957,1
0.0240172444700856,0.0137476192418837,1
0.0243428257215147,0.013485810251038,1
0.0298688817951223,0.0112812828508474,1
0.0353771281967922,0.0112586057440791,1
0.0335937788831315,0.0104364068907367,1
0.0324172912498548,0.00988150572693923,1
0.0263779046114085,0.0074343556791148,1
0.0187382423181001,0.00612186726360397,1
0.0184351913292524,0.00700695489582207,1
0.0190325056545124,0.00570178997630587,1
0.0176740120368395,0.00749557211857816,1
0.00935262540360669,0.00374477429734682,1
0.0144616782970742,0.00656965920664041,1
0.0190841002922958,0.00863892391733856,1
0.0141661931219153,0.0073376516443669,1
0.0154615576865539,0.00927375543861632,1
0.0169666537757781,0.00657975931545317,1
0.0250342406626009,0.00804742065302625,1
0.0259932308674378,0.00527671527107085,1
0.0287427146510417,0.00377629405092386,1
0.0358525363912139,0.00375424985217072,1
0.0563765093845614,0.00422263931508386,1
0.0652621626217506,0.00383160013306921,1
0.0645807603580881,0.00381320286828365,1
0.0828309611789154,0.00462623398091971,1
0.0975528114313048,0.00394308456841334,1
0.0973109542292899,0.00386985768287588,1
0.0932190993169861,0.00380378301625643,1
0.0888286860063833,0.00383637761834973,1
0.0839589365625124,0.00428050846785727,1
0.0517798686894771,0.00264838305803931,1
0.0779846331863028,0.00454425830628851,1
0.118042660272229,0.00882477805232053,1
0.131982214938571,0.00963436107299392,1
0.140646688184854,0.00671492956140145,1
0.150169340204284,0.00862349328348872,1
0.14028119432856,0.00977482364573901,1
0.151262118333114,0.00725144579623232,1
0.170837642016746,0.00897977084006175,1
0.182284110146907,0.00965552941231019,1
0.184936940933639,0.00807368171748532,1
0.179413816528567,0.00882771742010516,1
0.18289734251729,0.00846748997421447,1
0.171289450804369,0.00748303516270379,1
0.15125602215147,0.0109942593280141,1
0.113093155447286,0.00842008252685488,1
0.101580791768828,0.00719566217806742,1
0.12630140922749,0.0122444124249678,1
0.121307943313329,0.0116141658275678,1
0.127479608273294,0.012090359160099,1
0.154086317027337,0.0154097768391356,1
0.153380257202105,0.0134987800439415,1
0.0942080131818824,0.00975914167651776,1
0.102083817477563,0.0106135637328948,1
0.0868541202263005,0.00910575106425028,1
0.0803731457086428,0.00808546009102241,1
0.0935743347958283,0.00933868325855934,1
0.108139139250427,0.0123673567094994,1
0.0869583428388679,0.00976796904505409,1
0.0873609528061787,0.0113589735026971,1
0.10057494054445,0.0128575679811237,1
0.0831006244137805,0.0208797686279167,1
0.027835546025848,0.0105729848918354,1
0.0189185549732817,0.0131248812093017,1
0.0106382046102932,0.0078448887671727,1
0.0110225441795632,0.0131149804185037,1
0.0138191677525883,0.0179912896258965,1
0.0175867884453124,0.0169012845331502,1
0.0179598357240988,0.0132226959835206,1
0.0178245319689649,0.01344334277507,1
0.0142891444231215,0.0110989645140244,1
0.0098623897523836,0.00799636024780563,1
0.0104794069834882,0.00359320563426375,1
0.0220826160986669,0.00546475272911354,1
0.0222501439701821,0.00451049993052906,1
0.0287703856933965,0.00465127232494614,1
0.0484805803846358,0.00781635740709257,1
0.0513810468055321,0.00575950596039227,1
0.0489790199791013,0.00346429079134566,1
0.0870844924938948,0.00625376724057705,1
0.0843870654168388,0.00386539133600028,1
0.0771845201504939,0.00324919321661766,1
0.0668883636869621,0.00307309426630438,1
0.0690025021217109,0.00333210091052693,1
0.0668909671227316,0.00282708434475952,1
0.0690555984594266,0.00302611565842095,1
0.0662982705344665,0.00275567008575327,1
0.0605270134620194,0.00277168979390369,1
0.0635858074608674,0.00493062846478082,1
0.0442465785019522,0.00229806713116068,1
0.0439573220748348,0.00371705170683996,1
0.0386673342820543,0.00341997089579704,1
0.0467304230918093,0.00458014711377695,1
0.0450029705610477,0.00314473843099018,1
0.0457637825823751,0.00409958205470611,1
0.0756558644997984,0.00394307319120467,1
0.113538029201733,0.00507342746191167,1
0.113681368539597,0.0055574891809953,1
0.113033682027861,0.00597117969503287,1
0.114045840815992,0.00622466191386505,1
0.107730507335344,0.00663848184241762,1
0.0949195204177335,0.00585991477165999,1
0.097866880863549,0.00591689852153183,1
0.0927896290170515,0.00698374210761019,1
0.0505481261446462,0.0042550225833759,1
0.0700503295116463,0.00573175932745153,1
0.133534166886004,0.0125371657149675,1
0.171194298310251,0.0159452222308314,1
0.196466220446823,0.0170231024654817,1
0.195864614587896,0.0192507524923765,1
0.169838950718356,0.0146676635678879,1
0.167864995700501,0.0129819465793817,1
0.178153901400416,0.00983216074573592,1
0.210100218632477,0.0111367443131508,1
0.203817221708783,0.00980714757789337,1
0.20714442555306,0.012905803434809,1
0.22761270624594,0.0133367141401936,1
0.230143103202744,0.012158522600545,1
0.191709711299538,0.0101332375034946,1
0.194028050656169,0.00967754521786765,1
0.218327535670815,0.0114473819432569,1
0.184071582432199,0.0127279289918581,1
0.148291827673183,0.0155480332757905,1
0.159996553962226,0.0149066193588104,1
0.117641366813166,0.0173339881775734,1
0.0405316758637256,0.0113409744515776,1
0.0272259757692269,0.0144169332366749,1
0.0200029709989413,0.0160894750564015,1
0.00240648818173497,0.00339553267714438,1
0.00659792047061922,0.0160253578726151,1
0.0133098503244047,0.0211055615396865,1
0.0215565252776096,0.0221124944220567,1
0.0212978325748469,0.0212208022129661,1
0.0189116317920572,0.01752561167966,1
0.0270546103782498,0.0149583877607494,1
0.0258657754030292,0.00873924661428434,1
0.0258098283748479,0.00642669948356611,1
0.0221179497745214,0.00417880485279665,1
0.0179914371787457,0.00361088345224458,1
0.0180531444851367,0.00321589563304057,1
0.0206565765712177,0.00391630838291857,1
0.0204159129248943,0.00380801169840568,1
0.0189691401633154,0.00355145112975368,1
0.0225481208844807,0.00394836586049069,1
0.0257923562280483,0.00513544228120175,1
0.0339374092228705,0.00767231773202874,1
0.0431854964090847,0.0082724303212475,1
0.0422707197969121,0.0108851940988869,1
0.0322361124253902,0.00980588777175296,1
0.0285751950997988,0.0089281421166946,1
0.0374945330759307,0.00439262907380243,1
0.0540188433521409,0.00506203365980729,1
0.0451116797908256,0.00425800139603225,1
0.0435330425738502,0.00447170903448005,1
0.0498465905803712,0.00498232559040207,1
0.0490795437594757,0.00516195267568707,1
0.0460104801815963,0.00565097377487105,1
0.071400018067145,0.005923079773257,1
0.174817150403664,0.0106937585227808,1
0.289337184063688,0.0144348509325409,1
0.283819854933317,0.0159755884548774,1
0.320093335143494,0.0200600865892849,1
0.287405898400737,0.0175269325912733,1
0.241355150771173,0.0146905210746727,1
0.237680535555489,0.0132224080423944,1
0.194354213662567,0.0118470646832044,1
0.130928737242425,0.00856567225443279,1
0.121781357937221,0.00779623728576396,1
0.12435253070214,0.00782057036402761,1
0.0991719464849343,0.00608297844230714,1
0.0994017293049744,0.00630533412932757,1
0.0883442903931378,0.00605054897800601,1
0.0911629542632523,0.00616599740439938,1
0.0886984464912346,0.00498326141377752,1
0.0826520809859063,0.00537267354393741,1
0.0954385473820046,0.00633410140070854,1
0.116471177269771,0.00808112569372416,1
0.128529281773238,0.00818446823868511,1
0.1248653007981,0.0105741250867437,1
0.0819998403998456,0.00852656800858806,1
0.12304818476136,0.0105777328532057,1
0.184178045155658,0.0138743655930191,1
0.186675600506061,0.0149579551323078,1
0.180244951020603,0.0178697805957267,1
0.198276922370926,0.0197559626390998,1
0.188392299930666,0.018798573222562,1
0.188433137265498,0.0198494048904422,1
0.179329005422485,0.0335567965275248,1
0.0872134334154266,0.018260891737829,1
0.0129016032660059,0.00378064236216535,1
0.0027991593655657,0.0115257077818267,1
0.00269216397548869,0.0126809624519974,1
0.00261157962756428,0.0160284242635201,1
0.00294319149170796,0.0143615825468275,1
0.00547458759795083,0.0168310206609436,1
0.00561335093848481,0.0182344770765537,1
0.00568410017909446,0.0180258779548096,1
0.00574101117244289,0.017516602802958,1
0.00616836362406178,0.0178218341402137,1
0.00813923759865431,0.0116033844200848,1
0.00837491333469736,0.00810696555206557,1
0.0110133819264558,0.00589934347036034,1
0.0214362902140792,0.0100106937824499,1
0.0222141886766008,0.00822237388756436,1
0.0306272178908519,0.00610700734536494,1
0.0436439071097038,0.00650929776237228,1
0.0429875543740563,0.00487597459339603,1
0.100854988991315,0.00825809217140768,1
0.0986735298255648,0.00508286772993803,1
0.0960801030383569,0.00490770105775403,1
0.0894594246076886,0.00441240675483365,1
0.0860047934989991,0.0040842844758438,1
0.0906864850489028,0.00428364587258767,1
0.0808006942635872,0.0037657229291286,1
0.0779319268026431,0.00452221256331067,1
0.0781459884156004,0.00460214047964014,1
0.0924341484289519,0.00633955555841705,1
0.068969758508588,0.00459140282274433,1
0.0624295563801002,0.00654797963749466,1
0.0650859003541052,0.00268453113783125,1
0.255170258965494,0.00895389925671958,1
0.304174364452225,0.00879319646108712,1
0.291834373160224,0.00912003679277852,1
0.291204659115873,0.00935013541205089,1
0.265362453307427,0.00884669004001119,1
0.245797641818186,0.00822833797225692,1
0.266443904579317,0.00802882321163586,1
0.245633347623836,0.00829052522060522,1
0.161639016344803,0.00565762115058021,1
0.0851296493659472,0.0045059818832698,1
0.0525273881698091,0.00347960526539234,1
0.0779096114019403,0.00831399445947099,1
0.10677756099308,0.0103464146375846,1
0.124050440976345,0.0109222655852802,1
0.117090256562914,0.00985047709426732,1
0.136461030187465,0.0111013925915744,1
0.136928582102741,0.0102876363448832,1
0.120205189468275,0.00861987397509439,1
0.118166833849652,0.00871356607017854,1
0.117646603368999,0.0083416779802135,1
0.152290428001711,0.00920888349426374,1
0.229246909632532,0.0124330325532414,1
0.274503934478,0.0138670549685822,1
0.258382455274132,0.0127135025703944,1
0.27744408850687,0.01315354792481,1
0.30450692928158,0.0148197313033561,1
0.280588142454676,0.0180205112840461,1
0.283291216530829,0.0193966477589827,1
0.24922631183672,0.0192013237370341,1
0.0896619116112969,0.0085381472119848,1
0.0375022037466861,0.0116045119893891,1
0.0323245486486581,0.0146192630979231,1
0.0318542997254406,0.0179970936084331,1
0.0191205335545752,0.0156154392654843,1
0.0177480807881845,0.0173878201504914,1
0.00916382794713156,0.0157530986847417,1
0.001892051394967,0.0124840780086829,1
0.001527378552867,0.0166381790672703,1
0.0035833114212011,0.0149154299110916,1
0.00513237056627479,0.0173249368687089,1
0.00580173502180889,0.0214115820770094,1
0.00565160655508299,0.0193618007730259,1
0.00567984623226269,0.0156655764699964,1
0.00444665269563138,0.00868994954540803,1
0.0120308690545121,0.0144943916922511,1
0.0136912601601101,0.00841648788558811,1
0.0163409773475923,0.00405581778093336,1
0.0449807767885692,0.00903113741592232,1
0.0472519144038973,0.00614776443500756,1
0.0478166477661284,0.00418979867638131,1
0.111786319966384,0.00785772480619675,1
0.112539938420582,0.00399768245848904,1
0.109268728258229,0.0029917190230458,1
0.105475301945183,0.00236915145949459,1
0.113213314008841,0.00249877934589198,1
0.105162925260099,0.00221119349186616,1
0.0998049124358852,0.00231438404280752,1
0.0956767910970396,0.00202472139815866,1
0.0995639693923794,0.00261611513840579,1
0.0929765443178921,0.00264422867107542,1
0.0625055312678497,0.00147733800491886,1
0.0610289709694133,0.00286694291319765,1
0.0620827584544489,0.00412748952858313,1
0.0571473894883888,0.00509218160523393,1
0.0516039138563525,0.00542980067229399,1
0.0552356403132761,0.0062843450846174,1
0.0884870721527871,0.00900544777452674,1
0.0910567984076404,0.00775963212577079,1
0.132491747313487,0.0070529057168915,1
0.233836067689348,0.0139767358826706,1
0.210958258505966,0.012061344802041,1
0.199184472538128,0.0118917127493249,1
0.256999775327208,0.0137531302906751,1
0.207787239526769,0.010396975770891,1
0.228012873759086,0.011174895588714,1
0.179865551939189,0.00903069287347481,1
0.163557514352907,0.00908569753451623,1
0.110101590360226,0.00737797683896362,1
0.0813675928069621,0.00868694945099966,1
0.083510503160215,0.00741370657633412,1
0.0782532817491507,0.00725896819168938,1
0.0793813858072857,0.00787099834671191,1
0.0830991554324934,0.00825823701937638,1
0.088056642243677,0.00865910937337567,1
0.105881174348638,0.011637663523184,1
0.0969316799667,0.0107615400758457,1
0.183152348098304,0.0121077239898543,1
0.261031940267544,0.0119395323710599,1
0.283198106741734,0.0112429819197138,1
0.34819815101768,0.0142390076932749,1
0.351924490945002,0.0137835909863623,1
0.351047271639509,0.0132214736380698,1
0.301575612014131,0.0141395509853866,1
0.190827350332154,0.010495807238792,1
0.167167168844,0.00909732191725362,1
0.0997164982175276,0.00547238967995102,1
0.0779801443512333,0.00746159291929243,1
0.0595662223737856,0.0120580023737116,1
0.00864235379432326,0.00821446172225236,1
0.00758984212162176,0.0167065967570864,1
0.00762925937753064,0.0155389116723635,1
0.00883283461893771,0.015976151834795,1
0.00645946785979889,0.0133857964404291,1
0.0108898380795117,0.019729551987323,1
0.0111545727194906,0.0108876083324601,1
0.0112479637301213,0.00941667361711217,1
0.0104541496916921,0.0090928738224303,1
0.00828181025532173,0.00758869331378243,1
0.0122901093601864,0.00306720156895425,1
0.0352151622632035,0.00709532810392303,1
0.0325752062803764,0.00596930368776735,1
0.0402129362166048,0.00565451746762466,1
0.0778337553577541,0.00921357572919959,1
0.081881915492358,0.00579909789258493,1
0.0830593485328468,0.00621021724049204,1
0.0771294882924002,0.00510454272153845,1
0.0746991782542522,0.00456672450870252,1
0.0679849146713875,0.00339353079236744,1
0.0731150533603949,0.00463642984402206,1
0.0756490970223325,0.00460079528182584,1
0.0882887307858361,0.00486669395810886,1
0.0898183936107931,0.00547128231374679,1
0.0728278435930968,0.00466417447197277,1
0.0670468977123097,0.00662682162281034,1
0.0463068956991116,0.00476074218827981,1
0.0611318718406209,0.00653082355698543,1
0.0657563066437975,0.00676876300603959,1
0.0534769957914701,0.00699472074609433,1
0.0997607466353097,0.00903083239732443,1
0.146494978958399,0.0107538030816621,1
0.197010041185717,0.0114843372165378,1
0.233450447802681,0.0118316516437726,1
0.232302266677423,0.0115151754239071,1
0.275077502475569,0.0132578140866873,1
0.247478924693631,0.00853628223514057,1
0.229206543269817,0.00789187900669312,1
0.189369432897245,0.00657154799304035,1
0.128445374286123,0.00413009820864716,1
0.114004563929376,0.00445602236591942,1
0.141474620494913,0.00415918435415721,1
0.184875245370635,0.00626487873831057,1
0.174725087821809,0.00594124752327888,1
0.181544965711721,0.00640190709059175,1
0.152706105676296,0.00545878865049554,1
0.138873324636038,0.00671026778747597,1
0.132301354459166,0.00698578316400676,1
0.127601231338119,0.00691042390579657,1
0.175652550674873,0.00848645668558691,1
0.262447225143782,0.0101947150278625,1
0.304421142481043,0.0170062443701157,1
0.326447066428928,0.0213705572133944,1
0.426478867842717,0.0295627534304734,1
0.407423509248336,0.0266316176079931,1
0.347674040293239,0.0210733243600709,1
0.249783909415877,0.0148749548405667,1
0.18553386923285,0.0116183229507277,1
0.0818006968950487,0.00525214012292099,1
0.0657209601441466,0.0058095109556428,1
0.0824613244781872,0.0069912366156301,1
0.0869841624526079,0.00877222516318468,1
0.070915687555364,0.00811728395316808,1
0.0753774952572202,0.0096175209751714,1
0.0731371883460842,0.0103441386788936,1
0.0587075722553954,0.00903541156781607,1
0.0213770459512969,0.00472597150666672,1
0.0435457740607075,0.00880652607001118,1
0.0709885339978066,0.00963848511691501,1
0.0700379140165826,0.0131520599324708,1
0.0688350379955401,0.0133180605566063,1
0.0622651874930032,0.01159729107544,1
0.0521877278888848,0.0100109518097021,1
0.0431263681749547,0.00879201392010404,1
0.0365932552225831,0.00666301212620643,1
0.0329634026762622,0.00482013590622413,1
0.0345693235799553,0.00347669400274301,1
0.0467712024060984,0.00555071614476013,1
0.0388916953133038,0.00421418047956795,1
0.125018058073504,0.00820583504870454,1
0.169084903626065,0.00670174014662887,1
0.170452550969054,0.00622443569602303,1
0.168252976520943,0.00591258319486901,1
0.15935030170728,0.00535665858115401,1
0.179764025458212,0.00612862462599208,1
0.181658228237529,0.00539376913998565,1
0.178075117072355,0.00536959876774429,1
0.182451145723684,0.00540253926356741,1
0.181858878494896,0.00555522201285495,1
0.114157944487022,0.00493912730280943,1
0.0710796815992767,0.00208000785787827,1
0.111908500296285,0.00474690654553322,1
0.102790609218732,0.00427074074335966,1
0.126050027511236,0.00374617443561237,1
0.176080906797656,0.00606308668870203,1
0.18594938820201,0.00709085494164595,1
0.357804602674849,0.0106332470461302,1
0.360745730772368,0.00731428049827361,1
0.337719870473465,0.00723252595790284,1
0.288596231125965,0.00608728798440228,1
0.271266250826371,0.00646009566841656,1
0.268339603298645,0.00645110442444702,1
0.182359018955938,0.00434351484740629,1
0.12212791570794,0.00348753353533097,1
0.130294020519413,0.00382063265694134,1
0.122509279728826,0.00385510044586543,1
0.108732566153562,0.00308471648686661,1
0.173587709834446,0.00825359485162492,1
0.176460545365043,0.00715640719256096,1
0.173936141207244,0.00714608639055165,1
0.257389746436574,0.00889297615814952,1
0.336392317873064,0.0112978169545127,1
0.357849920431806,0.0115768432050901,1
0.348645256294598,0.0114222789679819,1
0.364894913289966,0.0104699019069725,1
0.397546743711704,0.0103219640898553,1
0.390938519338623,0.0157732146115639,1
0.312401336003025,0.0149677668439102,1
0.272399563254443,0.0147352002287054,1
0.350820449600754,0.0176341993411082,1
0.461283748613422,0.0298334497071883,1
0.403501100124253,0.0178781375587203,1
0.290802435961752,0.0137505662681115,1
0.25725979140816,0.0102630395110522,1
0.311569929232669,0.012840209020585,1
0.367560488350309,0.0152829071066685,1
0.359160685989047,0.0139050119030264,1
0.320468564781674,0.011599693277284,1
0.177609738585049,0.00596031329650796,1
0.129039565743858,0.00795091425380718,1
0.129192558605171,0.00843084643717516,1
0.11775883989816,0.0128325552813118,1
0.0490861313759123,0.00680203466649607,1
0.032756699603236,0.0148701869980656,1
0.06472977635076,0.0231129655315224,1
0.0786847205890697,0.0290491727504582,1
0.0792039744572601,0.0242817142490451,1
0.0708736955899792,0.0222970932317539,1
0.0576708245301252,0.0190197862759885,1
0.0414219643315662,0.0144365077722051,1
0.0323061163110126,0.0136410939801679,1
0.026754023643393,0.0120232001679926,1
0.0220772564836337,0.0112087155979815,1
0.019249405972293,0.0263660699102175,1
0.0128366591283805,0.0205663030095461,1
0.0113306914966632,0.0127719851873688,1
0.00717774376773221,0.00965921045936142,1
0.00791034057934057,0.00513060676256171,1
0.0521958865931094,0.00856350368861274,1
0.0647918383945063,0.00509216416681099,1
0.0688485597233,0.00514785370948235,1
0.0929651191095469,0.00510343678012698,1
0.128908754789228,0.00740727464153456,1
0.131384930548962,0.00633648298344772,1
0.129030717444006,0.00563857441166358,1
0.12310307787066,0.00539553381474777,1
0.118118519098897,0.00442760958263392,1
0.100715388255473,0.00343059603998198,1
0.0961497770823265,0.00398297816211473,1
0.0898590370241405,0.0045132425178671,1
0.0971806524984697,0.00388989475496993,1
0.0916797465150929,0.00395117016165971,1
0.106171929918414,0.00400683875948494,1
0.103050430379695,0.00447157603729171,1
0.22413537323137,0.00722851542511475,1
0.414217967039596,0.0123220431832602,1
0.537056078353711,0.0176533838131906,1
0.568479323249559,0.0135890129461075,1
0.519902496828856,0.0124652777804839,1
0.42032536174682,0.0115316133784631,1
0.400298002904408,0.0127017594345665,1
0.274892319939998,0.0104234698147856,1
0.205820568336999,0.00826359803448753,1
0.110256628266062,0.00429700333237714,1
0.0985459603161824,0.00480620596928259,1
0.149928056532842,0.00562365226885389,1
0.139132976162631,0.00343841765359528,1
0.141152207046785,0.00549992565888577,1
0.126029074547807,0.00587584714644788,1
0.1417530841673,0.00679047596185984,1
0.179613617796824,0.00562690963930167,1
0.233509798940432,0.00680342300707834,1
0.241850094410579,0.00724755697224589,1
0.322241682194401,0.00974849581017129,1
0.3261807326014,0.00864731612398331,1
0.34771198317427,0.00744202066640676,1
0.527142556544122,0.0129041159419085,1
0.436602594103078,0.00887062070027875,1
0.38538826037892,0.00716610883228014,1
0.28863079844722,0.00500234226292977,1
0.320648159210555,0.00677931156170438,1
0.341307347018951,0.00766800231977187,1
0.318496658519088,0.00695176718996551,1
0.341762739832547,0.00735209047996636,1
0.262782638403317,0.00789547262375726,1
0.170022494381274,0.00966357335827392,1
0.181645413882493,0.0107549915290854,1
0.103080945666586,0.0147240030233861,1
0.0263466664295996,0.0116151712603715,1
0.0120810167946197,0.0131816431220553,1
0.0161127275304067,0.0103065293566605,1
0.0384866381596348,0.020463179338948,1
0.0529762280098173,0.0241878859278407,1
0.0638454238845817,0.0295188874254766,1
0.0683738169731315,0.024996660538874,1
0.0623517975412309,0.0216640606852791,1
0.0549084391429614,0.0137095459351487,1
0.0634701399210942,0.0107762689321116,1
0.0509407706152144,0.00541103367290337,1
0.0372945521230174,0.00281512932019599,1
0.0371855429123814,0.0026171381170614,1
0.0375702263626101,0.00249285350822127,1
0.0654454402004085,0.00263375811700396,1
0.104042382452269,0.00357405247612037,1
0.112005888175255,0.00356255557299223,1
0.114379752162691,0.00270741960370619,1
0.113187294780988,0.00263930662587271,1
0.120880198811564,0.00275114064855333,1
0.11840034441378,0.00166437356144671,1
0.142571466643277,0.00261617807083363,1
0.144905188089886,0.00274802684478159,1
0.134045045904391,0.00249733224817246,1
0.136277622385882,0.0034799283515605,1
0.108834297661469,0.00220106872856116,1
0.11352541672225,0.00290681006968723,1
0.10444414428298,0.00333945708138459,1
0.100866954709729,0.00347546915432829,1
0.0836646149932949,0.00323552494242497,1
0.0859323370531675,0.00545088875652752,1
0.137762156872996,0.00914765990783782,1
0.130105161501358,0.00801861691859458,1
0.173766588004041,0.00729342708837992,1
0.248833280886225,0.0122811256431455,1
0.243350994126815,0.0112006042910774,1
0.246717248468498,0.0106278216459857,1
0.279279995122606,0.0122286281823237,1
0.267570176425754,0.0133368242197088,1
0.211077472673425,0.00733015421509757,1
0.196057217111798,0.00784949898811579,1
0.212835473514273,0.00928266174181365,1
0.178685244235924,0.00836012954553887,1
0.192008449354808,0.0101465510448449,1
0.187106184829206,0.010221804399622,1
0.194706645572406,0.0102537014900614,1
0.223091935016147,0.00977337212623039,1
0.20852772819607,0.00715056654616702,1
0.265521334990874,0.00847417649048701,1
0.370774364426318,0.0153206366036541,1
0.391114724690489,0.0158308093988959,1
0.350764508726513,0.0144061689863408,1
0.302790637187187,0.00915500904777403,1
0.393184057354193,0.0127099485094886,1
0.489833672133197,0.0139753855628319,1
0.679988642694551,0.0177648548447777,1
0.68056799966522,0.016213035574757,1
0.759388154236963,0.0191596372565902,1
0.899875220465116,0.0220380465074173,1
0.83750319624247,0.0201837016705627,1
0.581538628828108,0.0114661594792233,1
0.285845063450231,0.00545939993232015,1
0.216326264431788,0.00616593244453239,1
0.229907952973952,0.00647052542422621,1
0.231706259992435,0.006769651760306,1
0.255899365261521,0.00736657358810828,1
0.171727050189093,0.00722420411511391,1
0.105020863541875,0.00890819180517007,1
0.108196889179138,0.00926579896863342,1
0.10841249750407,0.00926783618776366,1
0.0683680830910727,0.0114427357378045,1
0.0107842605105071,0.0193818895506902,1
0.0128251343177425,0.0211405973357275,1
0.0278513936674351,0.0286481561663101,1
0.0517486229597948,0.0399647146373912,1
0.0598509433525952,0.0429012464018477,1
0.0672547435708574,0.043538426677249,1
0.0581876096731012,0.0203444325597179,1
0.045361206194551,0.0140090804841451,1
0.0389967117007617,0.0120908429948845,1
0.0345050850219757,0.00868108204173665,1
0.0390429284033265,0.00412878950647181,1
0.0456458332679266,0.00220739815161989,1
0.0653381959211131,0.00375191730500657,1
0.0713409160037012,0.00258221606469535,1
0.0876926976838046,0.00347061940869972,1
0.0888597879715489,0.00273071401546984,1
0.0905687070153952,0.00273924433403498,1
0.0939978803868144,0.00284642277366432,1
0.0968520997239497,0.00250838560090357,1
0.106920547654174,0.0014819575601565,1
0.147093445482424,0.00266220435754201,1
0.147988077260681,0.00294455847217519,1
0.133289839550742,0.0015663130365998,1
0.169635146832093,0.00288299780832332,1
0.178345447317549,0.00195322624291877,1
0.18229000531448,0.00225117001364493,1
0.179193795371546,0.00249275226695679,1
0.200107323974127,0.00161489489762048,1
0.244089995814062,0.00257338958160532,1
0.25621628750993,0.00321591561180871,1
0.365280863568167,0.00585883825800625,1
0.381491951693532,0.00555999276514256,1
0.35577424855022,0.00624211769019894,1
0.349824441964314,0.00599777817813847,1
0.306966232841362,0.00666646728815449,1
0.257138055512076,0.00574459572527642,1
0.219450827517384,0.00486368624538992,1
0.191293788678225,0.00674294094284847,1
0.18862475976664,0.00741198583278117,1
0.19230181842051,0.00904348375025631,1
0.127846999802674,0.00537612667815284,1
0.0706002398330821,0.00404808942467771,1
0.0808803681405475,0.00408612177214918,1
0.0961652443760088,0.00265182086698008,1
0.162521446346787,0.00543619416212073,1
0.196628225850946,0.0061815683798012,1
0.204081786999972,0.00636337397230967,1
0.194669486418286,0.00670658569807957,1
0.149177289872078,0.00531200105460359,1
0.147723694616592,0.00502221581556286,1
0.157309897199699,0.00547252200850019,1
0.140936469161351,0.00487800239460699,1
0.111561798840776,0.00413564867842104,1
0.0792240511393377,0.00545128524781147,1
0.078656172620373,0.00456172905452317,1
0.0741439181901594,0.00375457746967926,1
0.0770422165727023,0.0037672248547355,1
0.0821460805272066,0.00482609607803159,1
0.0867925315203196,0.00357460833880478,1
0.0975835780731692,0.00258067965273899,1
0.102972995751631,0.00210351756293141,1
0.119463754781252,0.00275344440885525,1
0.123767837544121,0.00296774153913524,1
0.135362981606076,0.00414213895380899,1
0.128957681624492,0.00359388233515131,1
0.134176936745428,0.00391020398936869,1
0.126915850550272,0.00342702376912246,1
0.110566036278216,0.0023017459967568,1
0.104565474742806,0.00256356393618621,1
0.0956148698202458,0.00553379707682301,1
0.0495284588877448,0.00410188420796157,1
0.0494037887448303,0.00336039386986859,1
0.0540696924263919,0.00363608244366437,1
0.0549531225590143,0.00394100024213466,1
0.0524265776083184,0.00539375246056444,1
0.0370346172054803,0.00103879429391267,1
0.107392765699303,0.00749791164759885,1
0.114058012464093,0.00572224274219013,1
0.142350070800704,0.00669580493154349,1
0.140600916745673,0.0043056076786922,1
0.144918954292552,0.00427813126024639,1
0.15658811086134,0.00481371612546722,1
0.143980566571212,0.00361091418368492,1
0.149695328542923,0.00381156441075491,1
0.149537244967926,0.0037773379241666,1
0.163534587880043,0.00571071017463158,1
0.113676551124143,0.00359737365840915,1
0.111076585609917,0.00364844186779184,1
0.0925261105881764,0.0036688712073877,1
0.0916503212452627,0.00508213980335195,1
0.098669257273865,0.00370325967286425,1
0.0790921807531581,0.00281975084877814,1
0.0727138097850249,0.00350437999247341,1
0.0726120092678986,0.00348555244659241,1
0.0781762572605703,0.00374968346724507,1
0.086664312862174,0.00438985454866158,1
0.0848111332237288,0.00479726589437793,1
0.0806299300754713,0.00559598305271979,1
0.0832697148743882,0.00574937879172809,1
0.0384991009275393,0.00419875140729596,1
0.00940007672731304,0.0206400073132549,1
0.0101829345162269,0.029418519526653,1
0.0078157809151297,0.0271423525968458,1
0.00337122953160623,0.0171942507668055,1
0.00170568092122133,0.0365795601808505,1
0.0017633335420207,0.0379584575777632,1
0.001782159305544,0.0417699090764029,1
0.000972301335959905,0.0674960951791012,1
0.000170881655306854,0.487281731510531,1
0.00011931508549637,1,1
9.26329043955866e-05,0.858916256967745,1
6.29282369984146e-05,0.688314528362517,1
4.88059585456437e-05,0.594390884035951,1
4.17953238408992e-05,0.545337584024789,1
3.98813136071945e-05,0.556072495743973,1
4.22512863470422e-05,0.579044951680517,1
4.28426151655843e-05,0.580474624726461,1
3.75042213639974e-05,0.603806650783827,1
3.07818729666218e-05,0.611037815258826,1
2.73524657293103e-05,0.564481429879649,1
2.32469575430149e-05,0.519371958675156,1
1.46036532175751e-05,0.447403682283178,1
1.02894987465714e-05,0.4288492784735,1
9.56233320339331e-06,0.391976787224781,1
7.73236102632087e-06,0.347798627017267,1
6.44519009523317e-06,0.318995502287054,1
5.31818427663166e-06,0.279220894759633,1
4.2869649000597e-06,0.246097094867569,1
3.18527110514127e-06,0.216190002627545,1
2.77162173109582e-06,0.209874691513194,1
1.27846958648013e-06,0.151020191379439,1
1.27837435043323e-06,0.161190606297185,1
1.36454348985911e-06,0.176397712957534,1
1.47056402568705e-06,0.199594047965005,1
1.50045289126309e-06,0.202631672569021,1
1.44264986608471e-06,0.194758192361108,1
9.34322787298575e-07,0.173227547332146,1
8.62547877792217e-07,0.17588395941322,1
5.91246272089526e-07,0.144211905480988,1
3.66986530977023e-07,0.115855385451338,1
2.86717540238358e-07,0.110058176665219,1
2.74217264328142e-07,0.111300181629918,1
2.41173432321066e-07,0.100052882122337,1
1.25449458460748e-07,0.0745428371941394,1
1.12608229811986e-07,0.0745019066507931,1
1.06779732470954e-07,0.072638441007601,1
1.14066251391292e-07,0.0750872582719345,1
1.14559479262692e-07,0.0724076949870599,1
1.02431944165893e-07,0.0693605443547706,1
2.73973726657752e-07,0.0914921409903575,0
1.45536509603348e-06,0.175901655729867,0
1.5262883927598e-06,0.160574698616036,0
1.56872239644849e-06,0.164871306428751,0
1.53981370590691e-06,0.161195115241293,0
1.59650414846477e-06,0.168825697535749,0
1.64829307496174e-06,0.171901367338206,0
1.5920923994768e-06,0.167848415607918,0
1.57634845815244e-06,0.164264946314286,0
1.66395703338804e-06,0.167737707802756,0
1.55451312698075e-06,0.181316959578584,0
2.19780057932268e-07,0.0812864767456775,0
1.06740638265971e-07,0.0701348517082123,0
1.44619846629773e-07,0.0786690679197968,0
1.7296045351074e-07,0.087579443688796,0
1.53184169253329e-07,0.0841605332648643,0
1.53138025273676e-07,0.0873012352515779,0
1.44043046884113e-07,0.0872815821470205,0
1.38373874450606e-07,0.0892046481522707,0
1.30489021927437e-07,0.0896435087424696,0
1.65474874589289e-07,0.0958736673356386,0
1.66153575623349e-07,0.0940992781929159,0
1.63831636202765e-07,0.0953334536022058,0
1.50874791249429e-07,0.0940336179044704,0
1.67526615373461e-07,0.0985312340247111,0
1.70191302020688e-07,0.0970181067619912,0
1.62193012214206e-07,0.0912260960707479,0
1.88045945881003e-07,0.0927065719013471,0
2.08072433050309e-07,0.0972423832081181,0
1.82666967808423e-07,0.0947341592648221,0
1.73141440453155e-07,0.0875994064663921,0
1.76305892035566e-07,0.088353688902599,0
2.20860467944749e-07,0.0969618367891045,0
2.43479605881935e-07,0.0935183354965628,0
2.10095077491756e-07,0.0889820123512284,0
2.00648379435062e-07,0.0863635695122218,0
2.10923490104244e-07,0.0946912150757165,0
1.61926915264875e-07,0.086473670727447,0
1.25387933154544e-07,0.0787720211356272,0
1.67743620255551e-07,0.0835522088993291,0
1.31330893200658e-07,0.0771765395290316,0
1.14604597820575e-07,0.073636969377728,0
6.25849514253422e-08,0.0548339577242371,0
4.2680617624395e-08,0.0506914321814877,0
4.04850614369715e-08,0.0506681063632707,0
7.99453419924875e-08,0.0652216690966624,0
1.03446086296484e-07,0.0697053493838077,0
1.25555205080785e-07,0.0730680028907929,0
2.03663119439044e-07,0.080436423550432,0
3.26179871637414e-07,0.100686601371606,0
3.23789741669122e-07,0.0991018064533219,0
3.02118349802915e-07,0.0925020083522452,0
3.13204184559053e-07,0.0974842739080693,0
3.71545171633552e-07,0.110074153953163,0
3.9818498833115e-07,0.10979145079891,0
3.95612845998672e-07,0.106999521750474,0
4.09053561849758e-07,0.106510561115385,0
4.22800237921482e-07,0.111202634326061,0
3.51444213208196e-07,0.120289621991131,0
1.42872015222703e-07,0.0800711387194008,0
1.32260309857498e-07,0.0792416810452838,0
1.27853047089772e-07,0.0832978523001654,0
1.20162383814309e-07,0.0809804660612672,0
1.04187978947123e-07,0.0731347964214903,0
1.06383919667711e-07,0.0766657549664209,0
9.03123560878119e-08,0.0681025268992896,0
1.03277917126194e-07,0.0772304488866237,0
7.45977674616155e-08,0.0657242883877542,0
7.34390408614457e-08,0.0622455032955123,0
6.84638226108275e-08,0.0589016379491201,0
7.3592854126955e-08,0.0617187560252378,0
7.49392329110462e-08,0.0600366247724917,0
8.03965275713145e-08,0.062969514595289,0
7.9040919991293e-08,0.0624771465543285,0
6.61366279036725e-08,0.060158994234325,0
5.17729042818113e-08,0.0605619519521822,0
2.39429574423356e-08,0.0476327937907563,0
2.40393470887215e-08,0.0515300438496492,0
2.87056570311084e-08,0.0542885308919145,0
4.14848476627818e-08,0.0614559029609329,0
3.92326369225624e-08,0.0619477463013587,0
1.05282103975779e-07,0.0813830219390501,0
1.36108717760539e-07,0.0782773532820892,0
1.59220699035961e-07,0.0827954028690228,0
1.85016209083634e-07,0.0825726838190157,0
1.98230947612141e-07,0.0808039458147625,0
2.11959166092007e-07,0.0824321957094669,0
2.13669185071306e-07,0.0798123925732657,0
2.13651112012608e-07,0.0827614372344535,0
1.84430693252929e-07,0.0791183337329951,0
1.7896827148381e-07,0.0750639113075081,0
1.46639799339074e-07,0.0741555234465499,0
1.15913035999173e-07,0.072794473818585,0
9.10333557698863e-08,0.0664556980507343,0
6.88000327736865e-08,0.0624655104638497,0
6.2513171901438e-08,0.0611354849030064,0
8.778981853346e-08,0.0677836601151951,0
8.33702507044937e-08,0.0663260643131869,0
7.57479061544611e-08,0.0603108963537842,0
1.66358659977361e-07,0.0833094279020365,0
1.91605184844887e-07,0.092138796775432,0
1.71812878372319e-07,0.087280904730094,0
1.79677863348693e-07,0.0877539934394943,0
1.84556820130646e-07,0.0888788580030996,0
1.87046672366078e-07,0.0894015598603904,0
1.78205485864605e-07,0.0878209125108013,0
2.04948485627816e-07,0.0920123505810545,0
1.99351733606819e-07,0.089326316968897,0
1.98679954169707e-07,0.0885004659553818,0
1.83131612047982e-07,0.0844905691383029,0
1.8661073993608e-07,0.0852529892184833,0
1.83770962521616e-07,0.0859174994948606,0
1.66841249097896e-07,0.0846837047244066,0
1.77863892237453e-07,0.0859041634272145,0
1.58719395968122e-07,0.0827163769752919,0
1.96823556232731e-07,0.0920772650194279,0
1.96213814812708e-07,0.097393738785191,0
2.10064186660932e-07,0.1030771440381,0
2.29943141273071e-07,0.105681287007465,0
1.71531528274159e-07,0.0938837744783556,0
1.17904405076633e-07,0.0820275492905514,0
1.00859972592388e-07,0.0780316757178238,0
9.69049208252601e-08,0.0743075649438906,0
1.16916923912064e-07,0.0816360286741044,0
1.080480510228e-07,0.0787973946403349,0
1.00458904502573e-07,0.0834362935820546,0
8.00392962621696e-08,0.0738406643912997,0
7.93132976489659e-08,0.0753598663273131,0
2.50741258324348e-08,0.0522426729012492,0
1.06438779732408e-08,0.045020125147792,0
1.52084148049495e-08,0.0433231016573458,0
1.71357719284133e-07,0.0940393530345054,0
3.58138166523158e-07,0.124848050696637,0
3.29236269400805e-07,0.11402321305092,0
3.23311895124273e-07,0.114734528649639,0
3.27346801611745e-07,0.110428843025614,0
3.23676945274415e-07,0.106862397508667,0
3.07354794249458e-07,0.101414045692052,0
3.49093946511214e-07,0.110929572312407,0
3.79318253183784e-07,0.114807136075741,0
3.95573367260523e-07,0.119607316292615,0
3.16388119155095e-07,0.10864136712803,0
1.65010871238336e-07,0.0842440956922966,0
1.76561734767196e-07,0.089975692364153,0
2.2895758277432e-07,0.0957664414111277,0
2.67418077104026e-07,0.10003927552473,0
2.57520834357111e-07,0.0982142408054547,0
4.64989293984853e-07,0.126003302819911,0
4.4719297098771e-07,0.109048858131781,0
3.65648355567091e-07,0.0919208939864363,0
1.18210044852972e-06,0.152327102296526,0
2.38596419235179e-06,0.205388866902202,0
2.35078350955363e-06,0.18337094800258,0
3.74161881359712e-06,0.169113992863805,0
8.6801761850922e-06,0.204720284597696,0
8.35217759976786e-06,0.173281511658394,0
8.10320070777662e-06,0.170544408606196,0
8.34853235355301e-06,0.173383644499499,0
8.55437603238609e-06,0.175720491039653,0
8.60778666341242e-06,0.175933653011088,0
8.72392375406835e-06,0.178202998314819,0
8.59226370047949e-06,0.174734889669716,0
8.67730820857907e-06,0.174722731634032,0
7.28614400050282e-06,0.217310075015197,0
6.57929449796641e-07,0.0907765591181511,0
2.14918148787241e-07,0.0782494640202086,0
2.50158177870347e-07,0.0803348574182713,0
2.64131600330978e-07,0.0821352121829393,0
2.48565697861441e-07,0.0781184863467303,0
3.15400637990525e-07,0.0879887221419113,0
4.37256762213534e-07,0.0943034767111402,0
4.90619582949826e-07,0.0918252070201726,0
6.36680788055142e-07,0.107374746966868,0
6.51972774734352e-07,0.0979483028898627,0
1.81816508627878e-06,0.154315949281032,0
2.04362803166073e-06,0.144471992276164,0
2.13535521343578e-06,0.151709665066636,0
2.28957646863181e-06,0.162240823629309,0
2.38781084878196e-06,0.168388802436976,0
2.37661644749592e-06,0.169747086395052,0
2.24723577832419e-06,0.174047830164458,0
2.16601314533937e-06,0.179440026035539,0
2.12744703256734e-06,0.179813018267672,0
2.05570750011205e-06,0.195113376551143,0
5.08403472708008e-07,0.118013247192657,0
6.57852927697049e-08,0.066527524812082,0
7.38697180048717e-08,0.0682450848902201,0
6.66333165735461e-08,0.0614909347091497,0
6.82257965824517e-08,0.0633224834252347,0
9.21017170765697e-08,0.0751416940057876,0
7.63031720429496e-08,0.0708197214370239,0
7.51002241289458e-08,0.0736525432213072,0
7.6346752468177e-08,0.0707344929098997,0
4.00955293420692e-08,0.0577826441196218,0
2.21588517401493e-08,0.0477140919568827,0
4.15218910242252e-08,0.0585104121693628,0
4.24405407524792e-08,0.0574669431723577,0
3.57410757955022e-08,0.0569097734602448,0
3.65788453816426e-08,0.0558618083477739,0
3.77196271008362e-08,0.0551001645243353,0
3.40730991087754e-08,0.0519620203735453,0
3.14223838331658e-08,0.0499863013421495,0
4.15084323634931e-08,0.0570504517950535,0
4.1656093098382e-08,0.0570798523586234,0
4.93293242037542e-08,0.0595608076210876,0
2.21423168141071e-08,0.0434411935341934,0
9.31223962709446e-09,0.035628389673799,0
6.56746753962595e-08,0.0589973705795351,0
9.81055615402811e-08,0.0712078266895699,0
9.74996654518958e-08,0.0752917434585328,0
1.00295990618854e-07,0.0762104337168592,0
1.03268560152542e-07,0.0742783965837535,0
9.11798629052838e-08,0.067653054049891,0
9.18207515115723e-08,0.0678608649530524,0
6.79735428270166e-08,0.0646198002729647,0
5.75962745139919e-08,0.0603679013053773,0
5.27517975390563e-08,0.0595721989832377,0
3.20408413382343e-08,0.0535052145286361,0
1.99572711998267e-08,0.0441425327881631,0
3.60384481088199e-08,0.0506845961427946,0
4.12901457041912e-08,0.0531904676512654,0
3.76688687232182e-08,0.0538096928692974,0
3.51745302675429e-08,0.0531338996070686,0
4.3961369415202e-08,0.0556013418919044,0
5.05834150285396e-08,0.057381260165721,0
8.77446999755773e-08,0.0705765475440891,0
8.39352580997977e-08,0.06777265572726,0
8.59184238030971e-08,0.0698031536901225,0
1.25518161719342e-07,0.0781537582448094,0
1.36367252224316e-07,0.0747723805599572,0
1.42104358850091e-07,0.0761064852941885,0
1.40759646376376e-07,0.0757701704367693,0
1.34893592963016e-07,0.0754684844785183,0
1.33191392824714e-07,0.0788706570469956,0
1.35108931534729e-07,0.0780247022253382,0
1.15564008064189e-07,0.071651044597085,0
1.32983360383112e-07,0.0787701722132615,0
1.34757340045319e-07,0.0785637999836522,0
6.52469463404225e-08,0.0625758288536248,0
6.64104155162788e-08,0.0667607217628394,0
6.31079165280737e-08,0.0669257368407504,0
6.31694418342775e-08,0.0639856730812098,0
9.46223319651025e-08,0.0727951700511393,0
9.51174825023211e-08,0.071561224731802,0
9.00765090806978e-08,0.0727308313074821,0
8.55246618433934e-08,0.0759554154204132,0
8.63174410493723e-08,0.0762565383954647,0
8.83978936431065e-08,0.0752927592470894,0
8.25253031659629e-08,0.0748621171233068,0
5.77327837871312e-08,0.0662662212610784,0
6.83939657527422e-08,0.0691532408364468,0
6.08212259808361e-08,0.0668110606858352,0
3.78354997608532e-08,0.0565439922604692,0
3.93058264014005e-08,0.0572842000992008,0
3.68864719126611e-08,0.0574820256761084,0
4.40484020879361e-08,0.0582976287348742,0
2.98490023047272e-08,0.0486225293712405,0
3.537397480182e-08,0.0503422768121118,0
3.81245405222894e-08,0.0506073910885574,0
3.14291772523924e-08,0.0479157499061069,0
3.00585728789837e-08,0.0476882027881582,0
3.00257593823418e-08,0.0476712963720862,0
2.74847642361287e-08,0.0496222827924753,0
3.76005499977878e-08,0.05508163214455,0
4.31676929651743e-08,0.0552300783514254,0
3.90865143203285e-08,0.0544951838545858,0
4.26968961949946e-08,0.0550087773115403,0
3.80036689311434e-08,0.052756896200252,0
3.75099283488586e-08,0.0525149266224092,0
3.82323379858671e-08,0.0528686222211825,0
2.53371465164557e-08,0.0461936496595301,0
4.58685257297956e-08,0.0530550452020023,0
4.61248811723111e-08,0.0531662940658339,0
4.47836294970705e-08,0.052207437605115,0
5.76543390217217e-08,0.0591802746876919,0
4.60055477138202e-08,0.0553528461725824,0
3.04102925461148e-08,0.0500385307355072,0
4.30113161452398e-08,0.0546600704402313,0
9.88932136374097e-08,0.0773575050751176,0
9.68576232461159e-08,0.0750485564426614,0
9.5759011997216e-08,0.074698559302078,0
9.04309204799751e-08,0.0760639804207415,0
1.19898978597124e-07,0.0844706191321739,0
1.55796431212561e-07,0.102326125590426,0
1.20104062951137e-07,0.0862423880622619,0
1.14180714096375e-07,0.0807702006959642,0
1.1187184880336e-07,0.0755936806837989,0
1.05862877230798e-07,0.075034428142092,0
9.96334399776731e-08,0.0776118821313379,0
1.04577639219747e-07,0.0810366688501055,0
9.66988110494775e-08,0.0820225462992509,0
1.16778491973105e-07,0.0871539992943992,0
1.29896840855226e-07,0.0917904708999971,0
1.18995069306815e-07,0.0825055071973653,0
1.22039546542128e-07,0.0869602705084382,0
1.28586223655366e-07,0.0899707035734175,0
6.38812127204215e-08,0.0726538645217022,0
2.77786757509726e-08,0.0523689187178063,0
1.94198220145931e-08,0.0460404033670771,0
2.37385139769294e-08,0.0463698988843346,0
5.49876015309548e-08,0.0580816933778891,0
8.04433124395739e-08,0.0692771495997627,0
8.66874901306436e-08,0.0747690416984405,0
7.96387408832391e-08,0.068958447979052,0
5.9759914448822e-08,0.0588813610469444,0
5.42328911081893e-08,0.0566537784675555,0
5.07404327370803e-08,0.0551344680314446,0
6.47393625642419e-08,0.0632771536095652,0
7.28043047857777e-08,0.0693419331557795,0
7.15994342059551e-08,0.0722054047273822,0
6.38622424176755e-08,0.0725509680485613,0
5.35859781490015e-08,0.0716783540486557,0
5.56845038014329e-08,0.068810036507047,0
6.55648270891416e-08,0.0775654135463671,0
6.27110783030598e-08,0.0811601461605404,0
6.4440964829154e-08,0.0794357819582024,0
6.57945215656354e-08,0.0706308947073422,0
7.14445955186758e-08,0.072140776876581,0
7.0106420108745e-08,0.0682637869902823,0
7.11779858584596e-08,0.0657760568079037,0
7.63400872266716e-08,0.0663670876273875,0
7.78596341121821e-08,0.0669230527286761,0
6.96620279491445e-08,0.0632637078608223,0
3.90494709588851e-08,0.0527099359406765,0
8.79959283092423e-08,0.0720698424453475,0
9.68832587903675e-08,0.0721426153343593,0
8.68316900670585e-08,0.0748225193531829,0
6.5300396450187e-08,0.0663272300189575,0
8.11057349030337e-08,0.0742561853819712,0
7.70681366834155e-08,0.0703117545532837,0
7.98562584762134e-08,0.067647161008894,0
8.03515371911533e-08,0.066495757625705,0
1.2131713690512e-07,0.0769492832449719,0
1.55274491531599e-07,0.0818685790096222,0
1.07586226693108e-07,0.0692612796210981,0
8.66116089196591e-08,0.0650273633250368,0
9.49739234545124e-08,0.0643685192857221,0
9.38049426366422e-08,0.0650869929483158,0
1.03643864520385e-07,0.0691592911369541,0
9.31661048738936e-08,0.0665438111662931,0
8.85260713643642e-08,0.0707118428201096,0
9.46047716172903e-08,0.0743027887052031,0
8.09707637625492e-08,0.068179843808737,0
7.75188095513576e-08,0.0656712304592122,0
1.06086419176672e-07,0.0751050974726821,0
1.10095946475334e-07,0.0749624281978521,0
9.61141924628211e-08,0.0747951342010058,0
9.20709544234676e-08,0.0766593955022635,0
7.06710429708854e-08,0.0685155038564452,0
5.3059424070075e-08,0.0590898227011093,0
5.69150099255069e-08,0.0600634362635022,0
5.27050126707972e-08,0.0565406553943669,0
7.09072745111632e-08,0.065671889317794,0
6.05460284132957e-08,0.0658710940315948,0
2.31330024217079e-08,0.0495789373955846,0
2.14245215750638e-08,0.0512985493250479,0
2.66712202393061e-08,0.0517600001560001,0
4.68458808543857e-08,0.0610838143336419,0
5.22692084185211e-08,0.0653404412040531,0
4.94318663807604e-08,0.0674845439331829,0
4.843208015495e-08,0.0651502137167161,0
5.60027690833158e-08,0.0698362094855409,0
1.03665013844392e-08,0.044825027524061,0
1.70261030701052e-08,0.0531859497462793,0
2.48750658313215e-08,0.0609631306547665,0
3.83533377547344e-08,0.0676107967644046,0
5.38059311186798e-08,0.0823267482130856,0
4.37489789310781e-08,0.0731851066654662,0
4.73129604706489e-08,0.0684471018829726,0
6.19970002179331e-08,0.0782302523257505,0
5.72271226767696e-08,0.0756964404367178,0
2.06103366896349e-08,0.0539144472619474,0
1.74879273997968e-08,0.0516500050187692,0
1.99427871173246e-08,0.055231168065969,0
3.54861303079205e-08,0.0635945018789125,0
4.04830105934314e-08,0.0665556371895137,0
4.16612202072322e-08,0.0672363230935011,0
4.54390021858611e-08,0.0717724450951429,0
3.57168502061844e-08,0.0709387365708591,0
4.23687612285749e-08,0.0666415599495049,0
6.45784995240635e-08,0.0851035119358165,0
7.19246210847859e-08,0.0805825641903656,0
8.4568071509647e-08,0.0918006612784115,0
9.15470920766873e-08,0.0919075483203993,0
1.08026517165629e-07,0.0958097763599084,0
1.09985072746446e-07,0.0965727962124878,0
1.10308080604016e-07,0.0967437018516548,0
1.18337133063599e-07,0.0970497740145757,0
1.44889019844414e-07,0.103466887653693,0
1.36977249999782e-07,0.106611399910104,0
1.14416561103489e-07,0.0931020417403825,0
1.15626558792162e-07,0.10177945807672,0
1.00604129860758e-07,0.0929084417515516,0
9.21150475595805e-08,0.088093648756485,0
6.51597854899671e-08,0.0775202965708727,0
5.27261619948048e-08,0.071201328740435,0
7.14784344370877e-08,0.076055307617519,0
9.97145764752292e-08,0.0901394986398958,0
7.99637995843487e-08,0.0843285940245719,0
5.24375057665326e-08,0.0690134536721324,0
5.67820896285629e-08,0.071169717146763,0
5.32245169750549e-08,0.0648856197113964,0
6.12160133623098e-08,0.067745600645505,0
8.63501263682928e-08,0.0729724853805244,0
9.43730262972564e-08,0.0727576375627504,0
1.27056294374434e-07,0.0764648745211375,0
1.5522155413272e-07,0.0797085054669658,0
1.79324092838021e-07,0.0813395863345514,0
1.48475304307484e-07,0.0733227956403986,0
1.4430760570079e-07,0.0708485894864142,0
1.52695043069009e-07,0.0742631922777702,0
1.54151013804776e-07,0.0790598562457453,0
1.5721702489726e-07,0.0797952336881453,0
1.52488805115505e-07,0.0800668534475583,0
1.57000660903778e-07,0.085809157751155,0
1.25120938961164e-07,0.0859408022329864,0
1.03846000786808e-07,0.0827141993833101,0
3.91341964326363e-08,0.0545993003136754,0
3.55693176490168e-08,0.0527490429724287,0
2.66808335684004e-08,0.0474636766038859,0
2.70496008724588e-08,0.0461149548695768,0
3.41274464625887e-08,0.0477120039749867,0
3.39055708270916e-08,0.0476211369129562,0
5.60490412406898e-08,0.0512855041935562,0
1.57672953051774e-07,0.0771006647626911,0
1.53622921593194e-07,0.0755877850714737,0
1.4573448009383e-07,0.0758644962733562,0
1.47331959033865e-07,0.0786289829140983,0
1.39056933527188e-07,0.0777617588607598,0
1.45572335276439e-07,0.0821386309542747,0
1.42053087761587e-07,0.0857668873194068,0
1.46034415961573e-07,0.0852924228940724,0
1.4458280326833e-07,0.0804939962996636,0
1.64461629702747e-07,0.0959750427134655,0
6.67908469929718e-08,0.067004430958491,0
4.65586345810472e-08,0.0594208226840709,0
4.55168060626644e-08,0.0582717807191304,0
5.54818548241246e-08,0.0635198831585891,0
5.58598509241134e-08,0.0608854655497516,0
7.15221430400368e-08,0.064545309383428,0
7.65262012779379e-08,0.0638603691462195,0
9.38346798679738e-08,0.0712012555187774,0
8.74627089888101e-08,0.0697157173822205,0
8.11563651029305e-08,0.0667816685969917,0
8.50057984277423e-08,0.0650978407486984,0
8.34052432223972e-08,0.0639372844180407,0
8.60041746986186e-08,0.0611252842425146,0
1.72764469774937e-07,0.0813659278229154,0
2.14921609585715e-07,0.0857016434343947,0
2.12809240739388e-07,0.0882275277345597,0
2.09936008939675e-07,0.0902294399471701,0
1.71951310311278e-07,0.0808073738088948,0
1.91196426091796e-07,0.0862687169620919,0
2.08359551145926e-07,0.0926749846674047,0
2.12557115161674e-07,0.0921224620400226,0
2.16457819574989e-07,0.0889750812450551,0
2.09795526157176e-07,0.0929581484909656,0
1.29859412960619e-07,0.0810358412599308,0
7.07124443748514e-08,0.0649067405682457,0
7.66178483486372e-08,0.0651636584342999,0
7.78032359148287e-08,0.0620573359273936,0
7.30606602282931e-08,0.0627036356234747,0
4.86916400404969e-08,0.0553734221019356,0
1.01215665768878e-07,0.0709243383606322,0
9.79241900647014e-08,0.0712347204731121,0
8.57953731906898e-08,0.0727200768525012,0
8.85281222079044e-08,0.0721620310389188,0
9.5360635639547e-08,0.0716415436450894,0
1.00587082223831e-07,0.0747813639049296,0
9.11737103746635e-08,0.0746567324224514,0
8.92491218899788e-08,0.0773606004236632,0
9.54785591431041e-08,0.0778550534249468,0
9.58239981018936e-08,0.0779780504264649,0
7.27921279022581e-08,0.0735618887412092,0
7.71645263298012e-08,0.0783762504456759,0
7.35323542425214e-08,0.0768183758313153,0
7.2058951336664e-08,0.0831180273165815,0
8.63726856472347e-08,0.0844946405801165,0
7.01176997482158e-08,0.069865411097446,0
8.07328659118951e-08,0.0708523857838224,0
8.18792874508239e-08,0.0712793005777407,0
7.68495936686711e-08,0.0725846815324541,0
9.15799055733295e-08,0.0732561970980234,0
7.9936113196557e-08,0.0677195603108267,0
6.14986452376831e-08,0.0612971172244185,0
6.48292151468436e-08,0.0632916960976385,0
6.16066990567033e-08,0.0633416051409342,0
4.6300356472713e-08,0.0610122480114883,0
4.20231940920642e-08,0.060190965657285,0
4.55815358118997e-08,0.0636688635772108,0
4.3513260101685e-08,0.0594178566983851,0
6.78957389502132e-08,0.0645242945937911,0
6.54510052726647e-08,0.0598653910777367,0
7.02157557049779e-08,0.0654270290244629,0
7.48387415775803e-08,0.0645401239350297,0
9.11958851204412e-08,0.0676778582034981,0
9.71416650764229e-08,0.0661015341918394,0
1.0091521719025e-07,0.0672318871180419,0
8.93367954513193e-08,0.0683006352298035,0
8.0535984932043e-08,0.065348617651325,0
8.43864436786252e-08,0.0706861622983964,0
6.65191102239054e-08,0.0700561633774402,0
5.23932844526985e-08,0.068991186055776,0
4.78072137638188e-08,0.0615500800812022,0
4.02676720217185e-08,0.0617055255612371,0
2.97720956719727e-08,0.0601873193372184,0
2.35247135378716e-08,0.0560641436908632,0
2.26246495791994e-09,0.0392398776581513,0
0,0.0323215528448118,0
5.89104806900476e-09,0.0376822148734216,0
9.83212846451578e-09,0.0386099483238927,0
5.62084943259338e-09,0.0338666102941515,0
1.65999121469233e-08,0.0421106543340781,0
1.45194595531893e-08,0.04284640851237,0
1.57007454323004e-08,0.041531161927127,0
5.24445555412015e-08,0.0560041701520105,0
8.3125174901449e-08,0.0674905777352063,0
8.13000523284604e-08,0.0655740224610655,0
1.05657792876786e-07,0.074946450090341,0
9.97735382270077e-08,0.0686682814702475,0
8.8038996023585e-08,0.0654547676827337,0
9.49684118124986e-08,0.0715119420297353,0
1.26084194536416e-07,0.0812694990091649,0
1.43361654117907e-07,0.0861314533277643,0
1.54477226105377e-07,0.0927545489276063,0
1.27423010834952e-07,0.0909921244559059,0
7.16835187910999e-08,0.0722404781886663,0
6.14176369178484e-08,0.0695445697146122,0
5.96348129928746e-08,0.0705948188182317,0
4.38080688605779e-08,0.0686209980078378,0
2.14379802357959e-08,0.0564141999103777,0
4.28882655328324e-08,0.0640989734366705,0
4.80803604878188e-08,0.0688973386044827,0
4.53629927971552e-08,0.0635562108646257,0
4.82269958009377e-08,0.0617281008724206,0
3.92480182491132e-08,0.0587415761266439,0
3.64962989291525e-08,0.0588199716446283,0
3.54272967338632e-08,0.0582252464297953,0
3.53483392575685e-08,0.0598470570590141,0
5.25221030625625e-08,0.0654616779258153,0
7.66984721353083e-08,0.0763526769347512,0
1.05525641646169e-07,0.0873802221900115,0
1.09073088259698e-07,0.0886683049899884,0
1.12098467014544e-07,0.0845099938805838,0
1.40882056100177e-07,0.0927121475247154,0
1.33208824994805e-07,0.0884298580720145,0
1.36821385890732e-07,0.0859806544760251,0
1.57311491877827e-07,0.0937884171098484,0
1.53441550117614e-07,0.0907794805200385,0
1.95931823825941e-07,0.100651134039422,0
2.31828763730493e-07,0.110164284598531,0
2.3309823588183e-07,0.106377128376868,0
2.35864951995177e-07,0.103288338150021,0
2.15199114352238e-07,0.102729800619459,0
1.02268773926732e-07,0.0726185272930235,0
6.3992855515637e-08,0.0604798423468445,0
4.91775617817848e-08,0.0567460960909067,0
4.93453464189113e-08,0.05565609821731,0
7.05811903882837e-08,0.063033929810578,0
5.62413078225766e-08,0.0585623328117936,0
4.90647653870781e-08,0.0534841401529315,0
4.56440865398734e-08,0.0529574735421984,0
7.16846723905915e-08,0.0653645307355236,0
6.9635879694008e-08,0.0666361387701747,0
5.49814490003343e-08,0.0619921057606349,0
5.54644226540336e-08,0.0594744714455181,0
7.69306019885059e-08,0.0630354030701776,0
5.18159719961538e-08,0.0508379584729112,0
7.55274404738979e-08,0.06028582290713,0
7.45670048085137e-08,0.0553053714115642,0
9.32416015517145e-08,0.0628340353005303,0
9.10420718549319e-08,0.0642018231839746,0
1.02731367322751e-07,0.0656053333436721,0
1.06082445667313e-07,0.0687518696158853,0
1.1320489710444e-07,0.0719602890783568,0
1.11062919204503e-07,0.0767334416969531,0
1.07519958811218e-07,0.0778091327969781,0
1.05796224815744e-07,0.0874790987290438,0
9.98057108350434e-08,0.0876515603714842,0
7.79033427151309e-08,0.0920683616946948,0
3.5725053580345e-08,0.0659542430045043,0
4.77522255213992e-08,0.0731341208432353,0
4.84604074313479e-08,0.0790102340170813,0
4.98143487009933e-08,0.0719505268081119,0
4.55000147811799e-08,0.065494946292079,0
2.45065548827057e-08,0.0504182801128869,0
1.40804508578816e-08,0.0436915237381698,0
2.66625041542605e-08,0.0480170565516121,0
3.34352867677971e-08,0.0469184293571501,0
4.71171049125671e-08,0.0515849566034949,0
5.37674778023025e-08,0.0543026377402816,0
5.86766845264731e-08,0.0542551616005873,0
9.10871904128148e-08,0.0642497760748258,0
1.04240788168282e-07,0.0699051377073866,0
1.040612111808e-07,0.0730515630229924,0
1.1832598160185e-07,0.0749206681607782,0
1.31207201699644e-07,0.0716861498460211,0
1.04899621655546e-07,0.0617920020324734,0
1.01879113654108e-07,0.061607729591599,0
1.15579773923903e-07,0.065238534225347,0
6.65840963285831e-08,0.0527490639359877,0
6.30988159098645e-08,0.0531591876844524,0
8.00150706728517e-08,0.0588018953738966,0
8.86061824401502e-08,0.0595869310893627,0
1.0307373001623e-07,0.0628046289879933,0
9.16547613625438e-08,0.0614123026823825,0
7.21193230433762e-08,0.059060563587484,0
7.50070389255915e-08,0.0603377583046521,0
1.38291840709001e-07,0.0803401537639381,0
1.54729351683091e-07,0.0860192349606238,0
1.34743881384587e-07,0.0785601774334142,0
1.42488892013864e-07,0.0799498339709405,0
1.45879064563409e-07,0.0795134737746385,0
1.48796389499234e-07,0.0802516546980826,0
1.53314910529011e-07,0.0801077451724676,0
1.56027535643989e-07,0.0783330299005041,0
1.39605021463286e-07,0.0755919753327494,0
1.30214721603946e-07,0.0780544849136199,0
1.00856768149357e-07,0.0673921128527271,0
9.86644164049647e-08,0.0688563709868831,0
1.19430873559091e-07,0.0763369072864138,0
1.44134822132534e-07,0.0871968061697177,0
1.37831426334243e-07,0.0880768189240295,0
1.17543072080408e-07,0.0818059769225613,0
1.31689790820179e-07,0.0798924833208474,0
1.45102307572587e-07,0.0793158475280038,0
1.3019985298828e-07,0.0731876321512679,0
6.02787778644735e-08,0.0539427115695581,0
6.09423539274246e-08,0.0581835292863501,0
7.43830697785088e-08,0.0631408679075654,0
7.14944566522449e-08,0.0620989044887727,0
5.9442033700103e-08,0.0541113595671515,0
8.27361555174318e-08,0.0626865828200636,0
1.27326621188567e-07,0.0778926199222227,0
1.09435574855414e-07,0.0777893434748669,0
9.30021655684051e-08,0.0787529174921897,0
9.29097494313782e-08,0.0806397174660678,0
1.29542942166834e-07,0.0839587086363174,0
2.218725592318e-07,0.108069870716373,0
2.43434487324052e-07,0.103156764744357,0
2.5749314796932e-07,0.104331950409597,0
2.53857515083565e-07,0.103613417997842,0
2.4230101173497e-07,0.1012973885984,0
2.0212498678395e-07,0.0913333577557199,0
1.95096105083341e-07,0.0942943978966772,0
1.87652183921299e-07,0.0959512739414694,0
1.6890234685572e-07,0.0929776988433074,0
1.59450008979291e-07,0.0942262204618957,0
9.50856944274492e-08,0.0703170149316557,0
9.38004564163981e-08,0.0698978235828104,0
7.86001168078878e-08,0.062327927438025,0
7.81867436568317e-08,0.0622228156546311,0
8.56319465960862e-08,0.065847994257699,0
1.01028013584957e-07,0.0708044828999713,0
1.36474921510173e-07,0.0811469747772536,0
1.39823949011194e-07,0.0792522307645706,0
1.32087141756078e-07,0.0753507758614143,0
8.44930875427113e-08,0.0644052386875439,0
7.98895846837407e-08,0.066332278758619,0
3.1059384526564e-08,0.0504592109949404,0
1.48495171854279e-08,0.0454461101986752,0
1.42875860554341e-08,0.0463754755739651,0
2.69782058817182e-08,0.051941829110948,0
3.09923475783461e-08,0.0528613676522725,0
1.37037365351051e-08,0.0402702152419756,0
1.01742348025527e-08,0.0388492512180416,0
1.05198019390634e-08,0.040091907740204,0
9.23225672902966e-09,0.0402290533619396,0
9.38773630491531e-09,0.0403441363045516,0
1.9481988209403e-08,0.0460794461082803,0
2.58471656693401e-08,0.0475628793845483,0
3.61681639627328e-08,0.0518522221160858,0
2.65866229432759e-08,0.0469112524073595,0
1.36118331089634e-08,0.0422352316770213,0
1.39554775796553e-08,0.0424675473405972,0
1.97368055192635e-08,0.0462202562005254,0
1.86719050110544e-08,0.0444629020466453,0
3.59333423773888e-08,0.048630268670968,0
7.67389762952257e-08,0.066556342425979,0
7.87825137052376e-08,0.0686655096945033,0
7.2921843756171e-08,0.0664657166214116,0
5.77449606706508e-08,0.0604297632236391,0
6.41519240677176e-08,0.064432528372437,0
6.74505777242851e-08,0.0600375705378147,0
6.63277408860675e-08,0.0619543270897811,0
7.33191946920698e-08,0.0652488749134984,0
5.80583551991259e-08,0.0575572183531894,0
6.7211269918697e-08,0.067186394277145,0
4.06979646319807e-08,0.0566472439136287,0
3.16643833709005e-08,0.0532117494432385,0
3.80687832135424e-08,0.0566656992477973,0
3.76627161925977e-08,0.0564310552675131,0
1.84642571026168e-08,0.0432587908921996,0
9.50053269962206e-09,0.0404274462131002,0
2.24858331070777e-08,0.0467756726962558,0
2.66507118039047e-08,0.0469123607391764,0
9.06190853747815e-08,0.0732861501546588,0
1.1832495618008e-07,0.0788840457547193,0
1.19047878527973e-07,0.0736034937251552,0
1.36575925554524e-07,0.0759608722650129,0
1.42871374334097e-07,0.0752185072225282,0
1.48207669225498e-07,0.0788271130063006,0
1.54939563145953e-07,0.0780275024690679,0
1.68909012097226e-07,0.0795425334816502,0
1.46691070427577e-07,0.0750057362329099,0
1.35420659752828e-07,0.074420949461482,0
9.80113509151566e-08,0.0653243937877365,0
6.67006098772064e-08,0.058168111722933,0
6.55721332192532e-08,0.0599109039359321,0
4.87434238398849e-08,0.055504864071183,0
2.9084422197425e-08,0.0499370250977063,0
3.91263775916397e-08,0.0533412655890094,0
3.29225758827662e-08,0.0525968416875863,0
5.02009327083065e-08,0.0626972685216541,0
6.35898647600027e-08,0.0687887525989515,0
6.90847154925999e-08,0.0729359378251998,0
5.81971716712481e-08,0.0698877492126971,0
6.83341067569146e-08,0.0726104093436835,0
6.56314795041957e-08,0.0696743589766543,0
6.14067418115414e-08,0.0646747191030367,0
8.34328014324675e-08,0.0696294683138494,0
8.67315832667563e-08,0.0764706725631595,0
8.64167787833473e-08,0.0781598186865127,0
5.78372486299563e-08,0.0663134912210503,0
3.19412472488171e-08,0.0562709908833288,0
1.7402945570603e-08,0.0500604150317508,0
2.87415467930606e-08,0.0567613513407758,0
2.48699387224713e-08,0.050638242295793,0
2.50807910739403e-08,0.0521539250554832,0
4.08316539952524e-08,0.0639305496876716,0
2.72352022128399e-08,0.0604845073361907,0
2.48895499138237e-08,0.0536916502795886,0
3.93700434397507e-08,0.0604187020223892,0
3.51760684001981e-08,0.0565538523294118,0
4.8332614243254e-08,0.0650999968874366,0
6.67308598194231e-08,0.0701469610874496,0
7.69271411900321e-08,0.0726700751845981,0
9.39511934165971e-08,0.085266529994916,0
1.03187551832707e-07,0.0888272424162627,0
8.40256233932844e-08,0.0792209395290217,0
7.88081492494891e-08,0.0724926580431859,0
6.39415844271341e-08,0.0673324540867936,0
2.81800001962306e-08,0.0488340795918358,0
2.83626534490229e-08,0.0513830286631837,0
2.98054218794997e-08,0.0485995884253322,0
3.27667117737167e-08,0.0512834348138332,0
4.5273909280881e-08,0.0562104311167723,0
4.33722646083016e-08,0.0530575143235094,0
4.27071504126953e-08,0.0532721866996211,0
4.64704483088219e-08,0.0555430227200989,0
4.21053560113904e-08,0.0573018351650102,0
4.47381264060238e-08,0.0572496467253625,0
4.46195620138604e-08,0.057172503864862,0
4.71406896132785e-08,0.0570665342430821,0
4.43734607890456e-08,0.05707681023034,0
3.5540605839455e-08,0.0515396335719946,0
3.77338548278959e-08,0.0538223399522985,0
4.39618821260871e-08,0.0568811653138581,0
5.30245597298928e-08,0.0596915544264082,0
5.0337954692331e-08,0.0578598543639859,0
5.34751044201138e-08,0.058609753975249,0
5.40595948290489e-08,0.0615168950871903,0
5.16699775716411e-08,0.0619019743594527,0
5.11422698932234e-08,0.0602110981992251,0
6.69831135748583e-08,0.0686170499459763,0
7.70228899478115e-08,0.0666174373957541,0
6.75845234429995e-08,0.0630761200492404,0
6.47342354553916e-08,0.0661646743716004,0
5.57075757912592e-08,0.0637356174004458,0
8.1447584885628e-08,0.0727224003278566,0
9.32846692660571e-08,0.0723428030916651,0
8.81426918000822e-08,0.0655251842101253,0
9.40664251880079e-08,0.0698592617334608,0
9.31693093169251e-08,0.0695661026688621,0
6.16118261655534e-08,0.056400346362601,0
5.77634182625119e-08,0.0548875162519277,0
5.56588682571814e-08,0.0540804929843691,0
5.95041998949131e-08,0.0527631444540218,0
6.27650411237093e-08,0.0539244537674876,0
5.03430818011812e-08,0.0519918066346068,0
4.85418002843467e-08,0.0547399382523174,0
5.93514120511738e-08,0.0653498127971065,0
6.18354962891482e-08,0.0608267157353661,0
6.85272705828501e-08,0.06218746325239,0
6.78822802894812e-08,0.0613368128951908,0
5.08674568588466e-08,0.0600647888479274,0
4.7301039942572e-08,0.0598600947508354,0
3.94941194739281e-08,0.0574042158195445,0
6.32832636507544e-08,0.0670514242408657,0
8.28278025881312e-08,0.0768472970084789,0
8.45280800606146e-08,0.0776676091193954,0
5.93221875307271e-08,0.0623891028480399,0
7.5402723551114e-08,0.0721710802839217,0
8.42194281078263e-08,0.0813224942621983,0
9.67229084610739e-08,0.0914618821469626,0
1.06083342911362e-07,0.0936353274484928,0
1.21365203550592e-07,0.0930770146556103,0
1.3995097313296e-07,0.10469116456516,0
1.21957897333687e-07,0.0985450606306235,0
8.95802049439877e-08,0.0814218176467596,0
4.68560068943651e-08,0.0596485214174941,0
3.31409907197893e-08,0.0569594402750948,0
3.82424640258465e-08,0.0598060548493893,0
3.8014948570614e-08,0.0596555450756881,0
3.44576322725486e-08,0.0593338687207696,0
3.36569060478516e-08,0.0588690411372666,0
5.40976636122623e-08,0.0724628924820377,0
8.75006495943025e-08,0.0850403838713307,0
7.65220995908577e-08,0.0761539047024427,0
6.6911334050954e-08,0.0739001287731153,0
6.69087704965287e-08,0.075864224672337,0
6.55834128587238e-08,0.0752848131205645,0
7.48316918029109e-08,0.0754469561618624,0
1.00464672500029e-07,0.0876570911144127,0
9.74400628115113e-08,0.0803167419171452,0
9.64905222524339e-08,0.0799448677693666,0
1.02523078525707e-07,0.0802666058434662,0
8.94510018009599e-08,0.070998890726834,0
8.97699079714491e-08,0.0741149096319931,0
9.46746284753758e-08,0.0713947532848444,0
9.96289537574292e-08,0.071652177951637,0
1.03153841092016e-07,0.0727671135295475,0
9.07327790135375e-08,0.0688877501823132,0
5.16402403403095e-08,0.051108792849311,0
7.11267147699566e-08,0.0592154263240679,0
1.02448222736493e-07,0.0688576371843585,0
9.393517120144e-08,0.0651268619620308,0
9.13531591844244e-08,0.0671133566017021,0
9.33476045271946e-08,0.0671920985813729,0
9.0215966441426e-08,0.0686339232690393,0
9.57656772387215e-08,0.0691473067282496,0
1.13133758469142e-07,0.0744867960183032,0
1.18132048709587e-07,0.0759587407512334,0
1.21475564568594e-07,0.0813805268808793,0
1.04387295303679e-07,0.0731971452284902,0
6.86503211952575e-08,0.0623115674250816,0
7.61493587774403e-08,0.0678667802784452,0
1.07489196158116e-07,0.0770693154821823,0
1.11185457106025e-07,0.0782443888170408,0
1.20567425413484e-07,0.0795339011636817,0
1.07868602213039e-07,0.0771906993083854,0
9.58297660993502e-08,0.0704321945858947,0
1.35751999162279e-07,0.0840677617167425,0
1.40931404522861e-07,0.0802095090646375,0
1.37998698260484e-07,0.0830870761594997,0
1.30986736019081e-07,0.0796049476563064,0
1.22489193988301e-07,0.0772205565172237,0
8.67122284308463e-08,0.0661877117543308,0
8.73500407718247e-08,0.0676360279319718,0
8.14937288652806e-08,0.0627772715199848,0
8.67315832667562e-08,0.0650299079848629,0
1.004759521395e-07,0.069609798348615,0
7.23691414221076e-08,0.0581861934238213,0
7.09216304159441e-08,0.0597078193144962,0
7.500383448256e-08,0.0600421092924519,0
7.58519864641222e-08,0.0603957834671009,0
1.14049460109807e-07,0.074083968635107,0
1.19941918133746e-07,0.0778733312727079,0
1.21085263407365e-07,0.0782097846967712,0
1.02613315641473e-07,0.0754932157141445,0
8.91875965837752e-08,0.0709406513948793,0
9.38551883033751e-08,0.072675650719505,0
8.56293830416613e-08,0.0711557459527934,0
6.74819812659934e-08,0.0672971894297533,0
5.57382102666401e-08,0.0637009439559762,0
6.96584389729493e-08,0.0707315164286572,0
1.00443523176022e-07,0.0818137328947405,0
9.95308978006669e-08,0.0793151122602148,0
1.07575331586801e-07,0.0840170516583852,0
1.16673898952559e-07,0.0871189439039578,0
9.14741589532917e-08,0.0781888419251266,0
1.73401384871866e-07,0.0981615122501214,0
1.97349084889888e-07,0.095718842796104,0
1.89043040374667e-07,0.0851435615167471,0
2.05517081999315e-07,0.0880020977170091,0
2.0968683144955e-07,0.0864014062965348,0
1.83155709459578e-07,0.0809982019725745,0
1.72890596652654e-07,0.0776977643356665,0
1.66419159861794e-07,0.0733920550587909,0
2.11041541785523e-07,0.08029296586709,0
2.12210394425672e-07,0.0814944732769817,0
1.35518074820984e-07,0.0684373344453017,0
1.00770760898393e-07,0.0640485007123253,0
1.02530256478097e-07,0.0689758540306626,0
6.30781792967418e-08,0.0540347856599106,0
6.94809128290074e-08,0.0562476563645044,0
6.98281462758946e-08,0.0572874731950901,0
6.81940085075801e-08,0.0567230795565292,0
9.31661048738936e-08,0.0648910887842834,0
6.96603616387682e-08,0.0592612790398484,0
7.30587375624741e-08,0.0598870031115386,0
6.51219730621962e-08,0.0566107351353397,0
7.10498081372017e-08,0.0577369363529629,0
6.69056942312188e-08,0.0563046170006617,0
6.70723252688538e-08,0.0573535582846057,0
5.79517113350394e-08,0.053147998611964,0
4.59843983898126e-08,0.0501920761667713,0
3.96462664290609e-08,0.0466853854483749,0
3.90034551569535e-08,0.0481054003822248,0
4.64762163062785e-08,0.0508549913870315,0
5.19472259827216e-08,0.0540865685390155,0
5.79327410322934e-08,0.0580987072947751,0
6.23394910891336e-08,0.05982003071075,0
6.7246518792043e-08,0.0588734589854926,0
8.04765104693795e-08,0.0618923787650679,0
1.57657956258387e-07,0.0860752940517743,0
1.52179127740947e-07,0.0824619939455359,0
1.49291155503289e-07,0.0861203528502123,0
1.51100384038842e-07,0.0858039854771899,0
1.40931404522861e-07,0.0838487029827758,0
1.27254200776056e-07,0.0786464742176662,0
1.05945936394173e-07,0.0710374111569803,0
1.13245913975243e-07,0.0719526354189799,0
9.22930864144074e-08,0.0680333431906039,0
7.99637995843485e-08,0.067729552983106,0
1.67441120833383e-08,0.0395308417494376,0
4.01651298447123e-08,0.0526627202605045,0
4.345058119599e-08,0.0520117069031297,0
3.92316115007923e-08,0.0511254629909151,0
3.74262282968773e-08,0.0513574848011706,0
3.47714113341874e-08,0.0511906246175171,0
3.7399182797692e-08,0.0524605148061211,0
4.68498543637447e-08,0.056933927303025,0
4.51640609737632e-08,0.054972610426234,0
4.39664965240523e-08,0.0544087974560567,0
5.32414364342608e-08,0.0627169197671497,0
6.36761283664092e-08,0.0689079479066519,0
6.42204991485907e-08,0.0708602362498972,0
6.46255407477651e-08,0.0693213288818231,0
8.78421150437331e-08,0.0768901308593696,0
8.7552048860527e-08,0.0750891397079579,0
4.96369507347726e-08,0.0595053100107104,0
8.53407268133886e-08,0.0751611917306662,0
9.69878518109138e-08,0.0784192175234509,0
1.00658861747735e-07,0.0835091754749318,0
1.11870438848426e-07,0.0800323430540092,0
1.16522777419196e-07,0.0783382508886674,0
1.17797889390268e-07,0.0772387254376011,0
1.15272147392885e-07,0.0764848495435336,0
9.84213914454598e-08,0.0681769485020151,0
8.82984277314105e-08,0.0667307149545914,0
8.62097717635157e-08,0.0672921956858083,0
5.70845890507308e-08,0.0590240239514936,0
3.84968968025432e-08,0.0518712406847951,0
4.3297793352251e-08,0.0541022516211042,0
3.27943981615085e-08,0.0501869878151369,0
2.14200353548198e-08,0.0450088864794231,0
2.3818881408158e-08,0.0444170966851461,0
3.47899971037698e-08,0.0462064825016958,0
3.37870064349282e-08,0.04411114586546,0
4.37951229107309e-08,0.0460686648188529,0
7.09761059474787e-08,0.0567383999722515,0
8.11077857465737e-08,0.055384615760599,0
1.57008992455659e-07,0.0757743618181819,0
1.68317215558179e-07,0.07474200197847,0
1.90376088675747e-07,0.0813800045016238,0
1.98428725836042e-07,0.0853223750005549,0
1.96916228725201e-07,0.0868448512301065,0
1.85487903097863e-07,0.0920543112780278,0
1.83416166589175e-07,0.100530096524672,0
1.81128835153329e-07,0.10914365337803,0
1.60179468390969e-07,0.105582346645594,0
1.48043601742288e-07,0.114127117594151,0
6.00706172451506e-08,0.0707987906760068,0
5.33593599378179e-08,0.0763754571373649,0
5.57542324817971e-08,0.0803381115206072,0
5.21492340714238e-08,0.0731325219436258,0
5.07321011851987e-08,0.0734963150689714,0
4.72042657630224e-08,0.0754543063041963,0
3.83285994545316e-08,0.0653805959755878,0
2.88137108501289e-08,0.0576941747129593,0
2.20705372902027e-08,0.0502863451691644,0
1.01229637140495e-08,0.0421064966657495,0
1.9664000573589e-08,0.0551252720856299,0
1.65703030933127e-08,0.0528388717325403,0
2.24632738281364e-08,0.0520287538089557,0
3.06133260565871e-08,0.0554999573503855,0
3.25103563312013e-08,0.0550790055179004,0
4.64310977483958e-08,0.0624817523449638,0
4.97220607416877e-08,0.0624693145893112,0
5.13514559343157e-08,0.0603055900334124,0
5.94686946661246e-08,0.0687146403004352,0
6.26413496226957e-08,0.0676057616415528,0
2.32093963435775e-08,0.0490039798683868,0
1.13046341263245e-08,0.0429064866044328,0
1.13283470047572e-08,0.0429239158270705,0
1.06592592997917e-08,0.0424489955515446,0
7.63875129835372e-09,0.039032500822241,0
1.70203350726486e-08,0.0434276044708006,0
1.37184769730498e-08,0.0412894491566215,0
1.03403531293027e-08,0.0399810660931934,0
9.80649292026427e-09,0.0376704896982475,0
9.2800670190588e-09,0.0372929189006258,0
1.16194386097334e-08,0.0355897830264311,0
3.18008926440399e-08,0.0457113086472972,0
2.61687635719757e-08,0.0420864016682855,0
2.900033761228e-08,0.0438877419745051,0
2.68982229836534e-08,0.0432748511072035,0
2.70653667321734e-08,0.0442377757246704,0
3.25462460931534e-08,0.0460677837784773,0
3.16684850579806e-08,0.0456193457166142,0
4.2746244617679e-08,0.0480316864957875,0
7.22475007646342e-08,0.0601739668339171,0
6.61002254308351e-08,0.059015978622281,0
6.20466049960599e-08,0.0597245733801891,0
5.39053970303761e-08,0.0588132707464084,0
4.11399214148772e-08,0.0555024553008729,0
4.09107396492682e-08,0.0541617413174594,0
3.59814090228604e-08,0.0529587362400468,0
3.72038399504951e-08,0.0524016647983766,0
4.77923451481527e-08,0.0573626453062239,0
3.81245405222896e-08,0.0567630361237788,0
1.59837618408374e-08,0.0438887799625686,0
3.36895913667724e-08,0.0572717356750459,0
3.59641050304905e-08,0.0555365954529526,0
3.88577170878836e-08,0.0585351098909399,0
4.02358839468464e-08,0.055061049918054,0
3.28519499583532e-08,0.0538629367591597,0
3.83046302206566e-08,0.0553984277730252,0
3.4463784803169e-08,0.0577098340856659,0
4.04317395049284e-08,0.0594134478937206,0
4.4176707986915e-08,0.0604903179850206,0
6.32956968897162e-08,0.0655645850119177,0
4.78968099909777e-08,0.0561989093404217,0
5.71513696435063e-08,0.0589745012147027,0
6.27814478720303e-08,0.0567696960890559,0
6.85077875692188e-08,0.0610044541371369,0
7.21193230433763e-08,0.0601290464727093,0
9.17694804230695e-08,0.0655095119722707,0
9.24995807233535e-08,0.0646519249385137,0
8.29207314360431e-08,0.061671469370851,0
5.90227643738688e-08,0.0563383332631029,0
5.51998638373575e-08,0.0534808105831444,0
6.9825454543748e-08,0.0603559360647993,0
5.97021062965347e-08,0.0577729412844848,0
5.64484430201289e-08,0.0611716562532883,0
5.35817482842e-08,0.0612823803392881,0
5.00389160686371e-08,0.0612403434725311,0
2.42886527565674e-08,0.0504144543592246,0
2.3482158534414e-08,0.0456783801835598,0
5.21102680441615e-08,0.0620570843361083,0
4.92556220140309e-08,0.0573809901939908,0
4.33179172544883e-08,0.0609072009885205,0
5.12448120702294e-08,0.0631664690080945,0
5.19519685584083e-08,0.0634991930253844,0
5.7202512554288e-08,0.0615363581954082,0
8.38091312220801e-08,0.0677288084957849,0
9.26663399387097e-08,0.0707468435605506,0
6.31079165280735e-08,0.0564468025628801,0
5.65391928467795e-08,0.057538474036511,0
6.72902273949919e-08,0.0629627618246462,0
6.30187048340783e-08,0.0589446900408473,0
6.53905053882312e-08,0.0566913179555013,0
7.7537267143219e-08,0.0599164087720334,0
6.26117405690851e-08,0.0547847285209763,0
4.9603752704967e-08,0.0526253725686568,0
4.84546394338915e-08,0.0541678452183921,0
5.92052894489401e-08,0.0564249697891886,0
4.80988180796799e-08,0.052981724101748,0
4.78871966618833e-08,0.0519659022973525,0
5.27665379770009e-08,0.0524775225549609,0
5.18703193499671e-08,0.0535284749787021,0
4.49733325245316e-08,0.0537399768074986,0
2.94521640797134e-08,0.0495981749906535,0
1.84729731876623e-08,0.0432477474465957,0
3.42439600112119e-08,0.0498024112819779,0
3.62681425853138e-08,0.049211302484949,0
4.47323584085672e-08,0.0547579726157568,0
4.26661335418927e-08,0.0537634144628636,0
4.90904009313297e-08,0.0592769583965896,0
3.5793756838939e-08,0.0541077505322446,0
3.55667540945916e-08,0.0527282206989085,0
3.7020289453654e-08,0.050085844564482,0
5.71149671706691e-08,0.0577705460846495,0
7.74340840776062e-08,0.0654773760263632,0
5.66867254039471e-08,0.0575980197248532,0
5.70057597521575e-08,0.0566446857469159,0
5.91405596997048e-08,0.0585803227616665,0
5.96840332378375e-08,0.06000410859855,0
4.07342389270967e-08,0.0518553421357284,0
4.48560499095809e-08,0.0526302866869058,0
4.02698510429797e-08,0.053854879725125,0
3.29534667135893e-08,0.0526133058434801,0
7.68681794382535e-08,0.0746075522641455,0
8.28822781196657e-08,0.0749436324149708,0
7.9586444372966e-08,0.0773566701936835,0
7.6345214335522e-08,0.07254782865908,0
8.69366676207686e-08,0.0723412720734323,0
8.98334841211928e-08,0.074178531362312,0
8.46058839374182e-08,0.07391320222315,0
6.04428453476832e-08,0.0642891006186033,0
5.52183214292188e-08,0.0606862557960589,0
6.92769820744865e-08,0.064378214780191,0
6.09863188858161e-08,0.0582712602120863,0
5.91247938399903e-08,0.0574427723405222,0
6.24497239294153e-08,0.0566147903005214,0
6.09247935796122e-08,0.0570643744494379,0
5.63965310430195e-08,0.0611923485723213,0
4.26283211141218e-08,0.053793770536613,0
4.31882014005754e-08,0.0540518626171283,0
4.62557506257152e-08,0.0543083653641813,0
4.61115506893003e-08,0.0579601668067899,0
2.4500786885249e-08,0.0473698814687092,0
1.90793819869327e-08,0.0483420645542691,0
2.51715409005906e-08,0.0515720390488941,0
3.37429132988157e-08,0.0572767631541771,0
3.4310612426266e-08,0.063027680355969,0
1.97742334138707e-08,0.0474706759587553,0
7.85396169234542e-08,0.0724426620034675,0
8.11758481165616e-08,0.0710176291931439,0
8.07072303676435e-08,0.0724145387771423,0
8.82307498945864e-08,0.0698983444539395,0
9.34501467042008e-08,0.0710082004169958,0
9.73826391923877e-08,0.0723062526042666,0
1.01413187637337e-07,0.0722185324636865,0
9.88182296704735e-08,0.0757131078513664,0
9.62794135455225e-08,0.0748515240311285,0
8.75366675339763e-08,0.0768901761234262,0
7.46955670629351e-09,0.0369503720663776,0
4.25071931675332e-08,0.0549582681228704,0
5.68066997510443e-08,0.0613246367363189,0
5.67636320367018e-08,0.0613492538262976,0
1.11323248156377e-07,0.0754266565144458,0
1.21983532877939e-07,0.0785197280316121,0
1.06621689340644e-07,0.075250887629185,0
1.1668722943557e-07,0.0755142961816238,0
1.23082785015445e-07,0.077368778194074,0
1.22906412470994e-07,0.0760160456377823,0
9.98622372101181e-08,0.0711823861303089,0
1.03669500064636e-07,0.0743377154153152,0
1.11627413888922e-07,0.0768374570803695,0
1.23821216867611e-07,0.083783537085617,0
8.5528763530474e-08,0.079822116138791,0
6.7893175395788e-08,0.0743716866240784,0
6.60949701442638e-08,0.080248676778403,0
6.89949910877194e-08,0.0792227978749108,0
8.93670453935359e-08,0.0834107646663341,0
8.4155723780361e-08,0.0835652914400101,0
6.47342354553915e-08,0.0798224163010073,0
2.14666920453576e-08,0.0607617071000037,0
2.1128174683516e-08,0.0629705036693099,0
2.31719684489703e-08,0.0620601453585243,0
2.36507122378679e-08,0.060082128131147,0
2.11333017923663e-08,0.058232543579928,0
3.20591707523743e-08,0.0587804827368421,0
3.67049722593601e-08,0.0667074898843864,0
1.7259258345073e-08,0.0533627017604596,0
4.21617542087437e-08,0.0602624964043019,0
4.59158233089398e-08,0.0565061416283158,0
5.22677984635873e-08,0.0547406333638404,0
7.07325682770891e-08,0.0606999673918242,0
7.05729870141233e-08,0.0630308768887419,0
6.7214730717171e-08,0.0594077156990185,0
6.69697830918474e-08,0.0582652003918987,0
6.86503211952575e-08,0.0599483574598708,0
6.75818317108529e-08,0.0584854147661278,0
6.73189392045533e-08,0.0606004206173525,0
3.52225969130148e-08,0.0487466938073823,0
3.62828830232584e-08,0.0531116679999148,0
1.93941864703415e-08,0.0460242946824543,0
1.86190957898962e-08,0.0433365599638957,0
4.60254152606151e-08,0.0542422586174272,0
4.675051662977e-08,0.0545262192835021,0
4.40741658099088e-08,0.0544580089893502,0
4.32793357603898e-08,0.0565553595908293,0
5.55137710767177e-08,0.0607708807083483,0
5.53497035935078e-08,0.0594059734010898,0
5.19441497174115e-08,0.0592591493985277,0
6.04623283613145e-08,0.0628661266449312,0
6.00193461566477e-08,0.0655920212848336,0
6.25695700987913e-08,0.0683152297061432,0
2.83324035068059e-08,0.0528265826884435,0
1.88671196805298e-08,0.0482014261082855,0
2.69874346776487e-08,0.0493422112955764,0
2.63978171598633e-08,0.0490083096040513,0
2.31482555705376e-08,0.0471302102714014,0
2.47864950259326e-08,0.0463963657920934,0
2.76735700195414e-08,0.049766891652456,0
6.2083520179782e-08,0.0636721939179099,0
6.83529488819395e-08,0.0621218996795811,0
7.73571774448518e-08,0.0654497804039767,0
7.36832194204418e-08,0.062889875352772,0
7.15071462466494e-08,0.0646113293328067,0
9.85167556700758e-08,0.0740975719694427,0
1.01526368565207e-07,0.0691251000777725,0
1.31737985643372e-07,0.0784731369047854,0
1.57410829611802e-07,0.086787446861113,0
1.65993609827219e-07,0.0873437479739224,0
1.49367036714274e-07,0.0846152631832353,0
1.42650908653533e-07,0.0843206390447596,0
1.27289706004845e-07,0.0831301562054997,0
1.34255908799759e-07,0.0821381291998331,0
1.55277055086025e-07,0.0862351281065441,0
8.71916131083502e-08,0.0663656243018804,0
7.6874844679759e-08,0.0694460545278256,0
8.99653789963671e-08,0.0758941734699434,0
7.8670358199137e-08,0.0686240235227355,0
8.24792873640313e-08,0.0636659316116433,0
6.53602169926979e-07,0.149925616970906,1
1.63118288730649e-06,0.197276720401103,1
6.59066604086322e-06,0.269188453104799,1
6.90173286192031e-06,0.192466784930527,1
6.88632897609043e-06,0.192060517487546,1
6.5561759796272e-06,0.187042015210055,1
6.24563891709207e-06,0.156696998596185,1
9.72782397202004e-06,0.163763523496325,1
9.18046523897826e-06,0.135895297741455,1
8.30578508351356e-06,0.128728724505035,1
8.20336326538765e-06,0.127280194737423,1
8.2882322981868e-06,0.130832131745805,1
1.08053402442662e-05,0.119022308131972,1
5.89971610022255e-05,0.214426778383542,1
8.35357450620967e-05,0.135934674553901,1
8.49021635356624e-05,0.103830467838204,1
0.00018665567135449,0.0979705727571239,1
0.000489219524874205,0.0992754758234176,1
0.000482482585750463,0.0556272450555796,1
0.00045021563891193,0.0545890848826964,1
0.000411702848071951,0.0537612013943516,1
0.00036184526771731,0.0480576790136775,1
0.000342462066590391,0.0430128882104151,1
0.00034360830868051,0.0421056057874589,1
0.000332762433385495,0.0437060101673114,1
0.00030202410264714,0.0428684055497192,1
0.000304676786732548,0.0455878868280696,1
0.000183529980714988,0.0400764693920474,1
0.000187821607566947,0.0571901882566277,1
0.000198378032444529,0.0565656278240419,1
0.000185472386800171,0.0525552225682536,1
0.000215531709262469,0.0612336152920821,1
0.000218726007796341,0.0686739102843075,1
0.000224987389629335,0.0630140547047791,1
0.000232347451158133,0.0529337871022724,1
0.000247225712069375,0.055068050984008,1
0.000189850558993169,0.0605430424511302,1
7.56541923461842e-05,0.039616131810599,1
9.06278465783849e-05,0.0581454909147625,1
9.30835116365354e-05,0.0501812199415331,1
0.000146163801116965,0.0496614343496822,1
0.000134614092725729,0.0455794030139655,1
0.000115997716867078,0.041417341876134,1
0.000115112013940296,0.0480279806525388,1
0.000178019096359416,0.070149341093228,1
0.000237500752997603,0.0678214689626651,1
0.000897539226202046,0.0656482667529807,1
0.00166467246951613,0.0790622363062426,1
0.002700416144985,0.0815499580416296,1
0.00279626863032909,0.0524345840512083,1
0.00271806098857658,0.0472719667949092,1
0.0024874981996683,0.0185949464973842,1
0.00396069533619001,0.0164767944081504,1
0.00324202345587219,0.0125115743715222,1
0.00269239922262406,0.00977269303336889,1
0.00321443032570429,0.00954429150947278,1
0.00317075301080899,0.00717271358643003,1
0.0035822691359855,0.00756788341962226,1
0.00368923565967062,0.00693207639039383,1
0.00391245981977505,0.00782042351882638,1
0.00366913991961665,0.00743913170084429,1
0.00342893771039799,0.00823619443360365,1
0.00308257714661465,0.00955977582917793,1
0.00297051927912424,0.00840650111259671,1
0.00530664425437446,0.0105783387093451,1
0.0119502791822561,0.0209554212486144,1
0.0151641213623074,0.0284259289189574,1
0.0159816031069049,0.0245490322771568,1
0.0146632361897295,0.02162082622491,1
0.0142548960195732,0.0136323934816712,1
0.0291111954608455,0.0125971634571121,1
0.02985099020993,0.00742092340227577,1
0.0241096361809249,0.00612115335941074,1
0.0195912994809652,0.00498604341309573,1
0.0197235593095154,0.00534694624590615,1
0.0215537220801941,0.0058655299414101,1
0.0303813321993107,0.00317230874515188,1
0.0510378157695165,0.00496053625061049,1
0.0497807522316382,0.00480937402203052,1
0.0475904973978594,0.00475227397192134,1
0.0409583731344096,0.00437298887084564,1
0.0451530833142104,0.00635756843399669,1
0.0427203107167091,0.00565056062195132,1
0.0374012400706266,0.00450523888581884,1
0.0418121573282313,0.00465971988450268,1
0.0317363882620013,0.00188675220360645,1
0.0301455883486012,0.00233601680324807,1
0.0333756456269264,0.00303665934106578,1
0.0323500609895095,0.00309120096973291,1
0.0335922766330604,0.00340861186947042,1
0.0310892458354681,0.00297846209053781,1
0.0642258228650178,0.0061267046039012,1
0.0996420074600056,0.00999195233470861,1
0.0983077484178059,0.0094995965534532,1
0.138329741640412,0.0111640188018563,1
0.140188731036615,0.0103053561284715,1
0.108409297498422,0.0112428348902128,1
0.119422639827319,0.0114595046826885,1
0.107016659026214,0.00810113250744313,1
0.114898922022947,0.00633668404816581,1
0.200583676599559,0.00977365434555348,1
0.202433555405839,0.0082976133079561,1
0.275252846730145,0.00840355392681335,1
0.393450301921832,0.012187066189708,1
0.420022253147342,0.00854238312575082,1
0.422768378754119,0.00944888414241008,1
0.390713257311819,0.00868140248133061,1
0.288832268964711,0.00694001047673305,1
0.215159178834195,0.00556746140919801,1
0.210663668332514,0.00618549684150753,1
0.193178875388662,0.00565457812932648,1
0.185068718824597,0.00614446271904829,1
0.196453933890984,0.00690841524696729,1
0.123613502544015,0.00232968958220782,1
0.10166618923697,0.004510622309019,1
0.0876645237265469,0.00367081443254464,1
0.0940129259188829,0.00370291343299941,1
0.124320750917163,0.00571087751167684,1
0.120547922375416,0.00573993189537024,1
0.128652220965879,0.00645956559605456,1
0.182015568818053,0.00919736907774697,1
0.159573676416219,0.00799434923637168,1
0.178904196677997,0.0118279602699947,1
0.214125016871422,0.0293032293191039,1
0.221487514781837,0.0310890532703631,1
0.191170024403028,0.0277992191703959,1
0.177005647150793,0.0288224909326404,1
0.173013673394218,0.0274332661639279,1
0.144202104836794,0.0231706808953712,1
0.0852845975944198,0.0160190401390241,1
0.068972269883401,0.0171691041523449,1
0.0404745512210597,0.0158873483237159,1
0.00615197224578771,0.0140473894966127,1
0.00227760120700155,0.00809119285440848,1
0.00336041508561665,0.0105466441479247,1
0.00426827832023769,0.0128031257940559,1
0.00601938596050203,0.0180721669886227,1
0.00753445652583092,0.0206340870267783,1
0.0226416545989574,0.0128220671541955,1
0.0452377698270616,0.0146928900471044,1
0.0439280576599695,0.0142946392575085,1
0.0528836809038712,0.0144877822363775,1
0.0669108946560592,0.0169209287193928,1
0.0611402406870925,0.0153254237053494,1
0.0520701399756231,0.0144423674303349,1
0.0456438281934463,0.0114071236698932,1
0.0508002932802691,0.00882559374363265,1
0.0336626876058702,0.00497797682545154,1
0.03433215373569,0.00558652414997921,1
0.0347661095462768,0.00585995262946334,1
0.0305109034734965,0.00458575479383505,1
0.0435841072930176,0.00766070153493874,1
0.0534320018942401,0.00422358636173663,1
0.0611653619868125,0.00342763636126315,1
0.0663705926096702,0.00341143833787494,1
0.068343124586031,0.00301022698311431,1
0.0668941100901898,0.00294605104659938,1
0.0598387112049949,0.00262533466899465,1
0.0599238226372462,0.0027207947308688,1
0.0594256344604329,0.00278229444841935,1
0.0582695220361721,0.00328146318654533,1
0.0700017560726141,0.00180924115356752,1
0.0995689525093257,0.00580281037298342,1
0.112389501491607,0.00645905275221072,1
0.248173988599624,0.0112776505270536,1
0.235149399317015,0.00678164169738866,1
0.216180234259919,0.00584315756809875,1
0.215795722529128,0.00602553235789086,1
0.202759441470042,0.00594800383367401,1
0.227780967262104,0.00527514563456095,1
0.208604852868229,0.00253989876485129,1
0.210038242163767,0.00272030717942988,1
0.230979911254608,0.00331506183234625,1
0.242138450860386,0.00418134806386488,1
0.204549972501442,0.00371606462062793,1
0.174544228640794,0.00506750660813341,1
0.135988138241686,0.00418503591634302,1
0.168401983227011,0.00528854084773565,1
0.167198061374972,0.00330458549137627,1
0.16189597917091,0.00344932354973193,1
0.135815225383768,0.00544362245614273,1
0.0953202694228269,0.00538358793256448,1
0.130038952811427,0.00638541938431071,1
0.169263838846155,0.00746178258184477,1
0.172486743737777,0.00710738596904188,1
0.238040901496311,0.00811908580369285,1
0.252181994686117,0.00852135636198392,1
0.198324590714511,0.00591564665316306,1
0.27998077917398,0.0114068298367652,1
0.312295712289912,0.0182693426573613,1
0.279754307997511,0.0168443099245559,1
0.236655707310187,0.0141986937498327,1
0.226097448845176,0.015384142795793,1
0.215355538683424,0.0154110982751766,1
0.121207263253678,0.0109586760656029,1
0.0962364936682871,0.0118938079599679,1
0.038237515837201,0.00538012462273004,1
0.0058443337338694,0.0562087193534512,1
0.00623619739677443,0.0182003501587187,1
0.00530253363843415,0.013140670718631,1
0.00621345288974622,0.0155153138462004,1
0.00814995896634076,0.0187418159124833,1
0.0121497275280258,0.0236703120991889,1
0.0183630266752607,0.0291334367909175,1
0.0200557145141487,0.0260243056210555,1
0.0207460018781281,0.0208722334182074,1
0.0280835876726851,0.0202699592428157,1
0.0240839831409271,0.0112106708040862,1
0.0543903562005576,0.014198928296154,1
0.0535298834175304,0.0120905802190497,1
0.0647679131604538,0.0128777283459493,1
0.0589763360601407,0.00933480263671595,1
0.0522273309932607,0.00780698312635783,1
0.0475355333738511,0.00688828437004435,1
0.0412515628052648,0.0055684286011433,1
0.0396121728618928,0.00477291015867315,1
0.0388836816011539,0.0044895896831617,1
0.0335985584688532,0.00463905575827514,1
0.0295009044984266,0.00324607108843289,1
0.0737732695659287,0.00820698475861821,1
0.0816440984654476,0.0066020320027628,1
0.0828148984225549,0.00710039152613237,1
0.0746802129935049,0.00633592172169221,1
0.077912719452121,0.00587554874017347,1
0.0799078021314364,0.00544384853175418,1
0.066735381920713,0.00490041672157237,1
0.0662053464528432,0.00371019464907323,1
0.18703931358466,0.00650920934356104,1
0.259590912914149,0.00481676432611873,1
0.251929054040629,0.00500148047078347,1
0.268049658706876,0.00613656247715742,1
0.248269797232422,0.00570466228576118,1
0.246948678380973,0.00543642475817832,1
0.244776025716961,0.00629610900267766,1
0.224296019241671,0.00634355495814622,1
0.195029647179902,0.00579339334927658,1
0.155194192735311,0.00490034928273343,1
0.136665310882547,0.0052478131917713,1
0.160719806659356,0.0128347958537164,1
0.179326435361118,0.015609588412907,1
0.191219158214165,0.0188429434372712,1
0.120447235597971,0.0146564635478666,1
0.0823540358728567,0.0128138016122106,1
0.0815859067809364,0.0136945617259466,1
0.0792621439265214,0.01257596142938,1
0.0918444866257637,0.0121618050040468,1
0.0688737839119178,0.00880229240924212,1
0.0827476122052,0.0152258617510616,1
0.0690265459883461,0.011456340832335,1
0.099708728786607,0.0140302971626931,1
0.138084796891268,0.0146323311851242,1
0.132600300192978,0.0111151959400924,1
0.179715599414715,0.0105446322386174,1
0.25210682320607,0.0130625314415151,1
0.265917846956931,0.0133211371773678,1
0.26832280895525,0.0138692052044871,1
0.22011479261728,0.0131195069711188,1
0.208222349488909,0.0134383607892712,1
0.138880906987216,0.00880435624448058,1
0.132445529913636,0.00769639937120973,1
0.133080047759043,0.00888867259184307,1
0.0387660983017775,0.0025326587818118,1
0.0152417107178003,0.015267409498136,1
0.0159716199543221,0.0160817606124711,1
0.0162733220177507,0.0139366780623335,1
0.010868258711046,0.00855794818142061,1
0.0151006663949857,0.00977502854138805,1
0.0451858694173507,0.0159672688063137,1
0.0502308839240124,0.0150700051726502,1
0.0711361690146048,0.0152241370425999,1
0.0963658960764004,0.0184923564286021,1
0.0998429842892116,0.0201636722824557,1
0.123412655873645,0.0193624431451935,1
0.145984253402198,0.0203637200298435,1
0.115562870977449,0.0183427552661341,1
0.0937219594790668,0.00908301322065508,1
0.0880460797643248,0.00948366350972472,1
0.0928482476011805,0.0101075264583485,1
0.103001383592002,0.01117493550261,1
0.113492515266851,0.0105979432091309,1
0.113207153996231,0.0102710156097555,1
0.123523562194154,0.00981724568278228,1
0.125464413541515,0.0126881087908837,1
0.0809762455724805,0.0075900894647791,1
0.0481525939500467,0.00421660453216568,1
0.0491635189480119,0.00713580708461246,1
0.0644714856943395,0.00930725862184073,1
0.0763137985086202,0.00874116307157673,1
0.0732816933325298,0.00536229804762361,1
0.126093934409094,0.00994665441766202,1
0.224151293350408,0.014972599395898,1
0.266624993969571,0.0167175967772879,1
0.286832633510665,0.0171009179409213,1
0.26004388375843,0.0128164495492965,1
0.223350503821298,0.011870431877007,1
0.191317249453768,0.0104619152631462,1
0.170673080337153,0.00870850834006362,1
0.194630415479097,0.00980637739666745,1
0.223696625510132,0.0124035100715868,1
0.424718429767101,0.0188828802283475,1
0.47932436406572,0.0108607193441003,1
0.506571770555581,0.0103218987255297,1
0.519627601303785,0.00979947794214521,1
0.505653926040797,0.0104002790526595,1
0.468961164118957,0.00851744488595277,1
0.41555079542052,0.00773309944332548,1
0.386811212456912,0.00724051351584154,1
0.400182866349177,0.00831354045517019,1
0.384424974374278,0.00843625836786374,1
0.266473141559664,0.00627427742381248,1
0.195274666072038,0.00773092179977392,1
0.206456825995656,0.00961447903240346,1
0.249993554447034,0.0115484006694513,1
0.319848850750404,0.0131965014665563,1
0.28296936252603,0.0140973729464229,1
0.232922513756255,0.0120662288523278,1
0.318402351661335,0.0167849479071251,1
0.297354223855921,0.0226837160331988,1
0.246358594265135,0.0272570443852015,1
0.255578566156804,0.0277377227141981,1
0.219961145024039,0.0259481146041663,1
0.165774009095046,0.0218020641854738,1
0.107990532488971,0.024191733870544,1
0.0763476942155307,0.0263360420457416,1
0.0192009113670456,0.0133141453689937,1
0.00379174842206879,0.030025944478794,1
0.00329297430002938,0.0320750605693969,1
0.0024510233679439,0.0327678534538078,1
0.00134150655856215,0.0259928268313323,1
0.00219705194349847,0.00980408436679488,1
0.0246250087388884,0.00655569866496926,1
0.0696963315665281,0.0205339370448862,1
0.106921979629399,0.027688808461508,1
0.110088555167922,0.0192292760381857,1
0.111311136840889,0.0190006103446614,1
0.110933559299481,0.016546414904449,1
0.108624477353431,0.0113384330975426,1
0.0902847508893269,0.00982996889703249,1
0.0657192188016085,0.00706978084922179,1
0.0466956118479665,0.00520470618087991,1
0.0441833251170409,0.00439045405068345,1
0.0486846847783114,0.00439531286812901,1
0.0475050383149426,0.00426152918160133,1
0.0476559528852506,0.00518777248841824,1
0.0475475932700772,0.00503996381749296,1
0.0634492851433375,0.00622077986307488,1
0.0703379733656152,0.00497343069705005,1
0.0642346491886716,0.00388593134894782,1
0.0922416103481941,0.00534619276023942,1
0.101182498733984,0.00382774469229957,1
0.102142823178021,0.0043136395892503,1
0.0954085272951273,0.00420218730427925,1
0.100331349077358,0.00438795334204937,1
0.0880844595666773,0.00350369600296687,1
0.141223865879444,0.00552161424996587,1
0.188346923291684,0.00764166345801438,1
0.195480413092693,0.0109681064284804,1
0.164846707303313,0.0103799391931335,1
0.178076080435984,0.0121066759970717,1
0.168668478250584,0.0170883674568073,1
0.168591496038093,0.0179635856760483,1
0.157033359216843,0.0154388452999326,1
0.127538062398741,0.0126529339692352,1
0.0910755153803228,0.00918916481816555,1
0.0942233497619754,0.00993821946896456,1
0.0950226498999314,0.00924245185884777,1
0.111057018383523,0.010429280048511,1
0.126167204679503,0.0119447837718777,1
0.140978043415538,0.00777533110021643,1
0.201859670569606,0.0117210434028774,1
0.198721701506244,0.011204735432957,1
0.202231097383983,0.011621027026247,1
0.199232438278124,0.0115929788891798,1
0.181649711065849,0.0106360916920514,1
0.196511608478369,0.012629326038033,1
0.203552567245892,0.01439214568612,1
0.213665455821899,0.0114794302647807,1
0.267703988276554,0.0109162559310073,1
0.261197473380962,0.0123792528271614,1
0.301394291132862,0.010976402839411,1
0.25179695751793,0.00778319030468856,1
0.233249740262947,0.0060033832957553,1
0.293898211338117,0.00728753470227275,1
0.270738035420105,0.00671360561938539,1
0.304627383217414,0.00732181090813407,1
0.283874601275664,0.00663036858691889,1
0.248627741815081,0.00646733641896918,1
0.251485013138359,0.0079005336259619,1
0.13291556355468,0.00538436872531666,1
0.133602817961525,0.00721209486025745,1
0.0474624054445448,0.00316509251057789,1
0.0145591853814526,0.00478194745458051,1
0.0182185066011437,0.00726097559535363,1
0.0230614029427679,0.0112178166592643,1
0.0257162356990039,0.0143288169839144,1
0.027030236250308,0.0148846131546806,1
0.0696988660406327,0.0188272197012982,1
0.0840361585996221,0.0107250788927358,1
0.0752595440061345,0.0103597791236174,1
0.0726646758863429,0.0076777592462613,1
0.0622597666069682,0.00553031526638623,1
0.0559530379008066,0.00510123084266993,1
0.0565309072250769,0.00506033241994185,1
0.0653597444356631,0.00490613647760105,1
0.141023432594146,0.0097181431496038,1
0.140341162635501,0.00598314806980113,1
0.142220171747886,0.00635665878171283,1
0.141268321329497,0.00721905076575833,1
0.132769354730882,0.00538616680378875,1
0.138515569262538,0.00496558314307181,1
0.137325902229971,0.00511126667615546,1
0.141510716074524,0.00512794948772121,1
0.145383962788456,0.00402002309044948,1
0.181543807089073,0.00541516186268277,1
0.134703616531834,0.0034120184507465,1
0.155784131610025,0.0031569723510562,1
0.197266625325871,0.00363187670587234,1
0.197121513789118,0.00365175681234154,1
0.199804914885464,0.00383043424078366,1
0.182376367118351,0.00334661879455864,1
0.215314347328519,0.00287957033643454,1
0.27594787193749,0.00377605515807346,1
0.252568329348924,0.00396312906914192,1
0.282203993398334,0.00491664553170443,1
0.244290282650161,0.00528800270308553,1
0.251601134412781,0.00733342113256676,1
0.286441577986502,0.0086219223685488,1
0.189289322335196,0.00560022497735696,1
0.171798335180789,0.00511757852407585,1
0.170833624763919,0.00550460581168577,1
0.117187951836157,0.00552138117290996,1
0.126331885918018,0.00555135439122286,1
0.132460361876626,0.0031957991854836,1
0.160773376287155,0.00355396779205643,1
0.168729622592092,0.00341730965281952,1
0.19076798009323,0.00412638759830212,1
0.209615497042137,0.00518989136897889,1
0.228283808931216,0.00649129583438744,1
0.276379317061322,0.00871734278522072,1
0.297653050185136,0.00898144271264751,1
0.267446618907887,0.00874015256703887,1
0.248954838306752,0.00974415056485521,1
0.244202363335214,0.0128965728915291,1
0.267086348249,0.0138976400790107,1
0.443758360459249,0.0237888060261608,1
0.568044409257568,0.0256218471648113,1
0.847631338485529,0.0318559593184306,1
0.821211186209051,0.0152957725347155,1
0.628681164412194,0.00968193255016037,1
0.64759926312265,0.00970217993188442,1
0.682762335015734,0.00884376564365769,1
0.471190768629762,0.00657093437025958,1
0.341672327279422,0.00474322061785232,1
0.350489148316484,0.00498025390195643,1
0.371812236728054,0.00521018039745067,1
0.339284302315396,0.00467637585073618,1
0.353678474816425,0.00495321085935972,1
0.274156964609498,0.00760609346351985,1
0.0995474177108173,0.00551713589936403,1
0.0994758673021543,0.00671166391552475,1
0.0919154829170105,0.0105430833889248,1
0.0107625876998417,0.000771147024343542,1
0.00733782860917681,0.00764172745556265,1
0.0592867421578582,0.0177355013689762,1
0.0724054961342596,0.014923168963681,1
0.144079352341156,0.0102873756611341,1
0.302186670361287,0.0135371381461984,1
0.291044379097187,0.0113065931793255,1
0.274929005047787,0.0102043853084957,1
0.24271890472421,0.00794308179055242,1
0.219718218026665,0.00734196815975221,1
0.18108929382754,0.00564486745206634,1
0.155338385103216,0.00500332827751928,1
0.1550676378477,0.00577602980898393,1
0.203671317867082,0.0061296496654985,1
0.245751038044924,0.00809357409661715,1
0.20381229646959,0.00757111074735869,1
0.20300501815868,0.00815546908296417,1
0.21239877674527,0.00686342309569586,1
0.230821660819392,0.00773149839591453,1
0.192016606735598,0.00604674583458316,1
0.220670894067493,0.00689273898739112,1
0.241575760340457,0.00463112473669605,1
0.285353047911277,0.0047196623215906,1
0.232730987222285,0.00475441403375115,1
0.166274535692371,0.00361848465463312,1
0.173558706535287,0.00365339474659841,1
0.182207517548031,0.00391461201382797,1
0.186341080455541,0.00538293266065967,1
0.148768413000526,0.00466066917223435,1
0.154990544293887,0.00500921748567445,1
0.294717514896252,0.00809959451961262,1
0.295683983007163,0.00691388314687879,1
0.290607757744239,0.00796042130391277,1
0.272005779579895,0.00730338651237385,1
0.246213764099373,0.00638160466202906,1
0.252348580359092,0.0059389548920317,1
0.303815735251079,0.00734600924489681,1
0.297330491398213,0.00721176304782468,1
0.280838415069615,0.00674914124250228,1
0.23108968002745,0.00523075362774033,1
0.213165984612628,0.00690593175625203,1
0.188392405320568,0.0112453834057071,1
0.196143914488532,0.0115232639217306,1
0.190880642800625,0.00783842011684181,1
0.219644737914072,0.00952655499267917,1
0.247466815602155,0.0142859313073549,1
0.265795836862553,0.0139043930895749,1
0.273929642939113,0.0122515329293856,1
0.269915864418549,0.0124347594920297,1
0.265392320075164,0.0130937814032014,1
0.259955947172176,0.0128484852818486,1
0.24074599149219,0.0124862982822162,1
0.295496374045795,0.00945847951448564,1
0.459048874743542,0.0211845659382629,1
0.554241222248492,0.02452657234951,1
0.449711126682453,0.0147010347862152,1
0.401544104789311,0.00925793544600141,1
0.542908583217866,0.0116664001524351,1
0.474860904184312,0.00853801026023404,1
0.454933007857399,0.00619931019397966,1
0.457838354074,0.00636275094363394,1
0.371221306163844,0.0048462666100093,1
0.393137146228828,0.0062776419084746,1
0.424600738576563,0.00673115668194799,1
0.44483537935387,0.00676321476801048,1
0.292361761212112,0.00478996080266312,1
0.214520516037241,0.0069345402777269,1
0.218078607260894,0.00705832988885529,1
0.0836202874442275,0.00303171495502708,1
0.000733345676486155,0.0200647129482817,1
0.000597470354077456,0.0141639131316457,1
0.00357299027319613,0.0354242296827344,1
0.011375698154498,0.0146178726505444,1
0.0803099265430814,0.0146315841395739,1
0.155060847193908,0.0201704792083969,1
0.172278229993319,0.0217624282902056,1
0.199785330414552,0.0227864680867529,1
0.188386052827575,0.0208798400798318,1
0.169615207889795,0.0174272268617004,1
0.129041385353251,0.0134920951843564,1
0.0885445249913039,0.00907671728895722,1
0.0753297003478767,0.00314421604431289,1
0.126003049066419,0.00523835215361753,1
0.125114325605359,0.00582490540075429,1
0.131701363513272,0.00636878327522785,1
0.129047575074253,0.00539232078131337,1
0.135859070423697,0.00488933599043854,1
0.147292697860993,0.00526495635545347,1
0.15023076299087,0.00365090269175893,1
0.174698263941904,0.00401194474627757,1
0.182644983173278,0.0031446086665407,1
0.175575950885227,0.00309290469409919,1
0.177555376833289,0.00272566277944961,1
0.178997858760923,0.00248281941270795,1
0.196244374413201,0.00233637516397069,1
0.220117062130474,0.00251735291287633,1
0.222937017791814,0.00283700777654508,1
0.191484515973857,0.00210089761212496,1
0.193146935361665,0.00208481498582482,1
0.267892702029388,0.00347566376391342,1
0.415722449768686,0.00700152435611322,1
0.594302831754195,0.0141224774814039,1
0.65431311775834,0.0133373322934031,1
0.648924835710391,0.0125996381781624,1
0.563896216899537,0.0129523460045465,1
0.433882539309406,0.0112734000039104,1
0.42933137961945,0.00921577128309418,1
0.294460626660607,0.00650442593455748,1
0.247926851688568,0.00510740084617388,1
0.291615491491608,0.00613721659596343,1
0.362739151921951,0.00666408368770068,1
0.358736504596188,0.00590245736022451,1
0.346764035327844,0.00621964350574848,1
0.277132373031688,0.00532217103009822,1
0.313609476091966,0.00592403930331706,1
0.338284244232971,0.00636995572378747,1
0.352926621049516,0.0085838539670543,1
0.205710651547089,0.00582890949374239,1
0.219758950448032,0.00660939769300089,1
0.413069048386394,0.0106934166471965,1
0.45781445871151,0.00812457580445979,1
0.450142376535345,0.00847726821803632,1
0.613692315154121,0.00959965046092143,1
0.727268660582313,0.0106382093061676,1
0.678843759202013,0.0102678580959159,1
0.755521531387101,0.0107353919474857,1
0.738592185113083,0.0102189623891926,1
0.593926513691177,0.00829876574770484,1
0.521706912150878,0.00891069975602629,1
0.598928763183517,0.010284610009235,1
0.558931048089892,0.0151155661340252,1
0.310304092752159,0.0100756752874611,1
0.267618405283593,0.0113862028588809,1
0.173131862284107,0.0135474160992393,1
0.0238580514752541,0.00685302304880674,1
0.0102367172152618,0.0171753800912107,1
0.00927319910294053,0.0208475521473482,1
0.00248468066775371,0.0144645470776313,1
0.000728263651329389,0.0143470614287993,1
0.00076431129952233,0.0247657302909656,1
0.00326217994908977,0.0248531909389292,1
0.00779202263294371,0.037558276669651,1
0.0191581350027143,0.0456582983321658,1
0.0593011217728257,0.0281953064235222,1
0.212509771377025,0.0255141243093033,1
0.320293992903103,0.0160660549860031,1
0.317257804001733,0.0180368826843355,1
0.30711379915849,0.0141368415785834,1
0.330680687810791,0.0151128407339371,1
0.311023436466903,0.0153461594909719,1
0.249692071410106,0.00988183654741125,1
0.188839183583177,0.00793259602985328,1
0.143607317229605,0.00442233066836083,1
0.14777472957238,0.00369843723952907,1
0.159056543370581,0.00432496227341228,1
0.146307203047087,0.00427526928284434,1
0.176640610065678,0.00423993753225584,1
0.199693501753962,0.003990092225568,1
0.204740001100315,0.00314100934123144,1
0.220737395356912,0.00275399164417428,1
0.237118392891238,0.00182739074399218,1
0.271997127124193,0.00187108990801265,1
0.273837226530734,0.00222221291274068,1
0.264924200141982,0.00217817015241306,1
0.256002710526298,0.00219271269258668,1
0.255616435416398,0.0023014029131287,1
0.225789306506498,0.00221727184195856,1
0.2008110254831,0.00241687260074868,1
0.214119980779649,0.00308856847556975,1
0.155696216172838,0.00196625184453954,1
0.126839089211579,0.00316296477291659,1
0.102723241694403,0.00389962850295674,1
0.0870901643283231,0.00501603146239273,1
0.0774970091956563,0.00571210520456219,1
0.134693597273126,0.0100786424339887,1
0.150450497170279,0.00576390780742281,1
0.139834551943051,0.0038447286725157,1
0.188225285021905,0.00477780940992923,1
0.211525407945181,0.0049982361190903,1
0.237110083899148,0.00620209044117724,1
0.223192095470233,0.00513153859092315,1
0.216283219409901,0.00445663469287278,1
0.239610278696339,0.00459686129875212,1
0.227590817281621,0.00335175350904853,1
0.275105940521103,0.00419193764905171,1
0.278397485604292,0.00404139167113151,1
0.231211844506766,0.00255613827011922,1
0.256591609919043,0.00366413016003733,1
0.319309551451146,0.00435770871143742,1
0.461912994816651,0.00687095850713739,1
0.525032316588237,0.00751600481540106,1
0.673458614208044,0.0104821853523665,1
0.640286297875524,0.00905200851783937,1
0.61882169898466,0.0100401770898207,1
0.692896631157839,0.0100601222045641,1
0.601440496651202,0.0147521413316701,1
0.271303465568093,0.0101601415204448,1
0.205527340104902,0.00813291898756252,1
0.140014178115273,0.00742874152439822,1
0.137554764821646,0.00739599598740126,1
0.102371878088703,0.0060418944776372,1
0.103889431433292,0.00724180005507755,1
0.102334200703339,0.0110590819099118,1
0.0168859782208171,0.00246607996775344,1
0.00197788170940451,0.059803919098425,1
0.000996076205112093,0.0376377326645218,1
0.000761389276103954,0.0281674056407509,1
0.00100315365604302,0.0410267153546565,1
0.00490189708852641,0.025031980469374,1
0.0151327023849254,0.0298542846741039,1
0.049437643196844,0.0368326603627363,1
0.0891679231175334,0.0541854603219159,1
0.109316460741305,0.0406218380727756,1
0.141240227422687,0.0324937114263742,1
0.153068807309111,0.0303419399482673,1
0.192327018198322,0.0324235092312496,1
0.1901985569057,0.028008028764046,1
0.148184229211157,0.0167998415366745,1
0.104768538288266,0.00965156742636908,1
0.0859954619014598,0.00572767707021111,1
0.1022487346746,0.00568585054338792,1
0.114591614113032,0.00596322196423718,1
0.10808308002867,0.00543043044603484,1
0.139801390592582,0.00702044441993051,1
0.159660348754718,0.00442842538777588,1
0.186636442506385,0.00448977489417614,1
0.193526361026754,0.00356840264496553,1
0.191439267514519,0.00310822807541139,1
0.240926869177967,0.00422587338050434,1
0.236776689842355,0.00255708602864825,1
0.245872873276178,0.00205267665051111,1
0.31521216216733,0.00289004662817074,1
0.330192069256776,0.00216077755670009,1
0.310774790503127,0.00180063502856166,1
0.293936734384329,0.00255456527773749,1
0.251635686670974,0.00174121690743719,1
0.300725352745072,0.00319908829251774,1
0.368791218386121,0.00424730773086033,1
0.357768663969516,0.00307852458499414,1
0.350542037092299,0.00442830026486692,1
0.313191416749577,0.00407639652988982,1
0.42068597557169,0.00556566578404849,1
0.470489257620621,0.00904653188725165,1
0.404012750216616,0.00759890347876602,1
0.356069359386445,0.00645329898674299,1
0.371978595324455,0.00754738911563663,1
0.493495648588736,0.00996080169472502,1
0.550780679073792,0.0119212802557956,1
0.469748785230404,0.0194324761114792,1
0.255414311293019,0.0126633549215966,1
0.212286710849625,0.0112003126249621,1
0.211075406815659,0.011286692598014,1
0.231737716859023,0.00937857467169847,1
0.238458734608226,0.0113829968403695,1
0.152193176897342,0.00860518160912298,1
0.149538854390979,0.00931089633330485,1
0.159353210016707,0.00770743156638049,1
0.155648260465185,0.00717179952315967,1
0.199246034538152,0.0069836533566894,1
0.260919481588319,0.00747262953894351,1
0.252948135024041,0.00805132044429935,1
0.288298239157449,0.00435315254990172,1
0.571290229969973,0.0118612088301481,1
0.634254426714222,0.0117718799580118,1
0.695184310407134,0.0117502278690749,1
0.667237184038358,0.0109179579919643,1
0.762217846605119,0.0124946803555631,1
0.856626255838338,0.0131467652513578,1
0.969767653003406,0.0148465450203017,1
1,0.0200586278296275,1
0.615336794317393,0.0150243145923131,1
0.361510683088289,0.0209770704888101,1
0.343476689419737,0.0227455751911437,1
0.244343770318049,0.0192037795959241,1
0.142699318206582,0.0149464307602073,1
0.0141448879511027,0.0138321590433055,1
0.00618518453062237,0.0317300340560042,1
0.000696895309402527,0.015727558190833,1
0.000872142629704871,0.0821860601430207,1
0.00148646874699243,0.0881813612510772,1
0.00191041941072486,0.0667054973132027,1
0.00832069105465365,0.00955569181318338,1
0.0534229064754319,0.020969996362513,1
0.0871805453492163,0.0179693635378176,1
0.177009664475014,0.0254186078035943,1
0.234253028141188,0.0323718249960528,1
0.25736472144421,0.0324544536965571,1
0.288800023843975,0.0232862755950562,1
0.244704821551957,0.0147492556870894,1
0.245553083899664,0.0108521548583695,1
0.171169435688041,0.00576810194144573,1
0.10981296202663,0.00322832829562531,1
0.119334103141173,0.003103438068007,1
0.130649889556378,0.00374022835422122,1
0.132915378773677,0.00337745861893652,1
0.139729412132112,0.00281808637562467,1
0.15278440022562,0.00209235823670971,1
0.179336502571753,0.00288890334031154,1
0.193793254168023,0.00271983517503223,1
0.181903382835392,0.000831561534130791,1
0.367138828093893,0.00426345187178264,1
0.399584208297129,0.00250144156754989,1
0.396603726343608,0.00215236161607109,1
0.382818929858682,0.00196784045612738,1
0.39252118774647,0.00219559935672087,1
0.421681447447815,0.00185812132276314,1
0.496481387640236,0.00272474883171065,1
0.493077263779016,0.00252367060232413,1
0.451605464138999,0.00250638603188691,1
0.440513516804852,0.00314741550132098,1
0.36564737680137,0.00179141658499174,1
0.345259182674774,0.00222136297062253,1
0.400296421761462,0.00362990637271007,1
0.458226912674491,0.0039460908305071,1
0.450428569569144,0.00380823003522565,1
0.501748391669454,0.0061928195835276,1
0.385737746487861,0.00456084174493031,1
0.370207166783435,0.00472453896892909,1
0.253053850347694,0.00346304911891363,1
0.248507395074788,0.00380081720626308,1
0.176807634558159,0.0029610424226256,1
0.112388106449382,0.00295797344740733,1
0.114639999023785,0.00227918942286293,1
0.148154099304813,0.00420408749447305,1
0.159868557158567,0.00521377169392481,1
0.203530777642379,0.00652676124390705,1
0.183287004856138,0.00608272782434301,1
0.25988680389036,0.00684853519445411,1
