Activity,Complexity,Tag
6.38802560071901e-07,0.389789695154153,0
6.42728933135998e-07,0.388159842192037,0
5.73315187793228e-07,0.386379264888416,0
4.65706677662931e-07,0.373065025959218,0
3.13890442852664e-07,0.328212695593561,0
3.65437249140741e-07,0.351533269011233,0
3.62513827086258e-07,0.346604707234802,0
3.57910046801214e-07,0.337677063902577,0
3.51470794976094e-07,0.335490344321693,0
4.33695734716574e-07,0.350821048984317,0
4.75337941348291e-07,0.363618122976817,0
3.82411477660311e-07,0.343573011569453,0
3.72559948760752e-07,0.320111180006782,0
3.57959018597122e-07,0.318162125713247,0
3.69723683558901e-07,0.314834595930333,0
3.88180225777561e-07,0.316826770480005,0
3.7280265039246e-07,0.326396810323435,0
2.32641487273831e-07,0.298307262701003,0
3.19894773353759e-07,0.330542453985322,0
5.16586216264895e-07,0.418522622874808,0
5.00542451867602e-07,0.413394320537068,0
2.66334082859456e-07,0.325876545094898,0
2.69311222875089e-07,0.35553635021154,0
2.28212883633185e-07,0.336725253735174,0
1.13027552163101e-07,0.282631131296811,0
1.00398653657653e-07,0.279246223468658,0
1.47545117561753e-07,0.294152105148759,0
1.88245857597221e-07,0.291995181721625,0
1.97578544341881e-07,0.300071887831325,0
1.12746234005101e-07,0.263366462054386,0
1.39444060697472e-07,0.278122410498161,0
1.62901982407613e-07,0.276262771595277,0
2.07019098478412e-07,0.305490163765406,0
2.00350304843393e-07,0.297770914113548,0
3.99615032254999e-07,0.377332698813617,0
4.83033416819136e-07,0.407351621443658,0
3.84054298038503e-07,0.375300540786821,0
4.27047004416442e-07,0.406508006121326,0
4.25577419069595e-07,0.386326334283855,0
4.74481689991621e-07,0.385987737459581,0
4.43605727742526e-07,0.386028924120512,0
4.28739012325327e-07,0.392182262008576,0
3.30595218627341e-07,0.346835846935955,0
2.97000998103104e-07,0.337052070581934,0
2.44699335806716e-07,0.316345286362022,0
1.52254392156047e-07,0.267631028439417,0
1.56821928997424e-07,0.283774996913138,0
1.55484157603442e-07,0.282848081698772,0
2.38840626284646e-07,0.34189414044243,0
2.19666118705695e-07,0.327128093987754,0
2.28906470962914e-07,0.318721352342705,0
3.17295816414025e-07,0.357782426968622,0
3.32309231484168e-07,0.350861251939979,0
3.59137793455486e-07,0.349177309638674,0
2.67323011108127e-07,0.30519409267766,0
1.68800387129891e-07,0.266348380046806,0
1.69512096181454e-07,0.258120323409248,0
1.88923049083385e-07,0.267022344996171,0
1.71113926950735e-07,0.250047627350453,0
1.96606659141126e-07,0.267451612399262,0
1.87456052553943e-07,0.269580933409666,0
1.33959219555627e-07,0.248348218978473,0
1.23061161220137e-07,0.256175048756776,0
3.76929656805427e-08,0.229611367528886,0
1.94592774934895e-08,0.218286157121618,0
0,0.204600349071038,0
7.86825745914424e-08,0.246498518150381,0
8.36876215742468e-08,0.239903754123426,0
7.31004370621293e-08,0.23662257827556,0
2.67875292154505e-07,0.314927139928405,0
6.21473232098292e-07,0.428519820347934,0
6.22253329076302e-07,0.420409786058716,0
6.0896061464128e-07,0.396036701657043,0
6.08238981789666e-07,0.381927298145316,0
5.96947638943416e-07,0.385590152282564,0
5.47733357137153e-07,0.3683824625003,0
7.48997514524475e-07,0.447182807514132,0
7.54308689165409e-07,0.430574759121347,0
7.70745953808246e-07,0.427784296737483,0
6.76709966127485e-07,0.419390777707182,0
4.28090082095833e-07,0.342358727964275,0
5.01873319748504e-07,0.366046638889337,0
6.0743148649412e-07,0.400546163029738,0
1.29178536747914e-06,0.561878112508837,0
1.46483055221393e-06,0.583087479577787,0
1.46148558439201e-06,0.586318690673006,0
1.60572693947555e-06,0.584478082943519,0
2.10891710434401e-06,0.699922944104756,0
1.96578721486631e-06,0.651046184850913,0
1.88558737754082e-06,0.657851007008232,0
1.85011993188935e-06,0.669893905624303,0
2.06754607633546e-06,0.627291675820056,0
2.39509706142942e-06,0.620947695738893,0
2.10841379509354e-06,0.392732221026975,0
0.000105945146407322,0.392152155278897,0
0.000196295213189108,0.297100129079338,0
0.000196805690659236,0.282086197736364,0
0.000215082068445297,0.301136812753913,0
0.000205009382052472,0.280874353530856,0
0.000189772451939346,0.280326615611452,0
0.000168802617827555,0.271528699694807,0
0.000154094414621384,0.250134617003027,0
0.000136604029629237,0.224836560362619,0
0.000111316685366625,0.204835938493084,0
0.000106971381240677,0.282046255465737,0
9.25807959429516e-05,0.407629089573272,0
0.000109249780454067,0.446819479062992,0
0.000109601600739393,0.360546081440792,0
0.000110310997114075,0.347153540462976,0
0.000145090487192341,0.351384221942327,0
0.000179115015552251,0.300668102215039,0
0.000163355073562327,0.251075052854406,0
0.000159392377664161,0.244356607916843,0
0.000146945697386453,0.234105277213967,0
0.000142392076517301,0.257942865767269,0
0.000155338173974245,0.281906196290492,0
0.000257772600505019,0.345508504501539,0
0.000310187160049761,0.363651331603801,0
0.000298941492571924,0.350110001243396,0
0.000684879326350175,0.0596571686905681,0
0.00377338825177974,0.119442570467394,0
0.00442680758277324,0.122092073999001,0
0.0051446861635327,0.131698589998279,0
0.00719329253457607,0.111707252405904,0
0.00968847705914111,0.0805880813231694,0
0.00872636196531001,0.0655934768672525,0
0.00810511949003992,0.0546902974793807,0
0.00743394085331136,0.0509132803506112,0
0.00523041989491223,0.0355222492025519,0
0.00651099338070654,0.0395385922948162,0
0.0104910133541353,0.0402018134353477,0
0.00963999933364013,0.0341110537916725,0
0.00935676068496439,0.0249691431333179,0
0.0141903897351273,0.0361552564822616,0
0.0153070679567374,0.0429141207655591,0
0.0129829031742784,0.0361297455646862,0
0.0127684900484841,0.0343804241395275,0
0.0118315339444858,0.0276646368243304,0
0.0194166383589479,0.0367156121503279,0
0.0297289995813189,0.0518668269601098,0
0.0297554529753237,0.0447707723489633,0
0.0229668627123492,0.0278748557671459,0
0.0188673050833146,0.0260826418836785,0
0.0230632131217746,0.0295146813757058,0
0.022725519650593,0.0151399341596746,0
0.0287673922324612,0.0205928567334689,0
0.0354106343434628,0.0035773820535107,0
0.051022837227971,0.0048922559501572,0
0.0539005132350094,0.00687448110199896,0
0.0540766551450022,0.00612634337575224,0
0.055874974042478,0.00375844786497479,0
0.0625632702385079,0.0067871322658882,0
0.0620709073278189,0.00537544638356587,0
0.0587592915451506,0.00466421891215221,0
0.056640563988457,0.0068699497651599,0
0.0478007916763613,0.00404313963669968,0
0.0440536243348012,0.0141776932413124,0
0.0219753974743974,0.00563970825101379,0
0.0215982343545866,0.00667960938956511,0
0.0169104094069001,0.0037889005578766,0
0.0157921587102,0.0157190797114549,0
0.0109298532206969,0.00946843073446593,0
0.0108247824454265,0.010717918002704,0
0.010926472989083,0.0104054068956478,0
0.0109148061078535,0.0101577140915397,0
0.0133348812946237,0.0141109473260041,0
0.0127584234395559,0.016547299269655,0
0.0107759879983951,0.0151661560049682,0
0.0112295026957177,0.0194913812483472,0
0.0109460648778851,0.024304680842383,0
0.0153657531221863,0.0184756624893895,0
0.0313998940034774,0.0460205720062087,0
0.0819139001928827,0.0652570055309228,0
0.0988166470025087,0.0537600666871057,0
0.113340016150089,0.0526818451108099,0
0.112592146486011,0.0464414246440348,0
0.0903691128199478,0.0427032643786103,0
0.0829645951913466,0.0308025782731636,0
0.0788057043785446,0.0122288307275582,0
0.0897238193449634,0.0147627092960533,1
0.105016508338467,0.0216013415703271,1
0.12446312146126,0.0244003295661022,1
0.106489885419163,0.0213098201884384,1
0.116198189607551,0.0186957765774476,1
0.18288485813965,0.0345936287062714,1
0.207482804539559,0.0318049943064572,1
0.206732058611972,0.0330145040137285,1
0.197670941540836,0.0308392100343326,1
0.256060099966285,0.0464991198435394,1
0.232054522543683,0.0366799642842635,1
0.207341243068494,0.0280416387480601,1
0.153740537525592,0.0154750418721799,1
0.137622869795622,0.00948018848871992,1
0.143920149733234,0.0147802655961075,1
0.198421986733773,0.0194498869879341,1
0.253007405217177,0.024554064616328,1
0.4971430519955,0.0376274737179704,1
0.452682129620286,0.0266231005662528,1
0.45416113273903,0.0282371806719364,1
0.436029465425066,0.0265370066567802,1
0.43488861436256,0.0282725586854913,1
0.316519868861371,0.0221486377001515,1
0.249063135465709,0.014202306269008,1
0.302665630831751,0.016521457353438,1
0.361896714268135,0.0210662806170183,1
0.367444002438208,0.0201556225931026,1
0.232788076021623,0.0141609130401435,1
0.201694774893019,0.0155853443590044,1
0.200080802674308,0.0143815638063068,1
0.212090354367757,0.0120122162655036,1
0.242947319335612,0.0141936836861937,1
0.233798852505037,0.0102647251017671,1
0.244524850876854,0.0128722352749179,1
0.213422801977831,0.00984842213809336,1
0.185634944290596,0.00525660319904646,1
0.212809782668117,0.0108280985587367,1
0.166376209297479,0.00597651242697476,1
0.165175546215773,0.00649067820197447,1
0.16421747149207,0.00857836337215632,1
0.150132884649775,0.0124646553351597,1
0.180111152419725,0.0172628454648949,1
0.197063042822635,0.0291341484210156,1
0.132268327280128,0.0228323969805765,1
0.141738731052819,0.0318484926448273,1
0.104978713022812,0.0435486339301082,1
0.120270548875855,0.0771323470022341,1
0.122255484910328,0.104228883475117,1
0.0988718893559976,0.096278910786346,1
0.0853292032065468,0.0702363452758884,1
0.0697829491104616,0.0589214796841349,1
0.0960565643130765,0.0761275187566564,1
0.121992997615324,0.0876422593504252,1
0.0937981417900914,0.0887406257809786,1
0.0784193728169206,0.0939049277557921,1
0.0766296179973044,0.0979696033511309,1
0.0552619409419183,0.0616864730132107,1
0.0436196399670073,0.0474487826356214,1
0.0409437161886117,0.0366132313083458,1
0.0393308806915784,0.0443178167946888,1
0.0222626388207306,0.0222877740380192,1
0.0316080043693926,0.011022887628011,1
0.0569865333913344,0.01764853755796,1
0.0553541243287172,0.0174257293757672,1
0.0535232345227756,0.0164614571042337,1
0.0464130495817825,0.0120508371345831,1
0.042533056451741,0.010187861990589,1
0.0484590022864079,0.0148055651222897,1
0.0402194882460237,0.0120555860445198,1
0.0443956743162364,0.014995520352139,1
0.0321556359497622,0.011361425879339,1
0.0225197592741848,0.0212492932815469,1
0.0317118840127319,0.0500933086314601,1
0.0424914684176237,0.0687130215321157,1
0.0521604520409043,0.0548056251628619,1
0.0567518528660415,0.0524593730694951,1
0.0601921148538382,0.0394865660385961,1
0.0582865320234378,0.0227108863353934,1
0.0592705142581454,0.0166395858753212,1
0.0570425819793648,0.0162904984326883,1
0.0486621191376588,0.0116882317611335,1
0.0472355022365183,0.0115039429721527,1
0.0490691146726004,0.0123611167514458,1
0.0444043795653294,0.00969385122691873,1
0.045881498334366,0.0141328890431556,1
0.0395309941929791,0.00556978038547242,1
0.0421698230945701,0.00586071066027116,1
0.0450142299660051,0.000375678934754693,1
0.112808436672913,0.0207977173955593,1
0.126830989940104,0.0241196631891485,1
0.126307601675143,0.0243129946433409,1
0.146602825284414,0.0278488748102328,1
0.14826274730754,0.028101263978241,1
0.156770200766812,0.0263703891476518,1
0.110455192168159,0.0185584425901435,1
0.091809009168697,0.0190405543691835,1
0.0716768674577404,0.0194738588159994,1
0.0379555095932004,0.0227329205823917,1
0.0576699377467346,0.0362762100465195,1
0.0740991189608289,0.0204450846137417,1
0.0727016670725146,0.0129016684621471,1
0.0820252748423025,0.0176926016674306,1
0.0883471435076386,0.0205271498990309,1
0.0893632758055353,0.0196365755311913,1
0.0842336726358552,0.0157811969712141,1
0.0682888564854793,0.0100988634658027,1
0.0598651151789841,0.0070460170371883,1
0.0726086875303033,0.00901594003907492,1
0.0933590150581832,0.0165179834131367,1
0.0854129838892033,0.0250240619094904,1
0.0707450078768036,0.028543608334979,1
0.0747495450219642,0.0242652716709551,1
0.0985795931313982,0.0288145732876853,1
0.0910801086160727,0.0213434457695362,1
0.0886277222301359,0.0205792758402187,1
0.0907983879429188,0.0148213487377757,1
0.143884412106733,0.0219854232423352,1
0.187211083314075,0.0293567322138849,1
0.24274129137688,0.0357539193753303,1
0.246288199324019,0.0309254426854492,1
0.259874463198431,0.0334684990920131,1
0.287258393203765,0.039911725367639,1
0.240353581300536,0.0264175343683606,1
0.229544160569457,0.0291064243226212,1
0.217141322321161,0.0320505806172509,1
0.190933664666017,0.0385704081768224,1
0.18131546608713,0.0468778496465859,1
0.179183985675255,0.0500420744980292,1
0.149703801102744,0.0449916906370968,1
0.144506289595613,0.0598669806480939,1
0.149255771724632,0.0494672976128618,1
0.0884357142478578,0.0202754509767423,1
0.0630438290893377,0.0176399889893527,1
0.155411792885634,0.0414059283235275,1
0.215125701564695,0.037422519699676,1
0.236319173127386,0.0404382505216953,1
0.245035273527911,0.0426692542771514,1
0.257467335639109,0.0423815147898808,1
0.24574346844279,0.0341223206902242,1
0.272155911072233,0.0322283085232361,1
0.220903454584495,0.0298706634178074,1
0.178236348542113,0.029064964528367,1
0.166575337190143,0.0334767698965527,1
0.14334490883916,0.0362394501566413,1
0.136699017141717,0.044757710556362,1
0.17141796476854,0.0552342650175378,1
0.201184383216946,0.0618167778728436,1
0.206785776490281,0.051845938488565,1
0.202281464764757,0.0581282812559999,1
0.162538289479477,0.0753136308737438,1
0.102371206215021,0.0579334874157883,1
0.0850859963267786,0.0432213443445161,1
0.0817922250527881,0.0211242046727477,1
0.0729522573699778,0.0147202641036414,1
0.0888243186256947,0.0171680790033354,1
0.127041282901299,0.0242392949370881,1
0.163239043116377,0.0278793346616726,1
0.202582395900064,0.038553730780969,1
0.151637807415469,0.0300101752030815,1
0.147912131630019,0.0282999624012607,1
0.134646224238935,0.0238170789116463,1
0.0685196985289219,0.00882405895398253,1
0.0457269517014529,0.0108358893236213,1
0.033227979456785,0.00754474744253434,1
0.0227194172280745,0.00631705843532774,1
0.0226651403509532,0.00705579895577938,1
0.0191710342314582,0.0139166061601479,1
0.0137738057184339,0.0218725278201503,1
0.011900762480438,0.0146154320070003,1
0.0279841471310286,0.0409879416196471,1
0.0290820993490458,0.0359309242081873,1
0.0268167489481102,0.0391424847171221,1
0.023582560334454,0.0288753778688171,1
0.0300852414321538,0.0308047890317596,1
0.0296027694635991,0.0299787068977801,1
0.0300958972403904,0.0224078341878632,1
0.0479568076717673,0.0255251481901882,1
0.0436984671294239,0.0157724636936775,1
0.0427684541914215,0.0187918047217958,1
0.0356411679992097,0.015619019618298,1
0.040105955556905,0.0161530034612474,1
0.0482844108198061,0.019559105903029,1
0.0480375319182838,0.0196402311084268,1
0.0384359094069365,0.0169291617105711,1
0.0428428583310405,0.0172266332806893,1
0.0510574840674769,0.0205878066068158,1
0.0349565635448622,0.0191935526109624,1
0.0342150955201131,0.0274719970052456,1
0.0391384328931697,0.0200857459493472,1
0.0641499853204086,0.0290894854756882,1
0.0576140901439166,0.0320032179271106,1
0.072852525941075,0.0253028772464549,1
0.0988923174994835,0.0234845267914258,1
0.0908463608850535,0.0205161847068691,1
0.0967649572845685,0.0237017900877111,1
0.101358050132069,0.0173208820490016,1
0.103137044701493,0.0141494604052686,1
0.0826889323446638,0.00924570560195552,1
0.0778212401133712,0.0103836180568286,1
0.0836547350706021,0.0108303649257538,1
0.0801048257245027,0.00955606618087743,1
0.0706732975483939,0.0108545671072052,1
0.0585505960396242,0.00938057207432297,1
0.061254058979303,0.00821343926147671,1
0.0727093813652362,0.00857695236524858,1
0.0783492285860493,0.0183566556841846,1
0.079054462514055,0.021336148156447,1
0.152064175573066,0.0407617642717703,1
0.184264032940842,0.0464433475361632,1
0.159728856732963,0.0429772390484491,1
0.14461254063086,0.0420625834092663,1
0.102649642209811,0.0391994764527828,1
0.126034549892436,0.0486513488863883,1
0.0999100211206623,0.0496220859954306,1
0.10662003219239,0.0730028834364349,1
0.115661502030122,0.0690041540580708,1
0.134046101946152,0.0284420283726018,1
0.160631801641659,0.0235490594133509,1
0.162011810630796,0.025989784190714,1
0.158366660369924,0.0216033427659177,1
0.156122171761394,0.0187164197376269,1
0.149701319680919,0.0166016582054337,1
0.171131031795448,0.0186426442481325,1
0.164147624811889,0.0124348629696868,1
0.151943617245995,0.0107285325685828,1
0.116804664822865,0.00495928842917373,1
0.100679879204808,0.0124811808982736,1
0.134855737864695,0.0196451708624775,1
0.140935097856906,0.0185144749962394,1
0.137071630762056,0.0205715685408969,1
0.141001784752336,0.0219423173533939,1
0.144260457173045,0.0211760442560603,1
0.0942500888601003,0.0158242275423229,1
0.0789081150352011,0.0185911554731387,1
0.0919082059813489,0.0176427789455664,1
0.108988477672035,0.0145048012190266,1
0.144074684245304,0.0172522701213782,1
0.149380369773763,0.0129473230104354,1
0.151626764289945,0.0101033273285297,1
0.175793070639037,0.010808487496758,1
0.161975957874191,0.00780332033808923,1
0.160110266203022,0.00809474636034368,1
0.20294369935254,0.0102247411786168,1
0.233205826941074,0.005677357771921,1
0.238965963383114,0.00690501632954564,1
0.220157993477603,0.00734710663135345,1
0.180431990937187,0.00354005808499953,1
0.161343009763958,0.00365440375590679,1
0.237543832794453,0.0123396711385254,1
0.21405602126302,0.00812179712263446,1
0.229097519356658,0.00985693370592666,1
0.244566774983264,0.00674046949613646,1
0.259468441913791,0.000544646965884545,1
0.318435335406359,0.00746492122945402,1
0.282341586197041,0.00523792730219275,1
0.31114744719645,0.00786956708996813,1
0.438332049244448,0.0138442282903995,1
0.524704536722761,0.0188769178446369,1
0.527778720509922,0.0189388941597192,1
0.622818571999195,0.0239703812225798,1
0.610172600730307,0.0252182682321673,1
0.637473673398937,0.0304666910320684,1
0.586784107807617,0.0644347055405196,1
0.204181955655381,0.0393784924612754,1
0.154004542842285,0.0307630834492212,1
0.0989006709943061,0.0187148284008672,1
0.0978235268216097,0.0270665438193637,1
0.0735157564853146,0.0332864578376457,1
0.0399036707748674,0.0639904809624518,1
0.0376432478562777,0.0623995340764954,1
0.0314325339839646,0.049750857652133,1
0.0279198904825442,0.0382229936854815,1
0.026509436837846,0.0331342821743119,1
0.0189667832753932,0.02417772842151,1
0.0129356777861768,0.018142151570048,1
0.0134173952085182,0.0175785670766316,1
0.0139252870249924,0.0190029162748956,1
0.019300354743483,0.0194459657276296,1
0.0294196565776709,0.0204156919618623,1
0.0295586136954058,0.0210287166509315,1
0.0306742077660225,0.019778656843631,1
0.031697261640041,0.0240915093669173,1
0.0321408292690207,0.0211951753645074,1
0.0464897851801535,0.0328689327115764,1
0.0572778829371851,0.038254824908794,1
0.0603909611377486,0.0417879726631608,1
0.0563669172040389,0.0321369007841694,1
0.0572816239869508,0.0412689552382395,1
0.0559582363284719,0.0516101301564578,1
0.0442002767834646,0.0397288826734066,1
0.0527789398865248,0.0547461251497127,1
0.0575663035621175,0.0545003022445746,1
0.0581352023654882,0.0745428285881145,1
0.0518485065383829,0.0780586902776926,1
0.0302695138347277,0.0504139291663386,1
0.0165309048262256,0.028838707996764,1
0.011707255348734,0.0238243324814103,1
0.0263572544614125,0.03944771599098,1
0.0275986049695137,0.0302243696552786,1
0.0277017771837639,0.0373007616028959,1
0.0253768608318003,0.0309978604179212,1
0.0240380564295605,0.0309341743060787,1
0.0718404085123766,0.0396445532609199,1
0.0833425740371664,0.011821917926634,1
0.0955550233318994,0.0143964941847796,1
0.0951304793644231,0.0124298198097471,1
0.0942795743201967,0.0125383576560365,1
0.092274317870912,0.0132370066929468,1
0.0895201268101882,0.0146879618894894,1
0.0790323500130471,0.0104518927379316,1
0.0821271351990051,0.00968629218670892,1
0.119416675410318,0.0133089712927565,1
0.0987527120087621,0.00587884328817754,1
0.0863348640400695,0.0189377595896599,1
0.0630725774611268,0.00897260164567076,1
0.0964844509950248,0.0171319455376157,1
0.114004727434242,0.0153791945427212,1
0.114790570047623,0.0122476170585186,1
0.125519786333065,0.0124575768956325,1
0.124770703684418,0.0121134618983754,1
0.113250671200725,0.0104040866045906,1
0.1652115669081,0.0196779846192143,1
0.196455216886878,0.030666955500495,1
0.41814464778315,0.0402301343093113,1
0.415125934863526,0.0332857113860921,1
0.422549199430624,0.0348884739622614,1
0.426099859215562,0.0340431003476478,1
0.425893214473887,0.0375771032513644,1
0.301548011184749,0.028054571021252,1
0.239013143572406,0.0187073862039413,1
0.176591795074716,0.0115452026062494,1
0.18487760837276,0.012796341410648,1
0.161542334275793,0.0135211874695046,1
0.134217615378326,0.0202152565184481,1
0.220698328253263,0.0510224169497183,1
0.209570369247946,0.0241169446820937,1
0.177327220194506,0.0263208369475534,1
0.176374756070654,0.027693293540957,1
0.204204322915006,0.0273708541457093,1
0.184942541130821,0.0190396816381793,1
0.182135229028107,0.0196983819096649,1
0.214304704341163,0.0187114033721672,1
0.281350741511565,0.0174075885783359,1
0.282298084494428,0.0174928808438478,1
0.198823478807072,0.00549280412740285,1
0.213604999381339,0.0114593447920787,1
0.236039160710206,0.0111567142964463,1
0.305123890661679,0.0115829522852946,1
0.303587130673906,0.0130211915906848,1
0.285391618293083,0.01745235448008,1
0.251898343525698,0.0130235225817207,1
0.265754921629871,0.0178321717386719,1
0.261231180516692,0.0175768203275399,1
0.280949997802167,0.0194940690345692,1
0.380567061376411,0.0353316001304963,1
0.433361993074945,0.0403639860643237,1
0.416722842549509,0.046378013050997,1
0.345175016426157,0.0500958122916236,1
0.390176772526712,0.0450737494970625,1
0.458254544386752,0.0409007728075889,1
0.35472313144203,0.039664577618578,1
0.230749805676656,0.0141202214294429,1
0.314861211380624,0.0305983174198928,1
0.398402607959872,0.0399226691240549,1
0.419717761535535,0.0363671353962316,1
0.389199725192985,0.0373490507233792,1
0.413072510909751,0.0351619815171041,1
0.465024798139968,0.0388146427975013,1
0.398672982261845,0.045265440666982,1
0.278138466141308,0.0350612642902943,1
0.222702940157128,0.0279085008151093,1
0.215598217565415,0.0439090891810324,1
0.324481636636741,0.058000126028713,1
0.331234768539087,0.0502674325327982,1
0.306770179685856,0.0588047388649262,1
0.199673679298386,0.0415679529317291,1
0.126229180494524,0.0372058017189303,1
0.12092151496538,0.0385189617883648,1
0.077795530641073,0.0313145291942297,1
0.081337493315297,0.0250699512427568,1
0.102471845326668,0.0228291296890368,1
0.10572118456358,0.0162656921249251,1
0.101358092454056,0.017014932941184,1
0.115026404259329,0.0257156652663917,1
0.108715123441242,0.0236342635014969,1
0.119334918162879,0.0250960110296486,1
0.119075833270768,0.0239504899692196,1
0.119371295218002,0.0280234015276809,1
0.123058854981645,0.0288343736862619,1
0.124764138825976,0.0392892462570331,1
0.0362350151554424,0.019205319593825,1
0.0129633073420602,0.0556519336522323,1
0.0146671836765717,0.056271073972938,1
0.0164577355988917,0.064413086574895,1
0.0179315872281555,0.07606805959888,1
0.023941587872765,0.0967933973062939,1
0.0206783505325087,0.0606127197693655,1
0.0219409575849548,0.0499641345235145,1
0.0222697741781576,0.0373137081500304,1
0.0350103249849864,0.0280220755111245,1
0.0295680416068368,0.0126659220479761,1
0.0371062409674225,0.00984810509753472,1
0.0444285691539317,0.00576564993093707,1
0.0451845772032474,0.00511341822648146,1
0.0417891674117694,0.00412827414656031,1
0.0415632652634048,0.00436121310372307,1
0.0390133080647847,0.00308767657292016,1
0.0406023776366358,0.00415127427418536,1
0.0400341248996152,0.00453778940036589,1
0.0336758318536317,0.00339867318046431,1
0.042655169768166,0.00730032518518999,1
0.0410877901708252,0.00643625895730827,1
0.04485502783406,0.00995805761351262,1
0.0393953317375977,0.00409026871636367,1
0.0528347690386255,0.0087324635201059,1
0.0581578454364253,0.00523189326800252,1
0.0782803278666517,0.00983071912018309,1
0.0788516089144684,0.00771086230320796,1
0.0814043957090653,0.00805321490831341,1
0.0814785107157495,0.00847851706715079,1
0.0917383434108515,0.0133600996694096,1
0.0831337317288657,0.0156941254017071,1
0.0811420015905613,0.0221775721309299,1
0.076693391770937,0.0295530326646291,1
0.0428183199094325,0.0157912779664797,1
0.0237282367745778,0.0147516559430167,1
0.0212405859399287,0.0196105440711877,1
0.0243147858700928,0.0228922447994607,1
0.039664515168895,0.0300866017180377,1
0.0893246242879266,0.00712089965867498,1
0.29569431283653,0.0361285737015674,1
0.31634241508477,0.0350582672578789,1
0.308354849625738,0.0299568123759639,1
0.374933994352949,0.0342754436501489,1
0.366579757568463,0.0231447882160339,1
0.319718555620757,0.0194860776310964,1
0.290319549660479,0.012794156202588,1
0.28199718308047,0.0130541159699213,1
0.281115027014111,0.0138660510104854,1
0.242117758550689,0.0190378991400402,1
0.213433080149016,0.0160884443623002,1
0.23657174565731,0.0171273998444033,1
0.223646014839376,0.0187435631821524,1
0.26660057407145,0.0232731361988723,1
0.39977188753983,0.0570246443204986,1
0.38658315850134,0.0557852999405283,1
0.380915373910802,0.0341857251539059,1
0.531493440776293,0.0359999442152816,1
0.637160669852135,0.0402368604147495,1
0.747748605259371,0.0493510288779128,1
0.722663312663771,0.0435266890869629,1
0.744716376464074,0.0511995102831512,1
0.735090193239891,0.0445306865194144,1
0.727364509141791,0.0448606939443518,1
0.535927748467921,0.0337568797361487,1
0.236805443587465,0.0126950927956076,1
0.153241208323001,0.0142788539964632,1
0.146060524348318,0.0143552879887507,1
0.187425023926543,0.0163355453971842,1
0.157015725955866,0.00997240683514467,1
0.149585618439561,0.0118920195466613,1
0.158372985181997,0.0128879778335501,1
0.154446904742287,0.014084486516442,1
0.169325584533804,0.0195643275228223,1
0.1638138647025,0.0197405220448445,1
0.166352848692652,0.0168523554010283,1
0.188433162615579,0.0212386164480611,1
0.18328340493955,0.0275992771046961,1
0.137488678220212,0.0184344152633463,1
0.18752778016163,0.0374906753086051,1
0.208588772110777,0.0409346600767279,1
0.227632352964282,0.0423922420328035,1
0.256660789072656,0.037995982402139,1
0.244627581269934,0.0330392017843449,1
0.323162848142686,0.0421206193387812,1
0.345845297443952,0.0456921482736166,1
0.331164020647774,0.0414010882499666,1
0.397169654562341,0.0459909362578869,1
0.561040749717915,0.0841484605454053,1
0.530283467285478,0.0542987905306084,1
0.451543944855902,0.0406146251414072,1
0.321451593227253,0.0333480479733122,1
0.184904299570354,0.0218604215707428,1
0.192209133876967,0.0251576772456122,1
0.258770773537787,0.0341108914567586,1
0.260649094398272,0.0340187774487244,1
0.260112096065458,0.0336422547845844,1
0.270289992762829,0.0390711163403514,1
0.194624155771554,0.0309485795007159,1
0.132772856329798,0.015309028586337,1
0.151578055286617,0.0113024485979842,1
0.168732232043408,0.00672714611187148,1
0.221515224718618,0.0131763514275077,1
0.308117310146632,0.0215054973249838,1
0.310764792079358,0.0219968473074124,1
0.372599689894995,0.0264337615860926,1
0.386902844699716,0.0201774599451499,1
0.391436005729627,0.0183917436086243,1
0.357611334577547,0.0173586794740004,1
0.299521280679113,0.0156001410429454,1
0.247935596122363,0.0191299051289442,1
0.128545714928823,0.0108385638401054,1
0.134034295614174,0.00847180146783998,1
0.18214707322154,0.0111378941649902,1
0.23783263428124,0.00956956722558944,1
0.245825547932414,0.00734671020618118,1
0.246366977187801,0.0115548615298779,1
0.228565299473366,0.00928990333759507,1
0.280649241611589,0.0135917048712635,1
0.291100096920129,0.0118031908274921,1
0.295111958204243,0.0101573535559195,1
0.312289825651947,0.0122988068604253,1
0.306258382290994,0.0148237748425324,1
0.211182147093984,0.0111957687563983,1
0.0821072003809954,0,1
0.0787872570993303,0.00466408619548142,1
0.0687750725903171,0.0108304012987451,1
0.0564506317590222,0.0156365476365901,1
0.0735116983304421,0.0201951715244102,1
0.102256572181925,0.0457135688537911,1
0.12669387710948,0.0692439243959959,1
0.161032580394152,0.11217075471232,1
0.127301297517777,0.125369544890642,1
0.104698233232619,0.228208202310175,1
0.09204529765249,0.280120270394174,1
0.0628601845489815,0.175767460953831,1
0.0346393094040937,0.119739857677559,1
0.0153991191930372,0.0763939960079149,1
0.0045498547154076,0.0506573005999769,1
0.00875241297079613,0.0434559810550573,1
0.0115340247986325,0.0306062320238551,1
0.010187067977391,0.0268565078370891,1
0.00969614442436963,0.0245998105727592,1
0.00883809833961478,0.023517726328445,1
0.0075160297593266,0.0199817272277162,1
0.0073708886210588,0.0224017973929636,1
0.00740742230222428,0.0231960364289633,1
0.00871602563202679,0.0282933854713867,1
0.00761551620865408,0.0129344387388739,1
0.00739916236639984,0.0271105897168441,1
0.00570163873329135,0.0413523097198785,1
0.0055749930230055,0.0367035537519105,1
0.00721197162016825,0.0503052632514734,1
0.00802101965107029,0.0520883711675055,1
0.00814678767653297,0.0501241085406218,1
0.00843054392214243,0.0468939822080264,1
0.00915684439945789,0.0547687447684538,1
0.00520947569311303,0.0438139671392666,1
0.00265755945740364,0.0678590741473614,1
0.00263033138201115,0.0794862648082464,1
0.00189620412375888,0.0885557997781229,1
0.0014494448263687,0.102954542375708,1
0.00155117541859898,0.0981931377182657,1
0.00167760121423966,0.0869781363493099,1
0.00132315289178825,0.0771528056456609,1
0.00116073620391373,0.119445513823909,1
0.00112405313137241,0.115459511329897,1
0.00157443878032588,0.0822351169420765,1
0.00197823090505992,0.0615156260419745,1
0.00197688910891781,0.0610792878556372,1
0.00182743758168866,0.0588484733904812,1
0.00158794395749517,0.0520344641229459,1
0.0018445283743007,0.0501974259338447,1
0.00212440175753167,0.0624356319494581,1
0.00179428896394906,0.0557311871070561,1
0.00180058622021819,0.0562734405165856,1
0.00177659209142894,0.0560516320055418,1
0.00184360339156781,0.0691428251968624,1
0.00179464678338725,0.0768089204371177,1
0.0017436726666561,0.07096733464842,1
0.00258237047787735,0.0547618900260636,1
0.00572814543730278,0.0756464511083826,1
0.012711497960773,0.0672681548607182,1
0.0132283365366844,0.0569300567196769,1
0.0152796304779456,0.0551396102778006,1
0.0232765480452465,0.0212547610230976,1
0.0719625693413674,0.0630374927478719,1
0.15503714737457,0.0792362937911799,1
0.185111178406705,0.0576683367380663,1
0.36513538782004,0.0790219909761092,1
0.594986716007507,0.11287892792632,1
0.756473480482594,0.109631754808097,1
0.995198619628201,0.0872690304724813,1
0.830436842683895,0.0554190744470981,1
0.658880218106256,0.0474450320219158,1
0.481498617186592,0.0359556027611927,1
0.39990405460588,0.0286372954830327,1
0.390958349963102,0.0282231773682229,1
0.363158787505569,0.0178764249420888,1
0.393607086499522,0.0187572880369013,1
0.44819434684453,0.0179688125517314,1
0.509018016166645,0.0217939536895702,1
0.436487039092739,0.0211111417380922,1
0.403689275299587,0.0233069361720895,1
0.367575860890041,0.0205525854866799,1
0.3373747338649,0.0197352988565384,1
0.372877911012116,0.0175424083635096,1
0.431448632363996,0.0215349419739048,1
0.413975148945208,0.0196972522665431,1
0.433231435432019,0.0230843046155681,1
0.397475066864423,0.0285009632297051,1
0.324403010644421,0.0273928506739575,1
0.318517830141647,0.0285368899295665,1
0.313793220876223,0.031886524679478,1
0.306914277092337,0.0289396528123399,1
0.30732303217053,0.0285430950910034,1
0.281214560115007,0.0369301637014294,1
0.169154609564864,0.0198576976561527,1
0.155962153311032,0.0412768298228648,1
0.136336889273867,0.0395955129836524,1
0.135769102754816,0.0383515713319936,1
0.160943953645299,0.0341906472768744,1
0.224467973880198,0.0495586169167497,1
0.253153798220385,0.0509730706768216,1
0.283755157859157,0.0630801450819849,1
0.321983696608801,0.0748033158192965,1
0.366654015748831,0.0875420275952377,1
0.321910791682681,0.0980667972232688,1
0.233229021292695,0.0777157269185699,1
0.162902020502708,0.0506221562385453,1
0.078560074242285,0.0263005101224203,1
0.128857930064444,0.0795967426012616,1
0.122846766748067,0.040020236102049,1
0.121750294703876,0.0402585359114651,1
0.116856326065453,0.0308822973994271,1
0.120005830476742,0.0295563727581399,1
0.09408938549581,0.0218615338439026,1
0.139382094259897,0.0268869362803607,1
0.224176591017346,0.0411027732392896,1
0.254037691893867,0.0399307713466633,1
0.2385669626261,0.0349947536006995,1
0.173212370100047,0.0284075906685346,1
0.18290874343736,0.0161251650989625,1
0.201514593012654,0.00818420408384402,1
0.210163080790947,0.0104070544477817,1
0.217283516269442,0.0120134606014177,1
0.195875872602015,0.00899963557344863,1
0.252153837583095,0.0165385973514847,1
0.299967587302795,0.0203438976718244,1
0.350271100183722,0.0277547220701368,1
0.355906391642282,0.0290360762836128,1
0.382069825219187,0.0292145938164193,1
0.249091833999527,0.0429358818344297,1
0.0858698930449859,0.068809710826046,1
0.0841548915228912,0.0567251184459513,1
0.0490156103296585,0.015689213753915,1
0.0243525183497563,0.00667315523692301,1
0.0248219254717996,0.0101307758837915,1
0.0278022288919983,0.00829292448254424,1
0.0377936660140555,0.0165023304682701,1
0.0409559010893993,0.0204449431886509,1
0.0555643389799108,0.0298891895506281,1
0.0633525335156527,0.0336663187664246,1
0.0674946598390178,0.0433825265314192,1
0.0483562430262874,0.0265755089292092,1
0.0423601792715477,0.0367032475063675,1
0.0404074757741615,0.0522322001811095,1
0.0279976354910243,0.0334239638124212,1
0.0257133047366959,0.0308914127239935,1
0.0263074002808978,0.0234445360148549,1
0.0266461153546555,0.0227609639482449,1
0.021575104597627,0.016339642285461,1
0.0222740503608589,0.0163605301585609,1
0.0215294232376111,0.0161418571359008,1
0.0707069929649276,0.0350160752909036,1
0.0772059645953554,0.00789397861279996,1
0.0878833130538164,0.00996515067186339,1
0.0879054040238457,0.0099934474606174,1
0.0857844974811159,0.00815826533250825,1
0.0886287839179607,0.00990553238546377,1
0.0867382333384344,0.0102198213959378,1
0.0996993063515828,0.0105203985652222,1
0.112259211010968,0.0124057478333261,1
0.1148059370259,0.0101320320043685,1
0.0669562818283283,0.00256397505338193,1
0.0527080172802392,0.0156559957893974,1
0.0532575879599209,0.0176054747733008,1
0.068266147950685,0.016248009525572,1
0.0739530207678323,0.0116037692683822,1
0.0805569642809214,0.0113346580936917,1
0.0804076983365197,0.00439371490220512,1
0.0958421083876584,0.0106566593906393,1
0.0863092762689403,0.00768597029723116,1
0.10971876491974,0.0143979282049154,1
0.11358443719687,0.0101500270668754,1
0.11216085475885,0.00705911839851852,1
0.129741220140478,0.0101029031588179,1
0.188984525775173,0.0145657921751357,1
0.500542854709811,0.0570090318771094,1
0.551928661813532,0.041881185691953,1
0.505911475825314,0.0416683415655218,1
0.622558703634504,0.0505334419860023,1
0.652803391380822,0.0578062099494821,1
0.752680522757935,0.051433756428909,1
0.604007008737246,0.0468597114894005,1
0.340334509120279,0.0300473245367201,1
0.296978697883063,0.0248421328053867,1
0.275248366285636,0.0161413755593635,1
0.382312806620294,0.0170531956904443,1
0.498136408806175,0.0280011198799835,1
0.521319452179681,0.0210764775668818,1
0.663918254059608,0.0210889487039927,1
0.753647514076174,0.0209314510595671,1
0.759817641577443,0.0243203274777326,1
0.742391159613189,0.02332876701028,1
0.73355729969147,0.0233936936752337,1
0.758096891363878,0.0243397907167115,1
0.763416492677089,0.0223657219742115,1
0.753072061323639,0.0258130127229781,1
0.61133274822765,0.0183263443273309,1
0.498666730685259,0.0185404242301936,1
0.408647662425335,0.0225512556339245,1
0.458352193060491,0.0208338793512542,1
0.489129735489272,0.0162826122619071,1
0.458291577528459,0.0158947954400422,1
0.480601559625564,0.0143614995884512,1
0.63546410876399,0.0233244697781221,1
0.710197394364438,0.0324797495849458,1
0.582550964039328,0.0407064486997462,1
0.438155201125994,0.0226800982165639,1
0.558560583637845,0.0164807240153231,1
0.658105609698364,0.0137747413241528,1
0.631379462643817,0.0176699339960487,1
0.614195379456095,0.022170638529497,1
0.593974805192325,0.0198247438988002,1
0.606538798664652,0.0199782726297517,1
0.540763724783939,0.0149285904621211,1
0.469134484802732,0.0121619249383888,1
0.416333156115248,0.0105648431133517,1
0.35119997312282,0.00943207068456188,1
0.266404204930913,0.0151690215404522,1
0.192484163708823,0.0137905449936557,1
0.213433096027096,0.00626119031812123,1
0.29572159798758,0.0104102758667539,1
0.284251290138038,0.00801306810214577,1
0.281935472533903,0.0066066243394993,1
0.406059144275863,0.0188815672611426,1
0.430949291118011,0.0155998780417369,1
0.434850233483375,0.0126040181680501,1
0.45105835764773,0.0157306286649456,1
0.424921687927895,0.0163204764821635,1
0.281242237005475,0.00796914277126737,1
0.271766841815493,0.0109249258190062,1
0.341775021314172,0.0152685043819013,1
0.329021732962859,0.014184638469549,1
0.314929817743932,0.0196931005059975,1
0.27242128233744,0.0110229468994124,1
0.475949147109433,0.0261169713025494,1
0.613364869638757,0.0379279547561285,1
0.570911248309901,0.0323438049967502,1
0.594062727722438,0.0323102408554242,1
0.497941577447554,0.0275028427675604,1
0.514947614619879,0.0393654427846756,1
0.56545086674313,0.0507256149827821,1
0.38736175113805,0.0518521069492405,1
0.173230726965892,0.0229105170805518,1
0.063887140297222,0.0437752894340376,1
0.0643332082578277,0.0605058947691057,1
0.0649259500177212,0.0788012680346681,1
0.0444701467982619,0.102148543582368,1
0.0154910429790515,0.0409610745927655,1
0.00518623329045185,0.0162971973382224,1
0.0086011534922346,0.0261889093303312,1
0.0110598160224189,0.0226585769565546,1
0.0128592130143497,0.0229441146734012,1
0.0134240615093378,0.0262534150182053,1
0.0134606793417389,0.0210181100502235,1
0.0131824362636799,0.0210346106946632,1
0.0125802790163058,0.0158601324391788,1
0.0136715751284821,0.0241351620332247,1
0.0186863079317099,0.0297572761015987,1
0.0183816673834954,0.0255919542375361,1
0.0173116031968736,0.0240507039650206,1
0.0134821231667441,0.021186727300346,1
0.0131704910545923,0.0232939313608937,1
0.0135360093037307,0.0205798298855899,1
0.0134568206781154,0.0213195159936819,1
0.0109287745245575,0.00658164417308345,1
0.028526190112828,0.0230253438529933,1
0.0329590873848055,0.0145514654073482,1
0.0338804348323412,0.0177720063494884,1
0.0303638791391827,0.0105755643515114,1
0.0494399875600351,0.0208360876196241,1
0.0513095069884465,0.0134454231567283,1
0.048743008135652,0.0103744379384771,1
0.0470558417899305,0.00712404664363692,1
0.0481630364165889,0.0055106983421035,1
0.0472528606707818,0.00709653589576205,1
0.0408188437080077,0.00724834708121566,1
0.0408038653315025,0.00588208116336953,1
0.0942657234025797,0.016675071250584,1
0.092537049420407,0.0108121344258328,1
0.0911917048110926,0.00994448962288251,1
0.0985336699700119,0.0144923559628751,1
0.0970667306372537,0.0140097829949767,1
0.0925412766043455,0.013846959444768,1
0.0869764709670138,0.0153684170202954,1
0.0977659214786516,0.0183663144257094,1
0.0990906528845937,0.0150998102958907,1
0.0959769571760035,0.0184022275547531,1
0.0594902920746141,0.0113373040739885,1
0.0598502612150028,0.0299407148964731,1
0.0675183792302072,0.0433064129939507,1
0.0533740945588582,0.0208226529241021,1
0.0510154275967739,0.0249820520527445,1
0.0589402515029999,0.0329067242945962,1
0.0575454292180458,0.0333031465745425,1
0.0541356031998966,0.0315790919059012,1
0.0497885595897166,0.0271396761252912,1
0.060236383617655,0.0383682348201305,1
0.0585810871620849,0.0304476438207794,1
0.0672343703416914,0.0296945281932753,1
0.0561628725025083,0.0144545698934025,1
0.0708352136711645,0.0300182544818443,1
0.0714219312098098,0.0211757900028178,1
0.0661614858592036,0.0157747823446752,1
0.0712607325993565,0.0161505089007084,1
0.0582304998875579,0.012494916757706,1
0.0607301820802343,0.0174268864227049,1
0.0582467334873466,0.00924611148439766,1
0.0614468677967124,0.0174220806479959,1
0.0357392216267705,0.00605086356717405,1
0.0439470797485867,0.0157659672967418,1
0.0576168045638385,0.0231629300474304,1
0.0635255895889535,0.0315066435340871,1
0.0538640396998387,0.0326532577276263,1
0.0537407130476272,0.0357652540872877,1
0.0517187162985997,0.0290066945815445,1
0.0290766785889012,0.0182720059322494,1
0.01528137188912,0.0174958887357164,1
0.0540673139002744,0.0111478116413014,1
0.172171483652662,0.0508662276466395,1
0.222703167077329,0.0494240485166217,1
0.438724044341198,0.075380150667976,1
0.677975807212396,0.109101962246861,1
0.860233621745573,0.128311892110126,1
1,0.0928423325874133,1
0.876967773847024,0.0856318528410775,1
0.744291797384684,0.0696514069233593,1
0.447030792699711,0.0438289881168884,1
0.307726198629011,0.0351004534444307,1
0.258501061943945,0.0315494158737295,1
0.18662743875929,0.0212677898729186,1
0.288407712093193,0.0290826563895206,1
0.289156689979952,0.0267250398406175,1
0.298794594405873,0.0287351110998605,1
0.300388558775603,0.0231158447710219,1
0.403121324100683,0.0297480842616694,1
0.407951630573921,0.0259060308349288,1
0.352422917110264,0.0204430500686269,1
0.258935206201632,0.0155279388776739,1
0.297121342150091,0.015790678479144,1
0.382263879567779,0.0209098417619607,1
0.381465987710231,0.0156949876554168,1
0.393775935811849,0.0124910064455953,1
0.365938580897147,0.0101903591593668,1
0.385799788125091,0.0178678173928023,1
0.29212078211532,0.0129429947928682,1
0.320841206251023,0.0169089773311054,1
0.362527788730184,0.0235345638319847,1
0.338747495913402,0.019742608689423,1
0.375413837248204,0.0235662628207503,1
0.35378235153154,0.0280300190175167,1
0.163397617968156,0.0247975169493575,1
0.11250441276957,0.0276245425995383,1
0.0862894301092973,0.0269723432133884,1
0.0857841571001675,0.0288159642013071,1
0.0846153600806144,0.0228338327386378,1
0.134347060590881,0.0385171866591479,1
0.155981669913357,0.0426614569633146,1
0.160282643717941,0.0439353754325886,1
0.152576992583371,0.0506826082892746,1
0.150487495667104,0.0539168916152071,1
0.20900929925946,0.0698993635682706,1
0.212360300572529,0.0677543072785239,1
0.17439107731779,0.0239698545862911,1
0.168092377759007,0.0141301178217683,1
0.156555136633262,0.0143096536184959,1
0.155839768922773,0.0130871072416415,1
0.157651145882764,0.0131435987428363,1
0.166740680289293,0.014623079873291,1
0.161206868250936,0.0123566506897765,1
0.162486291915206,0.0131219270837075,1
0.157998902819834,0.0133467795268897,1
0.151252699671537,0.00387970689914929,1
0.200048540574005,0.0145469526002714,1
0.181659846267426,0.0133865290565244,1
0.182238724413926,0.0109474589240056,1
0.228238409117151,0.0164878303662774,1
0.255441840564384,0.0202764292763114,1
0.242461813892434,0.0131522909483625,1
0.271595763028287,0.0148877054115282,1
0.332143575151056,0.0201014677741603,1
0.324097367276364,0.0189536645535497,1
0.310548496465217,0.0307302409739003,1
0.257237267916346,0.0221421771614016,1
0.267687738932416,0.0202063811195948,1
0.280875709109997,0.0227952181516669,1
0.266685512243708,0.0201204400028129,1
0.252913589475726,0.0163829222847878,1
0.160838383878279,0.00985361019936341,1
0.192094527372277,0.0141838865453324,1
0.219294601558257,0.0171973273554574,1
0.268618865695947,0.0233094652711363,1
0.262377965372406,0.0256004236669801,1
0.262406310371926,0.0271919822856404,1
0.253912221259235,0.0462050827645439,1
0.117853399907062,0.0247287455302344,1
0.112950909131132,0.0341371721632819,1
0.112559166328661,0.0596648075367113,1
0.0424945546920416,0.0399232867872722,1
0.0319984384534732,0.0516191560523818,1
0.0244880179933324,0.0449018812463145,1
0.023071505224734,0.0498070835114382,1
0.00561805292235492,0.0175993305750227,1
0.00471303825651749,0.0713252290042966,1
0.00595965281609507,0.0339103774075915,1
0.0063219686342461,0.0356092251477024,1
0.00642758785976035,0.0271627860766893,1
0.00700215453905683,0.0246812106129729,1
0.00694822583587153,0.0226097655649349,1
0.0076305702459368,0.0129396824704502,1
0.0182751035095126,0.0295045335751415,1
0.0201966854728825,0.0184131329769648,1
0.019539202556972,0.0182494162853753,1
0.0184902907637664,0.0199762952588504,1
0.0180895667078076,0.0264149130770141,1
0.0179527315159845,0.0264413069294508,1
0.018037716231512,0.0285956079662856,1
0.0183300322228109,0.030190042320212,1
0.0178217179631126,0.0243384414382407,1
0.0190804094510231,0.0410681120804015,1
0.00969785145669606,0.0343182892339343,1
0.00472115270447126,0.0510034775478187,1
0.00500995628302277,0.0599890069296289,1
0.00497474617445074,0.0611874151726176,1
0.00492857488721299,0.0628473424737225,1
0.00502608037842413,0.0650902794608732,1
0.00512365159410008,0.0958016956729369,1
0.00129409539492197,0.0591506974851721,1
0.000168510061613201,0.202931618970759,0
0.000192599718627632,0.192650802492941,0
0.000216454845828227,0.210544054683343,0
0.000227737969394952,0.17314971539379,0
0.000284153197611554,0.170053546774613,0
0.000378997414086127,0.161337091636552,0
0.000511509740142399,0.126313935644097,0
0.000542167930424188,0.128743650811637,0
0.000531494292139099,0.118395896109233,0
0.000645397818995739,0.11101909231425,0
0.000656217948749706,0.0885427662462517,0
0.000683077673394801,0.0952938932928567,0
0.000641512755906707,0.0840889437711266,0
0.000620443310573218,0.0844156707452552,0
0.000622821414852937,0.0905901665613381,0
0.000597156785834066,0.105762558793875,0
0.000457362720690942,0.0848461265754063,0
0.000812315359227047,0.0968738611456633,0
0.000787148951138036,0.076373639122578,0
0.000692540344661361,0.0951350325199489,0
0.000685669082205922,0.121310589065041,0
0.000653253925408924,0.115782099069847,0
0.000650728323473296,0.106886249356083,0
0.000874806296171029,0.106544532547355,0
0.000879018348687512,0.0901108755689528,0
0.000843621281115872,0.0890115560841611,0
0.000806965568275558,0.111623497331802,0
0.000437597280806023,0.10764508923323,0
0.000397749885101013,0.152328699900256,0
0.000360863055371142,0.143301438709187,0
0.000288716419757256,0.130019455681995,0
0.000288723798102595,0.137343202346544,0
0.000276012963310547,0.181029881716174,0
0.000171194052575295,0.254299819283272,1
0.000281428985056379,0.967557794475423,1
0.000365597608904457,1,1
0.00051357052185459,0.872721002012516,1
0.000539974798226724,0.607340972961537,1
0.000772400245883565,0.561453142869899,1
0.000787297664675186,0.392806438092773,1
0.0013801055515946,0.284531490687933,1
0.00131032006609525,0.181486477124883,1
0.00118531882418561,0.159416397639895,1
0.00143441082049212,0.15875502342631,1
0.00123133729396341,0.11512252171716,1
0.00181344090221787,0.081723223205137,1
0.00388925410826987,0.129210133899835,1
0.00386782019476789,0.10342266052284,1
0.00865501196943308,0.0305644285065905,1
0.0309619344465841,0.0824818466862248,1
0.0853143914484871,0.091915540417001,1
0.219246046891809,0.154591852353027,1
0.292769457598926,0.163937933709086,1
0.439740821713928,0.104916976184506,1
0.636010231921574,0.116810809230269,1
0.617876393227735,0.108343068947231,1
0.576015975552338,0.0999013673303002,1
0.470579930208886,0.0854706149943559,1
0.355131296134589,0.0709433837825743,1
0.309846546694359,0.0589953454269313,1
0.276575983548166,0.0423707564048805,1
0.231026575965275,0.0320633813714074,1
0.162653644857418,0.0218887440377722,1
0.14743780128596,0.0268524262306121,1
0.167911985762239,0.0304815742213241,1
0.150305894019084,0.0282053760326664,1
0.140581982159279,0.0270321198929937,1
0.134375393185003,0.028444048340724,1
0.156279914109902,0.0183370046402536,1
0.227925678645713,0.0366992767721369,1
0.234617920839553,0.0379575270934018,1
0.241044650746457,0.0263276609260297,1
0.246137806468695,0.0253634840265183,1
0.268213876969111,0.022967306459243,1
0.413083600297225,0.0258867223699979,1
0.439505995844444,0.0167331627367962,1
0.483883235936009,0.0182787697911933,1
0.471996664228175,0.0166839125036081,1
0.548264515794509,0.0234033711297338,1
0.53354457346098,0.0183801227616732,1
0.501943631240495,0.0195493427071717,1
0.50378653139017,0.0245256857446721,1
0.489026668324055,0.0243223853789437,1
0.495641110170854,0.0302673267191448,1
0.337765018134118,0.0261494001744331,1
0.320346510016555,0.0443818020382637,1
0.278768157817392,0.0399952566641878,1
0.24490269942059,0.0381110932521307,1
0.0968510331918098,0.0168634336529962,1
0.0951171007623032,0.029926284023026,1
0.0948783054299679,0.0262690063953133,1
0.135417176089805,0.0258576869747433,1
0.298089627375881,0.0501782226936678,1
0.312150715740268,0.0495249625380233,1
0.328720127683966,0.05281066610582,1
0.356168379603165,0.0525928658580863,1
0.40052967591305,0.057319772493964,1
0.404996017796716,0.0657462541544521,1
0.22921633741336,0.0450414081731241,1
0.166125981674781,0.0381961339305415,1
0.0967619484099662,0.0140036726412693,1
0.0688923481249777,0.0153326066678136,1
0.0649704639332696,0.0175256863284463,1
0.0614769132221124,0.0206364509435708,1
0.056877882947782,0.0203869034921295,1
0.047968729440192,0.0247647082106828,1
0.0427624900102423,0.0217827025918736,1
0.0372708652287809,0.0192804249022715,1
0.0343767107291038,0.0181409209079538,1
0.0391117201343943,0.0129478020962001,1
0.0251001803883049,0.00770695339932476,0
0.0213416266364828,0.0112237909392842,0
0.0272161033457796,0.0126734207425856,0
0.040980022827039,0.00648578325797377,0
0.080966614746271,0.0178243240885,0
0.0835003530047125,0.0135682524656491,0
0.0848431014139619,0.0119232743586355,0
0.117375572715305,0.0163001025727191,0
0.11689623244499,0.0140571546707497,0
0.122016282885134,0.0174928259904417,0
0.136527651236539,0.0253978498495918,0
0.136190703514122,0.0219487465182152,0
0.0922972690747621,0.010317729807715,0
0.0885614845184723,0.0177745243824891,0
0.114920850041609,0.0278460504795891,0
0.0948765103200328,0.0347002070486528,0
0.0515343092430032,0.0207409159855043,0
0.0548712146746288,0.0297929765797532,0
0.0480897467689032,0.0357600158118772,0
0.0385187998701474,0.0347532158041674,0
0.0359517089410054,0.0319887331115861,0
0.0331799718078855,0.0262702761475216,0
0.0111580314607756,0.00662888816201856,0
0.00601488818171853,0.0311251163324838,0
0.00578630702478674,0.0285500364359142,0
0.00591494815065545,0.023231260345633,0
0.013252531022682,0.0318788276941647,0
0.0162733609054543,0.0293555787922219,0
0.0154911355303524,0.0257391540340524,0
0.014813572464322,0.0192949610227177,0
0.0169626522989425,0.0193322241327507,0
0.0168681902339851,0.0197813108800737,0
0.0166031064032326,0.0212049246122302,0
0.0160892374159722,0.0200701936835669,0
0.0174524679675554,0.0204004973184908,0
0.0158707851098268,0.020020640156899,0
0.0112402458728744,0.022366318249984,0
0.00883652008024371,0.0215597968266074,0
0.00859152232174666,0.0232358194313829,0
0.00805763415101619,0.024083267031609,0
0.00728727946308834,0.0268573746964444,0
0.00851233466305469,0.0328130120524074,0
0.00992819896697924,0.0200349177136515,0
0.0136149827328205,0.0200554212519496,0
0.01413344632646,0.0188698441451776,0
0.0162029652829385,0.0243157365204148,0
0.0169491381206708,0.0265611347087167,0
0.0163118518128312,0.0282973438735485,0
0.0154435360769047,0.0280305962834122,0
0.0133128186505715,0.028376732761832,0
0.0137677726941279,0.0330250623719468,0
0.0144025952505471,0.036502116133447,0
0.0119048785516863,0.0765232685700005,0
0.00160176698599795,0.0570077269683766,0
0.00135931223168287,0.358956046702548,0
0.00146119125052304,0.445308416546386,0
0.0011807324183171,0.876418652981083,0
0.000478919380381359,0.604453394045654,0
0.00021249279562427,0.87849712426826,0
6.41898101808896e-05,0.569465934788535,0
9.34434591531295e-06,0.81557818373941,0
5.85398493030594e-06,0.624632685965011,0
5.29603329513687e-06,0.65380019843738,0
6.5835447408153e-06,0.723160686510118,0
6.77030720603951e-06,0.753579837886017,0
6.19661901280519e-06,0.607856334022265,0
1.52768367334224e-05,0.796727958485023,0
1.62647836045626e-05,0.643660814803652,0
1.73713591500561e-05,0.667073622635235,0
1.61931872704127e-05,0.643770614069962,0
1.60542154531568e-05,0.694230325245743,0
1.61828762264238e-05,0.69439549939282,0
1.66539104745712e-05,0.696645355184403,0
2.85947282806449e-05,0.482402414926593,0
6.03984786777586e-05,0.532036391507916,0
6.0252529566127e-05,0.480656352121199,0
5.50491189801026e-05,0.508823529992811,0
5.48498316005387e-05,0.563656655572224,0
0.000116115831835805,0.116489101122757,0
0.00113394455071215,0.168183189912693,0
0.00122317359203263,0.100814561107489,0
0.00117820064118903,0.102580819429349,0
0.00116605938958875,0.103882099460034,0
0.00117715329735429,0.109242648933628,0
0.00118036625943511,0.10834618995608,0
0.00115676658271327,0.109494066841809,0
0.00114763828159258,0.108865548743673,0
0.00111974803503251,0.106005092958416,0
0.00111113222397175,0.158769999310328,0
0.000211107907753519,0.145496033968234,0
3.24488509027274e-05,0.712171142151647,0
3.06550800334122e-05,0.752352285199052,0
3.33699803966471e-05,0.655536269838158,0
9.70612538119535e-05,0.446480730966814,0
0.000411852333942899,0.366319974458255,0
0.000432916864838014,0.224510806722656,0
0.000434768675051934,0.222135135382278,0
0.000429232245682722,0.215690071971412,0
0.000422271053751211,0.200241951803669,0
0.000418605626578014,0.199281731988841,0
0.000417518925599473,0.198040711649101,0
0.000418135414495128,0.197961843237063,0
0.000420487180146569,0.19031429074529,0
0.000426110492816707,0.214066339782007,0
0.000160977560827385,0.180802951291074,0
0.000228615211530345,0.302371432931586,0
0.000231571342429799,0.258063079388169,0
0.000255000206606182,0.267082088858332,0
0.000276733776585719,0.285654732131844,0
0.000281498615830914,0.297637276427928,0
0.000281706268110983,0.301935609654361,0
0.000284903631919739,0.296829803344117,0
0.000298678633760696,0.345435358174186,0
0.000238315784113942,0.365943044875877,0
0.000181846585526491,0.431959862899345,0
7.92495256031154e-06,0.231734814071761,0
1.07693056592045e-06,0.437610106510207,0
1.15149195893807e-06,0.440124395816623,0
9.75138481294608e-07,0.424736368395946,0
7.53331842064627e-07,0.428694787255828,0
5.33957181051767e-07,0.393362453637554,0
4.50005284367437e-07,0.364427349319523,0
5.32089996498483e-07,0.392781005822644,0
4.826796117738e-07,0.388792768881198,0
5.62725845933273e-07,0.424952135037292,0
5.77724806772906e-07,0.443563089949013,0
5.79448096225434e-07,0.449460307824704,0
4.64274198698887e-07,0.42869639102052,0
3.14058068779631e-07,0.339401424774032,0
4.7472439162333e-07,0.373449043692046,0
4.52550954815588e-07,0.349364815845256,0
4.4257559415016e-07,0.347924596530015,0
3.97932085207031e-07,0.344797883541386,0
3.86665551860911e-07,0.337847148693957,0
7.20826650728717e-07,0.412448359658608,0
7.48266389342375e-07,0.401427000115309,0
7.44476576396387e-07,0.405395738212811,0
7.01149912573216e-07,0.390516057767718,0
6.89097457409925e-07,0.397414453002402,0
5.04211669069479e-07,0.347591504684152,0
5.38513499684389e-07,0.348019192130225,0
6.56123690123729e-07,0.365799639743939,0
7.88971228338735e-07,0.392715194703475,0
7.98653405433058e-07,0.39792131955338,0
5.44708755469096e-07,0.355251895129466,0
6.47459565473883e-07,0.375726527430086,0
1.71651171282687e-06,0.570104032379156,0
1.96099898134117e-06,0.594911096819449,0
1.86036366662575e-06,0.563158111958984,0
1.98400558588372e-06,0.599638789243417,0
1.81034793009789e-06,0.578260077492491,0
1.61022695132961e-06,0.563380052273732,0
1.66042757256714e-06,0.569760675476503,0
1.61057752035319e-06,0.53773736862951,0
2.02581326109457e-06,0.551743182119711,0
2.18444153743626e-06,0.558491708527107,0
9.3362895155489e-06,0.546821940666088,0
0.000118085802579598,0.879964365068962,0
0.000172383185939301,0.630083909087594,0
0.000166435171924827,0.582738824652138,0
0.000165810699979235,0.577341277273523,0
0.00016513082971426,0.589573243431743,0
0.000159853801574897,0.595170423982417,0
0.00015333212870712,0.579769392866482,0
0.000146016590883169,0.555636491026184,0
0.000146526541960425,0.536707116098413,0
0.000164114856953099,0.410089584301616,0
0.000549935034157932,0.331570165187852,0
0.00104509075739584,0.21820659266217,0
0.00103898600494173,0.188599001237018,0
0.00102862378974078,0.191001607136002,0
0.00102091408440359,0.184905222891378,0
0.00102858752968553,0.179434647144383,0
0.00102778184160027,0.176858395526602,0
0.00102093948070234,0.183929738314859,0
0.000993320335963845,0.182241039639304,0
0.000983289663704419,0.194143226431796,0
0.000726098152390125,0.240845488355472,0
0.000263198360303254,0.325798357372972,0
0.000261948594894013,0.457061554586386,0
0.000270276243395026,0.47505620214334,0
0.000284943275343599,0.477228466744167,0
0.000294613941908534,0.482318487699677,0
0.000303420507606693,0.472835911068391,0
0.000305070587891827,0.46707005926205,0
0.000314208103692333,0.496599735521368,0
0.000313678328745798,0.56983829744146,0
0.000138108871217383,0.635856946394077,0
8.80775223946907e-06,0.545128985819385,0
1.82799503540795e-06,0.549884403487484,0
1.80833210427861e-06,0.607849292693752,0
1.66283797730589e-06,0.592871953337808,0
1.81538555303304e-06,0.638311587437755,0
2.11732213151858e-06,0.693186517591021,0
1.20550504527388e-06,0.546972333085758,0
3.45266262595687e-07,0.320020008893955,0
4.66628943863427e-07,0.372717649716148,0
6.15694991650558e-07,0.428521741851919,0
5.07604098543815e-07,0.39721584079276,0
8.00173904188867e-07,0.470438871201064,0
1.02049973986324e-06,0.480165067190182,0
1.0829659622304e-06,0.476091547146528,0
1.24797998817084e-06,0.49164337564556,0
1.3062014129331e-06,0.479544913522228,0
1.32568161670061e-06,0.478139923855945,0
1.32396070033071e-06,0.495390125150554,0
1.28196512012322e-06,0.487562418052174,0
