Activity,Complexity,Tag
0.00100637351387291,0.0282967005659615,1
0.000865662581176077,0.0396923293523255,1
0.000723158921256454,0.0360285804273155,1
0.000670126111912225,0.0371190754237736,1
0.000777325370404539,0.0455329583903363,1
0.000887837471152986,0.0491640498404371,1
0.000887348286872805,0.0481937197385274,1
0.000874407884201288,0.0625527640426092,1
0.000709571626082131,0.0519660063782179,1
0.000907717371105455,0.0589136516399575,1
0.000952610387576648,0.0539654654346107,1
0.000884200384815358,0.0548356315579939,1
0.000985835492274738,0.067712526438166,1
0.00106759081541791,0.0724930147275655,1
0.00105994930341081,0.076812742093423,1
0.00109568293582432,0.0827367853337693,1
0.000998364169727079,0.102919476207998,1
0.000695212277882432,0.0845537969466561,1
0.000616361523228073,0.0979663727114424,1
0.000670994935054122,0.121941448605182,1
0.000408205328286079,0.187350453952686,1
0.000147721433248602,0.183859604013987,1
0.000131992724029645,0.186869702516476,1
0.000131815651843407,0.213724092599937,1
7.67371241759061e-05,0.112732592854592,1
0.000545293618556462,0.257437787280876,1
0.000760819849236979,0.235938920768495,1
0.000840148549408965,0.253415884825039,1
0.000852841170423708,0.253174634893679,1
0.0007940788473847,0.247748659105082,1
0.000670780592117898,0.231911288998832,1
0.000644769048055163,0.188457784148886,1
0.000902064393986901,0.169017117371132,1
0.000710502627463921,0.111546954921892,1
0.000959581973219154,0.102574757186022,1
0.00107031461476703,0.0663607521198523,1
0.00119584572650969,0.0663702322778573,1
0.00115121954823076,0.060038698563612,1
0.00126297897686564,0.0551292440474232,1
0.00161735883347407,0.0640477496386234,1
0.00186220321633613,0.0686518153411624,1
0.00192602851643106,0.075563309024849,1
0.00166546030271731,0.0774889192801418,1
0.00156696746801383,0.0806368460710402,1
0.000709020900864166,0.0620879311558338,1
0.000477465572223397,0.105524249773413,1
0.000458503220165133,0.137927960656393,1
0.000252951594767074,0.122176157435542,1
0.000270420676640228,0.251949095492187,1
0.000273360161468599,0.261051138275424,1
0.000248229968544422,0.175669400853283,1
0.000239360931912052,0.132122544745265,1
0.000603302562523908,0.135123546980671,1
0.00123770345741659,0.20349665101589,1
0.0021953825866271,0.210877171508259,1
0.00205455791895187,0.0953448508899954,1
0.00200044443281552,0.0893710017825121,1
0.00194235131707194,0.0876696986594875,1
0.00206220985726155,0.0883345507910691,1
0.00210862613599637,0.0791131670600945,1
0.00208236038955832,0.0830475495462882,1
0.00190131126821768,0.0838466295168471,1
0.0018194091723949,0.101685555274614,1
0.00150790484822148,0.0999770976865473,1
0.000446572212846581,0.0474649274716573,1
0.000411888819636423,0.0955936819670057,1
0.000395839200748699,0.0789933789405229,1
0.00040804822069063,0.068051067174396,1
0.000357093745709356,0.0470422887561073,1
0.0009703876541194,0.0825829363819368,1
0.00109844069676229,0.0549535480407348,1
0.00112904377344605,0.055260169489314,1
0.00126852687048213,0.051559536871263,1
0.00142639019881248,0.0376062026405024,1
0.00182789464013589,0.0487995397535218,1
0.00179054105530561,0.0492081315174385,1
0.00187826855634457,0.0445882086762389,1
0.00210194844442553,0.0450106193305525,1
0.00204517608158721,0.0481225264313203,1
0.00185650653612531,0.0413953957498845,1
0.00259464399628515,0.0605350715521844,1
0.0025040641508594,0.0538509614408899,1
0.00252960929619642,0.0583198341983167,1
0.00240694129924617,0.0709151506817734,1
0.00199430636938959,0.0548436177596272,1
0.00225677153807977,0.0372045414710309,1
0.00244578525774352,0.035672263771001,1
0.00282412460214199,0.0322219906319021,1
0.00604238004899344,0.0502637767710417,1
0.00674846522751659,0.0385726201347807,1
0.00671976936957975,0.0404598266919218,1
0.00804418322834116,0.0274740120172875,1
0.0184890423611446,0.0470143653061436,1
0.0243459634401853,0.0567797281549662,1
0.029019456194014,0.048399447093492,1
0.0290209029034682,0.0529901974858352,1
0.0258814450442426,0.0456613595926312,1
0.0218970091065228,0.0404061447034839,1
0.0214422720484173,0.0357649302960857,1
0.0184653921624808,0.0185973107123661,1
0.0191955176799856,0.0116949219532628,1
0.0157167274551348,0.00739777760533524,1
0.0167311178441405,0.00716121553635551,1
0.0183802570819634,0.00828730454969527,1
0.0189388437422883,0.00779395481830644,1
0.0198283967866263,0.00600100251524556,1
0.0211862664640706,0.00621479420135282,1
0.0227767525106278,0.00635879321780958,1
0.0264396654400316,0.00589693124237169,1
0.041208543123274,0.0174728133535586,1
0.0542829347566469,0.0293214349042423,1
0.0549632593161866,0.025501318900887,1
0.0506364512761831,0.0230679528023744,1
0.0673511521753311,0.028023565940631,1
0.0754015581851906,0.0384659250606897,1
0.0687715911318225,0.0312730518224434,1
0.0768266267124208,0.0165526074379027,1
0.150803463596619,0.0274178389275706,1
0.142651018558627,0.0202569809603244,1
0.147759249974102,0.0171058415098719,1
0.154394531438244,0.0139526073892932,1
0.14432326533297,0.0134227013566311,1
0.123772894477927,0.0110116913953329,1
0.121344649947038,0.0109776530611159,1
0.124272837212717,0.0107072581601708,1
0.131443209126743,0.0122499636510426,1
0.133064990482925,0.0215540841247024,1
0.0499537384835087,0.00955242464343051,1
0.0308481410318477,0.00644831072420318,1
0.0350895173332147,0.0136851956390402,1
0.0316801543404843,0.0258509242109868,1
0.0242880730211829,0.0298472443372669,1
0.0237374561996883,0.0381685076532157,1
0.0124573072676643,0.020372929816233,1
0.0262421552727934,0.0340648553995738,1
0.0271604275229716,0.0247281358041568,1
0.0297929402448003,0.0263126406354358,1
0.0491694964099953,0.0189418068032192,1
0.106410944453337,0.0355557045473527,1
0.238381316375723,0.0649267904069927,1
0.321274965666688,0.0511237916858748,1
0.298370056259828,0.0433651838881724,1
0.275698644575424,0.0421433289939215,1
0.25733339474563,0.0410387706792675,1
0.262293579361282,0.0425130011439394,1
0.233417885937347,0.0317417821498906,1
0.180872738454559,0.0222999812040575,1
0.164430160031294,0.0257133900739926,1
0.172951316991752,0.0303396424197771,1
0.117153611496192,0.0265356778265175,1
0.0839872913529648,0.0215504065399717,1
0.0855090689694268,0.0163458579494387,1
0.0980438111601796,0.0136057916926132,1
0.117232185346688,0.0114998500167008,1
0.136491463768065,0.0119840008807943,1
0.139978736916258,0.0169892207832266,1
0.099005923973101,0.0122309307055419,1
0.0928701826549971,0.0119352304732483,1
0.0930606619901431,0.0117226613945746,1
0.0950766941655607,0.00993440784213433,1
0.103867807875583,0.0108470343392191,1
0.113342473147818,0.00992833566290286,1
0.117193621113914,0.0119253642794863,1
0.116298326887441,0.0106440180088979,1
0.134191337241146,0.0166283690942811,1
0.138865815407928,0.0180799989604883,1
0.158642241152166,0.0200072826971779,1
0.187817629858951,0.0254199950448551,1
0.183033414076015,0.0188304239410235,1
0.164961670934001,0.0187102499544064,1
0.167053133261846,0.0227194964099665,1
0.129829290015561,0.030726798658462,1
0.0963301148469301,0.0231791143799332,1
0.10088912652417,0.0436018532325691,1
0.0979137358888063,0.0406781694516208,1
0.107348629132752,0.0361948924949339,1
0.106175307233552,0.0209654056698996,1
0.0828758105327859,0.0078575116092424,1
0.0945565296412837,0.0125158955674297,1
0.125886837020976,0.0179244644950638,1
0.127145070895053,0.0163024165444045,1
0.129500059179545,0.0130950856469484,1
0.147002348014928,0.0154287524707944,1
0.149239288820713,0.0145663118399541,1
0.169335209544486,0.014149290192497,1
0.161427879876826,0.0126898859987928,1
0.0593260868927506,0.00164850297297379,1
0.0424644095815491,0.00702771601079377,1
0.042613179153309,0.00687977110684459,1
0.0445541862431139,0.00623428741312567,1
0.0348148579380079,0.00220399183828508,1
0.0335584056864654,0.00710622113380734,1
0.0430370712168546,0.0122391535413682,1
0.0507286679539139,0.0183114520141116,1
0.0526738030322466,0.0255865496911786,1
0.0448906317546435,0.0278237393407907,1
0.0438888866613595,0.0314135891431073,1
0.0481487965002494,0.030462235869562,1
0.0694345464735269,0.0394975442131306,1
0.070455223447812,0.0379723208789382,1
0.0789352383179291,0.0428776369496851,1
0.0872213674749359,0.0325447794228744,1
0.0758215081991108,0.0254270799191182,1
0.0824908815585405,0.0209451801709474,1
0.0639033844527162,0.00720311424517214,1
0.0541075634455628,0.00348621857342175,1
0.0580978673518624,0.00437526573089425,1
0.0728325408912762,0.00879298867634678,1
0.0848304356150845,0.0111367189724454,1
0.0981780449875347,0.0152220311485859,1
0.108826294079313,0.0194287549744547,1
0.104121344908091,0.0257588380662456,1
0.0773496190539718,0.0161307938814206,1
0.0832397907223797,0.016887671618078,1
0.0916320189530288,0.0247326603418527,1
0.071526569756291,0.0162420844894609,1
0.0704080047534162,0.0166014523927214,1
0.079438846393185,0.0191898369453912,1
0.0837699033814559,0.0141899811509135,1
0.0982477139882262,0.018220671487454,1
0.10666515709462,0.0182342436956067,1
0.110885333614509,0.0154963802132952,1
0.0996758944031308,0.0147746697798102,1
0.0792407207193703,0.015214422283772,1
0.0748465544092602,0.0178870922128549,1
0.0666702725547146,0.0130361976542937,1
0.154104318102899,0.0111398528728936,1
0.337377855186666,0.0222122563816049,1
0.368075664453348,0.0280389228632946,1
0.399166305707971,0.0195298262432457,1
0.431288477068328,0.0208705929235167,1
0.411534381943847,0.0199196941563097,1
0.355372401788846,0.0167789766823882,1
0.34353286428246,0.016686607023636,1
0.297133233617455,0.0147371353737684,1
0.246739573275416,0.0108359293767414,1
0.244134618181542,0.0146926922722518,1
0.199156323573745,0.0110102071688839,1
0.201585352187238,0.0103140463615394,1
0.182630182296869,0.0158934843159706,1
0.117839433008268,0.0100045455862228,1
0.130339331172612,0.0111850879325077,1
0.133068043435786,0.0113026341306219,1
0.122711025796125,0.00973892484889405,1
0.137300028775546,0.00976958732586334,1
0.172703110346861,0.0154368825628126,1
0.207957336390595,0.0241600735761957,1
0.232912913722139,0.0337325521885713,1
0.208635915520549,0.0288931028233903,1
0.201771430467138,0.0280678706090642,1
0.204417682873897,0.0281027297441107,1
0.155858879282477,0.0296348603939042,1
0.121523956909876,0.0232684184310008,1
0.0933743614729699,0.0163525105580694,1
0.100934386939695,0.0130230662347039,1
0.147243749288578,0.0164718842267406,1
0.143710650470557,0.0152508858677941,1
0.166291231253188,0.0176560224706091,1
0.228636456305153,0.0268486103239979,1
0.228340580976066,0.0176714437233393,1
0.23562156598118,0.017020353823139,1
0.232209358376261,0.0158033198000888,1
0.217134055830581,0.0148205878858912,1
0.219176003994627,0.0157267897599209,1
0.193453601966602,0.0249352523240381,1
0.0981369130619619,0.0126354747351662,1
0.0981406913431828,0.0206345486659287,1
0.0732109241441867,0.0194908216176778,1
0.0386978257113592,0.00859229743026155,1
0.0349237840244805,0.0311806674143908,1
0.0266452237446764,0.0457470380389186,1
0.0364466198167617,0.0340559452122771,1
0.0580710294770764,0.0411305270966932,1
0.146373308314797,0.0666970324427284,1
0.197469315226194,0.0793997643928113,1
0.227196593127933,0.087664563039844,1
0.235144951542355,0.0858720321948554,1
0.26755345407018,0.0865097388485879,1
0.259887198452802,0.101172434531402,1
0.172682937591359,0.0632285151198556,1
0.0771570409675479,0.0325157386396069,1
0.0444341478795168,0.0197680038093214,1
0.0223845037184467,0.00641311927311557,1
0.0231079309921894,0.00962917230184971,1
0.0230635416065149,0.00767292697940898,1
0.0224801419896294,0.00543439628497955,1
0.0197588653349691,0.00474127347975381,1
0.0231575674242022,0.00678667821321633,1
0.0213422638461803,0.00436382891537419,1
0.022339906386305,0.00497253248055936,1
0.0296330713708258,0.0127678091156213,1
0.0374979190258736,0.0214804434089451,1
0.0487435928231922,0.0352983317368241,1
0.0474469576556523,0.0297076362228866,1
0.0443604888215127,0.0251432916981082,1
0.0695462488251445,0.0378222709560987,1
0.0933121996736679,0.0458763265158714,1
0.0949708841062201,0.0291681062702976,1
0.0812499916114258,0.0236934872256757,1
0.0683445706331934,0.0209831879798414,1
0.0653454372156028,0.0191795161523011,1
0.0721390630208602,0.0166454283842263,1
0.0820544924481688,0.01808552300453,1
0.082248227374999,0.0217860548046748,1
0.0761468718931498,0.0245490449742273,1
0.0655885668491632,0.0300026333691582,1
0.0295066700531159,0.0129323226952777,1
0.0229799491387973,0.0233857291643398,1
0.0296737026068113,0.0341201031448725,1
0.0556300696845148,0.0566946850090983,1
0.0698736486855907,0.0621753011703248,1
0.0632836919708174,0.0483545507525122,1
0.0856244039256251,0.031172081825687,1
0.11237766777257,0.0339524763084949,1
0.100537081672343,0.0269328293153495,1
0.0981134470782781,0.0185903206859854,1
0.117894072186275,0.0238200396283127,1
0.151785340004062,0.0300223685650638,1
0.145774863195992,0.0271016530301895,1
0.150467076951362,0.0285003440462456,1
0.185371866058649,0.0227364560219355,1
0.200710802273247,0.0135506239957686,1
0.199581200077256,0.0112937013633103,1
0.311262177641901,0.0202062482979769,1
0.280132703983588,0.0132477649314799,1
0.214192052445204,0.0103823473928952,1
0.205879086848944,0.00967605654800553,1
0.231075220152654,0.0103516125346707,1
0.263949056881409,0.0133355865326564,1
0.290025875946407,0.0143036426633365,1
0.280016602120479,0.0181028804487822,1
0.280029431781288,0.0240307821944406,1
0.303674683392946,0.0383385296528094,1
0.178090842500967,0.0237556232808343,1
0.0990404924733669,0.0204812189723886,1
0.123923470933233,0.0200041607733518,1
0.155078836250664,0.0246440177969001,1
0.261207157877656,0.043670673011832,1
0.413471311113822,0.053966329999504,1
0.390535358419058,0.0362586392434447,1
0.385440680088461,0.0401365245707403,1
0.300679095326464,0.0365144472006155,1
0.228416910741745,0.0267383596746625,1
0.2216653566524,0.0250128801413058,1
0.201321777275969,0.0227607645526547,1
0.247838008890195,0.0269612354163868,1
0.362915431477332,0.0318187408156245,1
0.324949048828829,0.022455093326078,1
0.177775335074828,0.0105417352704044,1
0.163440930241337,0.0111330661997866,1
0.182594661052397,0.0134213291562254,1
0.165889997173255,0.012353045731234,1
0.162905989625788,0.0139544139542781,1
0.160552788931825,0.015926942841936,1
0.176086440987415,0.017108129203099,1
0.228639387949562,0.0289320118136004,1
0.231814568608468,0.0297612870686166,1
0.18840590132579,0.0398064567711024,1
0.146679206154444,0.0340237496270786,1
0.119585878982209,0.0385564301156326,1
0.127602948185145,0.0395033924001431,1
0.134734157884626,0.0256994592339383,1
0.135109415017984,0.0113259430285065,1
0.136499274754335,0.0118265012440095,1
0.145572460445038,0.0130038473993289,1
0.130611434783951,0.0102695985365183,1
0.143592886677464,0.0151540778669519,1
0.133420221565922,0.0137668521312571,1
0.132681202494292,0.0134512554858333,1
0.16012798732053,0.0162169710480673,1
0.162087855327546,0.0171713794996587,1
0.108476430284727,0.0179722205650804,1
0.0402130372126184,0.0162664442779896,1
0.0538951712648377,0.0211632035597972,1
0.0586069724934867,0.0239558684364808,1
0.0322613907425828,0.0146230308295808,1
0.0431161407705497,0.0184191519004553,1
0.0715419362572618,0.0328480256600655,1
0.0849296137373379,0.0377640836033764,1
0.0951181435224955,0.0595939675027529,1
0.0749174787508098,0.0544103910178705,1
0.0758579549936263,0.050810975523526,1
0.0748987037697799,0.0495350726502627,1
0.0731016116319857,0.0387587636775572,1
0.0598341164271406,0.0362297942259768,1
0.0214750153785744,0.0121918853448079,1
0.0151793983940179,0.015312253192845,1
0.0338160287694152,0.0360488817755689,1
0.0369544764260386,0.031074520167793,1
0.0392427983497027,0.0294353277118823,1
0.0484356039686745,0.0332829985498001,1
0.0490840851558118,0.0268975227449372,1
0.122054463628678,0.0369783193485925,1
0.123538184594236,0.0119444142106609,1
0.119338108245347,0.0108385902922948,1
0.103456645766931,0.00844481115243642,1
0.0930584487407276,0.00765225469181418,1
0.0943154379267113,0.00875199248081453,1
0.118945978133448,0.00691570209716741,1
0.140974039508502,0.00612259357090648,1
0.137874343412994,0.00569399129085264,1
0.134019153116984,0.0060381243476306,1
0.106338848820455,0.00263036669872311,1
0.10174024332664,0.0089908662951535,1
0.0960143507279279,0.00735039312780634,1
0.105852748260598,0.0101553569000871,1
0.103636439858449,0.00663297904635096,1
0.103685770768232,0.00594860595243496,1
0.0914303397782545,0.00925114697605563,1
0.0742152028494372,0.0103502633284271,1
0.0743552769574012,0.00991516745203717,1
0.0734460761165344,0.00860029393578289,1
0.0714493295061499,0.0159385292728083,1
0.0988485029244173,0.0183152057490616,1
0.117782621029087,0.0155362290463022,1
0.128736260790885,0.0147304592286326,1
0.139424948284057,0.0209696061120883,1
0.11072019264161,0.0151193098400786,1
0.10856981288963,0.0171130626335601,1
0.108258620912631,0.0181247699257789,1
0.123850270162983,0.00652637372812616,1
0.203973789949657,0.0145588184220232,1
0.243298273277778,0.0193008737615394,1
0.306979758104367,0.028977962598513,1
0.378606201182914,0.0455754221163079,1
0.39392146028506,0.0430632314416573,1
0.468980001647301,0.0313270104034365,1
0.379046111854989,0.0222225281364511,1
0.299470214530864,0.0171778461139229,1
0.179657342871828,0.00738216064002429,1
0.138079613439842,0.00762707448332064,1
0.182026111138984,0.00697422009733613,1
0.242450505060593,0.00165562932007225,1
0.358680661652231,0.00264611899973264,1
0.414098315558007,0.0033430694241185,1
0.44753512221018,0.00454983317061097,1
0.423482697988441,0.00516382859028125,1
0.431488295334976,0.005349455635035,1
0.476550479243165,0.00456549090918895,1
0.486909423717451,0.0053042501379369,1
0.431766080860757,0.00381888923176498,1
0.398789048215766,0.00439057034714938,1
0.326216850105609,0.0111476669513268,1
0.170236292571186,0.00552234649253138,1
0.227658652684651,0.0086541772888733,1
0.247868049683245,0.00328822173636894,1
0.283559483963555,0.00587767207764376,1
0.292599807617164,0.00813708795311788,1
0.283396458166491,0.00760156424236548,1
0.276490046449333,0.00725708368544431,1
0.275888753886553,0.00653301544695781,1
0.335968600657714,0.00859328613365789,1
0.356972664597461,0.0094208746534681,1
0.339485499383607,0.0092616680197141,1
0.293771554973525,0.0102054444539513,1
0.265744130015061,0.020635682039334,1
0.253723386643683,0.0143562506260825,1
0.333430958280473,0.0155647552750594,1
0.31803838433959,0.019234297789228,1
0.29508921284254,0.017617962219716,1
0.346758053965844,0.0207495394842821,1
0.324515111753149,0.0214815396781113,1
0.297961678581003,0.0230934774240713,1
0.346735737789397,0.0284472485478403,1
0.385462699123201,0.0342191655521746,1
0.436186646131683,0.0397193952985067,1
0.433641802851669,0.0456460295615738,1
0.231724094230529,0.026910650475467,1
0.214012622115909,0.0184920619349863,1
0.185164040282003,0.0159984114306573,1
0.196479762730499,0.0212624292423413,1
0.197760788176129,0.0221391535823981,1
0.198101199459954,0.0202026644107972,1
0.214134103685001,0.0203568953961063,1
0.204776188263215,0.0201228839482998,1
0.199076090520038,0.0198805544508556,1
0.239968152293695,0.0286923648589905,1
0.233058263897937,0.0434330850739458,1
0.151935539182733,0.0448681863592371,1
0.143568583554373,0.0338949519434696,1
0.1439526137633,0.0307858027740679,1
0.147743742218125,0.0322819305996243,1
0.140408467749325,0.0276253114340978,1
0.133000014639088,0.0323485421605393,1
0.0918673682214834,0.0205459624065655,1
0.069955367570084,0.0123627916294508,1
0.071471840575995,0.0195698078669522,1
0.0722613387244937,0.0204354320872776,1
0.0746823513390432,0.0225034069364767,1
0.0519453418744896,0.0254772276602073,1
0.0281296082407308,0.017730512065982,1
0.0261653855850851,0.0213955912363881,1
0.021364009713196,0.028738178962593,1
0.0151558037584782,0.0201627988788455,1
0.0184175316639785,0.0224956926655336,1
0.0192836196310848,0.0245000097196687,1
0.0136895042707313,0.0194489198212255,1
0.0290327161509851,0.00898942082341216,1
0.0636104548796716,0.017216937419329,1
0.0590483103821884,0.0147923729668446,1
0.0650008397569672,0.0148120415917196,1
0.0671543811476709,0.0136592424643393,1
0.0589767684413866,0.0119331244138824,1
0.0660188979342394,0.0111012504002234,1
0.0668792186643762,0.0105878640054592,1
0.0660822222228894,0.0108938819214508,1
0.0503540144069775,0.00332983229828479,1
0.0471655222630203,0.0109066791941932,1
0.0458858322396667,0.0142803681673817,1
0.0457838613637797,0.00701899027123813,1
0.0606418013166025,0.0102927859966446,1
0.0708506492855954,0.00832392840510853,1
0.0835277447461972,0.00958408511323522,1
0.0781627660840434,0.0109505204726905,1
0.0707140182539761,0.00913437624138836,1
0.063461877943296,0.00777985918937066,1
0.0578777169851469,0.00886175999450892,1
0.0629390121585203,0.00853575492172104,1
0.0671575114730164,0.00749406845283987,1
0.0642905885960889,0.0128007674026577,1
0.0513205111647858,0.00950260381088383,1
0.0659699520533307,0.0312414694595741,1
0.116330992428262,0.0374025959671701,1
0.213564979255562,0.0597022106883409,1
0.238853507879397,0.0682399641575693,1
0.253644070711799,0.0720633557936891,1
0.25996039450381,0.0673996988428787,1
0.291896931128097,0.0489327792591378,1
0.25311676503583,0.0434520405995238,1
0.151046867730827,0.0284703764741814,1
0.117695138155059,0.0231249300959569,1
0.101233193875714,0.0175830678093138,1
0.105025342177245,0.0249936052277082,1
0.113184902260991,0.018102413014043,1
0.128413246937539,0.0170831493052254,1
0.123636543165818,0.0159288338925863,1
0.115555726148102,0.0168131775354418,1
0.108751707302834,0.0223468419564886,1
0.114259938539859,0.0251018781466556,1
0.14164181769764,0.0243443301459454,1
0.14225364454281,0.0222206953768988,1
0.217131390844597,0.0179325574747548,1
0.286235957121046,0.0149070308019175,1
0.203430059649806,0.0105774109809466,1
0.199189473210851,0.0115753183981698,1
0.195077135144029,0.0111413796923418,1
0.193836481787706,0.012033628525832,1
0.208511007986874,0.01483729976003,1
0.188478126341822,0.00968294240425181,1
0.216881498755881,0.0143923375480756,1
0.212550839666981,0.0109692608370924,1
0.188816513977415,0.0187003140172218,1
0.159795347951547,0.0284420927668004,1
0.158186304620748,0.030216434669319,1
0.17191609777739,0.0284154781804972,1
0.176185143731596,0.0274750931011874,1
0.180489591834142,0.0163398047880535,1
0.136317589738562,0.00568061194681268,1
0.148267149594858,0.00800741025812857,1
0.176253294550404,0.0108917515268152,1
0.175137201291289,0.0109883780911828,1
0.152390177480256,0.00880394346455107,1
0.160337868606303,0.00781273682334538,1
0.205069941525587,0.00827481491638848,1
0.227776691155153,0.00781705349812183,1
0.211240777733052,0.00634222423435909,1
0.236181161918616,0.0102473037376794,1
0.199302352196918,0.0107782351022785,1
0.21086575919438,0.0123610858482002,1
0.214324261612461,0.00990548139844801,1
0.207126037543917,0.0101500437686478,1
0.204076343278186,0.0100405338481783,1
0.203612010561646,0.0112103650518609,1
0.119095515811169,0.00627022645757427,1
0.116863720770189,0.00896240892719163,1
0.109391654713328,0.00842246811420589,1
0.129933415645949,0.0121725044887871,1
0.129077141089379,0.00869296017985646,1
0.123353445259811,0.00902016328241186,1
0.127746112745788,0.0117284259319757,1
0.116689339716957,0.00910112665252762,1
0.11816756665275,0.00787100635094872,1
0.158267314071557,0.0100668307342276,1
0.157204257279861,0.00806122679013435,1
0.23928117905466,0.0148882577614454,1
0.287761065934265,0.0186486724389261,1
0.272591292903774,0.0148297151920768,1
0.259864928387366,0.0145964969336531,1
0.29320929578024,0.0147676569457177,1
0.311684711751734,0.0173723634894342,1
0.333078817458564,0.0192074994287755,1
0.349453612069673,0.0211752630452918,1
0.380815738253572,0.0299454888500286,1
0.247000704540332,0.0245951313067754,1
0.265543777914708,0.0345122015713953,1
0.265049354041216,0.0374393390941191,1
0.249942871406326,0.0547942672798986,1
0.0700170581624364,0.01913602637422,1
0.0132400289467735,0.0293069336150898,1
0.0121542043873579,0.0418733641616447,1
0.0117759061513503,0.0350506253079437,1
0.0131959291834429,0.0330396881327374,1
0.0137943462222759,0.0324637592514794,1
0.0119334217267669,0.0279542401153126,1
0.0124774600653897,0.037869692317415,1
0.0114215968529033,0.0328919240040659,1
0.00855598014869141,0.0236534263434171,1
0.00757853483466629,0.0199940484141355,1
0.0142466575718787,0.0336410522981708,1
0.0162409771384322,0.0430028480611945,1
0.0329419378019245,0.0409063010361058,1
0.0527732261372381,0.0612258786027064,1
0.0718864721771641,0.0678948601846492,1
0.0973665594465458,0.0736140737746637,1
0.1089892048702,0.0815658354886424,1
0.0999796432213897,0.0716491016034083,1
0.0684434467828695,0.050476764754029,1
0.0562245170033876,0.0350807737594172,1
0.0520006553718371,0.0188357637026977,1
0.042975136115933,0.00792926473900682,1
0.0388650006647995,0.00626539586890459,1
0.0422999222970377,0.00651959067721906,1
0.0414700026043868,0.00842493149025144,1
0.0363218752079678,0.00542425343660296,1
0.0358259377678221,0.00423022432743593,1
0.0573905871675551,0.0132443070869998,1
0.0640855460299788,0.0162628192991254,1
0.0630305228281659,0.0181674624577227,1
0.0602201289650765,0.0219458199349314,1
0.0547644252902976,0.0221175718187642,1
0.0623757834401429,0.0255087640702619,1
0.0792537091237167,0.0318198431537101,1
0.0799831961530902,0.0192496601109702,1
0.083604708578774,0.0171786552734772,1
0.0872730195267761,0.0184075277558308,1
0.0836744558321479,0.0115865820240762,1
0.088816565102592,0.0116914159518074,1
0.0925942851096555,0.0131629879518956,1
0.0916998638828575,0.0147935368294763,1
0.156697274751869,0.0152044184106607,1
0.307997963172961,0.0300244516939884,1
0.247386540250381,0.0218384066700233,1
0.260054249231533,0.025777924741814,1
0.254273105588074,0.0252521115858445,1
0.241216060497809,0.0224761096668641,1
0.255994122748563,0.0208489323829575,1
0.221034701385612,0.0184324630511445,1
0.223762714343797,0.0138586544563299,1
0.233611441566644,0.0111512224280318,1
0.225197361767815,0.00808200790656688,1
0.320461451464627,0.0154075155869308,1
0.36669833152483,0.0175704800791042,1
0.376158441732385,0.0187277308141024,1
0.366559410653108,0.0194760402562896,1
0.359990458584721,0.0238800365115054,1
0.409097050771726,0.02083439386955,1
0.441100507795281,0.0127659568160016,1
0.401614922168906,0.0150680453502253,1
0.262276306248805,0.00972627050503481,1
0.252878144716906,0.0134337709918975,1
0.22369585329459,0.0101601631941551,1
0.211788767894869,0.00806250324805177,1
0.217003552972782,0.00558312439874402,1
0.245996318983166,0.00759011748831556,1
0.273158706412133,0.00949355725143482,1
0.196088769399622,0.00628995643791753,1
0.205558974145502,0.016942445471099,1
0.299349352520628,0.0245357730885986,1
0.310821328473331,0.0156922520320674,1
0.337316116427702,0.0185526481570753,1
0.378047589012268,0.0238094206132719,1
0.394726526577718,0.031026438733865,1
0.375700993852846,0.0258738048764981,1
0.413793296837138,0.029371506794033,1
0.404000107989499,0.0201741593804031,1
0.428089636913362,0.0281670360342642,1
0.395614066126569,0.0311642813242896,1
0.228520354612992,0.0177937924428942,1
0.206604424087644,0.0290515679185367,1
0.210344815396725,0.0273779330948769,1
0.188322869713789,0.0248890299202602,1
0.161624001229699,0.0221057597331607,1
0.153951990577883,0.0397790758078209,1
0.0671286971688754,0.0186606549200919,1
0.0330656625327477,0.0155589641827252,1
0.0365400027874117,0.0155081321197583,1
0.0313400716149562,0.0128550469120473,1
0.0377025737275158,0.0157970652002282,1
0.0547530397157837,0.0192468881591099,1
0.060758814757408,0.0147422158126855,1
0.069521481586593,0.0140441210131158,1
0.0720582270304579,0.0132725497898676,1
0.0887743350417567,0.0177492416316632,1
0.108289156445512,0.00765748190231768,1
0.154636290962055,0.0156708848652308,1
0.172339196734094,0.0133969122832742,1
0.179329806938964,0.0092628770993264,1
0.234337613831834,0.0109423548867931,1
0.207777181233364,0.00643192573481063,1
0.204249238051716,0.00744945624832185,1
0.205133618812868,0.00783607193683915,1
0.224931504157635,0.00924234800485623,1
0.227964486647387,0.0102172859613803,1
0.238733506639049,0.0163233631490643,1
0.306341169293506,0.0210087794457859,1
0.35266098557421,0.0297059461933237,1
0.288359773282245,0.0329980625011431,1
0.325067093701211,0.0494325338564595,1
0.241876760068219,0.103380525350048,1
0.137630824633147,0.0558630194717961,1
0.0492274762753506,0.0285583870209004,1
0.0220954410252439,0.0149597433607755,1
0.0161668557367875,0.0126682579768526,1
0.0156733246297577,0.0137552492131559,1
0.016641052855047,0.01505600598024,1
0.0199807706429046,0.0158525026031566,1
0.0181959110340849,0.0136212541243588,1
0.02211434803543,0.0173567634927973,1
0.028164950020528,0.0239047431160068,1
0.0587133821288551,0.0399033323704975,1
0.09648667951309,0.0603276889476553,1
0.0916325092187185,0.0474023518070634,1
0.0897386018081428,0.0327535872150288,1
0.0880739332244315,0.0245391739068418,1
0.0646369436858405,0.0161216616141656,1
0.066898419250985,0.0181106246406917,1
0.0584684905684018,0.0151397368635455,1
0.0515628459535536,0.013414153891943,1
0.0536163053981501,0.012691821033086,1
0.0506022506846124,0.0189740701339944,1
0.0548727798372253,0.00588678793012077,1
0.0923058150931841,0.0129534984320707,1
0.0929298929845622,0.0191272658145764,1
0.124542204298506,0.0291092208289679,1
0.151497981122213,0.0330658603068462,1
0.124324102482301,0.022628233859097,1
0.112679810534604,0.0207087765919462,1
0.115487825287999,0.0204659967159081,1
0.0971914906134717,0.00979021356309369,1
0.0871323870878544,0.00617935186560539,1
0.0773974294022092,0.0116954116846727,1
0.0755646393968747,0.013098011392859,1
0.0822006164119368,0.0124222163430663,1
0.0735950981913978,0.00971095822293364,1
0.0575128605053548,0.00731781371361951,1
0.0556660144422905,0.00952999751721087,1
0.0575735689742749,0.0101458965007882,1
0.0525046655187884,0.00973361866631908,1
0.0500912772680094,0.0135710918290379,1
0.0655647738427206,0.0211240689836331,1
0.0828859993116585,0.0271967335116439,1
0.073119237225637,0.0268786086302802,1
0.0684098694206541,0.0179304796656204,1
0.0781850507769649,0.0176904265820386,1
0.078100681173437,0.0185387803986581,1
0.0778273239096889,0.0168992530442815,1
0.0868567591517667,0.0100555398111587,1
0.0885657509020565,0.0138466389324752,1
0.141912304353687,0.0176227104230883,1
0.282665395208849,0.0390664122413972,1
0.346266650565252,0.0346090744622291,1
0.347394728979719,0.0338175511180116,1
0.30897125242991,0.0357510635209787,1
0.259771274881971,0.0297794632426605,1
0.414061332326667,0.023455005935239,1
0.566983650569331,0.0212210380690741,1
0.485593363370224,0.0181816959206322,1
0.503492606615303,0.0170133223849871,1
0.513847075899474,0.0193554252405924,1
0.525811161376891,0.0178849152176839,1
0.528345558007362,0.0192227504767552,1
0.421944981466896,0.0147853724196286,1
0.327326311690374,0.00928364182460184,1
0.211751729763359,0,1
0.208115698802832,0.00764059376547932,1
0.153163145987105,0.00976702940810776,1
0.122503390701673,0.00978936265405084,1
0.121011382052479,0.0102709418359048,1
0.171346993194901,0.0142913298529155,1
0.192448603670314,0.00865806756096908,1
0.211694665860659,0.011487399998027,1
0.410693033612295,0.0203705724450552,1
0.438986005447262,0.0192862075327032,1
0.473552882059742,0.0211336338272587,1
0.524933274349855,0.0167221628690485,1
0.545096428320894,0.0169444683775805,1
0.594508480407165,0.0188723348767358,1
0.596892589143305,0.0170804330699036,1
0.506152856158005,0.0120557360656001,1
0.633908881208386,0.0185975394166362,1
0.723730480241071,0.020314368285394,1
0.468764813669324,0.012710169919751,1
0.361901469468975,0.00983964482585779,1
0.207595869168388,0.00459827199504386,1
0.188243134709073,0.00946148597259606,1
0.187336142727853,0.00982579980292912,1
0.197486621804046,0.0085214187483097,1
0.189349557969063,0.0128865571877171,1
0.175370804784652,0.0164407325637609,1
0.151500880495688,0.0162239869146084,1
0.146707696059787,0.0132611347461941,1
0.176939719479555,0.0189458035693635,1
0.163571840380275,0.0191250582322598,1
0.178763612046829,0.0213814336162111,1
0.188928420194762,0.0229906999105809,1
0.183421362114682,0.0198703577903194,1
0.124250126525823,0.0131837244327815,1
0.0767770952029812,0.00488676721405403,1
0.107482236894356,0.00361512850147202,1
0.295710533280609,0.0208286405029895,1
0.310815407810088,0.0244798257671991,1
0.288973884691337,0.0218464565541906,1
0.28035172390182,0.0219386691512461,1
0.262585556383315,0.0175051758683316,1
0.233558372075753,0.0145765927838807,1
0.241385914443851,0.00808677579614733,1
0.387098504594248,0.011984787241646,1
0.42103479852344,0.00765001081204781,1
0.497776447707247,0.0146694622712059,1
0.41741670234729,0.00970764762482622,1
0.417281684948976,0.0101974569994387,1
0.424641645839606,0.0100441127994226,1
0.422075355071611,0.00902109102610306,1
0.430048223261949,0.0101205853903304,1
0.426399332764973,0.00984751132760552,1
0.47566554302132,0.0175018914786734,1
0.224968173452153,0.00465227529489982,1
0.233118868669387,0.0169783362388421,1
0.315607522986925,0.024848090261263,1
0.409520853587324,0.0423592903904108,1
0.411913773614112,0.0449827502695651,1
0.487165116380651,0.0524344712135116,1
0.455181712007004,0.0528363082879344,1
0.400919923714098,0.0567053306696178,1
0.19831324515315,0.0315737364866004,1
0.145357917582734,0.0543766384689997,1
0.104542231136044,0.0790442843822628,1
0.0285746221932072,0.0443429891626144,1
0.00857922319808548,0.0171513633937134,1
0.00457828008321474,0.0106937981408813,1
0.00474695817099423,0.0132535923709156,1
0.00542203110283515,0.0197242564127696,1
0.00395427649865721,0.0170607175707939,1
0.00501237239546774,0.0253038836990547,1
0.00549132028509801,0.0137858965891932,1
0.00945522834674849,0.0244213719360664,1
0.00992789922345722,0.019825740245126,1
0.00922889560787744,0.0159993435842027,1
0.0110715766571655,0.025374714053536,1
0.0206093079872442,0.0191915408362411,1
0.0338145485721401,0.0203313606810113,1
0.0301046390356998,0.0164708365798013,1
0.0291202367581073,0.0166072424136463,1
0.0244743594036692,0.0085364707696697,1
0.0299832642447722,0.0108129381712508,1
0.0301732163739537,0.0100986986542265,1
0.0313966445832001,0.0118188914708622,1
0.0282308435964347,0.00932262066768748,1
0.0363168345869889,0.00732279641486598,1
0.045107003921905,0.0125058972390956,1
0.0467178055261317,0.0178616966482332,1
0.0425283204783315,0.0170937987665537,1
0.05579654597147,0.0199142422031563,1
0.0559817374194334,0.0168615329881582,1
0.0623694669595828,0.014608259706014,1
0.0828634978851162,0.0231879309476446,1
0.0941380089949857,0.0223274033323796,1
0.0706051091259522,0.01688002083903,1
0.0622201564147301,0.017377026156931,1
0.0605974274199745,0.011883883556096,1
0.0635239732561558,0.0119269785917174,1
0.0529014480074221,0.00877356182561203,1
0.0650416180750645,0.0108820594212211,1
0.0923154528275866,0.01938969164027,1
0.0937508517438212,0.0223961780025755,1
0.0759988040118535,0.0158782631027017,1
0.0804727446943137,0.00980964829261784,1
0.137688016986091,0.017834129531771,1
0.138325165747105,0.0179940056774694,1
0.139479971024142,0.0228011070685239,1
0.135317948346469,0.0174359181668499,1
0.143595791101057,0.010152494058196,1
0.197489463737762,0.0204585954734013,1
0.16490545198327,0.0148345931366323,1
0.14765189056199,0.014065635068785,1
0.139671058987611,0.0126995918110291,1
0.142320925224792,0.0196296105790439,1
0.133076982528554,0.0154187825731608,1
0.131858652383452,0.0156468367705489,1
0.154454997976261,0.0072971392240285,1
0.282578536525341,0.0202023431398213,1
0.289889067189467,0.0222476440949504,1
0.305394450201169,0.025155580306078,1
0.332487226183837,0.0325223980736195,1
0.645141197013833,0.0329516732393819,1
0.746672211012151,0.0129384965804785,1
0.643961143036743,0.00988248247014968,1
0.597057205615567,0.00840982383788475,1
0.516292365001293,0.00327758049302231,1
0.463610107218265,0.00137655564698352,1
0.56256641394876,0.00400632864029915,1
0.621983214199123,0.00580277165633812,1
0.65616717199262,0.00485159009238183,1
0.726888797241078,0.00203456524890658,1
0.723856079034097,0.00284759485267059,1
0.647232227501761,0.00772382298941863,1
0.521778714901315,0.00440426419168995,1
0.5400060370342,0.005368868731766,1
0.455487493698141,0.00657121721057825,1
0.409468018828628,0.00970969118404178,1
0.361520759753136,0.00811479414291353,1
0.33188452305004,0.00622698882958702,1
0.261109813647331,0.00564311277240347,1
0.192722710349035,0.0184459985361424,1
0.121877468431741,0.0160702760482543,1
0.229147877556552,0.0283709767268503,1
0.298591550052173,0.0421196449520673,1
0.470089337137835,0.0457155990431551,1
0.516903378159372,0.0286239873393334,1
0.478566324564811,0.0257000674915445,1
0.476840376690101,0.0264370096307789,1
0.398521035713804,0.0203113284435191,1
0.386566916492411,0.0211335908170432,1
0.509199509325094,0.0275245956608232,1
0.811566634756921,0.0410523039207126,1
0.862968442696564,0.0419019383766887,1
0.832680024491808,0.0417858228999935,1
0.622061622787362,0.046802341623926,1
0.424393522805545,0.049638806810629,1
0.368097392785537,0.0484088431573219,1
0.173188250889052,0.029218420105903,1
0.14990192713468,0.0277740635315735,1
0.1446210455302,0.0233105567478142,1
0.134328091195716,0.0372753938529129,1
0.106080285672205,0.0271024619657555,1
0.0953027490431175,0.0180302046717542,1
0.116852278423681,0.0211612689935391,1
0.13788402782196,0.0129977933725723,1
0.143370671507432,0.00604522185550303,1
0.19294391320455,0.00937514517594194,1
0.190350245991786,0.00778962800476983,1
0.206138585930453,0.00829233530585249,1
0.268799787043851,0.00744247907744477,1
0.303250941197204,0.00298622137884627,1
0.318745298702868,0.00334822852060662,1
0.350500264192058,0.00575988521553897,1
0.348309813012669,0.00402331622789288,1
0.299552212500172,0.0049834464239033,1
0.251671304320762,0.00508871553227607,1
0.278415178854468,0.00625160601528424,1
0.330258806419276,0.00904287434686473,1
0.44111359011471,0.012935808782859,1
0.282747017470326,0.0122103038885392,1
0.247736965722361,0.020490658916925,1
0.256742628117786,0.0206486227381695,1
0.273874916330287,0.014401105871195,1
0.320131747051017,0.0205261759114367,1
0.233380502431182,0.0107570614481238,1
0.337715544969236,0.0142626670406101,1
0.371907362712243,0.00731543362041879,1
0.415649310167967,0.00913255190715512,1
0.496015152859929,0.0133866554065557,1
0.59718342777543,0.0173943741929246,1
0.704050847883497,0.0240359826937583,1
0.705726774098515,0.0238594469868001,1
0.706564173119205,0.0280343122916834,1
0.744672929438439,0.029659027298749,1
0.74111802875599,0.0334817069888608,1
0.252877781730468,0.0121827769586188,1
0.0388439372737893,0.0302654226386713,1
0.0099406242627075,0.0277939678661217,1
0.00767434254503978,0.0114954819791033,1
0.00811043055702023,0.0132110154386864,1
0.00762865637523196,0.0128210135233081,1
0.0116924570050609,0.00759967455431509,1
0.0306738867269824,0.0191070836088254,1
0.030277859949986,0.0148199460408261,1
0.0385470640955409,0.0106090618272879,1
0.0670517739707212,0.02226848615057,1
0.0727438605394136,0.0254128479544434,1
0.0660183232592883,0.0243004778615061,1
0.0572505942953684,0.0187841744929881,1
0.0805674742047557,0.0189258266773179,1
0.0602451379172869,0.00932727386782868,1
0.0514995156448036,0.00887548912623363,1
0.0658970456380937,0.0136249552605768,1
0.050207537245371,0.00444703103326794,1
0.0541422939991289,0.00860814086513729,1
0.0704110782113727,0.00739559121897677,1
0.0778055351107566,0.00779671810059449,1
0.0862618092608605,0.00867861461661374,1
0.0915994716411677,0.00893763530002491,1
0.11330182597928,0.0141180331713503,1
0.0963128951451796,0.0121399606507902,1
0.093176862917857,0.00646970911235672,1
0.154495904730975,0.0123390009231764,1
0.152471279669344,0.0137652807016532,1
0.110583020530881,0.00739950675085498,1
0.129491135066182,0.0122103355158726,1
0.126618591729975,0.0114280007750047,1
0.131786530904763,0.0105168153095836,1
0.132112613634104,0.0115747322489091,1
0.170949094623335,0.0167067789861054,1
0.135625435415761,0.010899455030544,1
0.086862471823651,0.00872916078220414,1
0.0812328786822284,0.0129743272159839,1
0.0811768932920988,0.0125147823043962,1
0.127843167749778,0.0136779132976699,1
0.302416333954754,0.0344358178606099,1
0.301837906074506,0.0222402500834289,1
0.296072469405859,0.0201094048965969,1
0.364803569499943,0.0241912787081736,1
0.377222276705829,0.0177241427328876,1
0.38285195756347,0.0204170307376301,1
0.330250317154376,0.0161025334719598,1
0.290500978720865,0.0141579448683652,1
0.223778336770263,0.0104044735519484,1
0.265409174134681,0.00944072115476969,1
0.42827515523538,0.0164383651177536,1
0.423444283318647,0.0147801137156339,1
0.441521385915267,0.0183704653260427,1
0.432951890796974,0.0154602835504772,1
0.413965255003231,0.02105914395646,1
0.406944428013933,0.017884392616059,1
0.416587224905226,0.0195722604265869,1
0.452545935022375,0.00643448368928863,1
0.668061270553393,0.0118551558689667,1
0.751883534123925,0.021051890102024,1
0.650426733507782,0.0182432378937096,1
0.660071064458599,0.0238060721844622,1
0.639612634694219,0.0225686946780824,1
0.640674228843709,0.025954925165513,1
0.657629171251926,0.0277556508515398,1
0.508515117913338,0.026787900672567,1
0.238506250748233,0.0105464175812497,1
0.0729451849094663,0.0206211843935383,1
0.0775957817100728,0.0592017278083299,1
0.188033967223706,0.0960200421058915,1
0.221411881580887,0.0455169978826421,1
0.209225280397396,0.0409140917920274,1
0.252290329220085,0.0395727176311834,1
0.26764043919603,0.0374264271491868,1
0.369244014573623,0.0403035185093738,1
0.332798926985645,0.00937371471624032,1
0.352560331132605,0.0102178174900517,1
0.399734506881053,0.0109366065808989,1
0.404351921927934,0.0117363370329949,1
0.387194090746343,0.0100176938813611,1
0.400987992408513,0.0143940568643545,1
0.578425241522917,0.017526414528154,1
0.743204163184302,0.0138605282357644,1
0.895741943965243,0.0134988673699281,1
0.868922905068759,0.00971909818383781,1
0.817362273329593,0.0160172932297515,1
0.765664073526704,0.0130797729663903,1
0.902872280963459,0.0149108310041465,1
1,0.0126157894396679,1
0.990804399516081,0.0125928181850109,1
0.988620522572086,0.0101537600953089,1
0.713564552707457,0.00885375017548293,1
0.324168961673264,0.0021990885962423,1
0.29730974758216,0.00713282733652138,1
0.35859063534477,0.0139121085992773,1
0.38849072824224,0.0102915565764037,1
0.368078562775073,0.0116184908233869,1
0.269012257398899,0.00989888934174002,1
0.250124952808579,0.0135729163635348,1
0.309129053257542,0.0116717547080817,1
0.320715988981682,0.00534171231371092,1
0.374823445753493,0.00717351270458859,1
0.378884535367292,0.00672017084493556,1
0.415655557907478,0.00486569546737021,1
0.471096013836763,0.00779528174210904,1
0.383183115465384,0.00449309633763174,1
0.393739383016653,0.00375505531341192,1
0.379289194808575,0.00292429801640497,1
0.406985928461855,0.00376514587953365,1
0.27323274699365,1.28599901407626e-05,1
0.266798607008885,0.00309976624952996,1
0.329511182098572,0.00401916080221715,1
0.320799523225639,0.00542255933133932,1
0.330911483791076,0.0118262813653089,1
0.193541445872474,0.0043710691885862,1
0.185262450239375,0.00681707899797233,1
0.133699596827182,0.00759587999249174,1
0.118995634261303,0.00464386385562587,1
0.139078589692952,0.00728066504604881,1
0.186219459752655,0.0120486229639294,1
0.199594408813776,0.0106623414290756,1
0.162649084260849,0.00818678738087971,1
0.19780147967444,0.0128640986635463,1
0.309638297536245,0.0206690918467623,1
0.34188092239238,0.0208009859243812,1
0.4575073830135,0.0266772837011597,1
0.574209409425764,0.0310091235143599,1
0.684505630302787,0.0363984045795922,1
0.699408303071566,0.0365087868006508,1
0.708655844135233,0.0373821021688337,1
0.506434486336014,0.059757968971852,1
0.241518901830132,0.0457500545869164,1
0.124258993179988,0.0235411722690435,1
0.0961861413374774,0.0229351555802203,1
0.0305349027144542,0.0038095827997383,1
0.0227634085668585,0.0114228522665525,1
0.0221274749998765,0.0121558236568323,1
0.0222570063813975,0.00967464738031623,1
0.0225527441923124,0.0157732336278017,1
0.0198358284825462,0.014861957752371,1
0.0201086482609275,0.0139206770401767,1
0.0217440027836161,0.0164245225378888,1
0.0211827621480035,0.0171093809484788,1
0.0117692041292684,0.00666007870973778,1
0.0160101661874717,0.0160583190780889,1
0.0404179897321492,0.0319826846549171,1
0.0472578288448393,0.0325600806225342,1
0.0506133542218799,0.0433393731122446,1
0.044600429313557,0.0332870496084293,1
0.139360115044584,0.0315641423809004,1
0.161058334889478,0.0178553520468227,1
0.180559383188621,0.0182475506870797,1
0.16435037481619,0.0136816663249446,1
0.129535602860057,0.00954896324951801,1
0.114648331250861,0.00718571578760404,1
0.140273020680127,0.00920479618217299,1
0.175662105875251,0.0132148621519333,1
0.160596790360041,0.0092438800602601,1
0.138183269293002,0.00243892181446658,1
0.196660458505898,0.00745166543559757,1
0.195607076503713,0.0071049509170738,1
0.198841925751903,0.0073294616946878,1
0.1928618571672,0.00711413057645595,1
0.179912878912022,0.00604715803615304,1
0.169166104298556,0.00542177888079557,1
0.171574211472467,0.00562099740137563,1
0.170837538896495,0.0055535996429669,1
0.171991585309454,0.00483581426289187,1
0.184237470773425,0.010540931392083,1
0.142839665045977,0.00847677891098753,1
0.13712281860338,0.0149922827676965,1
0.168129804535664,0.0167318491791461,1
0.209469726903934,0.0218492920932267,1
0.174625695013367,0.0164583906648092,1
0.174387225885951,0.0154319379803211,1
0.161348061572917,0.0198586012769015,1
0.137354865793772,0.0111641171363585,1
0.138105305022173,0.00105902446959294,1
0.182154517617753,0.0038523967389522,1
0.176725832135778,0.00409812748553918,1
0.174009325813855,0.0042750091749293,1
0.167085285190878,0.00571473707611289,1
0.153690922227311,0.00512985778559177,1
0.208112635121651,0.00999844393923205,1
0.249194943310964,0.0130559267739804,1
0.251016284960713,0.0124914803413499,1
0.199488792682461,0.013507248315004,1
0.154631039512521,0.0203559826312342,1
0.15821247408667,0.0225559676110295,1
0.131423895967932,0.0196710386854341,1
0.0926712871040027,0.00865372539017014,1
0.0974612385257489,0.00736841350340937,1
0.0914881155071269,0.00717393772157641,1
0.0849974049307747,0.00695477557096501,1
0.0756128437609482,0.00752046188664395,1
0.0806529237642028,0.00491377791526865,1
0.0843916189205778,0.00493158296033092,1
0.0802894787330214,0.009871274017835,1
0.0709585369674445,0.0139533422432544,1
0.0580004083077551,0.0100278074959282,1
0.0541448276942654,0.0126572526720988,1
0.0508024551559364,0.0110630634583405,1
0.0606069976727014,0.0144519957898797,1
0.0701410969829941,0.0119603482650915,1
0.0778316559661595,0.0117976640272843,1
0.0718643187704809,0.0172497812330903,1
0.0516868474362242,0.00718593052985501,1
0.176205691212722,0.0272832380737974,1
0.216695905793961,0.00643157543726448,1
0.252328900480017,0.00905623788326654,1
0.259882610630361,0.00914865231508361,1
0.256390037591059,0.0101547586145035,1
0.234632591410275,0.00872304034438865,1
0.257120841170351,0.0118996115300162,1
0.292432790940708,0.0142004416571258,1
0.297646308718329,0.0114796053351262,1
0.296009484622672,0.0132865348647084,1
0.134774262206444,0.00195370706318761,1
0.0626832402083249,0.0168490214774638,1
0.0550887461687007,0.0142732107461979,1
0.0562896882334284,0.0152706293346487,1
0.0546894872326967,0.0139378249130364,1
0.053136066690376,0.0154128587217878,1
0.0566818860592773,0.0145168545382882,1
0.0680093565500652,0.0185723985654189,1
0.0670224106280083,0.052482325904725,1
0.0398568337450869,0.0345645451967509,1
0.0470052242227918,0.0366333961700962,1
0.0473325673272767,0.0227467613115956,1
0.0449368506384695,0.0189304215036209,1
0.0466240051524618,0.0174599837133376,1
0.0473096149726176,0.0173281033027662,1
0.0467757148880374,0.0155324576439957,1
0.0585991764721929,0.0211466380128531,1
0.0680598310806447,0.0218472457120808,1
0.0678044237025273,0.0207919056901314,1
0.0619305559417589,0.0200467501049919,1
0.0347117690512495,0.00893852750024774,1
0.0317915735441863,0.0103481599890002,1
0.0228928484835025,0.00761552842073607,1
0.0225788245497717,0.00851229466137064,1
0.0257997722188552,0.0037386077914231,1
0.0366361105778959,0.00961902334471618,1
0.0375791386470937,0.0101805135571692,1
0.0358951252118178,0.0112047317051146,1
0.0361936530630224,0.0148221650643134,1
0.0362206284489652,0.0152046344774214,1
0.0442434799911271,0.01949454226689,1
0.0481137240817997,0.0276509661188805,1
0.0464304712555673,0.026501730907267,1
0.032664425477536,0.0257343286733308,1
0.0194418445564145,0.0557526036258925,1
0.0209845527721725,0.0670313144303719,1
0.0151677224438211,0.168045500580075,1
0.00536382941065288,0.351287040447742,1
0.00271092689187223,0.367338178888589,1
0.000689801166132747,0.292414198123756,1
5.01710601419296e-05,0.282104484604087,1
1.26709629639497e-05,1,1
7.8641017929346e-06,0.780855406261133,1
4.09866601728184e-06,0.564800183466974,1
1.44906847408447e-06,0.362761241459815,1
1.33084933384599e-06,0.351037884398313,1
1.36046684706909e-06,0.327842725613629,1
2.62444134514063e-06,0.454522137026299,1
2.10225102845214e-06,0.392001981332791,1
2.14756781775767e-06,0.394201741439606,1
2.29576180130061e-06,0.412776205853362,1
2.44599434995169e-06,0.402626486933185,1
3.62508241172498e-06,0.462764733885791,1
3.55646641849286e-06,0.470480172125601,1
3.37691075812713e-06,0.449975530726946,1
3.80473366740692e-06,0.477075377118371,1
4.80675274949298e-06,0.560441220463572,1
4.30008574937406e-06,0.519343131585803,1
4.60915703045899e-06,0.499565010904284,1
5.16580975925862e-06,0.479357344535623,1
7.80680552768149e-06,0.54789492560115,1
8.36929658510186e-06,0.461919903874508,1
8.40374035913246e-06,0.449714869128827,0
8.3292178980605e-06,0.443161244506348,0
8.74535132389288e-06,0.456930834690831,0
8.34278060880498e-06,0.4419988308366,0
7.68412607432401e-06,0.405639874276544,0
8.59048671120875e-06,0.426442687369564,0
0.000219264387320619,0.0857076739726477,0
0.0026058011274534,0.16885772579662,0
0.00373703922023789,0.0941423693179324,0
0.00364068726669027,0.086362165911854,0
0.00353005573733045,0.0823056992151373,0
0.0034999275429056,0.0818625253129616,0
0.00350575747216512,0.0819511469550774,0
0.00353251654835319,0.0827540981405484,0
0.00354827449130124,0.0864765441965093,0
0.00355479638314881,0.0859551250667017,0
0.0035081284762983,0.116679696844858,0
0.00173607572770198,0.125164953009724,0
0.00054155890495102,0.232611946433006,0
0.00101975108635088,0.246135434714948,0
0.0015158742687972,0.168727686263655,0
0.00143481096195182,0.154260380587265,0
0.00138426258629513,0.150369369089656,0
0.00138056379849174,0.150366277692548,0
0.00139190235854765,0.14436141380331,0
0.00142611654990485,0.146607231444551,0
0.00152223795700995,0.173938154194985,0
0.00151250807894356,0.196432789029147,0
0.00149245930816151,0.204028473928127,0
0.000979957824277491,0.383487860342721,0
0.000146274441617834,0.608928315380657,0
1.75866063941759e-05,0.42499926011586,0
9.81078697597419e-07,0.265048247486783,0
8.69756849608404e-07,0.275276287259498,0
7.6378032294893e-07,0.263303430317391,0
7.36834267933802e-07,0.268232356073532,0
9.29057409950609e-07,0.299241460686093,0
1.00500758807235e-06,0.318959406781021,0
1.00029495943317e-06,0.331748478779096,0
1.18993121603749e-06,0.372143243705046,0
1.07105713765771e-06,0.36743656708308,0
9.50553930712858e-07,0.347975445029115,0
9.54216814558835e-07,0.349922397639311,0
7.28684015690632e-07,0.324053941648734,0
5.1948118150056e-07,0.281956740879511,0
5.70863162944563e-07,0.291964201936169,0
4.66353633590586e-07,0.30030154068582,0
3.21635351450548e-07,0.261538761240971,0
4.63269732697554e-07,0.304389195582192,0
3.90193025527488e-07,0.276138566128054,0
4.02625827691583e-07,0.269035946535558,0
4.37306285303855e-07,0.265359827121401,0
4.69104654357332e-07,0.268214083219081,0
4.7142319149221e-07,0.263276999774455,0
4.56561626985855e-07,0.263252525139985,0
2.78600424347253e-07,0.218933096220532,0
2.65722713164277e-07,0.213352075612259,0
2.84256580761607e-07,0.226579627872513,0
9.19887474334438e-08,0.169896767540169,0
1.20763538843746e-07,0.18158161221626,0
2.06797519755567e-07,0.219650534586326,0
1.14224578723009e-07,0.204675700343185,0
1.72300837625422e-07,0.226746585422685,0
5.88149481603816e-07,0.317399324698038,0
6.69568032468423e-07,0.308615157426072,0
8.15045064854175e-07,0.316930592795644,0
9.11047613112005e-07,0.321218750573451,0
7.70910090181226e-07,0.302084712424281,0
9.24022923705881e-07,0.327763730741012,0
9.65116684702472e-07,0.336928094512142,0
1.02170430207685e-06,0.338645267743802,0
1.0135370150289e-06,0.333821436779444,0
9.91036042013219e-07,0.328193292457555,0
5.95577658533909e-07,0.276061752229623,0
4.97997286534796e-07,0.27282843593371,0
3.07334131816622e-07,0.241170938673936,0
1.09526980793928e-07,0.195546797313966,0
1.36907523535602e-07,0.197426428060419,0
1.9504330405e-07,0.207460984718024,0
1.82796682281643e-07,0.205255795435627,0
1.5880446241484e-07,0.20357282824378,0
2.3193387727498e-07,0.229783315969206,0
2.25200920789254e-07,0.235118049591731,0
2.43153600929488e-07,0.246080556394378,0
2.31412612248804e-07,0.248105868716051,0
2.13816059733143e-07,0.260318922483589,0
1.91153757095751e-07,0.251916278025015,0
1.64841597227793e-07,0.246601326399122,0
1.22778054815722e-07,0.248146472489893,0
1.24274712722477e-07,0.252986376322424,0
1.63068173845778e-07,0.249254447643721,0
1.81971796911502e-07,0.258651226919871,0
1.56199139331305e-07,0.264262511476864,0
1.28562473289573e-07,0.261878082231352,0
5.70929698887927e-07,0.388226607627263,0
6.95512240553198e-07,0.360436488897284,0
9.38228147204651e-07,0.376069300719053,0
1.34779595845705e-06,0.45438485534567,0
1.41311601757903e-06,0.443926334699823,0
1.38632367662583e-06,0.432982261993366,0
1.44268262679725e-06,0.449365410132273,0
1.42588510683036e-06,0.431477551169802,0
1.42594623171809e-06,0.424846505245255,0
1.43625930293953e-06,0.423060756243977,0
9.4114911520023e-07,0.360048660523713,0
5.37535068422114e-07,0.296057586628062,0
3.98641687468456e-07,0.279848821662608,0
2.9666112519072e-07,0.246065887241985,0
2.46417669934221e-07,0.23674896584215,0
2.50073138629888e-07,0.228782288236258,0
4.4214717600253e-07,0.264198038051297,0
6.21513649830497e-07,0.296705570566137,0
6.56872293082358e-07,0.297640115048269,0
7.26820007229099e-07,0.303345361471685,0
6.88848224924451e-07,0.298668954147198,0
6.42688112577724e-07,0.291490579419008,0
7.35273478997298e-07,0.296229551413308,0
7.97960558529162e-07,0.303600820136251,0
8.01289961020451e-07,0.305222132114826,0
7.84824319132513e-07,0.312640834573611,0
5.12366044159425e-07,0.273675041959112,0
7.57219919015122e-07,0.34160755710291,0
7.63406960110113e-07,0.326904203488389,0
7.30200714544186e-07,0.326447831623544,0
7.78827065803683e-07,0.339407918460573,0
9.76394126283756e-07,0.359466275313095,0
8.99971583046029e-07,0.349331052132609,0
7.89358984164138e-07,0.334410867309632,0
8.31703099831359e-07,0.342259675533913,0
8.41882297528198e-07,0.34162515585683,0
8.20589392785405e-07,0.34147596807917,0
5.01491826427688e-07,0.276674825133502,0
4.64957180417812e-07,0.277108506223316,0
5.55710403481257e-07,0.300854669482613,0
5.06650366133086e-07,0.279196168766795,0
3.34365360855635e-07,0.240811138120284,0
3.02476206313169e-07,0.234424331015655,0
6.60142975599534e-07,0.314519942311954,0
8.3279974044006e-07,0.351877107118982,0
9.62025569068594e-07,0.378183402066968,0
1.0179380069454e-06,0.403072914941515,0
7.50112597643238e-07,0.362326609964291,0
5.98141296448107e-07,0.341313599182829,0
6.35125460894626e-07,0.353972401067957,0
5.76170005656254e-07,0.364334027875588,0
8.22426546378232e-07,0.435264239720335,0
8.44808275760475e-07,0.423878555432149,0
7.47175396480756e-07,0.407049941511893,0
6.75952877708295e-07,0.370187449197288,0
5.9540530639146e-07,0.340717840422361,0
5.10772388070175e-07,0.313355047107633,0
5.58865650144885e-07,0.306821129971501,0
5.58842603056069e-07,0.301254046879792,0
6.94767318560774e-07,0.321572792806865,0
7.17292741531548e-07,0.317972521500646,0
6.61193121211667e-07,0.304677484733218,0
6.05888124432264e-07,0.311633879952941,0
4.46641358321627e-07,0.273478729250253,0
7.23432285582632e-07,0.344167958102151,0
7.04430461877605e-07,0.338841546833967,0
6.25052079396873e-07,0.333893928103673,0
6.36719116983877e-07,0.32702471848729,0
6.38561481222872e-07,0.330436028143916,0
6.02297788813684e-07,0.316344436485693,0
8.92698122225203e-07,0.384234316550947,0
8.91112482514669e-07,0.393448470702723,0
9.13309835186387e-07,0.3900726948722,0
8.42260670603713e-07,0.372574801093568,0
5.94157156224978e-07,0.32052458144742,0
5.59397937691799e-07,0.309517587803304,0
5.83200369792439e-07,0.304086745863085,0
6.10587325637088e-07,0.302614922666758,0
6.17233905642121e-07,0.295604749448671,0
5.92436640942505e-07,0.298133009042589,0
3.92717583595434e-07,0.252766969673094,0
3.99883224122493e-07,0.258560058870271,0
3.49532349391167e-07,0.249014182123708,0
3.36262036060447e-07,0.253716334165508,0
2.32942137308308e-07,0.227981962056608,0
1.84904989884627e-07,0.226367858018582,0
1.46430380224858e-07,0.231050650981775,0
9.45810439015609e-08,0.219086632996177,0
0,0.173914870893971,0
2.5197682816608e-08,0.182842849957267,0
4.33485679206586e-08,0.189897762521115,0
2.32911073840773e-07,0.258657612866808,0
2.52487671899921e-07,0.252138730598735,0
2.46007431753298e-07,0.240611174763387,0
5.40300719080021e-07,0.320082192705877,0
7.82002553823576e-07,0.373298016541248,0
8.66083744879556e-07,0.38080216725079,0
8.91195852853343e-07,0.378566458618849,0
9.0410402627545e-07,0.377608762966533,0
1.26736442422216e-06,0.434218786199279,0
1.30703046816898e-06,0.410970518223489,0
9.74566191526454e-07,0.367579281378107,0
1.11785415129363e-06,0.396281027437414,0
1.15169128586471e-06,0.400063008927308,0
1.05031616058969e-06,0.380360634937788,0
9.70048160480668e-07,0.376019099637241,0
9.65783447002392e-07,0.364758252907816,0
9.51459781508053e-07,0.363787476656888,0
9.69039900447341e-07,0.369752735336224,0
5.96742438361716e-07,0.302888902389094,0
5.26614155284341e-07,0.296250727584753,0
5.59609570089968e-07,0.306579877705369,0
4.32175802923971e-07,0.273878412571209,0
3.91432558086847e-07,0.270938399541414,0
3.95850985627054e-07,0.264542999377046,0
3.35570422986503e-07,0.235903371632248,0
2.95517989585452e-07,0.238589009941399,0
2.61714724214462e-07,0.251263828130204,0
1.34132253223234e-07,0.212177738606908,0
2.56378822129914e-07,0.253419120432534,0
2.80921165986279e-07,0.270618801206098,0
2.0302601397795e-07,0.240742877318016,0
1.83028956855013e-07,0.236274177848579,0
2.09984831934071e-07,0.240431761569363,0
2.97379392723903e-07,0.278405327510713,0
3.39412673306313e-07,0.300201903144121,0
3.47685375734407e-07,0.306749922117572,0
3.79468112849383e-07,0.308820430861661,0
4.2176653515791e-07,0.306592352381652,0
3.27007327239328e-07,0.292770861140164,0
5.1695602220421e-07,0.341988310006535,0
1.6285952754868e-06,0.52806332540052,0
