Activity,Complexity,Tag
5.7600765207671e-05,0.323400001091942,0
6.18758708815085e-05,0.335317268910056,0
6.05492327939734e-05,0.299911112279029,0
0.000113341629527055,0.295300774371126,0
0.000139044556371612,0.187155107744258,0
0.00038110617535231,0.152241480554709,0
0.000370792277453612,0.0881987924832972,0
0.000357463011647911,0.0843084170718047,0
0.000349873059544209,0.0815618026544891,0
0.000377379796212143,0.0889673944269205,0
0.000408101025807448,0.094623454914998,0
0.000421010480364016,0.100499182372296,0
0.000420204236449215,0.104680708373517,0
0.00039582535008679,0.111686069338662,0
0.000386298365342776,0.13284748881289,0
9.96031066767499e-05,0.131261369756252,0
2.86490662546069e-05,0.442780019651533,0
3.17698868139354e-05,0.487450378992657,0
3.27767360466166e-05,0.380253711889737,0
3.8124262256729e-05,0.37310863926601,0
4.36048937601583e-05,0.303426804244951,0
0.000304155162777018,0.157713521078723,0
0.00081972827344389,0.140691021653449,0
0.000836566219011294,0.106650723655673,0
0.000859490814963811,0.108252990988555,0
0.000877916741560413,0.111269444281165,0
0.000906240738940649,0.0707158603436553,0
0.00104379860047301,0.0580106690968131,0
0.00101134359429635,0.0532629771324788,0
0.000998655785953154,0.0520014461104522,0
0.000964649878074546,0.0505991143376841,0
0.000917183169829274,0.066544152802922,0
0.000566388766779086,0.0600985735943736,0
0.00059358792350426,0.0567490473050967,0
0.000773454726459832,0.0536354087284987,0
0.000697788472513428,0.0431954093684301,1
0.000660590687919546,0.0591872934914601,1
0.000438566060162348,0.0590539681270546,1
0.000434106723919979,0.0541324916894958,1
0.000704350919566352,0.0594850949493643,1
0.000928073155177336,0.061120796706532,1
0.0015464210981029,0.0762009848642451,1
0.00219258005322503,0.0725995354231676,1
0.0028853476137133,0.0598459286527182,1
0.00400620132685042,0.0325132891429602,1
0.0112285024354786,0.0549816915506353,1
0.0125784526314322,0.0295931654108155,1
0.0112100058161324,0.0243997370975886,1
0.00973044406320357,0.0211575279147498,1
0.00881960284194453,0.0194017070172492,1
0.00738953155628997,0.0165705678912887,1
0.00820680806030784,0.0160031258366103,1
0.00755958690774575,0.012288776752028,1
0.00635074385562153,0.0107733436826295,1
0.00512598317581308,0.0116222153461026,1
0.0066487383593891,0.0131652110482271,1
0.0134277459452242,0.0289645468194006,1
0.0115121193785863,0.016576243069718,1
0.0125442174091324,0.0081800402476511,1
0.0182183728038758,0.0122395097389009,1
0.0173446221264906,0.00944268122932045,1
0.0184028766156576,0.0105066580860746,1
0.0197247865281271,0.0120063868557871,1
0.0184315540659502,0.0113905659175844,1
0.0196218819710462,0.0122677701544772,1
0.0199599291871525,0.0139427104214957,1
0.015484888447851,0.0118208821684262,1
0.0151819301456204,0.0143269291372455,1
0.0141810646022144,0.0253856806440026,1
0.0069728740760051,0.0141851507358662,1
0.00404675061378298,0.0107809297668043,1
0.00403325168012724,0.0114834590406556,1
0.00375672562527914,0.0115128625970368,1
0.00464579911788581,0.0109566314985827,1
0.00607888893875061,0.00288048841405313,1
0.0219077261877734,0.0121047043338467,1
0.0235293230912518,0.00963891953039702,1
0.0287847106134364,0.0102809685970911,1
0.0344280127487156,0.0133572419328341,1
0.0311373650223339,0.0114006519896107,1
0.0296218565781323,0.0106613074180823,1
0.0273904087684305,0.0100185173511938,1
0.0265262047928771,0.00940328500625284,1
0.020616597363388,0.00738285962226859,1
0.0189051214575942,0.0110970463700422,1
0.0153871264953781,0.0064939439780877,1
0.0194239918988789,0.00948495228739024,1
0.0172888057753331,0.0109631583822539,1
0.0173460360433695,0.0110910336060266,1
0.0177068442929721,0.0109224436016473,1
0.0159551250882019,0.00982417957548195,1
0.0146941011145312,0.00840382381099133,1
0.0140798116562427,0.00699209272758019,1
0.0155605113439166,0.00809141753317213,1
0.0105513868722045,0.0049373599564236,1
0.00917888775976117,0.00876664871890718,1
0.0075454142868166,0.0101160804215265,1
0.00889894267546105,0.00792328992356207,1
0.0113720485353254,0.00506171147945716,1
0.014750566574689,0.00756839195350509,1
0.0142465924387387,0.00683006125619008,1
0.0157502042852821,0.00821185347488538,1
0.0148373674942012,0.00810773496268433,1
0.0166521221420718,0.00920838573095875,1
0.0169838195880359,0.00939563253485069,1
0.0176099783497469,0.00909239420709845,1
0.0205896117800037,0.00997641231956909,1
0.0215150917865071,0.008125734668224,1
0.0220116789151001,0.013718336325041,1
0.0153242347334467,0.00948699493249887,1
0.0175864728624628,0.0112363062449503,1
0.0168997757743165,0.0105920359539787,1
0.0174165906808109,0.0116535465832274,1
0.0158738533266126,0.0106657051695038,1
0.0191795495622522,0.0128670275830585,1
0.0179100102873752,0.0142234745615787,1
0.0158616079696938,0.013327535256421,1
0.0136022895935346,0.031208662964718,1
0.00811954317483888,0.0221795667465056,1
0.0109394594847625,0.0277180745962039,1
0.0141574233299318,0.0134475117253948,1
0.0134976220056594,0.0101424709810812,1
0.0129716265369621,0.00879436152606211,1
0.0146156902871024,0.00952076376187818,1
0.0143834178272244,0.00960319816373389,1
0.0179481695397892,0.00988805010513711,1
0.0198562007599059,0.00951678706024695,1
0.0213276792159531,0.00995621219620182,1
0.0207285138364855,0.00794108438913067,1
0.016602699597407,0.00579617289210507,1
0.0137066170555509,0.00834358562532996,1
0.0127995009346333,0.0100290845786946,1
0.0138935309640082,0.0123718151420435,1
0.0131418683140109,0.0144344815969171,1
0.0168022720329059,0.0186298497225875,1
0.0169370091008453,0.0179292903720138,1
0.0163218134122967,0.0213684083512556,1
0.0163881271234336,0.0267705933904212,1
0.0147363847335734,0.038296039047485,1
0.00954166802007565,0.0265659121297271,1
0.00753863505015139,0.0162043015150669,1
0.0102783706417231,0.0189706625985674,1
0.0122203069911305,0.0137752623639937,1
0.0150764210244462,0.0168031682082533,1
0.0186641406174963,0.0211436681400953,1
0.0496785237634205,0.0291075015580287,1
0.0728515890879643,0.0262106033851084,1
0.123782714826351,0.0202459670632948,1
0.256566905524358,0.0360509990509458,1
0.285640086204621,0.0325061053385298,1
0.424632896894662,0.0296512246040642,1
0.415222981774431,0.0145471149543373,1
0.353186303194654,0.0124442522306521,1
0.305437158869022,0.0109055213475054,1
0.237077550408915,0.00742546730359123,1
0.230264638552087,0.00678715866981602,1
0.181511796489873,0.00433285328528849,1
0.155586890683612,0.00323489490086806,1
0.197450695082689,0.00521975659913608,1
0.205576493751222,0.00606188199696724,1
0.181245465809103,0.00737330338308572,1
0.176430949173224,0.00713700519254787,1
0.287537665791657,0.00733095401226462,1
0.322902239932359,0.00485018962606904,1
0.306885928159289,0.00335201992763974,1
0.318016192295516,0.00409663160680785,1
0.283188585809339,0.00304721238187172,1
0.276983492502977,0.00371066695699141,1
0.294360179418885,0.00313555062432538,1
0.352061834488305,0.00426198006700438,1
0.343354440080011,0.00363916988467166,1
0.336825557794638,0.00694411688910535,1
0.273543551707341,0.00781127911410349,1
0.256382991400467,0.0104472323953682,1
0.242652898073504,0.0140498868522268,1
0.247338575387612,0.0141190179555958,1
0.271976979083329,0.0151938866307191,1
0.280732662276965,0.0146263083048449,1
0.25763745316359,0.0190586044346197,1
0.119815299445785,0.0087392725236178,1
0.133397229885014,0.0117102630014254,1
0.143269182621914,0.0119212035521941,1
0.197447964733732,0.0185465404424614,1
0.214940621905805,0.0308629898435635,1
0.162893701401242,0.0249221342913413,1
0.13944730415902,0.0218929479359014,1
0.118108449739561,0.0216456361671765,1
0.0893688279435427,0.0212353957184145,1
0.101416396897173,0.0058665162157406,1
0.120312400221987,0.00672627627168207,1
0.122113454675127,0.00622654859678862,1
0.133008326463396,0.00663674757288832,1
0.124028586236861,0.00606187397839999,1
0.124137222927659,0.00594614878421154,1
0.129454567698331,0.00644059491012782,1
0.134907387328766,0.00635192887268478,1
0.128752071428181,0.00606838846869975,1
0.075481740211169,0.00137318680603126,1
0.0466189471215046,0.00321676673123917,1
0.0423803099029712,0.00254051768608774,1
0.0438459162163286,0.00325959177156769,1
0.0432556617844599,0.00329328775155933,1
0.0427902319085112,0.00256251847504555,1
0.04892285820058,0.00192950146337917,1
0.0543058597372297,0.00144921167792928,1
0.070438451136767,0.003861529392586,1
0.0635108947871024,0.00307659062403831,1
0.0638881186019652,0.00370534999187947,1
0.0610271536437052,0.00477042236143175,1
0.0406628627185215,0.00189403136793165,1
0.0484661060413968,0.00367938751726775,1
0.0430984244360556,0.00329297307685237,1
0.0396880404899549,0.00445656408896504,1
0.0376877368052321,0.00813524711934407,1
0.0280659208884011,0.0101846846752084,1
0.0237338666525198,0.00674311746447437,1
0.0430526236559638,0.00784918215698873,1
0.0747725732434597,0.0138792778620507,1
0.105441719947129,0.0161637530065961,1
0.175726961892367,0.0320905173882283,1
0.229977711806896,0.0259148212847878,1
0.438302015892978,0.0453996573460874,1
0.579647599737448,0.0583423710845945,1
0.560707317426103,0.0413860654074892,1
0.493169882409415,0.0343006907929015,1
0.498030477850639,0.0298357005211441,1
0.409676297939272,0.0207631143078529,1
0.332805585901205,0.0155116474168888,1
0.393804679520167,0.0147351921632407,1
0.457275027483332,0.0105744480158844,1
0.378199800397498,0.00881116609449915,1
0.409909201252606,0.00855520729979829,1
0.425484000183683,0.00702228278805045,1
0.419337637060146,0.00621707652413032,1
0.383762195872275,0.00524696372690581,1
0.404367653313624,0.00531781246196159,1
0.386403301049538,0.00571544441001497,1
0.325796984447172,0.00463767484982345,1
0.317090780801324,0.00565037450517897,1
0.269179049355418,0.00672895330035657,1
0.263458570433229,0.00800540558996924,1
0.292302491465591,0.00948254180959079,1
0.321840880079072,0.012674892819801,1
0.228662703139988,0.0119565645974779,1
0.217532563301451,0.0164859354315731,1
0.258013139226686,0.0163542358285171,1
0.27753012569926,0.0223279089037192,1
0.225059223220244,0.0199805449495883,1
0.22652966906313,0.0228208060111294,1
0.215421769179195,0.0213897134042205,1
0.222281361969468,0.0210128775004134,1
0.277810621661984,0.0239428132511736,1
0.305882973737099,0.027947923575088,1
0.203893941278492,0.0204352012213925,1
0.124196194766552,0.0104453071733077,1
0.0860849852663057,0.0132555266994184,1
0.0907378423079092,0.0135806160856861,1
0.136073142148469,0.0175873655349336,1
0.128241142823889,0.0204731629731416,1
0.0971258029571534,0.0171142179274079,1
0.0832946600671782,0.0133255559489767,1
0.0904372988608105,0.0171032718041707,1
0.0922049796529334,0.018289422305544,1
0.0507179671671229,0.0110949234180678,1
0.0341929317012396,0.00941022167165105,1
0.0336646692854704,0.00726064708820822,1
0.0267425795451161,0.00351158174168969,1
0.0307425799213175,0.00184015535354511,1
0.0499330164266397,0.00321643620708481,1
0.0540932390528209,0.00305659831965876,1
0.0656705575185258,0.00529557840724467,1
0.0661817120894829,0.00494282578250565,1
0.0720354463528542,0.00459460596413165,1
0.0861582122579231,0.0060039423261818,1
0.0851702602055099,0.00596891311474498,1
0.0884593969765515,0.00624700353192136,1
0.0901838882183904,0.00669354023172201,1
0.0832688864786319,0.01011798718872,1
0.0299296436666911,0.00225970730282747,1
0.0295615620267328,0.00513008131875041,1
0.0294284995076377,0.00486300831688559,1
0.0243369464193303,0.00425193803516909,1
0.0249828867236328,0.00808492824143021,1
0.0265825249371625,0.00829985587820017,1
0.0687655460444366,0.0210935513065832,1
0.0973677407437461,0.0384576932324967,1
0.114598680069016,0.0480131693844847,1
0.17270155240157,0.0640894656367178,1
0.219431594699232,0.0641538470280131,1
0.371045285711827,0.0592986540085014,1
0.403325540433407,0.0569636820734661,1
0.388924934441894,0.0572527310747224,1
0.346146987304057,0.0561643476712404,1
0.283916574130618,0.0481984103556316,1
0.2344357119424,0.0396685173088041,1
0.205389607215558,0.0299123034445447,1
0.18592914617207,0.00822027581486141,1
0.23974192300499,0.0117629582761677,1
0.263454491048975,0.0123936846537037,1
0.270679647640668,0.0126867597513116,1
0.329615229421261,0.0151710909318555,1
0.330210691326401,0.0129526127185692,1
0.342444022733109,0.0117890831016062,1
0.34707932575752,0.0113543134944081,1
0.359715016793416,0.0119909505070504,1
0.19797040815666,0.00613827276603336,1
0.0896908734394388,0.0073666777306959,1
0.0901991784814445,0.00678066171880734,1
0.107103197000973,0.00652580914193476,1
0.170717974078954,0.0145337459227039,1
0.25288110672674,0.0214593898415409,1
0.365766301290653,0.0313863142213326,1
0.400971721813025,0.0400872285555615,1
0.41161144001941,0.0416267753994001,1
0.334654586506866,0.0407668265560789,1
0.285371808110791,0.0241533544007922,1
0.269047227785313,0.0136239943389603,1
0.167435215792992,0.00709894897369425,1
0.115548464336883,0.00561405930095835,1
0.142393792623181,0.00762854997610153,1
0.164906378268782,0.00887032492473459,1
0.203325413823336,0.0113386442606265,1
0.25410215610398,0.0140432765533281,1
0.312302197720516,0.0181890542696422,1
0.330823279194785,0.0188300054754495,1
0.240415542576469,0.0198719683752174,1
0.148837200539195,0.0305000910335849,1
0.127080276694011,0.0401514436750282,1
0.0580431281159281,0.0248401718015903,1
0.043211101651423,0.0196137384489687,1
0.0232728484530265,0.0111151262367013,1
0.0214531204831121,0.00488430500136354,1
0.05704081138086,0.00802256417828913,1
0.0644257147371775,0.00367695443716237,1
0.0682182527488199,0.00360231514028589,1
0.0701076601042249,0.00395480228134403,1
0.0725305982404909,0.00387395076693777,1
0.0696324826191909,0.00290743346497405,1
0.0717011544056526,0.00253493170900325,1
0.0833977868801783,0.00363251442476111,1
0.0891527573524345,0.00441162729582085,1
0.0876894632944218,0.00430756093485335,1
0.0474300002593267,0.00113583952110688,1
0.0418051735970603,0.00495434300613123,1
0.0400239790722657,0.00547219834370753,1
0.0348013904272444,0.00378129335235474,1
0.0479198224209975,0.00791495389583318,1
0.0514593207699881,0.00655313354842592,1
0.061286186804687,0.00797496484108479,1
0.0674648624899392,0.00467025072915484,1
0.0776802796792073,0.00464021534386918,1
0.0699777195652972,0.00441676003704843,1
0.0622914566741127,0.00523148257632099,1
0.128404806557833,0.00500200238812825,1
0.266029363787476,0.0125422906409339,1
0.29386124627087,0.0147580517754824,1
0.3193456267036,0.0171553194509397,1
0.340702558481058,0.0205660648188623,1
0.371398225897806,0.0230916909765217,1
0.308437808542938,0.0278001013243123,1
0.248642540848378,0.0126746890939726,1
0.390546275884238,0.0162921577435226,1
0.273776436952878,0.0110240693428186,1
0.24450779401735,0.0147117828890171,1
0.271665424583216,0.0172225761975391,1
0.319385796898718,0.019974160886503,1
0.412691218304661,0.0225234007276561,1
0.397866469856025,0.0164221455433221,1
0.35145662039441,0.0147602425110044,1
0.232106529098344,0.00942650793577454,1
0.170299774781918,0.0124513094598451,1
0.216244152245786,0.0162778084396785,1
0.266684226328105,0.0183313462604136,1
0.25819135292094,0.0181183803080486,1
0.277393639748161,0.0215290540712272,1
0.314395968448892,0.0246310199086203,1
0.305499937665749,0.0255251868917112,1
0.25335733406715,0.0269412018494596,1
0.200970256509527,0.0234008766292951,1
0.125633022483247,0.0154151409507179,1
0.258101956727326,0.0208264717722301,1
0.372067625360498,0.0308044458303728,1
0.369939927065614,0.0215255068851321,1
0.532146675533748,0.0194372047821062,1
0.479224812593946,0.0147564786704407,1
0.448937341062278,0.0118419430893023,1
0.448315630869646,0.011212590818092,1
0.47280605649519,0.0126201185368658,1
0.350156011738924,0.00725149299199418,1
0.262057231522239,0.00417906860308796,1
0.359833590379676,0.00790657008286147,1
0.475144368463194,0.012562549981154,1
0.466963046847055,0.0156979914523152,1
0.478275827460856,0.0205036973863386,1
0.267976644447448,0.0147380534095627,1
0.244821683551552,0.0164155922411884,1
0.183177276634304,0.0119731824213025,1
0.15691982719847,0.0118078262060993,1
0.146842218614462,0.0135071794588649,1
0.0799612899769081,0.00639896268896993,1
0.0785250695403903,0.00898094817672874,1
0.0811695672517801,0.00879904731255637,1
0.0965168876133354,0.00762638379576638,1
0.0852867374346082,0.00561554442559388,1
0.108802894543705,0.007285298783678,1
0.117862417653425,0.00500785814468433,1
0.118131276344153,0.00498105359213201,1
0.11937217748018,0.0050215384058492,1
0.115490397464872,0.00399151082289423,1
0.128298490575329,0.00452561731215102,1
0.144214324983513,0.00348681084750689,1
0.169091447619519,0.00449689681440031,1
0.161265607366546,0.00458482767036071,1
0.151529676603328,0.00523865416701117,1
0.101713735766046,0.00302901674402794,1
0.0869051426341144,0.00467983718343796,1
0.0852648136856404,0.00522400096198499,1
0.0778707054472321,0.00481232732369394,1
0.0776236998477296,0.00617475473156602,1
0.0380518936438795,0.00159341938614947,1
0.0316610800975069,0.00735412251502064,1
0.0191822156564201,0.00175136527972795,1
0.0387480800266948,0.00909515107806152,1
0.0914360999395064,0.0237806387250947,1
0.155068299789135,0.0370972391444727,1
0.214319845515015,0.0523882715015711,1
0.347712486327504,0.0484736221138225,1
0.529499958142911,0.0645177244534137,1
0.585987920644087,0.0747651112821472,1
0.544835631877881,0.0583467494982827,1
0.655838078334773,0.0632664124974767,1
0.510722588545195,0.0279860215123783,1
0.391880097729115,0.0225257988036217,1
0.324106426554253,0.0187498778663319,1
0.308516463862839,0.0148170314556831,1
0.254172617330356,0.00999393678908692,1
0.339563512911701,0.00557262047546363,1
0.823628723370664,0.014177726662542,1
0.876377129287422,0.0057691971253714,1
0.922697040024094,0.00588953903721054,1
0.899009650051884,0.00525448593690164,1
0.933669078803346,0.00754259737185177,1
0.819578742018606,0.00680257858823018,1
0.684412652359516,0.00471695105359367,1
0.75639469002469,0.00638872685158477,1
0.887015682127298,0.00807863662496513,1
0.864271937672517,0.0131467297076798,1
0.421228012405723,0.00582382879907316,1
0.35300996365957,0.0174855035430277,1
0.309651426099023,0.0156179461496979,1
0.310869222942981,0.0164955740704107,1
0.228817489233445,0.0130622261895394,1
0.203801365557521,0.0120208481169358,1
0.138617984177198,0.00766790283245615,1
0.143753238179398,0.00550886484622048,1
0.19548726072363,0.0082290128640955,1
0.316144557502269,0.0161577207321505,1
0.431524497946324,0.0213330086879779,1
0.566594950056365,0.0271837327275298,1
0.637950444258136,0.0312942194608865,1
0.491813952084693,0.023994673290242,1
0.447328491797501,0.0212211927244757,1
0.394397336702443,0.0194371880277742,1
0.330693175508068,0.0178646544973641,1
0.138525138350274,0.00884944797417524,1
0.118883080729095,0.00742288451534047,1
0.11780130002827,0.00745695290361224,1
0.121037319022183,0.00665635218748722,1
0.109084874202332,0.0061641078115131,1
0.104387450442202,0.00825877094106771,1
0.0967703395550976,0.00742773325740363,1
0.087785828062962,0.00565811419408163,1
0.116793170906689,0.00731932991619693,1
0.0800640361819549,0.00319515065680359,1
0.0657146967213386,0.00313096100647311,1
0.072947513082709,0.00362189368847262,1
0.071527928438838,0.00332931363220046,1
0.0868199794272932,0.00523063666640125,1
0.106986742214718,0.00784220273425085,1
0.118279556470658,0.00879572842407783,1
0.113911318758832,0.0110505958910859,1
0.0919693708316765,0.0103937920436696,1
0.0930047552187598,0.0113063727124647,1
0.094247852598482,0.0151490511577394,1
0.0739514798560703,0.010005245416808,1
0.077935593474125,0.00843156166310994,1
0.0669163813305843,0.0081552436103741,1
0.0712061888544244,0.0100720470555835,1
0.0836843987614621,0.012606007820516,1
0.0953487947247662,0.0139692157811904,1
0.17987312654316,0.0210695762088163,1
0.275613020788211,0.0323689059706921,1
0.449386327800134,0.0364370228854049,1
0.705924681557167,0.0395895945065405,1
0.61188821553402,0.0322139716422682,1
0.473197874596562,0.0278111896599478,1
0.417423190641528,0.022122856620268,1
0.319135120398934,0.017049872576798,1
0.278373706192799,0.01221218901952,1
0.236872055026349,0.00933268397426119,1
0.246325428319185,0.00880117824599718,1
0.323365769167773,0.0111669764422526,1
0.355189251192708,0.0148538528607444,1
0.335570893792326,0.0154297145363956,1
0.422072472647742,0.0245271182569237,1
0.357455346417345,0.0207245561589445,1
0.352935265649806,0.0202520539308713,1
0.362219017006837,0.0153615112931147,1
0.289794403287233,0.013294121790039,1
0.17769455454404,0.00648455178280261,1
0.17530309312129,0.00480785552574754,1
0.207756415699366,0.00634260415052139,1
0.215269303848001,0.00495312242921863,1
0.261781017926022,0.00732790189800081,1
0.23882128406124,0.00657278526128659,1
0.240065533185149,0.00802999941362908,1
0.249111181228952,0.00908531390917955,1
0.250020345920552,0.0121673333724505,1
0.23818117817142,0.0129954057377045,1
0.215601594770535,0.014055433069381,1
0.200580477868256,0.0205463019158083,1
0.184597400502382,0.0127964200322381,1
0.207297883719972,0.00965148841864984,1
0.241980726771433,0.0119875879585818,1
0.298348387583199,0.0134141554743116,1
0.508560892377798,0.0178967634165648,1
0.497416918580354,0.0187484930569128,1
0.453376210774595,0.0171541411749968,1
0.554928954174841,0.0199872985709354,1
0.606824554026393,0.0201386406372497,1
0.557146913001011,0.0173204155875299,1
0.367524564989493,0.0153230864261312,1
0.163844464562515,0.012122018184147,1
0.14472422529968,0.00855079047886601,1
0.111877952830681,0.00804860053157056,1
0.108964578994226,0.0107312125033969,1
0.0591237796064694,0.00710669781038461,1
0.0475588240438078,0.00527525790138926,1
0.0512863399657799,0.00712364344707665,1
0.086799434010344,0.00853140815429143,1
0.109521059875749,0.0089538012775273,1
0.110788274564261,0.00903137974065008,1
0.122912605609372,0.00579036636701903,1
0.153067140262821,0.00935393885692253,1
0.149669189495763,0.00875167330674089,1
0.15258659495729,0.00901488424352023,1
0.161703525547539,0.00963424371605093,1
0.165950091719642,0.00957152547063335,1
0.190407225678356,0.0112184994884908,1
0.142675700748057,0.013630042302081,1
0.0813923060497387,0.0104597749999162,1
0.0463533184332797,0.00415156719548751,1
0.0341071531672076,0.00784105039152242,1
0.032786390770367,0.00862822547555907,1
0.0333696858235321,0.00713700103576004,1
0.0326876013005492,0.00493773849820682,1
0.0367374229198797,0.00549253228417978,1
0.0344145876957419,0.00594675846350069,1
0.0329297185848843,0.00438510161477395,1
0.0744039792790755,0.0132257378377474,1
0.11781766873578,0.0151152186815237,1
0.328798798620964,0.0304600602544691,1
0.408424615152795,0.0279603318072777,1
0.384818628908906,0.0275474133770376,1
0.380748661280608,0.0276845365403791,1
0.434309840810346,0.0363063372952482,1
0.316322705269939,0.0241548013650374,1
0.231483641387177,0.0192911822880119,1
0.142148862705435,0.0121836830581316,1
0.173608417439941,0.0141113533320048,1
0.129156119059124,0.0116334529167885,1
0.120365112790592,0.013200019065119,1
0.113363746060394,0.0168546035543341,1
0.0981748851812016,0.0144332897864955,1
0.0998349395374434,0.0131930411545964,1
0.13327245254275,0.0128789636859072,1
0.159317254651112,0.0136484079555337,1
0.166391980770788,0.0135346883941261,1
0.202887624502617,0.0153983538980136,1
0.204150469399967,0.0153500392582274,1
0.260727195523454,0.0210199803690304,1
0.296426454570335,0.0215177744332992,1
0.375301732599143,0.0213748063875537,1
0.341307738169704,0.0221446016395604,1
0.280804126687461,0.0155784182941053,1
0.138301168936652,0.0077306303547355,1
0.151281601146513,0.00952449462192737,1
0.146617018699574,0.00598840337258615,1
0.173898804265751,0.00808075778804141,1
0.230785954415063,0.00926420697072981,1
0.280181916775645,0.00805242620173494,1
0.273120450833723,0.00785066667626859,1
0.214052222542644,0.00555638482012613,1
0.24560168443054,0.0030800845871427,1
0.365472045327637,0.00639820201810272,1
0.364645255678323,0.00653498197392815,1
0.299492810737307,0.00487656336488511,1
0.272745640216159,0.0038844189533841,1
0.299788890273703,0.00319484746598258,1
0.301217740235561,0.00311546690082348,1
0.283923321048288,0.00368895547008108,1
0.248988604084928,0.00288124413862383,1
0.245520625545068,0.00285777968784857,1
0.309060166662042,0.00657441013622729,1
0.396171252963611,0.00982955388833842,1
0.362429154673873,0.00993308408159355,1
0.376393669095257,0.0100967410340575,1
0.311457443014107,0.00980567227285395,1
0.26125451234251,0.0133245035532514,1
0.226944243375363,0.0167975283414327,1
0.179902446790976,0.012506740398529,1
0.134941662860834,0.0096788238805058,1
0.142572893115039,0.0109846994854177,1
0.145561984423442,0.0152757294696688,1
0.128329894648829,0.0183538018040507,1
0.134578399468419,0.0173390412195426,1
0.133747900862216,0.0228785239026353,1
0.0776982603773631,0.0175942654743748,1
0.0610044294815778,0.015337162275725,1
0.0279930391805543,0.00611926784480484,1
0.0363270260347312,0.0106955912570699,1
0.0395405847357997,0.0109966740911478,1
0.0411956435865809,0.0122400820408647,1
0.0402900193580056,0.0138494135058481,1
0.0372084754342058,0.013929700283157,1
0.0342415314938802,0.0125285652337034,1
0.0771442584276002,0.0157375179229157,1
0.0902020399375848,0.00977583643975774,1
0.0854257757103426,0.00971621364764438,1
0.121874100720335,0.00372038776654619,1
0.369048096189451,0.0169009709857307,1
0.648199150219693,0.0269774739183792,1
0.651890679740537,0.0224210637605413,1
0.724012263421825,0.0227898431633895,1
0.654343133534309,0.0187140564280953,1
0.549175140273575,0.0166382519558253,1
0.586161347786126,0.011311686974683,1
0.76313234630907,0.0161646941230243,1
0.615040829435084,0.0143511160169372,1
0.478863696511225,0.0100593242583437,1
0.506291679658896,0.0117836091805328,1
0.524289492346646,0.0120462030823008,1
0.581688578298928,0.0152303304471746,1
0.585519495240886,0.0151108627590282,1
0.558880188485192,0.0166106570596375,1
0.505932905135951,0.0155457382590154,1
0.491370282897232,0.0292092689153608,1
0.334083983154702,0.0263959364534111,1
0.271723659608399,0.0217563354027003,1
0.235703010009753,0.0489528486034109,1
0.2236830840856,0.0465214362837463,1
0.187158404351416,0.0475212230086989,1
0.114048145070003,0.0185720266046076,1
0.240913298599987,0.0257089490297754,1
0.280914128561386,0.023315433072898,1
0.279737365226054,0.0219848740659316,1
0.278646568049546,0.0238960439305095,1
0.273736070565621,0.0247276448794287,1
0.280224912717225,0.0257781023007076,1
0.264634379096898,0.023405228686694,1
0.243746890510323,0.0217050853078602,1
0.282612719109549,0.022843373260324,1
0.330161883521954,0.0345713123347807,1
0.295862337634109,0.0424521241266045,1
0.210391869507685,0.0283147345739211,1
0.301151504741811,0.0262446196214235,1
0.479935438239614,0.0360507284470274,1
0.497199298672029,0.019851287845685,1
0.389334401950464,0.0141781881671142,1
0.328021589021304,0.0111595765744614,1
0.275408612897752,0.00799197109525295,1
0.260521672232779,0.00703340351444764,1
0.242550792270291,0.00670794429737432,1
0.243688624395768,0.00708566768038742,1
0.210841665536317,0.00481866100638574,1
0.223028291563002,0.00866092518980215,1
0.189471993442464,0.00643095002929402,1
0.21531962464153,0.0198034144334383,1
0.134688647906481,0.0104237908932624,1
0.125152047047934,0.0097267096334919,1
0.124627786599193,0.00973022349567386,1
0.132908725828883,0.00930551027521018,1
0.154408370002378,0.0100525321989376,1
0.15044303134336,0.0102381864744278,1
0.13958893741192,0.0120011788876925,1
0.0795336635476966,0.00698277981828938,1
0.0862258237315524,0.00339722804937797,1
0.118399461944394,0.00520158599925055,1
0.11354142525889,0.00730303285311502,1
0.10753805612111,0.00681024997858309,1
0.0921849474903886,0.00499997779937049,1
0.087129602764695,0.00489455771967223,1
0.102739971487337,0.00680703595706588,1
0.102072981299905,0.00485329651288849,1
0.111367552154784,0.00681391955754409,1
0.0653480427751948,0.00323094228742909,1
0.0670525357627623,0.0102871596457162,1
0.0619696353864032,0.00713986628665366,1
0.0663182793383792,0.00599105166458968,1
0.0676645381595195,0.0064182412463234,1
0.0748742410736485,0.00577391093707773,1
0.12851069498795,0.0130375321275474,1
0.112049418077165,0.00987930057180905,1
0.108496999796512,0.0114697418552544,1
0.125353849942547,0.0110943708062066,1
0.305087487416038,0.0221754721170921,1
0.525687514359543,0.0296408270921586,1
0.526233738282736,0.0171346337482139,1
0.487922416868983,0.017622407597215,1
0.415113628751538,0.0146708443726013,1
0.381096352286392,0.0163793184533533,1
0.399149421088952,0.0175057867894114,1
0.363288973811281,0.0169868857450842,1
0.284973331476388,0.0132503121647015,1
0.254186643965069,0.0130541940992042,1
0.227261134639522,0.0172750177068847,1
0.107155500490278,0.00991865262978645,1
0.0891097044777447,0.02652756004513,1
0.0711852575840926,0.021649653046279,1
0.0738252192342364,0.015834750521909,1
0.0875056399862833,0.017023136541663,1
0.142307233776487,0.0260190148346377,1
0.153542597110044,0.0270757023835861,1
0.304954999505762,0.0308619192511898,1
0.593749048438995,0.0440389304896592,1
0.860492744879469,0.0389089044124152,1
0.799106950722461,0.0403959949713994,1
0.700120622136668,0.0347785051037982,1
0.500495041685801,0.02859798164978,1
0.351266373357306,0.0239888296795526,1
0.383598543312868,0.0185163899533334,1
0.50884474720955,0.0226962763129066,1
0.505348661080596,0.0235751993304249,1
0.524895192942693,0.0304962464536453,1
0.466270783382047,0.0239609811288571,1
0.362598563181992,0.0240340975254952,1
0.344661169099324,0.0227570544912231,1
0.327787783247634,0.0212877779708332,1
0.346644226428064,0.0203373752152682,1
0.34854753138079,0.0199794672625237,1
0.342974139866642,0.0268134574794733,1
0.33238385048681,0.0217727433003041,1
0.335703854306545,0.0180447858078409,1
0.471662917397278,0.0219866046895647,1
0.573622386627776,0.0371136870376315,1
0.464573106244337,0.0219742110341945,1
0.371984976227083,0.0153927938576938,1
0.304939764560701,0.00995574076974555,1
0.334272778755927,0.00771848785468499,1
0.331136199585874,0.00690920863173382,1
0.351517644413043,0.00645202047333206,1
0.352581356027323,0.00765864524449884,1
0.233334144088273,0.00455336564080165,1
0.231681905270932,0.00524827914658087,1
0.21865714398989,0.00450123706947028,1
0.232792419529992,0.00736894688905475,1
0.170812984652618,0.00480116451233002,1
0.201895939494533,0.00838177651779564,1
0.203432338164984,0.0103766905619003,1
0.132912643646498,0.00807358629257158,1
0.132624131705213,0.0106565584218911,1
0.14074931879854,0.0110427841581144,1
0.151258619885421,0.0098032041473924,1
0.153202833053051,0.00989044931752893,1
0.152585984986364,0.0100894824388327,1
0.174844854212257,0.0116261070657611,1
0.17205105123562,0.0115031896240642,1
0.156495189592872,0.0105642616794461,1
0.144474181823788,0.017927612903785,1
0.131241962090848,0.0150638215271309,1
0.121984167772359,0.011685279309611,1
0.120901802712423,0.0131932237104621,1
0.081255017083916,0.0136652948635725,1
0.0426861264071465,0.00425087378040059,1
0.0517535287579458,0.00525767752749767,1
0.0670711398551668,0.0055942211073112,1
0.0597875559923624,0.0045384640853192,1
0.0627156497378659,0.00474529009877457,1
0.0782905281495001,0.00415968840889568,1
0.0818895584647501,0.00500184884886932,1
0.0885003862662913,0.00705662561963953,1
0.0885398540102292,0.0065019465062424,1
0.148930071922089,0.00949383006280138,1
0.270714463734087,0.0198512095572132,1
0.340981669169327,0.0259806762558749,1
0.619793100193217,0.0320439130684966,1
0.8004494251428,0.018363839815499,1
0.646064016531478,0.0166217049155315,1
0.600997026437569,0.0167982142059187,1
0.544399261387112,0.0157341976056868,1
0.453528709890079,0.0136133878456176,1
0.30221684991378,0.00845565021274808,1
0.261707841310363,0.00837158592652859,1
0.261922292928797,0.00771772443961914,1
0.246901069809129,0.00762077078578566,1
0.187012249060296,0.00974158407812032,1
0.104213874189986,0.0163210737280855,1
0.0764808228779172,0.00787950754203738,1
0.196444531274224,0.0101519568245548,1
0.234861389778939,0.0058613883857491,1
0.282836491178301,0.00689686980025391,1
0.287367172919143,0.00581787804349529,1
0.279012278142035,0.00592753670806172,1
0.35055520265876,0.00893004252443493,1
0.409402731108964,0.0116631669851326,1
0.522328383699177,0.0144381854675424,1
0.567305250769435,0.0153764211429616,1
0.46436405077126,0.0156263548184254,1
0.446384805609191,0.0220741848745111,1
0.431290933209223,0.0316287407676921,1
0.24466657101707,0.0205778678373309,1
0.157334763692244,0.0106712927040218,1
0.304949013759407,0.0164910837602183,1
0.309669641092392,0.0121442619453407,1
0.515573297707172,0.0120695343906465,1
0.698128823377524,0.016917223761205,1
0.730436125561174,0.0173959481116023,1
0.678001413247573,0.0122700346917034,1
0.659379611651087,0.00922988203205227,1
0.674946266203006,0.0103460132592901,1
0.566533469555987,0.00448004519359923,1
0.595056547178216,0.00247457809751459,1
0.671871881786466,0.00358453384696182,1
0.586371106207149,0.00258419371458192,1
0.566536022884157,0.00341750635421985,1
0.595627862468467,0.00384366931274906,1
0.667465733166512,0.00442403523835617,1
0.713989576329334,0.00594551319630695,1
0.689006983868384,0.00684868984930832,1
0.741528930127694,0.0075326534070795,1
0.419028065512111,0.00768915539147762,1
0.212640690012929,0.00883623342256149,1
0.222826631949894,0.00765661984045553,1
0.181547154622232,0.00484649742771859,1
0.143398083014917,0.00200456197070569,1
0.182315687420102,0.00406011247738399,1
0.210652855514069,0.00571247449493475,1
0.211758556339053,0.00641892402827378,1
0.211559940977783,0.0075712154567452,1
0.210403118108441,0.00788630005114461,1
0.210676657122951,0.00723080287538241,1
0.175348598791862,0.0072219213339821,1
0.162051672878577,0.00783139454208039,1
0.0934592253203341,0.00641186808435724,1
0.0641183199491303,0.0126153910823397,1
0.0711413844964306,0.00900688352433546,1
0.0954026454400346,0.00693866517769507,1
0.10384155946009,0.00304262465550015,1
0.119808287468385,0.00328963208187617,1
0.118779242811301,0.0033621687114135,1
0.120850962321131,0.00373089702925186,1
0.120438947323272,0.00371371905051038,1
0.121594566659268,0.00418462375199213,1
0.098672296881768,0.00279529733032045,1
0.0833497709565512,0.00306050827052762,1
0.078146599741775,0.00324138162915955,1
0.0352840255988409,0.000537333765712499,1
0.0332709001309318,0.00488719481885841,1
0.0452932569075992,0.0131643404353175,1
0.040011321733588,0.0107465556080056,1
0.0394508756826409,0.0105633976316097,1
0.0430073578761052,0.00999314437808259,1
0.0447600409156297,0.00973201507279447,1
0.0431592699842367,0.00946120626240162,1
0.0459259235210154,0.00855226321216981,1
0.0510864633643577,0.0103498747014842,1
0.101105068422696,0.0136991668197878,1
0.156954108358336,0.0269880350583625,1
0.148570435681997,0.0283260468454457,1
0.140394820254152,0.0265798000297755,1
0.156922689673982,0.0220093734404834,1
0.199520169609653,0.0190938337340581,1
0.168630361189646,0.0118198227900488,1
0.2096485499895,0.0144719256127226,1
0.215708721092569,0.0149480096923343,1
0.177672188081095,0.00932703187527899,1
0.173501161541239,0.0108231739854441,1
0.177484672660912,0.0117327094173308,1
0.168387408190682,0.0105777709580995,1
0.148387263209247,0.0093609392902679,1
0.138634973251682,0.00981771210590742,1
0.152076645243695,0.0127898535111051,1
0.156811181954494,0.0127561062407607,1
0.217150463027345,0.0186524248455005,1
0.22642567669096,0.016082903979034,1
0.228301833625364,0.0191927717765839,1
0.259164625879799,0.022227938002601,1
0.307368473101918,0.0246803273078037,1
0.311368687260877,0.0249894327853157,1
0.306997340953865,0.0236282630250472,1
0.304052567389157,0.0261955051675881,1
0.117820757252138,0.00837834062452726,1
0.0625359665993234,0.0116845996761123,1
0.0755737611456391,0.0134664890643285,1
0.0898881002939369,0.0204819548544331,1
0.0579561392744804,0.0148716454876076,1
0.0484417416719103,0.01066173369817,1
0.0428761227144828,0.00952054965952033,1
0.0358669584114941,0.00784441094304651,1
0.0309081146390029,0.00841297369897821,1
0.0303293647022371,0.00802555214218474,1
0.0261661192791558,0.0184247345673674,1
0.00732331405303068,0.00690432483116419,1
0.00987141843201438,0.0186421014897801,1
0.00990612657769619,0.01230064094206,1
0.011134364346959,0.00774845422600656,1
0.0153874431998631,0.0114645399350564,1
0.0173983926500171,0.0133749977746299,1
0.0162551155614549,0.0119054837991672,1
0.0175595647709029,0.012713914412965,1
0.0166513444076368,0.0165804920648966,1
0.0107374144702385,0.0116441630621735,1
0.0108127356275354,0.0153124672553952,1
0.0114421335721359,0.0169847630619837,1
0.00564082925848605,0.0223274966703508,1
0.00177943223748312,0.0624998119819442,1
0.00177155197869992,0.0639635911432631,1
0.0017247472849654,0.0455772126821227,1
0.00390942137153211,0.0458437688157754,1
0.00678570343990867,0.0438211271644592,1
0.0068483847970527,0.0386716684133895,1
0.00690588375388214,0.0347054693560231,1
0.00650465367192132,0.0283213802728162,1
0.00702066288732034,0.0279285802692721,1
0.00607223418543754,0.0204221354552453,1
0.00518327423460894,0.0184865454407484,1
0.00618185191882346,0.010452946972849,1
0.00712520915852147,0.00759118661035444,1
0.00763121090094075,0.0100094567031236,1
0.00847113059560398,0.0129562241724623,1
0.00987033831826524,0.0156046756701625,1
0.0111700753085628,0.0178110961540211,1
0.0121537107807166,0.0214118153527835,1
0.0114663992065702,0.0215211370110304,1
0.0115332303364902,0.0239624895801174,1
0.01197541978426,0.0246073084334695,1
0.00774723458284301,0.0540443155280352,1
0.000444584108009647,0.0631273052148706,1
4.00213018591964e-05,0.293839640229303,0
4.00171787388604e-05,0.345031518041389,0
4.57008366717679e-05,0.370958293085187,0
5.13140481546026e-05,0.419086290712888,0
5.14027893232349e-05,0.454167643307878,0
4.30398012288981e-05,0.418640543288178,0
2.61753551270535e-05,0.381424589419468,0
2.43182891835366e-05,0.409605989258821,0
9.93414824285502e-06,0.311006255902421,0
3.78692943463274e-06,0.305392879824292,0
4.07411215293562e-06,0.316731783878749,0
4.07599086385437e-06,0.300226584792749,0
3.70284586875727e-06,0.281629324780904,0
3.44382735259381e-06,0.269712575051339,0
4.02412543988364e-06,0.289126123507434,0
4.58033055994205e-06,0.334721959384351,0
3.31921376594958e-06,0.263581640916398,0
3.2140142895082e-06,0.257605444821986,0
3.23326649217068e-06,0.253724448165386,0
3.42425654423092e-06,0.262276947646754,0
3.04328935201994e-06,0.252674279216175,0
2.93629284774323e-06,0.259162158012469,0
3.30639785686055e-06,0.281116643628438,0
3.34588579319001e-06,0.283455325958705,0
3.66835560353198e-06,0.310481958096908,0
2.93342289593711e-06,0.279377051379885,0
3.6871660507433e-06,0.341562064551668,0
3.97425708395254e-06,0.376322342177475,0
4.13080521383687e-06,0.410151188216399,0
3.32042838506508e-06,0.355854814194049,0
1.7359322229267e-06,0.255556183238773,0
7.53453096509946e-07,0.171344701223328,0
7.37570112663481e-07,0.168429517076201,0
7.32180487783997e-07,0.162819991023959,0
1.22695659510429e-06,0.208415552682104,0
1.1089839264925e-06,0.200850856028147,0
1.58888600274678e-06,0.245182642206662,0
1.63528699513662e-06,0.247514275801433,0
1.64512084655504e-06,0.249829711591379,0
1.57110597096283e-06,0.253171971454734,0
1.23580024751141e-06,0.212915453258445,0
4.95046328296268e-06,0.32888608962568,0
6.41912449779755e-06,0.326771697066108,0
6.36944784706225e-06,0.329029251814015,0
6.42784187482571e-06,0.330818072723558,0
6.53314074624361e-06,0.327782495244159,0
6.17186396976765e-06,0.322254328380421,0
6.07073114397959e-06,0.314793963530472,0
6.02974290611785e-06,0.30964181374422,0
5.59621827585437e-06,0.294307703791101,0
5.16939895156409e-06,0.299062380702944,0
2.50963438911725e-06,0.271354818035581,0
8.24768471220126e-07,0.195385717755324,0
8.09626052880006e-07,0.198528368111772,0
6.94704830884695e-07,0.191522395523062,0
5.7868567989306e-07,0.178602489208552,0
7.53706689143943e-07,0.1980965823239,0
9.30743936954035e-07,0.227400478044463,0
1.10788620587139e-06,0.263206575368791,0
1.49644409033483e-06,0.294651784399494,0
1.46888375956216e-06,0.292003154543669,0
1.6875158254785e-06,0.299548013041268,0
1.92206296502408e-06,0.317721176631831,0
1.94314991143541e-06,0.325425457977047,0
1.85341104228411e-06,0.290617211218104,0
1.92141283436009e-06,0.280008442376775,0
2.06951760062112e-06,0.286882522990767,0
2.03794458837526e-06,0.272103427378381,0
2.78867880510838e-06,0.306541323376314,0
2.59276276301717e-06,0.28540353556083,0
2.63365431478016e-06,0.283402576744066,0
2.26403273615657e-06,0.255462031398,0
2.15513314106121e-06,0.249155096429406,0
2.32380204032462e-06,0.258237788135325,0
2.83119401652963e-06,0.305727398203414,0
2.75092642592646e-06,0.310047531469232,0
2.72221878123203e-06,0.32047512344548,0
2.69961528002182e-06,0.326875871572651,0
1.79795156264273e-06,0.279254605297321,0
1.71079154512525e-06,0.275962564754532,0
1.48680715349252e-06,0.265621926768118,0
1.45291971775791e-06,0.253801509868872,0
2.49800705224212e-06,0.310717256146874,0
3.78593256761463e-06,0.365997615387998,0
3.25162205629242e-06,0.310624489945607,0
2.89097269758226e-06,0.296454503248952,0
2.83076059608698e-06,0.278817775499927,0
3.20477743307449e-06,0.292432621286393,0
3.27399301076512e-06,0.288153824601696,0
3.62268746676561e-06,0.310903820232036,0
3.81702214936677e-06,0.317690563856901,0
3.62386353646675e-06,0.302615658361193,0
3.65976325163152e-06,0.313964935989197,0
3.06273742738247e-06,0.280229125838789,0
3.27670022153003e-06,0.301293753924013,0
3.62470516395131e-06,0.313641299096586,0
4.22859424258488e-06,0.331148451385213,0
4.2387321134388e-06,0.321024938492162,0
4.89100070710789e-06,0.351760045579229,0
4.66715134261308e-06,0.331089910543395,0
4.47157536886918e-06,0.326720469754037,0
4.39560197465171e-06,0.352042379848162,0
4.1998159586933e-06,0.337251219999061,0
4.16888974310802e-06,0.354416369327146,0
4.43629161083348e-06,0.379637988489304,0
4.59540796521577e-06,0.388552657914234,0
4.3214568645515e-06,0.402575174921568,0
3.20039821960195e-06,0.381124022769421,0
1.09399174668082e-06,0.2266912221436,0
6.45746449507962e-07,0.2066757335332,0
7.1573218198516e-07,0.216616253199275,0
7.18736119053116e-07,0.206922098148182,0
1.00743747590699e-06,0.249804159309959,0
8.41728546541636e-07,0.217680682164407,0
6.13373276444883e-07,0.181658650356597,0
6.24350482656026e-07,0.181967021723088,0
1.12265250695237e-06,0.238815802046167,0
2.84242814937818e-06,0.363819551143283,0
3.81333474160077e-06,0.386099812867195,0
3.50441953047727e-06,0.364833407342079,0
3.7020707129656e-06,0.35188121921372,0
4.01359519850398e-06,0.35953824338129,0
4.3741234912155e-06,0.385559413702039,0
4.50067288358679e-06,0.367343486241715,0
4.35396777363024e-06,0.348078656575462,0
4.33031364459703e-06,0.350349470622741,0
4.29214284798776e-06,0.343476631929632,0
3.20182038042942e-06,0.2955457155464,0
2.18188705976029e-06,0.24338098884936,0
2.00841469509105e-06,0.223360914915503,0
2.71075418539811e-06,0.27081138060229,0
2.69272618711091e-06,0.270024338168721,0
2.23200046494166e-06,0.233722021351416,0
2.8149684638333e-06,0.27887374974298,0
3.14139156871281e-06,0.309779025976845,0
3.46247360013743e-06,0.324443913947125,0
4.02854299439533e-06,0.354705666164588,0
4.17142671132405e-06,0.383011708037143,0
4.2103095260355e-06,0.387786735856481,0
4.14274782240898e-06,0.391916564219705,0
2.76181007166704e-06,0.317537422473513,0
1.17232915768768e-06,0.189482035616069,0
1.62752564358487e-06,0.227845613225418,0
1.57015890562059e-06,0.221064967299777,0
1.65972690709737e-06,0.222850582785276,0
1.72397148571107e-06,0.221987876254586,0
1.69774642330212e-06,0.222969096610776,0
1.66965390223592e-06,0.216035435005835,0
1.57783544846072e-06,0.215603929630264,0
1.4576915101314e-06,0.218703434531451,0
1.23544934365302e-06,0.211924329682488,0
1.06473232442285e-06,0.222929555946564,0
5.19784675236814e-07,0.171862018343284,0
4.93497725389663e-07,0.17471880977395,0
3.04154671011516e-07,0.146437460929434,0
3.02229075669884e-07,0.147633608313497,0
1.24489186642177e-06,0.261380982977335,0
1.24965719916366e-06,0.246209966962506,0
1.23685129208485e-06,0.248066146274314,0
1.55821317142028e-06,0.276757563179735,0
1.74034248430595e-06,0.271487536329211,0
2.00873038353847e-06,0.281472773365909,0
2.30302640648124e-06,0.282121345846608,0
3.24581755636422e-06,0.329027574014137,0
3.42772224077048e-06,0.334683849671259,0
3.37532004225154e-06,0.316113966565247,0
3.25619880946671e-06,0.307345588842664,0
3.18395095567918e-06,0.324070054244059,0
3.07362794950508e-06,0.305734930148274,0
2.72317501508364e-06,0.289432948983184,0
2.52064993636754e-06,0.297006595754422,0
2.64441585264604e-06,0.303974688144368,0
2.54910669730575e-06,0.320056286720428,0
1.74992670221942e-06,0.279679218863937,0
1.26038352161857e-06,0.236564166138396,0
1.81091583488329e-06,0.302134559360613,0
1.46723926238262e-06,0.277587848748039,0
1.14372840947742e-06,0.241694618559944,0
1.33157595495319e-06,0.270448498794072,0
1.42677008717601e-06,0.282422867391628,0
1.45457338344682e-06,0.28228422723475,0
1.33602872487585e-06,0.276977227678388,0
9.60209650672694e-07,0.224914815159322,0
5.99847224630578e-07,0.171771550671679,0
5.9265015315513e-07,0.172059722442364,0
6.24672213984613e-07,0.183492944449397,0
6.51266100520242e-07,0.198077954663142,0
1.38861741921026e-06,0.27933326332842,0
2.55974779429862e-06,0.374208317442004,0
2.73435642900334e-06,0.332915301125066,0
2.53522807463136e-06,0.311466426542682,0
2.27814953169921e-06,0.288143674981464,0
2.25589672597218e-06,0.278225678671897,0
2.2173256405791e-06,0.262877549012596,0
2.12145741454282e-06,0.24983333277364,0
2.09795664966623e-06,0.2440414703751,0
2.36075217493719e-06,0.250570267313301,0
2.44303433709788e-06,0.256772000138693,0
1.95519149823361e-06,0.230517248927266,0
1.7599420484482e-06,0.226407377703357,0
1.51681485113971e-06,0.211511678671851,0
1.51543978311034e-06,0.210334070946868,0
1.59525561625213e-06,0.209054548660684,0
1.80712319763483e-06,0.233636187299338,0
1.71110410794447e-06,0.231992610229924,0
1.69339200647991e-06,0.234839850619354,0
1.79182012200563e-06,0.251954696313976,0
1.37835056409961e-06,0.220876806724467,0
1.902023937558e-06,0.247660248878251,0
3.14970969883321e-06,0.333701448066772,0
3.65606980098436e-06,0.32402236466753,0
4.1469251203003e-06,0.348011220528749,0
4.22751798461068e-06,0.371167950859682,0
3.99013527516911e-06,0.364513416692597,0
4.03048692675569e-06,0.359108139308444,0
4.05757049504144e-06,0.356486370720178,0
4.096224305394e-06,0.338983552417459,0
4.68679362367396e-06,0.368923019376304,0
3.86050255477378e-06,0.340632132725666,0
2.42210346372095e-06,0.253381856461211,0
2.53575297179244e-06,0.286115367427326,0
2.6177811245687e-06,0.285811218112567,0
2.95189494180282e-06,0.277943991293384,0
3.60240734917831e-06,0.293821501185177,0
3.68970489433625e-06,0.291319257574917,0
4.43987733149563e-06,0.322650524821265,0
4.89303007330551e-06,0.354874238461303,0
4.60654416171429e-06,0.354247634610104,0
5.06869537871442e-06,0.378913124147799,0
5.0338533761299e-06,0.399224891269152,0
4.25894430070673e-06,0.364711842107629,0
4.48449150643558e-06,0.374750700481726,0
4.51884320214434e-06,0.420475003842714,0
3.04352002338052e-06,0.349675027100049,0
2.91131282723086e-06,0.365766669751954,0
2.62452914746053e-06,0.346213801733797,0
2.583076024499e-06,0.32550713101196,0
2.69700975636077e-06,0.334981206085163,0
2.53457711046652e-06,0.308208323924338,0
3.12383053927754e-06,0.334333325351782,0
4.31243942721689e-06,0.385159161865034,0
4.14878153507128e-06,0.377327119661785,0
4.01981061435186e-06,0.352723963044868,0
4.6483611077974e-06,0.387371598986825,0
4.73321128608082e-06,0.387409006900516,0
4.74250169494422e-06,0.389027242834752,0
4.30811689180224e-06,0.374509292616993,0
3.89418119854515e-06,0.355078461885273,0
3.74815434990632e-06,0.366736260061371,0
3.64288069188918e-06,0.352359948420753,0
2.73537642567007e-06,0.312007814361936,0
2.11137705524764e-06,0.28491775201795,0
1.93633770897803e-06,0.298314713502357,0
1.58389499964941e-06,0.274739531013775,0
1.57247541286146e-06,0.266768982062735,0
1.63922278615629e-06,0.277268108467729,0
1.63262145941428e-06,0.269291619829916,0
2.11394986400028e-06,0.292702415045545,0
1.93601910327763e-06,0.256845949245261,0
1.89293565265103e-06,0.262298237414216,0
1.76237191180485e-06,0.249582697053795,0
1.69259017866099e-06,0.244057420247163,0
1.86494981969379e-06,0.251900220848201,0
1.87714247852129e-06,0.246607445335178,0
2.25887169888555e-06,0.274295335852095,0
2.30057674747937e-06,0.270444706026845,0
2.21595557355483e-06,0.284200097970403,0
1.71487486579559e-06,0.264515329469828,0
1.62052840393851e-06,0.284237407003888,0
1.72078084445243e-06,0.308931958955209,0
1.34832286243199e-06,0.269483415154298,0
1.2070442597676e-06,0.260991998035307,0
9.42175401129115e-07,0.216336120532081,0
1.29648827799276e-06,0.235120372708702,0
1.13931918997424e-06,0.215289053116782,0
1.20127330824866e-06,0.214873294790883,0
1.20308533909931e-06,0.207269744912858,0
1.3050900067778e-06,0.212911100091894,0
1.22084703386452e-06,0.201888698239322,0
9.63096272495832e-07,0.182899488664924,0
9.90534078643365e-07,0.184317961333676,0
1.08617830132586e-06,0.190009598706079,0
1.65360005071495e-06,0.22313835146999,0
2.36367776292513e-06,0.279976788721087,0
2.41305164447622e-06,0.295708560014082,0
2.37756117822942e-06,0.303454049655834,0
2.16459608460082e-06,0.298232741607071,0
1.88229497240859e-06,0.279912590402141,0
1.84501414633327e-06,0.274130916341936,0
1.92730568537853e-06,0.254367867597835,0
3.29022960734774e-06,0.333747747153118,0
4.3261330127023e-06,0.374329567780092,0
4.60497217910881e-06,0.341658776948978,0
5.26681853105978e-06,0.367632247367569,0
5.38508750922419e-06,0.361663870142448,0
5.67148340272347e-06,0.371294857810314,0
5.85517532133005e-06,0.379141766374311,0
5.87906595622982e-06,0.384362877060721,0
6.2054690570889e-06,0.405734818684349,0
6.21254193693748e-06,0.413349281438627,0
4.68232626748639e-06,0.369191976662149,0
2.5165974552287e-06,0.275952115885298,0
1.99676568719379e-06,0.315637843747694,0
1.79022813537971e-06,0.292319673790766,0
2.20821881027819e-06,0.337054860731539,0
2.23024927965315e-06,0.328467618998497,0
2.60297835782547e-06,0.346608759076287,0
2.81905511850704e-06,0.34501770081692,0
2.77643571947938e-06,0.318768191344276,0
2.96776479801088e-06,0.332046132556343,0
2.81178344870541e-06,0.304133184926211,0
2.88729862582989e-06,0.289397908345155,0
2.70116955073421e-06,0.279108941600224,0
2.91854657274376e-06,0.284910197913524,0
2.79691379351886e-06,0.276054463299733,0
2.62751974851486e-06,0.26732398762163,0
1.9106233742157e-06,0.220863883339536,0
1.89405254379173e-06,0.221306045099682,0
2.17331700400759e-06,0.238867033896413,0
2.0281053192013e-06,0.23825135469586,0
2.25642954139134e-06,0.259855668700227,0
1.87374429555069e-06,0.240505131959088,0
2.39013037106647e-06,0.276053540545566,0
2.5418510723955e-06,0.300144969987478,0
2.19914886238996e-06,0.287330481383155,0
2.27574071423906e-06,0.297479128075727,0
2.12317838542547e-06,0.30652373203865,0
1.98903996780343e-06,0.304165020048833,0
1.952381766864e-06,0.301225642926906,0
2.01540672535709e-06,0.297140964938341,0
9.68508193523086e-07,0.207623733595658,0
1.14159298029649e-06,0.231921473047254,0
1.09001240524168e-06,0.219587966325013,0
9.8332763028334e-07,0.209017931487953,0
1.16120275482416e-06,0.208537947322898,0
3.13125932398964e-06,0.324036784349402,0
7.47139494261795e-06,0.482458968983963,0
9.66601622838384e-06,0.525714712172653,0
1.06308643112938e-05,0.50801135703328,0
1.08342801940447e-05,0.495916032235678,0
1.15686011120147e-05,0.528520622507013,0
1.27408990134205e-05,0.566474167991915,0
1.22234616849561e-05,0.553259273054386,0
1.12873102028542e-05,0.5336236758429,0
1.13443316630909e-05,0.564706046153963,0
1.19236199640994e-05,0.600898668595865,0
8.32618340562281e-06,0.468180509502121,0
5.45318765440062e-06,0.387127609917409,0
3.21007016348002e-06,0.318599140407672,0
3.14912458123562e-06,0.319965919954643,0
3.03192769354115e-06,0.319513740914271,0
2.82944366474198e-06,0.287305322564366,0
3.18827599159639e-06,0.310824961416057,0
3.61068901363646e-06,0.318008445482465,0
3.60186724062669e-06,0.319247241491442,0
3.73534510882411e-06,0.322870496098253,0
4.36411314599183e-06,0.380342123661691,0
4.07745449134918e-06,0.374505206310087,0
3.24778461837321e-06,0.328232437305296,0
3.2719342636625e-06,0.336161659179583,0
3.3482448089743e-06,0.328245669939346,0
3.53892125633926e-06,0.35680111932005,0
2.34532657468286e-06,0.287280945595409,0
1.29045935796036e-06,0.21735104590641,0
1.22017710755532e-06,0.216365191195356,0
1.04878578613648e-06,0.211174192620588,0
8.63415196815453e-07,0.192007535750949,0
9.91952071966577e-07,0.200747477328915,0
1.02067451130112e-06,0.205732582047973,0
8.07770679985093e-07,0.195044526781467,0
7.60046088243441e-07,0.19116043915491,0
7.13481729686749e-07,0.188773433605442,0
6.47140271306487e-07,0.19129235872197,0
3.92228830587625e-07,0.155872704104146,0
3.8475232795179e-07,0.14739434484312,0
3.87984019127352e-07,0.149226246484334,0
3.51700685195784e-07,0.150417397256495,0
2.59467356371869e-07,0.140821255094765,0
2.58120210621015e-07,0.146458967746931,0
1.909860929312e-07,0.130217042277611,0
5.17410864812415e-07,0.189290941194725,0
6.90577334669238e-07,0.196281607334598,0
6.91597331335972e-07,0.191238233569356,0
6.86057259552836e-07,0.194071073245041,0
6.6985316950342e-07,0.193857218324774,0
7.29706657257445e-07,0.196033054977047,0
7.38606779347241e-07,0.187058625638802,0
9.09566138949918e-07,0.193324110708181,0
1.07683829916182e-06,0.209864453479648,0
2.03085587201047e-06,0.275421645536272,0
2.2130266515635e-06,0.295040160536536,0
2.30583009496967e-06,0.321570140809568,0
2.37106258046733e-06,0.324510824403182,0
2.46281331229836e-06,0.310889413558157,0
2.54401650760708e-06,0.295835903239092,0
3.30046854017987e-06,0.32951411145805,0
3.16214553153406e-06,0.324422640835237,0
4.02426984390612e-06,0.379618161125408,0
4.27836987154627e-06,0.38354314845025,0
3.36877706056912e-06,0.339962348237524,0
3.18689550581148e-06,0.335006849125175,0
2.88821651864234e-06,0.314980409726968,0
2.04648901397677e-06,0.273392316359082,0
1.31000661992419e-06,0.229532498199551,0
1.23580524851651e-06,0.23399689832673,0
1.03243937581671e-06,0.22100706588199,0
1.06127683826873e-06,0.225879693736897,0
7.2974020566671e-07,0.192582585059739,0
6.84197510778454e-07,0.19958316822638,0
1.01981433842262e-06,0.245635308190967,0
1.14322414146241e-06,0.242119221568004,0
1.1001096429291e-06,0.23485196134236,0
1.36897201252119e-06,0.240000873779278,0
1.88634766192264e-06,0.288429002897111,0
2.17265332895478e-06,0.286593265272239,0
2.25405573096695e-06,0.280069095487005,0
2.68558829419591e-06,0.295521071831556,0
3.60650817336653e-06,0.336745009456604,0
4.08864840778165e-06,0.34133285853858,0
3.16007949129899e-06,0.295721167285578,0
3.17939066414671e-06,0.303259099298399,0
3.67642076614402e-06,0.334621795555104,0
3.93510192283794e-06,0.370519415213842,0
3.60632647018095e-06,0.338791910633413,0
3.76220467375607e-06,0.376043808941042,0
3.50678146351454e-06,0.340363540756276,0
4.61673621012354e-06,0.396729858744237,0
3.8293389998211e-06,0.33135093511313,0
3.32668693458201e-06,0.314765652932105,0
3.45514608577875e-06,0.310922616109979,0
3.26260426350867e-06,0.293922839694275,0
2.99367667247496e-06,0.277758343768654,0
2.72180203080639e-06,0.26419916622434,0
2.71986497482806e-06,0.269551342287537,0
2.43899852597606e-06,0.253989982374001,0
2.63091376398121e-06,0.279774755516568,0
1.44670909453993e-06,0.212700118348004,0
1.66434137618518e-06,0.244423420597828,0
1.94110845947545e-06,0.273788741714448,0
1.95649488518978e-06,0.276640450475986,0
3.74820852746165e-06,0.327829842206591,0
4.81905687275587e-06,0.352649815943525,0
4.92208924698397e-06,0.339156653111254,0
5.06384044463102e-06,0.347023975110829,0
5.52664575142418e-06,0.366384469889875,0
5.8827289840959e-06,0.386606340433276,0
6.11842739669229e-06,0.368809706658053,0
7.29894361649151e-06,0.398055968928444,0
6.77561677101204e-06,0.362253460196551,0
7.12702406390818e-06,0.376218483345876,0
5.71575980144344e-06,0.390375529960174,0
4.11000936759784e-06,0.344903885469317,0
3.82735943529935e-06,0.348846260904476,0
3.85727211384951e-06,0.341026378425604,0
3.58508490936171e-06,0.328880804078544,0
3.44374400250868e-06,0.314392917799985,0
3.33757912370632e-06,0.344304751189308,0
1.14883610269397e-06,0.218734459978059,0
3.76040785429596e-07,0.142793700802506,0
3.89453272752917e-07,0.152353624808306,0
4.75528905662909e-07,0.157714947554303,0
1.05217146659431e-06,0.223966211242702,0
1.37692944514821e-06,0.25433829040791,0
1.41273247421424e-06,0.253685887150695,0
1.45185012779053e-06,0.261716852178124,0
1.38122926766467e-06,0.263528510054216,0
1.86874329044311e-06,0.278021692353004,0
3.08257120526393e-06,0.341566800605586,0
3.70394442287924e-06,0.370111895406553,0
3.15441501951381e-06,0.318590300717652,0
3.11606064434206e-06,0.327203481413015,0
3.53386023917039e-06,0.344658330001443,0
3.69208474764182e-06,0.338782879090008,0
3.46968234062479e-06,0.350766381117578,0
3.20852985390688e-06,0.326772062141262,0
3.30549767594118e-06,0.323205916420162,0
3.05884810403526e-06,0.33311829376982,0
2.04997033865729e-06,0.270059297551435,0
1.03585151992657e-06,0.198751511361085,0
8.47195270249862e-07,0.197868451980069,0
8.71566835140809e-07,0.199069691875042,0
7.49158900124237e-07,0.186981731813188,0
7.22421859817403e-07,0.191685516591841,0
6.99975681892873e-07,0.185679539410732,0
7.08769115873704e-07,0.187110256855998,0
7.95711589669011e-07,0.191161358540323,0
1.98277204140193e-06,0.29534909034593,0
3.98721072905724e-06,0.44225329069505,0
4.30453346326744e-06,0.419296715070125,0
3.92134811691603e-06,0.383514707224467,0
3.93317570237067e-06,0.367326253747873,0
4.5692149925896e-06,0.41023096547771,0
4.87454635842788e-06,0.435292882625796,0
5.11019872010224e-06,0.454899383445455,0
5.58786472194779e-06,0.490953052447082,0
5.88208385443704e-06,0.53434837138542,0
4.91559064922188e-06,0.478263433712874,0
2.93928761630181e-06,0.346647124279205,0
1.76113895567061e-06,0.279882629694816,0
1.51505949834695e-06,0.25910946973959,0
1.69852991410231e-06,0.291019420623921,0
1.70000000122873e-06,0.281487668946577,0
1.66267687498521e-06,0.273850794387185,0
1.68283821870121e-06,0.269151925779893,0
1.67581347352676e-06,0.262700934102987,0
1.76460152658198e-06,0.275910688279962,0
1.14584133413537e-06,0.24002913700891,0
4.49108595679555e-07,0.174004375794583,0
5.81760256158157e-07,0.197175581209756,0
5.66174832115592e-07,0.1926776813423,0
1.51956373694718e-06,0.282911484946667,0
2.78301099931979e-06,0.373098232725559,0
2.90959581547726e-06,0.351832449626959,0
3.95743391114585e-06,0.397044166360744,0
4.37697656462938e-06,0.42008746263839,0
3.49768796922725e-06,0.348230059686255,0
2.8717632118384e-06,0.308988251249723,0
3.12901220569463e-06,0.299967314069902,0
3.27958580147711e-06,0.298237175720437,0
2.57634383812334e-06,0.252999286860079,0
3.68730878776408e-06,0.324028793338614,0
4.27600210400305e-06,0.351373659046241,0
4.56900328337338e-06,0.383766685059175,0
4.49214221074932e-06,0.399309634487371,0
4.50388957174703e-06,0.400656625372749,0
5.13065303936748e-06,0.435243605521045,0
5.20009699629134e-06,0.442814490757297,0
3.54178454013856e-06,0.415481979148787,0
1.03659333568419e-06,0.230366528748198,0
5.64953753368492e-07,0.201836062270642,0
6.35950522378274e-07,0.206349791969794,0
8.73172366155556e-07,0.223508670938477,0
1.60003678551019e-06,0.288256667210747,0
2.81201516194206e-06,0.354641578241243,0
2.82395922914066e-06,0.33310927533458,0
2.9611201292246e-06,0.35026640839185,0
3.23520542352593e-06,0.312411033121703,0
4.43904904002468e-06,0.353729996656744,0
4.44163205916274e-06,0.354327504089758,0
3.85976511489562e-06,0.324165859380468,0
3.23283473872973e-06,0.295672888610195,0
3.44625367357184e-06,0.307806377188735,0
3.48293333715818e-06,0.294106342296594,0
3.50275252877473e-06,0.303004127165765,0
3.62473121085291e-06,0.312712773526165,0
2.489082133502e-06,0.249595838339033,0
2.11719218231169e-06,0.254300224340382,0
1.89284813506165e-06,0.243543113005817,0
2.00511965785079e-06,0.250352533593994,0
2.04881864885605e-06,0.248346461943115,0
2.30826579283228e-06,0.257883750190548,0
2.1098040307661e-06,0.254668797368162,0
2.16216476261769e-06,0.282122082061101,0
2.0595439294349e-06,0.241910497917854,0
2.59997358725666e-06,0.274792842838362,0
2.65660663609662e-06,0.289903805001497,0
2.14157729159148e-06,0.259354938498967,0
2.35328650781243e-06,0.272071015448707,0
2.41786782077004e-06,0.268154333405522,0
2.8121637334688e-06,0.288191698501295,0
2.38856443134216e-06,0.267486642584802,0
1.97146456047847e-06,0.24477856003164,0
1.10955800020381e-06,0.178696999762478,0
1.11531769946125e-06,0.199030907670752,0
8.68941307459328e-07,0.177767087025108,0
9.34234430143913e-07,0.18012415216482,0
1.54938639740539e-06,0.233905204901832,0
1.79512016025099e-06,0.236942318626096,0
2.22337873213619e-06,0.274385110522781,0
2.95825392817232e-06,0.324310586801342,0
3.18101432380497e-06,0.302611543887979,0
4.65209435811021e-06,0.35401905899632,0
7.59526504650285e-06,0.450275474732398,0
8.33526543927341e-06,0.474393405133083,0
8.11659461556748e-06,0.416041453705592,0
9.42235725753226e-06,0.452559794720897,0
9.93618552731073e-06,0.472311648164632,0
1.04005236421693e-05,0.504884699065763,0
1.07702396147643e-05,0.529071340967667,0
1.02456058399501e-05,0.50199975005456,0
1.00250081706513e-05,0.539536209269734,0
8.8271167921066e-06,0.552849037579975,0
4.90051261882251e-06,0.417707281195125,0
1.86635531050423e-06,0.267008852444669,0
6.72668527003775e-07,0.210663937347945,0
6.01515268209168e-07,0.204845251802737,0
6.9338206503374e-07,0.20945375162455,0
1.00116954950549e-06,0.256210820856054,0
1.29518718316394e-06,0.280394793964699,0
1.36300060404753e-06,0.273685939577,0
1.40124516548212e-06,0.2545673429963,0
1.47186852611054e-06,0.248291877973235,0
1.5120588952824e-06,0.250653553891549,0
1.48680569486603e-06,0.241745058238972,0
1.61580808024259e-06,0.239106550896612,0
1.6836185838732e-06,0.225198710178868,0
2.36506700046898e-06,0.271709190069879,0
2.18303228992993e-06,0.244566893011109,0
1.83186671228065e-06,0.219529388275933,0
2.17418134439036e-06,0.249661045282933,0
3.34804476877e-06,0.326125956855018,0
3.2251665308981e-06,0.296009161623617,0
3.28731068736662e-06,0.303485402425892,0
3.47692233739408e-06,0.319293049890228,0
2.70737183894369e-06,0.295642744524095,0
2.34706338208168e-06,0.28459989738721,0
2.27937977895567e-06,0.277304344670645,0
2.30130085134391e-06,0.290855416515514,0
2.40561014887614e-06,0.315223762258952,0
2.19998882287282e-06,0.292318734744223,0
9.73078903816203e-07,0.204020535945155,0
6.55975380329881e-07,0.191863168921938,0
6.94514584315395e-07,0.180335537828808,0
7.9527337659646e-07,0.176223571926909,0
7.78059083515311e-07,0.175178444979879,0
7.01849391806515e-07,0.17424735456627,0
6.99533926441704e-07,0.177701826123627,0
7.0404316604704e-07,0.171959397431336,0
6.5036091859577e-07,0.154829529583465,0
6.42014241071216e-07,0.150295508808261,0
1.31018519748157e-06,0.203753862342273,0
1.40365710857047e-06,0.206454569276067,0
1.45140691371287e-06,0.210921237802864,0
1.58526298292155e-06,0.224742451012676,0
1.89596938737442e-06,0.236833438141521,0
2.25062004045804e-06,0.250339486958887,0
2.27630082681111e-06,0.254964418056699,0
2.27439044286001e-06,0.25602166515788,0
2.72357405361618e-06,0.270682278760722,0
2.94249138519887e-06,0.286240390886528,0
2.52747568321376e-06,0.274296356096977,0
2.54231262349189e-06,0.276120325378834,0
2.6332208943375e-06,0.286490116139527,0
2.52043989415303e-06,0.268986634212266,0
3.63704931155852e-06,0.318156149757152,0
3.24191093787435e-06,0.306734478649409,0
2.85794272584839e-06,0.270789663007884,0
2.91761971979716e-06,0.28531546849917,0
3.56645012245479e-06,0.342694576958451,0
3.62990120825809e-06,0.358590685064106,0
3.73134013723379e-06,0.35706925685106,0
4.24205361433108e-06,0.388367222345557,0
4.43490237328964e-06,0.404664221388339,0
4.22493246497006e-06,0.418699695648059,0
1.84653632726289e-06,0.296414046542435,0
1.20683692643085e-06,0.238092957681793,0
1.7049309922648e-06,0.316427956832125,0
1.5644977678388e-06,0.273706509637028,0
1.38357911493959e-06,0.26319987864697,0
1.38482936621648e-06,0.263242842550777,0
1.68988651027471e-06,0.281216604128876,0
1.7512238379192e-06,0.278828882373054,0
1.52614276754142e-06,0.255687158678708,0
1.47726023474215e-06,0.263033961820698,0
1.56002186826752e-06,0.269923527367125,0
1.3156827607213e-06,0.259356497793135,0
5.3535759676661e-07,0.16114379582251,0
6.14225114314874e-07,0.170116416788546,0
2.44874736030765e-06,0.31196247099396,0
3.4361383072409e-06,0.350487634877105,0
3.22573852085728e-06,0.331857205221009,0
3.1166857699805e-06,0.336304051362712,0
3.08675371253556e-06,0.33468148707281,0
3.05896646115614e-06,0.333272356505621,0
2.94803687473753e-06,0.32706071126489,0
3.10278360090707e-06,0.334410865112276,0
3.21324580172333e-06,0.34594140425135,0
3.17242780641046e-06,0.354476824522333,0
2.39014391545531e-06,0.315870397693192,0
1.49837781230976e-06,0.239804008806704,0
1.70917017759433e-06,0.258509268832545,0
1.62925932535549e-06,0.238940928713255,0
1.77850744640925e-06,0.248537593185536,0
2.05943057331913e-06,0.261886065453101,0
2.04987531956024e-06,0.267726936259632,0
2.48906025410465e-06,0.266232481497817,0
3.37882762220887e-06,0.304203328349969,0
3.77724248773936e-06,0.324214697469993,0
3.52808574527283e-06,0.312854514285545,0
3.58606760686535e-06,0.317856348974231,0
4.13727318044267e-06,0.353796131852719,0
4.42575053394276e-06,0.360892368264494,0
3.66112435852163e-06,0.331025285226152,0
2.67116872946904e-06,0.286564756350782,0
2.05581922250582e-06,0.23993876114173,0
1.90442442000964e-06,0.248155313517746,0
1.63348663329789e-06,0.230671436386018,0
1.95541070895749e-06,0.25155746851451,0
1.80829843383511e-06,0.239991653350602,0
1.90708849710549e-06,0.249284179399477,0
1.8222762431108e-06,0.243731424868818,0
2.13483426970475e-06,0.278745109939755,0
2.6775464696077e-06,0.318162178275954,0
3.14982638895238e-06,0.350048255982504,0
3.17793203765699e-06,0.34432424118106,0
2.98374821870992e-06,0.341331282312878,0
3.11293397427375e-06,0.36253507497045,0
2.67933182843111e-06,0.341602358268634,0
2.33791154273481e-06,0.333368867390749,0
2.6475337709554e-06,0.366349849513468,0
3.11597791938258e-06,0.400210831942346,0
2.97894871243314e-06,0.362243595242506,0
2.32272182322138e-06,0.302897357378389,0
1.45040817131784e-06,0.233193701848522,0
1.44415128880262e-06,0.253985505726754,0
1.65045358500143e-06,0.272086585303798,0
1.65582612311346e-06,0.273853113492215,0
1.66170167898923e-06,0.27491790191164,0
1.68702405997625e-06,0.270523870157044,0
1.41233239380564e-06,0.248252943825033,0
8.80086880842426e-07,0.188830203194541,0
4.77944599505084e-07,0.146997762613664,0
5.56288678518754e-07,0.16565932778383,0
5.90644750106989e-07,0.168797730370662,0
5.64090038111369e-07,0.161429698123235,0
5.64657860566292e-07,0.162063391146461,0
5.93788715317956e-07,0.166513328118493,0
6.28865765142533e-07,0.163796148275905,0
8.80928091576564e-07,0.194131072903534,0
8.62883423272344e-07,0.193434566930911,0
7.58077359232758e-07,0.193323317782098,0
5.72733441938973e-07,0.172239154966054,0
5.93124206764285e-07,0.171981055113649,0
5.45411492409763e-07,0.17159187887174,0
5.37393005845395e-07,0.176949179272776,0
5.25511659585846e-07,0.178768053084404,0
5.42669066233895e-07,0.17740617538726,0
6.21619308741647e-07,0.205398692260458,0
4.43414117863722e-07,0.192869429918525,0
4.58392128160929e-07,0.210027041534025,0
7.42551947251483e-07,0.234374122608359,0
1.5350053820929e-06,0.336737701706988,0
2.21946440376344e-06,0.383748479389856,0
2.28453185609255e-06,0.35929700713426,0
2.40826734958997e-06,0.358559388960113,0
2.49709520231084e-06,0.361359820403337,0
2.49312773825882e-06,0.352277920476785,0
2.30067343357812e-06,0.318976496436376,0
2.55276826654535e-06,0.324160991225419,0
3.1747680684256e-06,0.35248790907298,0
3.05474394584363e-06,0.356418489921724,0
2.71250620418746e-06,0.313714702977498,0
3.44266691103363e-06,0.360656532557527,0
4.34998426468685e-06,0.409456653619459,0
4.40586216175555e-06,0.412092936498917,0
4.5521592730454e-06,0.417623276327692,0
4.4820060068971e-06,0.409139333783385,0
4.73736566269873e-06,0.402591744870534,0
4.66031330162931e-06,0.406752408109472,0
4.58422300891745e-06,0.398464623279501,0
5.41636358679179e-06,0.44972656948456,0
5.69784786814979e-06,0.494965845000841,0
4.24647283584448e-06,0.4248869378744,0
3.49362902845681e-06,0.379685541497001,0
3.20278703304167e-06,0.330523180105876,0
2.50154943085999e-06,0.289519400649771,0
1.55615629969457e-06,0.225139937090264,0
1.66469561404697e-06,0.24943162726584,0
1.75843945478858e-06,0.240218852348912,0
2.12773596808018e-06,0.264601911114614,0
2.0066335037719e-06,0.253663573567289,0
1.97882437299513e-06,0.240699028251815,0
2.06828235235955e-06,0.250362045485913,0
1.93741959308297e-06,0.260392932483521,0
1.95291854141222e-06,0.261424758647828,0
2.95214436693256e-06,0.326395497414466,0
3.18463338450115e-06,0.343318443713518,0
2.62376170155172e-06,0.284731240633585,0
3.16690586327084e-06,0.336162857990857,0
3.57111626859538e-06,0.369084177723871,0
3.68557573111909e-06,0.374454600773646,0
3.59024657175837e-06,0.392230672626137,0
3.48654406284585e-06,0.38651594189442,0
3.67579876613377e-06,0.382968910055726,0
3.56303443596632e-06,0.38263102072985,0
3.37423753302096e-06,0.364433059728232,0
3.17858050131928e-06,0.323963412796872,0
3.01484613547057e-06,0.355143525194201,0
2.72398184390766e-06,0.317204613847518,0
3.12855044622303e-06,0.323901421208958,0
2.8610777309252e-06,0.293417622123952,0
2.69098104470358e-06,0.28675201359455,0
2.70876295186444e-06,0.289265730019753,0
2.64202037119951e-06,0.288107816082637,0
2.54504338065584e-06,0.296582264985909,0
1.74665937888246e-06,0.24972339947341,0
1.39600827963363e-06,0.240174268554427,0
1.42880549625479e-06,0.235277355694003,0
1.46575458899131e-06,0.249027583805251,0
7.02396168364943e-07,0.189080721532126,0
5.34949181349492e-07,0.185849717125727,0
5.90400534357569e-07,0.178800495532533,0
8.56791573925672e-07,0.211708654406331,0
6.54287541106073e-07,0.179378696012306,0
1.01044641398005e-06,0.215542538397472,0
1.36611789723126e-06,0.256022614943485,0
1.35265185747824e-06,0.267619157639239,0
1.31346398145523e-06,0.261240740121062,0
1.25148652515697e-06,0.258281911395538,0
9.4014895218448e-07,0.217903534106146,0
1.0661069757018e-06,0.208855587690389,0
1.43945597013224e-06,0.242209514804293,0
1.67879740657428e-06,0.242309446050768,0
2.06489938077948e-06,0.277098442244559,0
2.55015274087408e-06,0.318598448826671,0
2.36987796738247e-06,0.301497637782339,0
2.72093018891597e-06,0.300537466431343,0
3.47636389182374e-06,0.335934714093306,0
3.58664251407751e-06,0.341733126475178,0
3.81982604623041e-06,0.339713828487203,0
4.16856801177942e-06,0.379161954020929,0
3.37056075239082e-06,0.338200793922106,0
3.32629456405628e-06,0.362843640478076,0
3.19761932776384e-06,0.349416662831202,0
2.82797441111641e-06,0.328969088319582,0
2.82953201583221e-06,0.333587558933374,0
2.43370246156713e-06,0.339764858307184,0
1.21314902837747e-06,0.252287325065757,0
5.20401257491536e-07,0.172164052680549,0
4.54221289901205e-07,0.179943347551679,0
2.52100667473188e-07,0.144032546543724,0
2.55790784116945e-07,0.144999170573244,0
2.15470180437068e-07,0.132683064598834,0
2.34335638704569e-07,0.144228465199213,0
1.69606796096289e-07,0.129808819427847,0
1.66300089844113e-07,0.128114466146477,0
1.92670598151604e-07,0.143485833620792,0
1.59828789234903e-07,0.121795920240476,0
4.4343245488245e-07,0.1773513403227,0
7.67872869612019e-07,0.220555649163507,0
6.94156178949351e-07,0.203671650851379,0
7.98777205799959e-07,0.227221736046321,0
8.42387637339773e-07,0.23888457153948,0
8.49614089720228e-07,0.239969889532938,0
8.22190244711955e-07,0.238917660773931,0
9.46195167359547e-07,0.244230789287276,0
1.0552589621226e-06,0.244158843500597,0
1.80690482041179e-06,0.278875362647212,0
2.82424449480701e-06,0.327151984749457,0
2.8460397085667e-06,0.336474717358307,0
2.85015720277195e-06,0.339244527684357,0
2.76775897561773e-06,0.321198071513823,0
2.82445203651898e-06,0.314552839365042,0
2.54234283789774e-06,0.297992980745861,0
2.53155316937814e-06,0.291824514955711,0
2.01754402991494e-06,0.259542705853583,0
1.33324295665572e-06,0.217295187602189,0
1.30774616561556e-06,0.243836344825311,0
9.59743932072049e-07,0.210126529469514,0
1.15707109110445e-06,0.228090854166592,0
1.15170751312657e-06,0.228236677168398,0
1.12420261016051e-06,0.240131879429133,0
1.21957177756209e-06,0.256104406770946,0
1.38649199203954e-06,0.275792955370289,0
1.41208380217674e-06,0.282197787016259,0
1.7398182122705e-06,0.29496085177773,0
2.78098059124611e-06,0.35485788467266,0
3.06419188636792e-06,0.325806151864603,0
3.20281141294157e-06,0.33833487310264,0
3.21360587409108e-06,0.34771704223407,0
3.39860993141276e-06,0.355522031558588,0
3.43614330824601e-06,0.346700884069932,0
3.31906040179295e-06,0.339553462665022,0
3.36974392155659e-06,0.312753557314702,0
3.94581136690061e-06,0.338455436700086,0
4.02344384456251e-06,0.371697868545197,0
2.71353141023452e-06,0.32009603042883,0
1.55678955196632e-06,0.281424585329019,0
1.58514212529811e-06,0.289082542830124,0
1.79218519537848e-06,0.295607852068266,0
1.99399242148642e-06,0.31095618076282,0
1.54134415606676e-06,0.276123865264311,0
5.40675332197672e-07,0.169564832292158,0
1.94873540901493e-07,0.131088041114584,0
2.21169450882796e-07,0.139109572898996,0
2.79723927560129e-07,0.135943862615976,0
1.92710564517422e-06,0.289198147230581,0
3.08297795367934e-06,0.325999748391291,0
3.19458371766354e-06,0.318481663551329,0
3.10111659920454e-06,0.307250303963799,0
3.03645464503957e-06,0.298479743595692,0
4.36169182601891e-06,0.357130282833835,0
4.75706608044399e-06,0.368839142440131,0
4.60590340793488e-06,0.333844553660924,0
4.68343461524335e-06,0.331126598468132,0
4.22593537486934e-06,0.325966158034708,0
3.6785828673522e-06,0.332174293704572,0
3.21155379499527e-06,0.333163798725092,0
3.09902451206787e-06,0.342004524561521,0
3.31254075813436e-06,0.369210126124544,0
3.32692364882377e-06,0.388701772751478,0
1.78930294943481e-06,0.295276859523794,0
1.22427105536151e-06,0.233293745404353,0
1.73343672137802e-06,0.292464286516887,0
1.64837149987497e-06,0.25176581476739,0
4.52129369464705e-06,0.397855122252932,0
8.58472807655234e-06,0.542395733357962,0
1.02612441912967e-05,0.581767340012394,0
1.00359739162257e-05,0.473152307074734,0
9.26810208848975e-06,0.427588843097534,0
8.6110833734693e-06,0.408611752069938,0
9.31094799137374e-06,0.422997312720977,0
1.04964998065659e-05,0.464595396242938,0
1.1925996900152e-05,0.499242536468232,0
1.19746483448403e-05,0.540082116909323,0
1.07508290469401e-05,0.552647315267879,0
7.29971814715754e-06,0.460448073362297,0
3.56366393748423e-06,0.332586630807179,0
4.79664736886879e-07,0.153185674727592,0
4.85333584551535e-07,0.166943527098794,0
4.59456717123206e-07,0.160706948269358,0
5.73720515322081e-07,0.173121605195631,0
6.07312266629708e-07,0.177618541344826,0
5.55688349530632e-07,0.170652691749173,0
4.86222721584621e-07,0.167886981799836,0
4.83148978820374e-07,0.167420395974268,0
4.53650550193303e-07,0.157882085689706,0
1.02198977564442e-06,0.20881916199399,0
3.45322736681915e-06,0.374900837427583,0
4.08136361034161e-06,0.36458098450257,0
3.84001614572579e-06,0.364362186428879,0
4.01543202600496e-06,0.379485477216164,0
4.35117637927936e-06,0.403858977286239,0
4.72102237800715e-06,0.431090158170378,0
4.61087107300841e-06,0.409446468120605,0
4.67995995856966e-06,0.412524190757465,0
4.66390506517262e-06,0.411938611459483,0
4.57101222880013e-06,0.443752121164317,0
1.98131987454381e-06,0.285496223929845,0
1.43953932021736e-06,0.265001655218032,0
2.30229042522957e-06,0.319564645437239,0
2.38384577464795e-06,0.302053324753354,0
2.25470815375827e-06,0.290197082970923,0
2.03743302722779e-06,0.274736624186381,0
2.03280709750328e-06,0.266168021150001,0
2.33635456314465e-06,0.284792400884728,0
2.50216955549333e-06,0.28781531884633,0
2.18790910341067e-06,0.273366259626174,0
2.21038028636073e-06,0.28693954976848,0
2.00902315071247e-06,0.296561935999002,0
1.56235733765276e-06,0.269713246479507,0
1.82191471211656e-06,0.297273308942945,0
1.86282293389658e-06,0.291998228766416,0
1.8673855175564e-06,0.284364695592265,0
1.86991081676051e-06,0.299794413879555,0
1.64491893097382e-06,0.272550150530454,0
2.79252791203952e-06,0.358725318520338,0
3.78037499231362e-06,0.410781877956737,0
3.92764771634987e-06,0.414758348089793,0
4.16540550117452e-06,0.412805639060254,0
3.5553745631432e-06,0.355147519162022,0
2.57349389033766e-06,0.302683987328925,0
2.453760867928e-06,0.288308256930626,0
2.06427175463848e-06,0.252779939918929,0
2.79466271609481e-06,0.275646938907964,0
2.95034796422287e-06,0.282008331005997,0
3.02035807659997e-06,0.284323680577073,0
3.20338652852895e-06,0.292183476534418,0
3.09659006445654e-06,0.2915977015279,0
2.26494958709296e-06,0.250223815790517,0
1.75740320485525e-06,0.228788192393864,0
1.8698976891221e-06,0.235807879361564,0
1.70238235503685e-06,0.239129493091623,0
1.22065366166703e-06,0.204101997133503,0
1.12042289217524e-06,0.209409342456872,0
1.27067475662912e-06,0.227062054816494,0
1.80234244512719e-06,0.280830450235504,0
2.46964801927873e-06,0.3312278913409,0
2.77910125520172e-06,0.347883512932644,0
2.93530764973703e-06,0.349385973284156,0
2.72092685491257e-06,0.349152720150156,0
2.07550046973149e-06,0.317775054752001,0
2.00244912112334e-06,0.318697159949859,0
1.44496728613601e-06,0.263215358214934,0
1.44625733707855e-06,0.266651374919048,0
1.59894802502323e-06,0.278834054551108,0
1.51979044917873e-06,0.273176574599967,0
1.26285068413831e-06,0.247603630278806,0
1.17773774471153e-06,0.24035844911101,0
1.14461004500285e-06,0.242214387380067,0
1.69645762261086e-06,0.279441907747019,0
2.5380350971232e-06,0.329303385161881,0
2.51333013189175e-06,0.327704146642465,0
2.87199888420409e-06,0.362752400465684,0
3.53004384714766e-06,0.39204370577326,0
3.63651420401201e-06,0.380782738295724,0
3.44382214321349e-06,0.373368540367631,0
2.95197850026316e-06,0.347929457838294,0
2.69828563778884e-06,0.319629990596137,0
2.55085621559255e-06,0.303310376214848,0
2.94676724456585e-06,0.345364924520313,0
2.80526151291948e-06,0.333154929301381,0
2.71430552415013e-06,0.305164626196418,0
3.06666821739703e-06,0.324411088239358,0
2.35991700708423e-06,0.289003509295959,0
2.28280880145777e-06,0.293682861593885,0
2.06467600255134e-06,0.273813640561968,0
2.33164361633331e-06,0.289058523155866,0
2.55701557850818e-06,0.321022472982846,0
2.78562923386881e-06,0.340666508009017,0
2.64952271236173e-06,0.333861232347228,0
2.73891984616401e-06,0.316837563053665,0
4.07228178506624e-06,0.396333466844976,0
3.80910576665668e-06,0.392588090248506,0
3.8601743638136e-06,0.413357889159126,0
4.21382189862272e-06,0.456771920215792,0
4.59267804155267e-06,0.491506739844606,0
4.62110375458416e-06,0.485432432087151,0
3.75497405387136e-06,0.391806383360179,0
2.44741792644988e-06,0.31276614703974,0
1.94235391812245e-06,0.277842837270171,0
1.69138326942836e-06,0.26882003674483,0
1.7785018202785e-06,0.264121829561013,0
1.81157742618398e-06,0.253435724512386,0
1.91034394305531e-06,0.243622945636156,0
2.69213460988173e-06,0.285631164186788,0
2.98823557891791e-06,0.268059228193943,0
4.33678827920964e-06,0.29731638326612,0
5.65714197870142e-06,0.336909565002506,0
5.96165088757472e-06,0.34804069267709,0
6.79602420585438e-06,0.367151703568789,0
6.87613051404283e-06,0.366738725617361,0
6.37352116572238e-06,0.361422357652355,0
6.32190495850617e-06,0.366042590944693,0
5.92939169575305e-06,0.365499386080708,0
4.57163818793943e-06,0.317550577053457,0
3.71085414493621e-06,0.316812955970369,0
3.75909384020394e-06,0.375665428469204,0
3.56039244664302e-06,0.293752916763665,0
5.20221388007834e-06,0.327966248341694,0
4.37753667720143e-06,0.300296520518708,0
4.73999931701351e-06,0.315609227063658,0
4.75512235645884e-06,0.314104672093132,0
4.60913572423609e-06,0.312376448805048,0
5.406075060659e-06,0.329755751521477,0
5.09793813095538e-06,0.316156452895435,0
5.33434877002916e-06,0.287983860809662,0
8.96243628043489e-06,0.350358075497745,0
9.13814659488977e-06,0.287268058050716,0
1.13124087888627e-05,0.319856846534191,0
1.11912852786579e-05,0.31988903502655,0
1.22078879299254e-05,0.332778002246916,0
1.30056657682047e-05,0.331635199663616,0
1.27633568603569e-05,0.326464053464842,0
1.25573806713662e-05,0.329072785684874,0
1.24546381470591e-05,0.329261995085357,0
1.23854942504417e-05,0.367055449512684,0
6.20248595754223e-06,0.270915588204321,0
5.05324998281487e-06,0.344270770057913,0
4.61893665237088e-06,0.344465116385262,0
4.36684598690791e-06,0.338446264322354,0
4.2866965450504e-06,0.354667214877842,0
4.17983173390819e-06,0.391589707224188,0
3.73875141842801e-06,0.338997603428879,0
4.99905638259135e-06,0.369060343609288,0
5.21571992787221e-06,0.380747661858443,0
4.76888199688671e-06,0.397209131883455,0
2.65395839551694e-06,0.293354624397847,0
1.70083350207999e-06,0.248283413339186,0
1.70158052721794e-06,0.251734497031116,0
1.92367266354308e-06,0.267204581231654,0
2.22207159442619e-06,0.288033726081596,0
2.88667037456325e-06,0.314870755662169,0
2.71180335459463e-06,0.34500847122278,0
1.30323692601023e-06,0.251053757257574,0
8.29843657903469e-07,0.20591826881046,0
1.03907237559106e-06,0.184054018217646,0
4.51570194581114e-06,0.333916839119174,0
4.75940821783604e-06,0.317789401047056,0
4.73941920042103e-06,0.316086071123105,0
4.63201949010753e-06,0.310185891663029,0
4.42405581833694e-06,0.309937303695982,0
3.62350325572378e-06,0.282930053749012,0
3.98918362557219e-06,0.29991099785012,0
4.04935717765309e-06,0.300748562156995,0
4.42968194908296e-06,0.301373604968325,0
4.95904667472899e-06,0.353086965737294,0
1.87016086701589e-06,0.234700067894435,0
2.26188647146457e-06,0.266816801339064,0
2.37621694973154e-06,0.269550571044229,0
2.63003858808738e-06,0.279089756178477,0
2.09257056716537e-06,0.231543658545774,0
1.94339058480621e-06,0.221487039813405,0
1.94528534061634e-06,0.223135305327423,0
1.7843063202067e-06,0.213400633615419,0
1.68880796017317e-06,0.222500514734297,0
1.84637942072764e-06,0.239081749075551,0
3.05168603959557e-06,0.319242040598315,0
3.17210086570155e-06,0.331713672220686,0
3.02950158093833e-06,0.331171984532818,0
1.89593271333696e-06,0.278111586466545,0
1.81828710803665e-06,0.291751183721337,0
1.95836296897267e-06,0.314952809371228,0
2.0615778798872e-06,0.317298949721203,0
1.84687118622988e-06,0.309849122826495,0
2.01025402309457e-06,0.330907559493603,0
1.98525587393869e-06,0.328875610274419,0
1.30269681745861e-06,0.260342082117185,0
6.98128852381687e-07,0.187692698862852,0
9.5143455371059e-07,0.218110117304833,0
1.4390325516998e-06,0.258223827696381,0
1.37791964415951e-06,0.242477695210651,0
1.22866527184937e-06,0.219375681232874,0
1.43484525179826e-06,0.237007614669061,0
1.76711536514939e-06,0.263987388243897,0
1.9190992443722e-06,0.273005363177756,0
1.95840464401523e-06,0.274807582135304,0
2.49851048675628e-06,0.309097884298832,0
2.70210140468593e-06,0.321535650994209,0
2.69047094218261e-06,0.318757925630708,0
3.14978908978929e-06,0.345093305775697,0
3.52274821419655e-06,0.359949854218814,0
3.62498126110829e-06,0.367589190647752,0
4.06404700503097e-06,0.379436039436559,0
3.88618938400802e-06,0.357834142969702,0
4.19233424667714e-06,0.361521952809649,0
4.24141244380125e-06,0.365742550642368,0
3.65382268268935e-06,0.3414923661554,0
3.77155467793033e-06,0.353470154285334,0
3.59609462210605e-06,0.344340262547794,0
2.37479249677674e-06,0.28014825973666,0
9.77849237563197e-07,0.179010416639625,0
9.29030050828624e-07,0.169445046009741,0
9.52642504819283e-07,0.174203971771695,0
1.0294637777777e-06,0.176226884586206,0
3.03632878641103e-06,0.29195289406023,0
5.1190788381716e-06,0.378128811015936,0
5.47683261492448e-06,0.387232353765984,0
5.25560627760858e-06,0.378882376451544,0
5.24351218025675e-06,0.388186695213282,0
4.7318726837137e-06,0.374016403875012,0
4.76027339171964e-06,0.376148642374866,0
4.56595371213381e-06,0.38756031398801,0
3.98618552301018e-06,0.368201648167909,0
3.68339133376314e-06,0.370706891171412,0
2.87404283666661e-06,0.357956306415532,0
1.47238446313747e-06,0.264361827861875,0
1.2693069817322e-06,0.252957174223972,0
1.5265668110995e-06,0.268062702381421,0
1.3540738099305e-06,0.248217268663389,0
1.18398650059345e-06,0.221720018878709,0
2.17744595884954e-06,0.299534785441618,0
2.43051869669052e-06,0.321459035880971,0
2.15761697359798e-06,0.302049078254528,0
1.86951073635191e-06,0.279462384310892,0
1.72521506898115e-06,0.266733723933409,0
1.46012116511283e-06,0.24123688666536,0
1.47335549162919e-06,0.251391683112378,0
1.4790366334314e-06,0.262838697922294,0
1.82614472893673e-06,0.268776611317678,0
4.20597302948158e-06,0.415600516386046,0
5.47360509125317e-06,0.507456215982389,0
5.28748435116601e-06,0.459334468270667,0
4.44611025086137e-06,0.388335356004952,0
4.49425492703206e-06,0.396490551876033,0
4.4515298817715e-06,0.376365013584276,0
4.04424781743484e-06,0.355731649239412,0
4.02584766101757e-06,0.343835175283092,0
3.77176305314315e-06,0.325523618053075,0
3.651472418664e-06,0.340678990641325,0
3.27159252831348e-06,0.326113777319719,0
2.0810482513975e-06,0.252888266237958,0
1.33935418489718e-06,0.210841279151316,0
1.63934781128398e-06,0.222120626210815,0
2.61694262271232e-06,0.281858575132974,0
3.56583499882656e-06,0.316827935517077,0
3.59255807799414e-06,0.313274083392482,0
3.68318191667426e-06,0.329683511001498,0
3.80986008492707e-06,0.336392402970007,0
4.89401860531511e-06,0.378508610018349,0
4.90645964739628e-06,0.375134858332971,0
4.88892695698995e-06,0.386366671162293,0
5.17466771882013e-06,0.393576098844741,0
5.21747465553934e-06,0.428781844637956,0
3.17789703062124e-06,0.341622388708493,0
8.77978332063941e-07,0.197241090020268,0
1.41066351672619e-06,0.229730881040446,0
2.80456533133347e-06,0.317005562336927,0
3.27679378200058e-06,0.297689577764824,0
3.42634467223855e-06,0.306796962870771,0
3.69328915637189e-06,0.327252412107452,0
4.09211097869302e-06,0.342758002272697,0
4.16002775368217e-06,0.356123311786524,0
4.12265524251321e-06,0.35512758863728,0
4.60239270234936e-06,0.34965605626502,0
4.90938836101241e-06,0.35130742708528,0
4.36607916612475e-06,0.356471318238516,0
2.95995927091401e-06,0.295799385432946,0
2.50477278702704e-06,0.312948305404681,0
2.21419605325782e-06,0.286183945365293,0
1.97573979471981e-06,0.26965709934518,0
1.82195221965487e-06,0.25474489809909,0
1.97962807619096e-06,0.266455120379722,0
2.20005216893752e-06,0.289408293134764,0
1.74877751292074e-06,0.291903359362131,0
1.30554009723749e-06,0.258786809369892,0
1.55687290205145e-06,0.293563400963935,0
1.35734467564607e-06,0.278269853208973,0
5.04443050193244e-07,0.181185634532641,0
4.70726482133142e-07,0.192971103381218,0
3.20506082336392e-07,0.170895633144445,0
2.86034154129832e-07,0.157980609269258,0
3.72709282527095e-07,0.173562493339549,0
3.82090334608067e-07,0.170058565870091,0
4.0813390220665e-07,0.169889012432657,0
3.87346182600921e-07,0.169525967690047,0
3.22659223410419e-07,0.147589371019929,0
2.06760930042215e-07,0.128225350392781,0
2.09294772630056e-07,0.128372631752874,0
2.44559360146168e-07,0.134403503443749,0
2.52661821921301e-07,0.133918581795449,0
2.60624255553423e-07,0.132991910952572,0
1.25042485344768e-06,0.245117789951,0
2.50278405399592e-06,0.335601565110316,0
2.78844042386492e-06,0.352299630780059,0
2.84920784530235e-06,0.320731305692304,0
3.50862683439923e-06,0.364687666569989,0
3.77256821496547e-06,0.375268359535309,0
4.01392859884449e-06,0.389337447893036,0
3.8632066399105e-06,0.382004375554674,0
3.87621925520042e-06,0.364111959844166,0
4.57430539066348e-06,0.397144180001301,0
4.55071460769496e-06,0.420564495324097,0
3.78664604434331e-06,0.37859039744132,0
3.38105952911334e-06,0.36100601141743,0
3.24657937614228e-06,0.387416842322293,0
2.63243740353732e-06,0.34058665771126,0
2.4412933621948e-06,0.317593930547565,0
1.99155714037424e-06,0.282576954707321,0
1.97477689286139e-06,0.264402527748573,0
2.1491869459883e-06,0.272350114324687,0
1.68117621800379e-06,0.24047246947764,0
1.31058944539444e-06,0.210575697695043,0
1.32888541420531e-06,0.209790793134673,0
1.36073285660645e-06,0.208753686025924,0
1.37173902697218e-06,0.212358005835554,0
1.47843567931764e-06,0.214115087304415,0
1.4005781564259e-06,0.206995760100496,0
1.4991523429758e-06,0.21810246524574,0
1.41384248897291e-06,0.21124517018332,0
1.40817322455782e-06,0.224746553003931,0
1.28521830460761e-06,0.216472415445605,0
1.41258661156527e-06,0.239120812471606,0
1.42506307743262e-06,0.22993747997389,0
2.52282974946881e-06,0.299481986307427,0
3.51231424216522e-06,0.3071608821985,0
3.70705338105445e-06,0.311407311034263,0
3.72697405139965e-06,0.314241143328535,0
3.90473998732896e-06,0.319217304443506,0
3.90714880478911e-06,0.330994782619637,0
3.83610952723591e-06,0.321493732485541,0
4.30828359197248e-06,0.336917703137877,0
4.71653626805044e-06,0.344483196653731,0
4.55090797989245e-06,0.365200789190208,0
2.80714855884674e-06,0.291623020262031,0
1.40635202519781e-06,0.220271787199444,0
3.19039120838168e-06,0.325620354260031,0
3.30826656576908e-06,0.315429174258497,0
3.50013950360603e-06,0.329765882869057,0
3.76828402058997e-06,0.357140959240503,0
3.7894309790626e-06,0.356113222370386,0
3.5714011175113e-06,0.353821922021009,0
3.24397468598208e-06,0.331636337002221,0
3.22324218580775e-06,0.329176145706869,0
3.16802108740983e-06,0.332292804637284,0
3.06275722302769e-06,0.335187403398787,0
2.82373105828263e-06,0.346821025734595,0
2.91818920925378e-06,0.351146144550792,0
2.4563770187249e-06,0.307132577624737,0
1.82120436101607e-06,0.254541197347067,0
1.88978585293411e-06,0.259245597323191,0
2.00774622740834e-06,0.252688924910869,0
2.54466747177192e-06,0.266806499221073,0
9.49845567687741e-06,0.41388049542093,0
3.79889160963735e-05,0.707499418218186,0
0.000197018138591795,0.211856438936587,0
0.00110362219888651,0.286368845730473,0
0.00157387815582797,0.1389572574467,0
0.0015406425400552,0.121892029388823,0
0.00161507312107134,0.118868336904959,0
0.00143547040848461,0.0990106910743273,0
0.00121457640692026,0.0879072617207106,0
0.000969563105540479,0.0681845852311839,0
0.000807154232965883,0.0602455182251055,0
0.00075674883389092,0.0593691998919874,0
0.000875893964187028,0.077860054599492,0
0.00075658661128724,0.0995107057537363,0
0.000575508196487235,0.147884232419212,0
0.000622898707543311,0.218819922745205,1
0.000444891556467647,0.224492089959191,1
0.000407407147809408,0.276027779024287,1
0.00031751786176049,0.19510013928675,1
0.000157597315750874,0.154610432241511,1
0.000186102221365248,0.108596543765858,1
0.000929049449102311,0.123965008062679,1
0.00122869924388545,0.107118229412909,1
0.00133179178999862,0.0971593973886384,1
0.00187578753286947,0.109098989842207,1
0.00195834889218517,0.102421462896288,1
0.00161537231620391,0.0848539767237755,1
0.00490625388708401,0.00797829681688015,1
0.0232981365214923,0.0164165775596153,1
0.022456351009335,0.0116584953418836,1
0.0208431509980567,0.0109632391117572,1
0.0299908304905455,0.012541545688968,1
0.0323973245972888,0.00877216560550365,1
0.0307010802342058,0.00833201587167609,1
0.0301670129059254,0.00651473264710525,1
0.0335008507910468,0.00733079055750278,1
0.0285635118447863,0.00524442658358283,1
0.0266622777409699,0.00733612864702986,1
0.0212503533932564,0.00733650815101925,1
0.0197598022606281,0.00800847085212496,1
0.0196497565526857,0.00828873895321472,1
0.0243003313478924,0.00435102558437924,1
0.0340015934416963,0.00570628001996958,1
0.0338403013114825,0.00603836405496946,1
0.0344288633063283,0.00626796247032782,1
0.0436768253697617,0.00668847273056729,1
0.0505934610037354,0.00808254539017003,1
0.0514241759434167,0.00760602352956712,1
0.052076843754821,0.0073381250402092,1
0.0689162942971968,0.00950092631814559,1
0.0699128249124892,0.00496621509787437,1
0.0688189062254919,0.00778519789399736,1
0.0632857215125683,0.00975966145250818,1
0.0525196997227988,0.00656216844435642,1
0.0453236114499556,0.005488742769089,1
0.0454508849830738,0.00565783083567664,1
0.0481965794249703,0.00641492110009986,1
0.048217012543933,0.00675884310892586,1
0.0496881385491442,0.00659848937449054,1
0.0380021211772203,0.00505943997167265,1
0.0279737220498425,0.00866475282811801,1
0.0331282246127221,0.007545214811847,1
0.0358220326820626,0.00686539656043791,1
0.0328811788643171,0.00825626456153039,1
0.0324627874672144,0.00863086164356508,1
0.0305062475479737,0.0103359460373154,1
0.0238665245342488,0.00677743228370747,1
0.0181801230714019,0.00323744087166523,1
0.0186746735500418,0.00524937285820143,1
0.0179045771118678,0.00681045896252297,1
0.0128076632544804,0.00373767472472967,1
0.0100456189630313,0.00315843294822774,1
0.0172720957083836,0.00915892000175429,1
0.0167908972782533,0.00741532410416006,1
0.0162235627180543,0.00790851073029674,1
0.015932977112502,0.00860015009129653,1
0.0155873349316179,0.00925181750213457,1
0.0322845846386863,0.017816038868202,1
0.0300663493377826,0.00859429610233178,1
0.0328416959800447,0.00581445860248679,1
0.0430544797900533,0.00557817965353723,1
0.0438449794811875,0.00430815928998545,1
0.0524659375209449,0.00366371208697228,1
0.0629589760568607,0.00363171346565137,1
0.0635421197462712,0.00285064072993431,1
0.0829363078916168,0.00509165707352408,1
0.08722803207046,0.00477796027328659,1
0.0664510579562488,0.00283352062756014,1
0.0671529567727804,0.00342422959835604,1
0.0464773981259546,0.00135783370227224,1
0.047184511830997,0.0023692549003903,1
0.0314279309672681,0.000575394106609697,1
0.0271851413416793,0.00239329635170847,1
0.0297316571276358,0.00595294659060722,1
0.0228411194086418,0.00530067577465986,1
0.0189239836860459,0.00344497794988406,1
0.0176474336608904,0.004468206994769,1
0.0161881796767312,0.00505189043567646,1
0.0143763873792372,0.00315872601926778,1
0.0167607193847333,0.00543360382982011,1
0.0150757649190398,0.00566378112071452,1
0.0147336070200971,0.00624195885265016,1
0.0149042829721152,0.00696898107095917,1
0.0111549428088828,0.00411749367679644,1
0.0131005912647702,0.0061517526402354,1
0.0125713305135627,0.00473970760625778,1
0.0161791018122519,0.00701231694142813,1
0.0154586277907882,0.00651417074576042,1
0.014638041453223,0.00778255348432306,1
0.0133428724764265,0.00679437668952578,1
0.0132261119289282,0.006214725103617,1
0.0135726890802237,0.00625478012954985,1
0.0132653821523348,0.00805616041431806,1
0.0145035505032903,0.00708675869970744,1
0.0170511218295154,0.0085164267978897,1
0.0155826317146934,0.0117515655389475,1
0.012741418456152,0.0113500048986445,1
0.0133975136522293,0.00887760926678341,1
0.0150599407653504,0.00765409659899803,1
0.0187050010869706,0.00878109383756038,1
0.0207522271157401,0.00613956798254311,1
0.0206161580417593,0.00459263466174288,1
0.0219193467549547,0.00421033887097891,1
0.0250117211252613,0.00496476719587832,1
0.0231396664876333,0.00388057300957764,1
0.0234545995992828,0.00397857642889254,1
0.0213278065223726,0.00352236186400091,1
0.0238372307175782,0.0048274301963751,1
0.0264200455862564,0.00640834960879722,1
0.0631825540136827,0.0125565470387037,1
0.0840013566496368,0.0162993842923554,1
0.135186475286841,0.0253884492818106,1
0.139859574848476,0.0252799357026194,1
0.21221015201313,0.0354283482040078,1
0.221859319901774,0.0397889174763839,1
0.269055042783481,0.040346250170778,1
0.285243723369844,0.0438681785143689,1
0.324924641427699,0.0432681541062541,1
0.250715442990894,0.0332110553130207,1
0.246428320453769,0.0375669858173041,1
0.187428908634335,0.0317935625381708,1
0.150518699999456,0.0205452591684261,1
0.12899353475775,0.0188899878632824,1
0.133974483816111,0.0104618974727894,1
0.134017125121208,0.0107839466519436,1
0.142091497199176,0.0099682079708252,1
0.148191201567893,0.0104438172649468,1
0.138971270335211,0.0100036216644823,1
0.145431016071069,0.00996969067903538,1
0.231610426678626,0.0107797913912586,1
0.29438098185624,0.0129743929071454,1
0.297998755132221,0.0129971871149394,1
0.239369376440791,0.0118644324145309,1
0.225347148937875,0.0171361575133601,1
0.241593792250735,0.0183496206112042,1
0.269877885980257,0.0218810702582137,1
0.294747006942037,0.0209104579729359,1
0.290227141631343,0.0215524474413496,1
0.301647851248085,0.0219623173688069,1
0.209837531649369,0.0171321639268626,1
0.121938904733677,0.00863056449072992,1
0.0944392288241975,0.00687450023196434,1
0.106208834189271,0.00644162492288339,1
0.128700223664426,0.00385481289413201,1
0.154709009206847,0.00219380386293123,1
0.207560958841229,0.00469749240458376,1
0.259384881480973,0.00762852537126253,1
0.335137603140129,0.0103979412270776,1
0.398851266131478,0.0122111872945659,1
0.382143036643515,0.0156122838442765,1
0.26893590699527,0.0125604243142603,1
0.299725944414441,0.0141418406319979,1
0.294074205408301,0.0122743704780731,1
0.211046858074476,0.0141715454717965,1
0.0578510736993257,0.00839850720096509,1
0.0563893023565166,0.00782755702335271,1
0.0555005105961578,0.00488440970257365,1
0.0597136225654315,0.00394758501576957,1
0.0661316108548726,0.00567368433725326,1
0.0649541630286376,0.00374736188309691,1
0.0620267258740547,0.00394012528781628,1
0.0567987141257587,0.0044932109792646,1
0.0501730760407552,0.00568529922043027,1
0.0526705166235227,0.00732354174660665,1
0.0564425231562256,0.00467568075260429,1
0.0578497510457889,0.00453852006007555,1
0.0543127509722378,0.00676828345712912,1
0.0666239909306358,0.012551625537721,1
0.0581598636827808,0.0094484177373027,1
0.0606925449403417,0.0127166232723196,1
0.0568218314794102,0.0085383556725447,1
0.0583669381106218,0.00915097710180748,1
0.0593671476805228,0.00768675859760137,1
0.0562407514222509,0.00802340390029556,1
0.0374317401745355,0.00610112736369523,1
0.0368584892296299,0.00633632386113689,1
0.0382601096188582,0.00614893862891735,1
0.0563493149175049,0.00922612551363681,1
0.0556584957033891,0.0082492324586498,1
0.0548542560211929,0.00914779460934757,1
0.0555021027578189,0.0119970972884277,1
0.092211194877076,0.0157407634356315,1
0.179249629698736,0.0368748798480292,1
0.15046904225252,0.0270510980407819,1
0.228968911378103,0.0245369414619809,1
0.321401450912108,0.0333115634147132,1
0.308309148967502,0.0290665195920487,1
0.331319327029365,0.0270632906355579,1
0.314254028436005,0.0233512597681451,1
0.240192293384264,0.018366214232045,1
0.169826570616817,0.0132213451818895,1
0.147297045942832,0.010956612488107,1
0.200396355643999,0.0139884100350433,1
0.198525181270579,0.0153717442605415,1
0.187905122707704,0.0206679031484021,1
0.194808644318506,0.0126866573166314,1
0.375244951016909,0.0249384368139535,1
0.577790029491118,0.0400934751822876,1
0.624849447068449,0.0277814653795829,1
0.604268133119069,0.0286205043297426,1
0.583543144501711,0.028530846555332,1
0.571379141848773,0.0308160009165895,1
0.464391841417697,0.0261676061904988,1
0.386580859998866,0.020794500399484,1
0.353721173635803,0.0204133523379902,1
0.362127018857154,0.0318279083593076,1
0.26890783998579,0.0228339845428508,1
0.11936482740212,0.0109748835404222,1
0.0596830895538728,0.0179857147880482,1
0.0584462671809334,0.0160933425836027,1
0.0630275113244886,0.0121813088009876,1
0.0892972835119631,0.0166744075991452,1
0.100314555341162,0.0205765731102308,1
0.155170439319544,0.0278818305255323,1
0.182350343365501,0.0267769994882856,1
0.267181987533707,0.0353529347597947,1
0.295823782962015,0.0456054321590713,1
0.21718952417769,0.0333093651685738,1
0.170080589228094,0.0282649944128971,1
0.136424115087401,0.0242878920767169,1
0.0921013737878194,0.0213098395523974,1
0.0893852929693686,0.0218854739613795,1
0.0537299105389845,0.0101580663517829,1
0.0547982718927737,0.0104980377767946,1
0.0396084888184463,0.00941681004421569,1
0.0432005469676308,0.0115030769722511,1
0.0468089551826615,0.0121583361556507,1
0.0379216874680221,0.011259815993068,1
0.03013951141427,0.0108933446114277,1
0.0309903313146687,0.0078530642186654,1
0.0379957018153831,0.0077695774868419,1
0.0469039432678478,0.00693453732772191,1
0.0459680119091533,0.00666966084865906,1
0.0488771539901051,0.00429203271470904,1
0.0549445877594997,0.0043290314635117,1
0.0597265677882185,0.00465918248144056,1
0.0624449596169719,0.00473402576470662,1
0.0607208935528774,0.00426760995614386,1
0.0744994919409417,0.00600056595012581,1
0.0838699445976711,0.00752088682097176,1
0.0554316423659858,0.00356514401563059,1
0.0613159271085931,0.00498568695269568,1
0.0334852095224472,0.00151181049481028,1
0.0311209742747698,0.00525522883645532,1
0.0293945218373093,0.00625553995427365,1
0.0316062476388848,0.00568077171845967,1
0.0424026355372937,0.00956049697052534,1
0.052765535902895,0.0145605527740727,1
0.0585182747764336,0.0181059054590941,1
0.0814026469516063,0.0276154003888076,1
0.14162965293741,0.0522177538580475,1
0.155238517052924,0.0593545156256205,1
0.243802467613397,0.0623452524593496,1
0.460727539926256,0.0847274705209328,1
0.485531501571828,0.0432436094778612,1
0.401890435280415,0.0380517143075291,1
0.341845805581301,0.0343425445260019,1
0.278378894183821,0.0288787575599022,1
0.21202966792257,0.0240039018871653,1
0.190163905947144,0.0202286911210786,1
0.211459365232291,0.0214881658751221,1
0.191540019886724,0.0185520017085786,1
0.205484415327073,0.0212087893558506,1
0.15881363801868,0.0185553454667655,1
0.138766824151222,0.0228389474734724,1
0.138746879424167,0.023456544480727,1
0.125980250277184,0.0221096001042996,1
0.109407120336886,0.0147319110624737,1
0.0963777605530904,0.0135831158053362,1
0.109579886982219,0.0187504001587001,1
0.105056058757346,0.0203616029367084,1
0.127900394823934,0.0245250999813252,1
0.131950692518947,0.0213826039747399,1
0.131528940458081,0.0209098080483241,1
0.135003309901766,0.0239592721818718,1
0.131233331819869,0.0236915902968441,1
0.129076554646721,0.0232818652208085,1
0.128115235486183,0.0258761027064823,1
0.120184006288272,0.0254054815615175,1
0.102751376382838,0.0207844316446277,1
0.122740348033644,0.0175593146441183,1
0.182334218669533,0.0248338915063321,1
0.215251360236049,0.0101600311647714,1
0.228639860018953,0.00764628077618628,1
0.306921193035196,0.0113671965226251,1
0.346074177565675,0.0116262649977007,1
0.353607976768078,0.0119350776333899,1
0.336556439032682,0.011900164081802,1
0.274649057391439,0.00902359189089572,1
0.205430158467261,0.0060254579571386,1
0.190996993027956,0.0061537379786167,1
0.183573226220193,0.00537831309460726,1
0.153615636919666,0.0107956854786997,1
0.0498387270012459,0.00590295126487477,1
0.0479180685701733,0.00487960400665992,1
0.0476454681826435,0.00661260303481394,1
0.0471751718713415,0.00611273738014769,1
0.0463012891207454,0.00597183744762792,1
0.049789738105403,0.0052259024096857,1
0.0828761211237547,0.00672147594662984,1
0.0909428912036565,0.00866354379865231,1
0.0824948675704489,0.00964016905805319,1
0.0934046503557553,0.0102861114491203,1
0.0815506579098471,0.00762207063410259,1
0.0813669120510246,0.00747392795296167,1
0.0880993163998641,0.00644537345836131,1
0.115216723777254,0.00859949502822078,1
0.112320094152736,0.00781084510130526,1
0.0918713226008337,0.00678618000243157,1
0.0799661924461702,0.00820616565316615,1
0.0758654624102094,0.00721434443101355,1
0.0990407063215663,0.00841727532830286,1
0.0798536278394767,0.00763297191657438,1
0.0621934031680431,0.00788736342450199,1
0.0504982182348625,0.00662086586447327,1
0.068719143885354,0.0106356756714939,1
0.0711605678069137,0.0112117899227236,1
0.0916545313732244,0.0134191466783597,1
0.128267304406873,0.0206302198152712,1
0.15722491037276,0.0269332838992031,1
0.255193827141534,0.0354240738235209,1
0.311037486320743,0.0468779138934443,1
0.391004295167673,0.0483867967535019,1
0.350846399628226,0.0319534332687755,1
0.248157501565684,0.0255933996660207,1
0.21210511412729,0.026419616888704,1
0.161781650061382,0.0187227492097117,1
0.27739190464423,0.0180860122062264,1
0.415625780532708,0.0223226188473305,1
0.395030268923825,0.021035619092094,1
0.372445465430883,0.0206299945219851,1
0.392472853598308,0.020855252357988,1
0.40442442392657,0.0152433874103507,1
0.486292787114178,0.0180465945527827,1
0.417888625021716,0.0119795686103046,1
0.402094713540654,0.00880941228290871,1
0.407715189891715,0.00955755877344129,1
0.430934241444248,0.0142584118738847,1
0.601679604117583,0.0188662438022198,1
0.640427495990421,0.0101635534624341,1
0.710236640018343,0.0119977237893027,1
0.631044522924409,0.0112296909331565,1
0.721569825799656,0.0163323725053611,1
0.909002755844093,0.0224699158485252,1
1,0.0277358281181297,1
0.984829189974522,0.0327595582131657,1
0.829610263995701,0.0295953869834467,1
0.701434035279363,0.0284714440812255,1
0.24559346184879,0.0138674763379523,1
0.107330585580741,0.0213322914854552,1
0.142074618806938,0.0107943588126073,1
0.17535197152826,0.00856339181035582,1
0.195290987293043,0.00907539783603484,1
0.224275597308109,0.0108437656563576,1
0.252549261882193,0.0102443724646219,1
0.238642194500954,0.0100530887466745,1
0.228407596090998,0.00931049365410971,1
0.231658181496234,0.00855915149257239,1
0.271328966539837,0.00966518968948601,1
0.280295510386023,0.0101019045091301,1
0.218731602785743,0.00785502286995301,1
0.259749653609949,0.0114824608647699,1
0.285066737433388,0.00712311430279508,1
0.329599987756308,0.00823322264482945,1
0.42670925838265,0.011975802685904,1
0.447130928195948,0.00885748576247979,1
0.447711143584742,0.00896471914241226,1
0.444380595890887,0.00976890129527223,1
0.429235883608271,0.00928450412067155,1
0.434405608745184,0.00922611464674152,1
0.437114611988884,0.0147872117363165,1
0.180141020701494,0.00689761091490674,1
0.104464753670357,0.00959339335429819,1
0.106260591181449,0.00971945565373319,1
0.0799800089365655,0.00694615780493556,1
0.0806826148412501,0.0209889883555604,1
0.0596933914276882,0.0175946102812275,1
0.0465982349118666,0.0140445931277595,1
0.0280936841051584,0.0093553371037794,1
0.02414204161277,0.0066102092323005,1
0.0323819347256736,0.0103167668244039,1
0.0336947344896753,0.00693284813555693,1
0.0304197602573282,0.00656462241758833,1
0.035512049328971,0.00745645850999951,1
0.0397187967197096,0.00482392115270366,1
0.0420193086818767,0.00466081481116164,1
0.0428852448561943,0.00542649713106082,1
0.0580945964486326,0.00786185324523033,1
0.0621129234762699,0.00611453799451711,1
0.0820747557777875,0.00521172178420731,1
0.149476259753862,0.0130648463778715,1
0.18178893794528,0.0179013003149679,1
0.216104842843893,0.0226467252335723,1
0.252711115514425,0.0261232751607125,1
0.348502171036717,0.0371889191368221,1
0.490888621384031,0.034703447970256,1
0.461660412071148,0.0324089985047736,1
0.45503047285524,0.0324509522548563,1
0.339677054052993,0.0297776221853036,1
0.243634544710731,0.0280938404795741,1
0.221790908085624,0.0253941720239452,1
0.175595593470837,0.0181366743288722,1
0.143081171206837,0.00841577617798703,1
0.147829487511866,0.00737971689602654,1
0.149866219761792,0.00662252867351471,1
0.159867680192918,0.00893495942430752,1
0.16917442914203,0.00937563606130451,1
0.185931005779149,0.00921648077466874,1
0.18167330254454,0.00778445710557579,1
0.206131299211642,0.00745200319921465,1
0.233330949419538,0.00848214181913208,1
0.228149415782256,0.00943722443839261,1
0.222762142510402,0.013747342265767,1
0.214140524690749,0.00849237083974036,1
0.235643489376188,0.0068977874643652,1
0.255855601202289,0.00791494394931632,1
0.248066744194124,0.00632262683614379,1
0.25333065223523,0.00583676010876254,1
0.280326180423455,0.00522500825639801,1
0.285635682379536,0.00584293724256501,1
0.343552349534199,0.00650899632798515,1
0.426861228122156,0.00760176517675792,1
0.406839316190976,0.0065501793738843,1
0.459116489278835,0.0098066904130514,1
0.437724918140562,0.0149365560582536,1
0.303309068751639,0.00929930141455335,1
0.268251467921776,0.00707353737706343,1
0.146336341916133,0.0022932599120625,1
0.132255443680883,0.00346359005837579,1
0.109383647591808,0.00207796710919136,1
0.113405948297455,0.00382265612069271,1
0.110462294120015,0.004028606190756,1
0.101993079922279,0.00504705180374598,1
0.0947664066065863,0.00436821021830433,1
0.0941938463577892,0.0037154868663214,1
0.10510758640093,0.0041666036418884,1
0.100219813731555,0.0047064518374473,1
0.084060920054298,0.004428002487801,1
0.0762824498328481,0.00432897925004977,1
0.0870591572491851,0.0025855172225399,1
0.187303156574087,0.00915654032787251,1
0.220211670770415,0.0110819086609134,1
0.230210594165186,0.0103622579407011,1
0.320652053698879,0.0141739004044839,1
0.386737824162574,0.0182777155233543,1
0.318041095672291,0.0146859757429455,1
0.30062930503224,0.0152040296607142,1
0.22904951221985,0.0114416635289752,1
0.164818707992046,0.00686338717028864,1
0.0823846866178249,0.00560110815544153,1
0.0778349324525357,0.00796790083334789,1
0.075355415718165,0.0124538423914262,1
0.0662380017140927,0.0145227478999755,1
0.0592229216540236,0.0156556595412271,1
0.0510635707050322,0.0131820481789144,1
0.0479390412429927,0.0188276497431732,1
0.0318336375876786,0.015515791362959,1
0.0327106012858203,0.0155729122738826,1
0.0475434019342551,0.0184741057376831,1
0.0539492078854846,0.0140701465635584,1
0.11580542367169,0.0205965917676348,1
0.154670314942322,0.0129594600528029,1
0.332793538329871,0.017004546840949,1
0.302566162567984,0.0145057408701484,1
0.282418227205141,0.0141738116042954,1
0.269790936518182,0.0143431703578422,1
0.223950311141525,0.0117713814452854,1
0.188997750983894,0.00996284300901946,1
0.15997780888358,0.00884392157447975,1
0.100643903689169,0.0055021421827482,1
0.124119334358853,0.00724740496193543,1
0.186930613783147,0.0206726457320218,1
0.338435645906733,0.0529798538937475,1
0.337436920995429,0.0238733677050782,1
0.320782230286915,0.0225784962954017,1
0.319729997683033,0.019935799649258,1
0.3105474387371,0.0178028288014416,1
0.278774245451334,0.0134435701361658,1
0.295730842232684,0.0130523588313504,1
0.275146166298442,0.0120444848423313,1
0.289544400890848,0.014124883928154,1
0.290052963076201,0.0140727931371781,1
0.211645344447476,0.0102641713582958,1
0.200619678360148,0.0163876461198132,1
0.200169843671871,0.0140283420380854,1
0.173317386590945,0.0128063346270822,1
0.179320176223922,0.0136827686192754,1
0.26793985254797,0.0172814662867109,1
0.271748646420901,0.010024699908614,1
0.285309955422277,0.00742840388696283,1
0.251810202243705,0.00485306476440328,1
0.228551579332243,0.00363999986663676,1
0.237952693866014,0.00344119187125516,1
0.239948699892197,0.00391985137661543,1
0.237793331152118,0.00410994244487809,1
0.25727415533488,0.00487929882185047,1
0.293496776670405,0.00626629213338938,1
0.299765521171955,0.00729912327939511,1
0.18034629336013,0.00699692496140536,1
0.162670141170691,0.00894470687879045,1
0.174696623548818,0.0138500189929876,1
0.0821926744253337,0.00615379229819608,1
0.105138242819582,0.0104382730102547,1
0.120565479101062,0.00440661325092257,1
0.142592270787919,0.00540997790339567,1
0.15081174277552,0.00531566139924226,1
0.206200722611101,0.00875336293843613,1
0.255453284791163,0.0112676424128845,1
0.325811574817061,0.0137859615272349,1
0.37352546314732,0.0173964814855127,1
0.374951793109581,0.0151189537255919,1
0.389803854009796,0.0125400298312301,1
0.394198231926768,0.0131288981320391,1
0.431783140431912,0.0184351237326815,1
0.458400022496084,0.0202681723622223,1
0.550815650842093,0.0270392681641828,1
0.571806136577483,0.0263920097962881,1
0.536298873613189,0.0277776604578494,1
0.460907369701978,0.0236217255216354,1
0.361219522744032,0.0256559637042257,1
0.0863899779726214,0.0059047897762673,1
0.0591809592312024,0.00958951507220339,1
0.067306559033309,0.00654707322862499,1
0.0677678909045944,0.00749267432561398,1
0.0462127902330987,0.00522590847787298,1
0.0457429727455313,0.005693848666019,1
0.0406504804005344,0.00536944485950068,1
0.0302361126626299,0.00348930257975962,1
0.0300716128781548,0.00378349827263396,1
0.0268008559086062,0.00297682273263652,1
0.0329094472159303,0.00452201150038753,1
0.0470822285081475,0.0118496489822023,1
0.0659109026068912,0.0230499197616835,1
0.155218710321104,0.0581852732664303,1
0.204221442033084,0.058806702036719,1
0.335848012639022,0.0474611317582511,1
0.338216564010409,0.0307283428792262,1
0.432144314517749,0.0278924868883718,1
0.520793919585869,0.0284486457169375,1
0.614993347345206,0.0236133322814656,1
0.499547579176021,0.0169077342146761,1
0.402310184342883,0.0137346480995877,1
0.317655985979182,0.0102500023581643,1
0.30948537634595,0.00950298268619619,1
0.28171422225615,0.00855685259880017,1
0.350885238974201,0.00966390486511115,1
0.409789113650599,0.00996354524096989,1
0.406303094834985,0.0104012197403498,1
0.462521043821669,0.01257249035219,1
0.447307032207654,0.0140737894010464,1
0.407395187548954,0.015574794630842,1
0.347454982424708,0.0120689971698684,1
0.317411486432724,0.0104712526094001,1
0.341911710181048,0.0126833220518093,1
0.359785359872088,0.0085427061510796,1
0.357359362389909,0.00867672010964871,1
0.374155858412571,0.0116453154556057,1
0.409877278102281,0.0143417984539208,1
0.326749066368282,0.0135238153163094,1
0.275422815319462,0.0123623313643619,1
0.226505036661649,0.00862549225512081,1
0.159106876258403,0.00589402429867122,1
0.206819536921091,0.00862692944612672,1
0.204565868506509,0.006343449044192,1
0.172564380196714,0.00810306742217325,1
0.0959223881145384,0.00544177141453744,1
0.17210128636339,0.00901974337462993,1
0.272185232991557,0.0147971774737001,1
0.251100768730758,0.0114085185123576,1
0.2394691647599,0.0105226167709498,1
0.226256552040933,0.0109768610673914,1
0.177404127801041,0.00696246424071215,1
0.221380088058557,0.00964874721256973,1
0.239577803958494,0.0142073278845689,1
0.248114083546982,0.0135372348826407,1
0.255426036477891,0.00731947510570648,1
0.353599743581697,0.00920721624771246,1
0.291019116653366,0.00527279273263936,1
0.281503250744027,0.00478688268637975,1
0.281760024202101,0.00483841157252402,1
0.22827058730732,0.00301146160322661,1
0.212108091448384,0.00265174413152547,1
0.218209895928142,0.00291496055457005,1
0.216210665568929,0.00312746513307661,1
0.237836984030731,0.00264251955653046,1
0.264934978599013,0.00647116456157143,1
0.186251852378465,0.00508547930104722,1
0.175622123905245,0.00684831665854983,1
0.174624343096812,0.00673500044323918,1
0.183132202369186,0.00576563359374125,1
0.199956095158914,0.00634919159568717,1
0.19828297797229,0.00666298970187181,1
0.223126907816548,0.00727161743880921,1
0.298531761247843,0.00988204161195468,1
0.32162444099057,0.0147698239146041,1
0.320850148810797,0.0143018669311667,1
0.371359783971705,0.0196404087252797,1
0.257899539488826,0.0127549135942053,1
0.241996949905101,0.0138115661818332,1
0.138595270870378,0.00905520798033168,1
0.145461955319273,0.00752615097814658,1
0.099686217572137,0.00308438518417005,1
0.0880699113625069,0.00367899998913203,1
0.0981344264347576,0.00462016018606242,1
0.107319127267837,0.0068190159854415,1
0.0959132859410068,0.00665458742058894,1
0.0941289557174543,0.0079464893881723,1
0.0597867534860738,0.00646597665601999,1
0.0525832265790388,0.00689575611809083,1
0.0288300092890731,0.00191191068369236,1
0.0253894671477863,0.0115170887879597,1
0.0503427608441962,0.00942169894835251,1
0.149929120723698,0.0302352438732799,1
0.211012960829478,0.0429668050508373,1
0.294956844885501,0.0520870102494583,1
0.444593973145061,0.0676311185446926,1
0.442321428079754,0.0608432406085116,1
0.406252009326096,0.0556622259916462,1
0.317497030962434,0.0514366008846556,1
0.231485539315083,0.0429263944366239,1
0.130054082456142,0.026743180128083,1
0.063122287115341,0.0242588955241772,1
0.0582121071358532,0.0226798303834247,1
0.0567148580787353,0.0196111277203709,1
0.105835989552874,0.0273783889759523,1
0.118476035340034,0.0310872988734903,1
0.186873570152829,0.0459507523680321,1
0.195465328221444,0.0329665958429409,1
0.173357148846366,0.0282160426694554,1
0.176251235466454,0.0265840335884642,1
0.16835596229065,0.0170413901279854,1
0.15330436146647,0.00904135365572939,1
0.202563055395356,0.0118679703039989,1
0.259406343394413,0.0146715693437477,1
0.243414535743083,0.011776210467432,1
0.255876292788615,0.00868469623006498,1
0.2406719003585,0.00704229994065606,1
0.226106405444094,0.00630678622552988,1
0.218472991838785,0.00661622080779583,1
0.220091763179587,0.00649870945170316,1
0.195813867949472,0.00775728646013856,1
0.165158996286066,0.00997844542964182,1
0.144156811688385,0.00877545899159953,1
0.121732494726872,0.00740968378941565,1
0.141056678195099,0.0121697744290972,1
0.138088011937787,0.0181190327132931,1
0.234377997053839,0.0323309037718784,1
0.313178402691377,0.0236578598948563,1
0.372209001831165,0.0197587662494058,1
0.377281448455476,0.0203794587053495,1
0.423477573296646,0.0220875247217148,1
0.438082953160506,0.0181746815719988,1
0.47297668580325,0.0182934586967071,1
0.492673335121121,0.0113697845616047,1
0.618424466547035,0.0125557507948691,1
0.619370410319077,0.0107141392841305,1
0.497337733058685,0.00750965391790142,1
0.377971323529837,0.00636655708137039,1
0.352533074178791,0.00582072236473406,1
0.366223261047601,0.00362514064824641,1
0.427273662045252,0.00535261963764254,1
0.466168081819098,0.0075446911700976,1
0.418600930781722,0.00709183430237663,1
0.379505486962506,0.0107760689980612,1
0.355377177062259,0.0118875326370391,1
0.296726710141868,0.0144202793791469,1
0.208365589621195,0.00765823264135754,1
0.234195983911593,0.00700391478341894,1
0.193604186285188,0.0055732014783048,1
0.161557982486757,0.00681241734795558,1
0.160340959051364,0.00590964591355151,1
0.162043854672891,0.00632025824904567,1
0.148771963272737,0.00533035586619536,1
0.171427037169744,0.00595408863772805,1
0.274435745394757,0.0108368483235134,1
0.375012274840266,0.0152441610142348,1
0.352245515171319,0.0152183770772195,1
0.265974182814435,0.0136663901056886,1
0.278300834164606,0.0194319038829691,1
0.161640661773107,0.013588160518804,1
0.152023647308777,0.0127948154588617,1
0.131491535287223,0.00825916814265145,1
0.0883838202964411,0.00422437148893961,1
0.081838766418383,0.00411620137310241,1
0.0798852312745036,0.00432130557009829,1
0.0753527436352935,0.00359125283464879,1
0.0747750887208981,0.00762980391931192,1
0.0469619810212985,0.00518469052151364,1
0.0495817534404548,0.00591630593268256,1
0.05483777532055,0.00819874247517063,1
0.0641418326820372,0.0125447746183559,1
0.0884527623274873,0.0246826952038364,1
0.135954718056838,0.0301523319017778,1
0.332227271579073,0.0530009246180756,1
0.366647517204452,0.03011551069105,1
0.355060694799468,0.0317400419815178,1
0.307640908636315,0.0308195677649063,1
0.244225723091421,0.0287825186589601,1
0.236440000591567,0.0276777813887025,1
0.233564481573424,0.0272252032673119,1
0.171964057711356,0.0191632649825167,1
0.157854544565675,0.0126288829588791,1
0.166505585311488,0.0129272733682486,1
0.148224410382238,0.0135849960385499,1
0.14129408770326,0.0184229569782723,1
0.181149968064193,0.0169616990778634,1
0.193428067255256,0.0114714011423254,1
0.206095029335416,0.00829093511620067,1
0.217401650461067,0.0083266918799432,1
0.195680071420563,0.00747281381573312,1
0.191535295485542,0.00749004804859696,1
0.143630564707055,0.00682736794047397,1
0.0935009896764726,0.00436558774127252,1
0.11048506416303,0.00347993608241999,1
0.138390069890523,0.00544313219428008,1
0.104841418233446,0.00445357807414352,1
0.099338574238434,0.00752275235248357,1
0.0867476664810483,0.0110577843502668,1
0.0857179372893024,0.0122489162430785,1
0.121881981584865,0.0120279763573904,1
0.146672646693084,0.00847134060600735,1
0.151557346756173,0.00635399943694554,1
0.115955097176363,0.00336283236517027,1
0.106091330442404,0.00430345290734107,1
0.100630526170332,0.00403719892046715,1
0.118013253760301,0.00410172392782503,1
0.13036412661187,0.00404712468806165,1
0.152351788543344,0.0049540472686616,1
0.16222675118997,0.00544892133673303,1
0.167207691813302,0.00627340286774621,1
0.151913151944004,0.0070910347308784,1
0.144499951958307,0.00974201441074817,1
0.152850020001791,0.00660825496236451,1
0.189819368341592,0.00855834763514044,1
0.207601867209913,0.00623428162261115,1
0.221520938483499,0.00765289540620222,1
0.191390589544047,0.00610492196477957,1
0.189055746241512,0.00725603932513978,1
0.189518448047296,0.00723799978095359,1
0.183790435723326,0.00789133008021553,1
0.209278423152454,0.00915324701187713,1
0.211857761705792,0.00935064456607469,1
0.212153614133417,0.0148395646503859,1
0.128796371711909,0.00967605462174346,1
0.132063870629985,0.0115906113567709,1
0.164326894436809,0.0115019979960493,1
0.185038650279213,0.0100681359874561,1
0.150587910244408,0.00590695792691126,1
0.140561432842011,0.00507592039908486,1
0.155512461489541,0.00509634642488268,1
0.162981775535605,0.00402238551331662,1
0.200569588242772,0.00540252896115958,1
0.271190372270006,0.00531227216020483,1
0.280997362964929,0.00337608917976596,1
0.296379215509509,0.00468601317499257,1
0.2810796179783,0.00524646537550392,1
