Activity,Complexity,Tag
1.09432045484282e-05,0.325654373001143,0
1.00657488072402e-05,0.381309916616087,0
9.3268805017339e-06,0.353981318368931,0
1.09731260249245e-05,0.395409047873467,0
9.19412322548662e-06,0.360579542717583,0
6.48208558762339e-06,0.378146924392063,0
4.67750279358739e-06,0.336745943724852,0
4.95572884503425e-06,0.332974035060547,0
5.1926738370045e-06,0.366493548779638,0
3.8362909601847e-06,0.320834659190421,0
5.05371152810686e-06,0.328215193819698,0
7.07948242818803e-06,0.357498513811564,0
6.96070518417669e-06,0.388143500378856,0
4.41097683350498e-06,0.327917036926211,0
4.27049427329172e-06,0.327831480218261,0
5.25500937416799e-06,0.36333957140514,0
7.43955608919177e-06,0.427260681337896,0
7.72470691590841e-06,0.412389065990626,0
8.27985908617974e-06,0.424250310200606,0
8.09269024477264e-06,0.438299022872117,0
7.69935421763438e-06,0.504606151952173,0
5.67345353361991e-06,0.435403017960884,0
6.16964402567157e-06,0.444027985048465,0
7.00779372578749e-06,0.471253136354404,0
6.94885786480187e-06,0.48701627960355,0
8.08455432723271e-06,0.450832905932245,0
8.37499402367261e-06,0.429279524876437,0
8.1114810045797e-06,0.464098258413492,0
7.5493826028238e-06,0.434506802762779,0
9.04907241037336e-06,0.454893020860609,0
8.67047593058617e-06,0.395491327849615,0
8.84399565389911e-06,0.404126128593804,0
9.08322076118165e-06,0.419086981018526,0
8.03910901768079e-06,0.379693326750251,0
8.7047088851682e-06,0.377653276819518,0
8.53525432957287e-06,0.405147077781153,0
5.83861545073275e-06,0.350880237173997,0
5.54982387069331e-06,0.342936668925502,0
5.25932992317376e-06,0.337241184427469,0
4.44899672277556e-06,0.316521919197034,0
4.87441711752458e-06,0.372019859296494,0
4.52533200398209e-06,0.372498880745122,0
4.52766951030787e-06,0.365205643718227,0
4.31579654141177e-06,0.385811075252845,0
2.15278750500938e-06,0.306527245929299,0
1.98106801044884e-06,0.322824484712184,0
2.01502028983099e-06,0.322853759745443,0
2.29936572350985e-06,0.339424751331303,0
2.21544244322381e-06,0.348895082113039,0
1.46017949633514e-06,0.302353833038472,0
2.67538606199709e-06,0.412543744774895,0
2.94551823612973e-06,0.416194388711204,0
3.87654142358869e-06,0.476299254350543,0
4.56039302890205e-06,0.527866376353724,0
4.25031688379932e-06,0.516979642221568,0
4.09917320145119e-06,0.496755941528249,0
4.41694009124731e-06,0.5446372350866,0
3.20246652570335e-06,0.445537616590772,0
2.88413950659288e-06,0.383774269214452,0
3.56793406977426e-06,0.413585363678735,0
4.21946267250269e-06,0.433637286569216,0
1.11555319355317e-05,0.380145105954652,0
6.23600696412587e-05,0.747098291232374,0
9.90705088010167e-05,0.649523224703017,0
0.000100615649325782,0.566488022913502,0
0.000121364764954953,0.47488492142787,0
0.000105243970637393,0.389759338355491,0
9.16485642520228e-05,0.304216944946511,0
8.72820815025478e-05,0.290699978557225,0
8.89005213413485e-05,0.285418956363242,0
0.000114668094018892,0.170074219059571,1
0.00020862178647084,0.189673160539479,1
0.000291901345425285,0.141964714931125,1
0.0007192344308915,0.196141490501006,1
0.000745197022768448,0.138374217751516,1
0.0007571233088635,0.142244756492086,1
0.000746449623504337,0.140173435881544,1
0.000734440986712546,0.14230205945165,1
0.000643572817438111,0.132902614528223,1
0.000560408058652548,0.11465579949889,1
0.000578527169858393,0.118744323071174,1
0.000688838454391861,0.122815104642177,1
0.000675179132384827,0.147408130954835,1
0.000569349478255732,0.0753268529276498,1
0.00108275578655847,0.109211111486527,1
0.00102945429495406,0.0921943895050569,1
0.00125320663061115,0.0757844226697744,1
0.00234563905804512,0.102516250254879,1
0.00238428072678941,0.0601030688034234,1
0.00203186063784862,0.0504378202508247,1
0.00191135514894106,0.0459866645178492,1
0.00194416421276581,0.0465658140295538,1
0.00157067977348827,0.0394298830673717,1
0.00150079156062909,0.0437758477637293,1
0.00156055653859729,0.0394085364346985,1
0.00230052151083915,0.0435378661913909,1
0.0026975238006463,0.040040447009293,1
0.00263007696277647,0.0282497749195358,1
0.00326892138868719,0.0308958046107724,1
0.00312492909412509,0.0313697154657788,1
0.00349474878278633,0.0357643370967439,1
0.00330602427073735,0.034189382572584,1
0.00326933720664085,0.0330524542525382,1
0.00320825748690106,0.0340815157832051,1
0.00332874482751416,0.0409614205122861,1
0.00276203314978867,0.0421324971006842,1
0.00251884412352613,0.0425283571020948,1
0.00259832935865542,0.0665445004347254,1
0.00175526061860066,0.0947901892825415,1
0.00172923568263895,0.0956866824165256,1
0.00203015962751771,0.0939502936878645,1
0.00216327223821914,0.0837441857836885,1
0.00213737804003288,0.0866992509935623,1
0.00198323930611961,0.0735551017509004,1
0.00212273137332123,0.0415184352040719,1
0.00271136718016916,0.0447136794331202,1
0.00319211179343122,0.0573652677477099,1
0.00341187786180342,0.0508777843842441,1
0.00426695866100344,0.0250573486339482,1
0.00883182315512284,0.032205103612225,1
0.00939794962052114,0.0330093025640961,1
0.0103356613136926,0.037928088669184,1
0.00904564648626719,0.0319171625278512,1
0.00588902987920325,0.0204964274497657,1
0.00531711790667238,0.0177924671896324,1
0.00594225132848565,0.0194383064405063,1
0.00734008292748206,0.0232147779378789,1
0.00765623731470546,0.0208861209277762,1
0.00695001174165585,0.0325898045531586,1
0.00527247817209995,0.0285489233057336,1
0.00627269726706415,0.0299590747366226,1
0.00599823280894623,0.0271812962928623,1
0.00717326322035583,0.0175000992290872,1
0.0149939344236181,0.0354228533123198,1
0.028552997836464,0.0620687791671087,1
0.0297194845076983,0.0317374461467606,1
0.0253554256764014,0.027258162140631,1
0.022016921555358,0.0246936205545063,1
0.0207703591783247,0.023836598598583,1
0.0200194639331776,0.0218444644072592,1
0.0205070022802326,0.0168993640531967,1
0.0185564651765683,0.0148270356033357,1
0.0158963404700882,0.017452744190172,1
0.0157729487359995,0.015285200146116,1
0.0192545118641763,0.0176828181887664,1
0.0193145094568188,0.0177476255651258,1
0.0169907115610746,0.0117208938408142,1
0.02086335901713,0.015242069926433,1
0.0236735074259115,0.0176808192524611,1
0.0201971379041321,0.0149917558032999,1
0.0177087459446522,0.0163332452044592,1
0.0180488781954514,0.017989384102042,1
0.0182733783848581,0.0171482115386726,1
0.0187007723648063,0.0184255322538854,1
0.0176979096185684,0.0156684482092007,1
0.0197598274024783,0.0147679019369524,1
0.0237901167749749,0.0252863675193194,1
0.0240118445388378,0.0269794687110704,1
0.0201412074448058,0.01942034260663,1
0.0149191744990433,0.0152065156798054,1
0.0165923420364302,0.01750446262265,1
0.0174696573016868,0.0180419514295014,1
0.0208847987446421,0.0108505103118833,1
0.0474408854440063,0.0188409632839684,1
0.0443829407723065,0.0156083537679977,1
0.0437490228250124,0.0200039553469081,1
0.038721823311969,0.0144212049082112,1
0.0326454747973245,0.0108382264413866,1
0.0289578261025087,0.00978678176816385,1
0.0256908850818012,0.00819995630388839,1
0.0296079835371095,0.00968740633097484,1
0.0290171328725438,0.00653413980670874,1
0.0283655862563636,0.00774722734027181,1
0.0435213194385221,0.0108808366070426,1
0.111974334366434,0.034292052819102,1
0.134685361912847,0.0217428127133673,1
0.128054512627623,0.0249539728742824,1
0.113932981972141,0.0200422200828495,1
0.120991453176976,0.0216477072126147,1
0.120594405651711,0.019941865048579,1
0.122728845258769,0.0196480678781927,1
0.135260450067518,0.0236088038745811,1
0.134624734660195,0.0240611058035714,1
0.12498979171662,0.0287821937725546,1
0.0641119578697068,0.016549826631902,1
0.0419088163824135,0.0198363829768596,1
0.0408339982668669,0.0178420034501165,1
0.0465537403811454,0.0217769714429696,1
0.0460589531476945,0.0149611762377791,1
0.046656002206567,0.0171768695528183,1
0.0500799536623697,0.0202827759479769,1
0.0526996482497684,0.0217700138909657,1
0.0599738459924688,0.0292745732243422,1
0.0670976031675717,0.0344496645079419,1
0.0656023338300968,0.0351167746591206,1
0.0458408422759247,0.0285897408177153,1
0.0455819845990188,0.0296236727040388,1
0.0206390615017326,0.0222480806548052,1
0.0166641722219832,0.0300616982026591,1
0.0156610407964884,0.0239468428294309,1
0.0136863823818928,0.022212330376068,1
0.0139731060573062,0.0198907702543465,1
0.0161463615975189,0.0214768501724694,1
0.016014521335993,0.020829616695185,1
0.0138314290461879,0.0192192755078357,1
0.0118072184397779,0.0162754027853093,1
0.0112322524020203,0.0182918593401272,1
0.0120717430222343,0.0199302822010628,1
0.0131415953984778,0.0343803048252729,1
0.00798737105597273,0.0327022498674708,1
0.0115756006735676,0.0554334864975396,1
0.0124343737183892,0.0511163069051433,1
0.012730619877357,0.048330666107689,1
0.0118184773843888,0.0488190053909953,1
0.0105525170183538,0.0392460478553266,1
0.00847800717386621,0.0310870842817365,1
0.00739089936971028,0.0323641550664537,1
0.00775640654166548,0.0246144150618369,1
0.00971483477920724,0.0295810521492827,1
0.0107889244628908,0.0361731736994401,1
0.0109689790352401,0.0365552242801052,1
0.0102107775637947,0.0364000766775767,1
0.00941533820517913,0.034491765106146,1
0.00811615414303964,0.0320821629450396,1
0.00590299918280849,0.0270148785458212,1
0.0058599693964726,0.0284280760928889,1
0.00446911097779207,0.0267651841427445,1
0.00411810224255036,0.0396951790565377,1
0.00402603104232717,0.0403488432723869,1
0.00392734082748908,0.0360227714375966,1
0.00405479289240172,0.0328505649831612,1
0.00368687499975934,0.061086422614415,1
0.00158995790336425,0.0474721046393983,1
0.00169668796074347,0.0567141882663525,1
0.00148682324680079,0.0592252228732261,1
0.00132409596603033,0.0542768390689665,1
0.0013298874645056,0.0575740384715614,1
0.0015055082674159,0.053754608282374,1
0.0019626136692621,0.0645505057298092,1
0.00191719984016384,0.0735676402838778,1
0.00178195680229869,0.0740922313224963,1
0.00196612327888578,0.0448046635554584,1
0.00178125402247424,0.03552626434548,1
0.00187804443497703,0.0289622808135887,1
0.00681015108145487,0.0399477435254877,1
0.00769267023953212,0.0278281330572627,1
0.00654209934115662,0.0250380313868,1
0.00651058498318544,0.0238077570652653,1
0.00725395991977293,0.0250867116217847,1
0.00673686497328366,0.023975891151083,1
0.00499720369774051,0.0204432825127506,1
0.00488679406559388,0.0238365924037026,1
0.00417810684683961,0.021057798300683,1
0.00338937571411673,0.0175957765798997,1
0.00295213796106745,0.0151114049590131,1
0.0109339859249965,0.0500176175250454,1
0.0110394682842977,0.0393296930118657,1
0.0125616886133719,0.0422726729304813,1
0.0132187637733932,0.0396417085927619,1
0.0124323616906308,0.0347509986988407,1
0.0289593756296955,0.0231730397929963,1
0.0539420359216189,0.0401055614292017,1
0.0661406022237507,0.0433780260338809,1
0.0644929124515183,0.0423266755768592,1
0.0598461214922405,0.0395824701499714,1
0.0589228950464903,0.039794899976854,1
0.0514080964079671,0.0380049610664917,1
0.0481938647649622,0.0360290339905727,1
0.0464934736722719,0.0374200723335481,1
0.0274124092565851,0.0124348640799966,1
0.0308556324753501,0.0280151927231747,1
0.0338169274836528,0.0258336927677815,1
0.0308949859336102,0.0252290208620031,1
0.0311315927887186,0.0245964304375571,1
0.0357857460836918,0.0266108808144052,1
0.0651187284093045,0.0362188116606965,1
0.0933479194114508,0.0473648910131433,1
0.130439223722296,0.0581310062284797,1
0.147299072075067,0.069611444526857,1
0.159613671719523,0.111151647273639,1
0.129610847087808,0.0942527617054897,1
0.0986702494032058,0.0633195425377194,1
0.078180499918051,0.0471025869697756,1
0.0508966724194618,0.034116402283136,1
0.0397275446470249,0.0325260661191499,1
0.0424889352833099,0.0346202192469948,1
0.0447948181970425,0.0360697161767408,1
0.0491595236572498,0.0343010205718641,1
0.0807048745759618,0.0483909346996591,1
0.100243583480542,0.0521699359840184,1
0.10675665787517,0.0575012743929391,1
0.111567619242955,0.0607223381846764,1
0.15122905001108,0.0856966850451153,1
0.151314186994601,0.067796824976551,1
0.119349222081044,0.036336457514425,1
0.0784643136665531,0.0265451885964305,1
0.065948146235223,0.0204091778611977,1
0.0638259568696111,0.0203553682326772,1
0.0685765946468758,0.0206939097250377,1
0.0709010128751075,0.0208352465194215,1
0.076397491381296,0.0206634379429421,1
0.0900558492067429,0.0262792041414487,1
0.0989405582139694,0.0309125976664921,1
0.099314486998372,0.0314058616476694,1
0.0756280632660883,0.0418221174042491,1
0.04292038067039,0.0267899426328466,1
0.0252144654755532,0.0165393792878219,1
0.024313424570631,0.0206774152759245,1
0.0270401664420557,0.0217940855646955,1
0.0281785467497049,0.0201443349108899,1
0.0264928303736277,0.0233168398231687,1
0.0291177432555027,0.0232785436722723,1
0.0349220503002636,0.0268541517487773,1
0.0364972836246905,0.0561859409126631,1
0.0199217824325618,0.0506637484437979,1
0.0186559462041613,0.06149413235047,1
0.0160141833590933,0.0538771829298181,1
0.0131260711720583,0.0454669767432757,1
0.0127732887541118,0.0466564688016669,1
0.0108109566174259,0.0570802498683448,1
0.00359763777912249,0.0317750407513473,1
0.00221325530397005,0.0301507070668404,1
0.00226196693409175,0.037905905111105,1
0.00160483358342048,0.0283921348405845,1
0.00170423939616528,0.0280396667878313,1
0.00195117567532988,0.0294037556702763,1
0.00227265743397123,0.0332913580097255,1
0.00244822365872543,0.0379492674116468,1
0.00232944626678832,0.0425026864861381,1
0.00178161824346456,0.0600541548253998,1
0.00176677060563442,0.0388377346138239,1
0.00196123326728669,0.0275041730862562,1
0.00446032998526016,0.0344151978309503,1
0.00882227743518559,0.046565189880902,1
0.00917668500876614,0.0465245504741522,1
0.00905906525968481,0.0458035084223947,1
0.00837540481965092,0.0424144293143583,1
0.00716754921178522,0.0376376159659423,1
0.0063078116835941,0.0292131610381159,1
0.00639433867641609,0.0248725096944868,1
0.00542923611569279,0.0260284774536217,1
0.00340796586756094,0.0192634123343038,1
0.00403316283134374,0.0250398803457193,1
0.00379527820230077,0.0149754302489129,1
0.00486502210516775,0.0194581659268217,1
0.0046976709293458,0.0165944429714213,1
0.0142496366337766,0.0182249105988128,1
0.0369189699293146,0.0323942875070066,1
0.0384771697949065,0.0295437378366931,1
0.0346157688071092,0.0277465389064386,1
0.0395885369123551,0.0291599584017075,1
0.0397335362979682,0.0264893416464449,1
0.0315187091985625,0.0238032329864724,1
0.0240073008493849,0.0203781294900354,1
0.0226384950563872,0.0174717319905342,1
0.0209041537945247,0.0163405030535727,1
0.0286967928322347,0.0294141687622105,1
0.0414027535796229,0.0291552917644253,1
0.0420269064560839,0.0246342047407847,1
0.0428873988732209,0.0259536434815975,1
0.0562406752953907,0.00887284695192912,1
0.102975985209238,0.0196766380183503,1
0.0996042857896521,0.0160015073231285,1
0.084900385616594,0.0132043562666485,1
0.0828983461596485,0.0140905615625866,1
0.0904263655886412,0.00792474476252676,1
0.145333268694214,0.015096838386736,1
0.151845653250952,0.0146267013167683,1
0.135775083257183,0.0147524780180677,1
0.10247832441088,0.0100043499434406,1
0.0900878964310292,0.0178163824373177,1
0.0849223785578906,0.0168386958273615,1
0.0884579090781007,0.0132819794102224,1
0.0897740928983394,0.0121282805958323,1
0.0833123953981443,0.00865318663308936,1
0.0792874404856407,0.00841207743434929,1
0.0747771349284307,0.0089343345908688,1
0.0970661157150572,0.0160736957994137,1
0.151245583026731,0.0245769261316441,1
0.180609097208784,0.0293230750554318,1
0.185624973558068,0.0295438511477243,1
0.143248743489531,0.023469825092745,1
0.131171308197012,0.0280552013287512,1
0.131808599281763,0.030241435072055,1
0.0887050111853718,0.0274117811860297,1
0.0969679620163585,0.0600138379317325,1
0.112515072057637,0.0649471637665096,1
0.129885753858816,0.0730730832894675,1
0.1011632188619,0.0682432783227295,1
0.0802487808161518,0.051056919977166,1
0.0432267655704633,0.0386353561279986,1
0.0384751570273448,0.0284355610617282,1
0.0422824892398773,0.014106720610137,1
0.0526120722739444,0.0187912467340128,1
0.056618618245914,0.0190846226380934,1
0.0643804577727664,0.0205735888575105,1
0.0708956881869375,0.0216005086416128,1
0.0796899623259951,0.0240392555888375,1
0.084090784951778,0.0268704853115792,1
0.0948877597913392,0.0278771313294861,1
0.0833935450548273,0.0187026778048897,1
0.0425351487565759,0.00690819609350837,1
0.0215231856237502,0.00851655526386338,1
0.0219048679656534,0.0079864843744465,1
0.0215684263182904,0.00789204562304755,1
0.0223368439971965,0.00890808547178405,1
0.0235961551871096,0.00980230964775981,1
0.0252888473899436,0.0107737338357619,1
0.0250583557479329,0.0111917839698265,1
0.0268445959007896,0.0152579611556912,1
0.0194503566001676,0.0180608872641758,1
0.0243129554392169,0.0441103371159119,1
0.0209133072946814,0.0968200782198715,1
0.0146387699719436,0.0780142656832164,1
0.0140099620275165,0.0977267341595974,1
0.0128999781153064,0.0931524369347892,1
0.0105382546083761,0.0827516996307903,1
0.00830199147385832,0.0758681751855969,1
0.00238812636411164,0.0522581885510495,1
0.000682128046768438,0.0424881662689588,1
0.000824510639578822,0.0482369675845742,1
0.000845782381675504,0.0488180592856357,1
0.000654597797377617,0.0436179550644345,1
0.000655793911924261,0.0447408827440027,1
0.00121706532888712,0.0378269747751321,1
0.00155716639403757,0.0341044683667374,1
0.00206683630663181,0.036881392485603,1
0.00246257944196332,0.04014107131348,1
0.00233597055901815,0.0416054291746628,1
0.00198653712144719,0.0469096005371186,1
0.00205787315833736,0.0501040850000951,1
0.00186873439428952,0.046762168294477,1
0.00153950080580906,0.0393754717551185,1
0.00234046253096917,0.034652283946123,1
0.00508818792036633,0.0539414188188005,1
0.0052820314976548,0.0602548982893288,1
0.00929168778380083,0.073865015933459,1
0.0108613965486138,0.0388573457702428,1
0.010744494187027,0.0348200497475427,1
0.010268956809743,0.0297234254944786,1
0.00941684463311032,0.0244625937636781,1
0.011662819119077,0.0233610810188833,1
0.00993025216668504,0.0171869420400059,1
0.00959869059285604,0.0185777395211448,1
0.0103306792538854,0.0209254762820944,1
0.0104529343198766,0.019033705048268,1
0.0115371008162733,0.0195441862218269,1
0.0182943825866217,0.0418412942347758,1
0.0155861001408088,0.0346423432803149,1
0.0130778081359155,0.0297221063817978,1
0.0164918559559523,0.0345131813761112,1
0.0246262858614986,0.0604899030937234,1
0.0257526500301817,0.0299024804237541,1
0.0276632270827512,0.0320423832389577,1
0.0214712076997482,0.02298096617979,1
0.0197491000331464,0.0203533017552114,1
0.0196620733212444,0.0207470909873573,1
0.0193332951876728,0.0212875264877347,1
0.0194375905919634,0.0195600160093879,1
0.0322551816600395,0.0251454974907376,1
0.0374915510540249,0.0166045609005072,1
0.0363124554646056,0.0160251047873748,1
0.0351610879130238,0.0232475081178853,1
0.0260772584786269,0.015349555326018,1
0.0227404501758593,0.011944294026273,1
0.0240866578792698,0.00866841509325912,1
0.0447689583540938,0.0108456988007137,1
0.144729808457136,0.0326525384468411,1
0.172990265903077,0.0188354674617222,1
0.181525670318872,0.0187827368472045,1
0.19809096509054,0.00651535721134842,1
0.474650750413472,0.0185362333390718,1
0.529952495820956,0.00958438689262534,1
0.510025101661076,0.00984547542642701,1
0.436932856771279,0.00789266584861438,1
0.371045080243482,0.0062078132367226,1
0.363039226333804,0.00674379913241883,1
0.357498054213174,0.00592144513408661,1
0.364820649505912,0.00874688367454029,1
0.282028523336213,0.00542009968427881,1
0.237891728935838,0.0102046755467421,1
0.103690223209717,0.00375900205196748,1
0.0733755407083004,0.0141068315409109,1
0.0645313002238143,0.013142928081109,1
0.0750488316323542,0.0153407620312815,1
0.108560603864276,0.0206220092049482,1
0.111657199010316,0.0225788922368717,1
0.114767293620841,0.0273074322079234,1
0.08267164270045,0.0227951677627959,1
0.0531192299484751,0.0183762673590925,1
0.0454370297087108,0.0114967362651094,1
0.0493813064946805,0.0162158976573975,1
0.0474819271009693,0.0186368684750476,1
0.0428440576766169,0.0150529004504761,1
0.0444121226729656,0.0183497011613611,1
0.0512182120577253,0.0170891066417311,1
0.0819465914353057,0.029049040508368,1
0.0989817588415978,0.033213069011021,1
0.121339696580308,0.0392791601300975,1
0.144181601289588,0.0435210544715094,1
0.144179730052802,0.0582812885353613,1
0.0803234066414775,0.0445931324043663,1
0.0494023415196049,0.0372615815360953,1
0.0410693879442289,0.0315579537553842,1
0.0201314538987511,0.0197940094825896,1
0.00997818813894272,0.0255081331767182,1
0.00927445732882917,0.023599764749911,1
0.00625716209064857,0.012967754193246,1
0.00657942579051049,0.0133048422026198,1
0.00735903137912911,0.0162013536090672,1
0.00731379220536357,0.0200548064712851,1
0.00684545110837238,0.0181671527098902,1
0.00821114701178236,0.0213663802116748,1
0.00853043055854204,0.0257777972431802,1
0.00733152056872,0.0272512815920067,1
0.00769879428282151,0.0238878419673139,1
0.00824958019920966,0.0238400052765063,1
0.00612825134695355,0.0228986248499833,1
0.00303556053772982,0.024225309562451,1
0.00507443994808301,0.0288882947915486,1
0.00639015892849938,0.0122303440787212,1
0.00988734595419103,0.0195036764970225,1
0.0121029920313717,0.0241618765865958,1
0.012590660608754,0.0258936210664477,1
0.0137260013517399,0.0275575761722536,1
0.0147562354902642,0.0335535104933389,1
0.0129626953505066,0.0299173994734199,1
0.0120953353814758,0.0264237389883388,1
0.0115470538712839,0.0219650611792947,1
0.00750560141408971,0.0191433370370538,1
0.00427858235830015,0.037268197689981,1
0.00568730142958876,0.046218544020494,1
0.00487988318069378,0.0250753402847626,1
0.00478756051014453,0.0267462698262091,1
0.00459487249480789,0.0278651203888669,1
0.00400126958104123,0.0191013592656419,1
0.00446124740974291,0.0189235303826443,1
0.00429105952747649,0.0211352715208271,1
0.00442292173365134,0.027009919950859,1
0.00600635013755432,0.015806519608786,1
0.0111316938079096,0.0247389155985424,1
0.0106933790160258,0.0212765146263081,1
0.0102911467319999,0.0260928197790873,1
0.0097093935312843,0.0235340571666089,1
0.00828212292738921,0.0177790940118233,1
0.0087125933184268,0.0110404039074565,1
0.016184159373973,0.0167116907452426,1
0.0156211979664515,0.0116606576110404,1
0.0138894688375555,0.00831449341898918,1
0.015735916509439,0.0140596219228226,1
0.0380848433261095,0.0214004368897181,1
0.0652625251182581,0.0309486711855126,1
0.0816247795717533,0.0292891891159693,1
0.120582012640612,0.0336952425478002,1
0.111004750824749,0.0296356691501343,1
0.0910201849839275,0.0275218143753879,1
0.0955241725352364,0.0247360267770872,1
0.0878577605779449,0.0152794838888401,1
0.0705304798967399,0.0101025225572952,1
0.0531508856803988,0.00547312118292884,1
0.0590449110905977,0.00802225324728817,1
0.0594296013054626,0.00699372830309866,1
0.0590828095396115,0.00862337269146288,1
0.0478206581437191,0.00702156480066583,1
0.0800461032275014,0.00944100353518443,1
0.115026733974054,0.0133850359138258,1
0.12491949828134,0.0170519435352406,1
0.174582872772053,0.0256602801573437,1
0.221411745376691,0.0342239854446978,1
0.276835437715721,0.0444738369611407,1
0.229595511853398,0.0261097644272758,1
0.22151956026814,0.0222234061340079,1
0.252236025876099,0.0212836329974208,1
0.209849764005801,0.0173795292635791,1
0.226028296685264,0.0220392470506684,1
0.235715107267373,0.0213861091037962,1
0.242673162275319,0.0210662803521466,1
0.243683598829531,0.0253742103975656,1
0.183983962216198,0.0175455868204952,1
0.110243729092612,0.00984268136167946,1
0.0776732670759456,0.00865613324933236,1
0.0990338418359858,0.0100358556932869,1
0.0958155709799566,0.00901419824691235,1
0.0882996071454667,0.00697708590631308,1
0.0898442810347164,0.00687411873115371,1
0.102839412163068,0.00962889117974046,1
0.104897129464857,0.0100672913780997,1
0.104594654947717,0.0107795396719887,1
0.100323562768915,0.0103498968505557,1
0.110291336695993,0.011358199273718,1
0.112619142754304,0.0122923835850743,1
0.100459882288102,0.0218667129446338,1
0.0940073151805926,0.025280767052804,1
0.0653541470279604,0.0254744023867283,1
0.0455343017661364,0.024442610027111,1
0.0449103672288148,0.0244370852363889,1
0.0430514412491799,0.023919920963765,1
0.0328229675426347,0.0171033971527991,1
0.0181712270737702,0.00824649475300766,1
0.0160898173744468,0.00754355487102499,1
0.0159856001107251,0.00719876194201941,1
0.0167031983205067,0.00857069052772304,1
0.0168568416457714,0.010747967910616,1
0.0178495095898267,0.013889448724574,1
0.0215852217347266,0.0204307607940078,1
0.0164253000683872,0.0167311194506151,1
0.0150974410355268,0.017988246095136,1
0.00882581530770293,0.0156417621126414,1
0.011187428890084,0.0299430547361783,1
0.0122686517710444,0.0399506374040926,1
0.0110375464549774,0.0357086395534355,1
0.00975136257260033,0.0328886157515142,1
0.00870259581991993,0.0300989954801667,1
0.00880559211268078,0.032610955003691,1
0.00914703081600061,0.036498128148608,1
0.00607607546372736,0.0417879455724302,1
0.00180405925402218,0.0225871495139203,1
0.00211524875059683,0.0355804725012741,1
0.00274959962621645,0.0400476988890135,1
0.00296789541218064,0.030967925659184,1
0.0037000396701908,0.04488650790767,1
0.00396311274477598,0.0464264534851357,1
0.00388342260035335,0.0489091310044356,1
0.00376487074515626,0.0543802378527839,1
0.00376700628395788,0.060464815068136,1
0.00370528997925841,0.057455602711267,1
0.00361646155010096,0.0545162189218773,1
0.00329922874369327,0.0506465610856882,1
0.00282744522555778,0.0504352315555109,1
0.00249784142840754,0.0794853266042835,1
0.0012987530810963,0.0432302697177939,1
0.000793827442338284,0.0349204468652261,1
0.000901090395164289,0.0401565021503632,1
0.00113832053778682,0.0308212081645714,1
0.00278450951861828,0.0534338766559117,1
0.00290515594432981,0.0372720068729819,1
0.00296025988287547,0.0378489393361225,1
0.00297471887102978,0.0359940045554139,1
0.00292305607497756,0.0286967178248865,1
0.00295840355135463,0.0309114410295872,1
0.00284535901840669,0.0346578983051509,1
0.00277582918102761,0.0263614800933049,1
0.00657830219517875,0.0346143217563086,1
0.00873787735541799,0.041334210939197,1
0.0117180819260656,0.0495715747991702,1
0.0121889696057171,0.0607958976471554,1
0.0132105983047145,0.0564388649396249,1
0.011852058816648,0.0300131765284236,1
0.0229726314529184,0.00666439501360805,1
0.0547808864066546,0.0205644658249391,1
0.0614264233453689,0.0234596806910121,1
0.0739422901955396,0.028063504807869,1
0.106263339448532,0.0281745660850398,1
0.190809862160698,0.047059993131076,1
0.222943524923406,0.0511560385324027,1
0.213368832077932,0.0471317873097874,1
0.214523483421024,0.0416228134581748,1
0.148933110946421,0.0259248910270245,1
0.111717047293346,0.0318164107660099,1
0.123317842885081,0.0352723305619564,1
0.129952761609729,0.0366323296369483,1
0.14243687956858,0.0235312157252181,1
0.190593271538325,0.0271854581518531,1
0.224394768867803,0.0249292159914946,1
0.225298715901014,0.0254980460002884,1
0.2253303236462,0.0249365051992788,1
0.229063386198897,0.0229739263669761,1
0.225883571560838,0.0257461243020113,1
0.208267932188495,0.0217977142657246,1
0.187636057633777,0.0198693872505368,1
0.133558442957099,0.0113445491262403,1
0.100784330883212,0.0128985901766229,1
0.0895014863253118,0.018125042077145,1
0.065720229337416,0.0120092600025881,1
0.0825577580309215,0.0129774706606235,1
0.116109390869791,0.0173451791398781,1
0.10896640976321,0.0205588663387717,1
0.0944418447333521,0.0149591285208006,1
0.121147945413782,0.0202674480420514,1
0.119849774827924,0.0133185881430668,1
0.145979148338033,0.0156371875939967,1
0.16296512407431,0.0106852405879348,1
0.207940008797953,0.0140783561019573,1
0.214871268093973,0.0103928675552094,1
0.300311784231536,0.0143754826780304,1
0.365673554941482,0.0190504546639145,1
0.374145838201682,0.0160560308605347,1
0.374925674044792,0.0168899203908991,1
0.364266727437529,0.0151418930914194,1
0.366688356186065,0.017743795914266,1
0.370912150180338,0.0195179513411143,1
0.358258793886622,0.0242900382131969,1
0.312920889451869,0.0213715401833666,1
0.298413841110563,0.0290003948265538,1
0.212075680619498,0.0272463697252159,1
0.107016899791574,0.01328273519922,1
0.10796363973294,0.0170559961955629,1
0.0716962491569301,0.0124686655855067,1
0.0756195921217074,0.0188391495473148,1
0.0777402472800443,0.0200369044869218,1
0.0897963330541305,0.0229232792071526,1
0.0924355489355596,0.0266771055852609,1
0.0952843102921103,0.0276598642512456,1
0.0511080508988378,0.0160494837688287,1
0.0358254634960479,0.0231668742401625,1
0.037160198230675,0.0223654245902692,1
0.0368071675425183,0.0330180220407898,1
0.0187907341851914,0.0192516027751776,1
0.0174897060599505,0.0261052336796386,1
0.0126466297557287,0.0230703814044475,1
0.0138995891318984,0.0257849539184925,1
0.0147850256178855,0.0224098921277002,1
0.0159138846831263,0.0245248129849916,1
0.0195629393756617,0.0306281641702119,1
0.0226104049716147,0.0335805279790107,1
0.0282579576099183,0.0544240243238064,1
0.026503658623976,0.0456249944806274,1
0.0239447942714759,0.0504337670453272,1
0.0264578266526753,0.0545068451660809,1
0.0265102039691136,0.0576431982812625,1
0.0173539726664626,0.0390876571339123,1
0.00557607814637827,0.0177820072368374,1
0.00710040252978831,0.0313948549915292,1
0.00746241477759054,0.0261037191117399,1
0.00761827107731049,0.0249251552205152,1
0.00788274498803737,0.026400768235283,1
0.00815138295817581,0.0306507975192961,1
0.00810427755442236,0.0307796858548674,1
0.00752421952864503,0.0277911004836408,1
0.00632259640255715,0.0257499643429566,1
0.00571519688067591,0.0278884064772524,1
0.00581828669322716,0.0320252236952238,1
0.0057842967159734,0.0124143386856483,1
0.0114116848022298,0.0232631186367906,1
0.0115375918412252,0.0210511437999213,1
0.0125612830971924,0.0231472308611884,1
0.0128848597661588,0.0265736841474852,1
0.013944018184409,0.0331541678080918,1
0.0143607325293467,0.0269393781883891,1
0.0156861213540773,0.0262373314260058,1
0.0152762128346435,0.0287619492935384,1
0.0148587017806785,0.0256790917533817,1
0.0132569148691615,0.0393990564927777,1
0.00647414847586868,0.0305305017266312,1
0.00643905437785081,0.0388870013995545,1
0.00705010871856307,0.0443461363878281,1
0.00616381847618344,0.0316556710237954,1
0.00537362750639146,0.0215997185829593,1
0.00395166934213323,0.018467116514795,1
0.003764170208989,0.0224352001373915,1
0.00401076280686626,0.0202509476014519,1
0.00678347483005705,0.0304542273311087,1
0.00564679250374929,0.0203453598638063,1
0.0176638204685966,0.0329132096780169,1
0.0240997027219749,0.0370842034924484,1
0.0277567693997326,0.039559584333006,1
0.024934117369053,0.0372994933296149,1
0.0226595865108076,0.0380822495677555,1
0.0201106296753805,0.034418627210914,1
0.0164161317721645,0.0261754311009001,1
0.0154359583309416,0.0157306571200845,1
0.0169733812582991,0.0103695239975085,1
0.0164912348247005,0.00443688685828436,1
0.0452122978286426,0.0169153366461,1
0.0705286860359478,0.0249263821814769,1
0.0878603841866718,0.030435368665758,1
0.085918995051124,0.0260870638049106,1
0.108977034401581,0.023878436558775,1
0.104555192607714,0.0135672532315464,1
0.0887599926862083,0.0106514195784316,1
0.0969064374028774,0.0118769828022483,1
0.0818046231524085,0.00673643075949605,1
0.0710240292656879,0.00605805500199935,1
0.114634332758259,0.00795454518143136,1
0.129651007272008,0.00446029962201529,1
0.136192940148349,0.0046889286787403,1
0.131999585789612,0.00445022707975026,1
0.124028068048155,0.00447873001364997,1
0.11838792746012,0.00618588207557665,1
0.116379468443962,0.00613255665852404,1
0.115962933435998,0.00569263420322809,1
0.124561333217277,0.00928140846255711,1
0.10649001890817,0.00625357504007003,1
0.0714957860113517,0.0056532657061261,1
0.0608898677781404,0.0173877063145957,1
0.0512584058278789,0.0156695977049209,1
0.0503481250468826,0.0155810762826903,1
0.0567061399094296,0.018498112284157,1
0.0544192558277574,0.0172783410686096,1
0.0445617094416069,0.0160595601812829,1
0.0575645541147587,0.0242878621530549,1
0.0549947749516088,0.015646849830271,1
0.062407610689206,0.0224054588113196,1
0.073499422466051,0.0219906921137401,1
0.0711716734113202,0.0198653414257497,1
0.0724496579824625,0.0200548974665753,1
0.0931658137257951,0.02330970375709,1
0.110037644955515,0.0170490470728588,1
0.111411144239849,0.0166211373592267,1
0.110270470346397,0.0161833024055281,1
0.0745536976256532,0.0113860145236122,1
0.050996587211126,0.0102496578244936,1
0.060563668665537,0.0141009343098292,1
0.0718232013380907,0.0230121950282516,1
0.067334555989316,0.0115042654976454,1
0.0704659961998106,0.00951518380777151,1
0.0755680803069332,0.0105769926770302,1
0.0777058662964198,0.0174054401144586,1
0.0553328231590452,0.0112967493389415,1
0.0549781775165508,0.0110182923344913,1
0.0567837916379151,0.0099817972778306,1
0.0718037055682339,0.0125548144831044,1
0.0818680705661472,0.0146182653205537,1
0.089934847780108,0.0154904607079645,1
0.0770674002372504,0.028188082964158,1
0.0560774999054122,0.0282240923162033,1
0.0565600658448168,0.0292221830411631,1
0.0561461309499783,0.0348353145823438,1
0.0315870148652136,0.0307584302550733,1
0.0162173180190208,0.0197552504530526,1
0.0110399830645938,0.0181060346319148,1
0.0113344168589648,0.0219882549835342,1
0.0117340366499786,0.0234538527714263,1
0.0118027049720141,0.0248864219223503,1
0.01208902472145,0.0254866592517614,1
0.0117654761533218,0.0233812716532561,1
0.0111647507485805,0.0479939525453811,1
0.00508827952340154,0.034695723314496,1
0.00439981313547366,0.0322332346049522,1
0.00437319596856036,0.0422805686568603,1
0.00413633406255469,0.0426704930825222,1
0.0041095430354097,0.0387948435649026,1
0.00413831298843248,0.0365090640173233,1
0.00416855102887505,0.03396864946209,1
0.00415198816379119,0.0293025302335924,1
0.0041713083249964,0.0329761461024752,1
0.00243687422767468,0.02589764145948,1
0.00207410864205392,0.0259564934924467,1
0.00153023601226639,0.0206075587828864,1
0.00131061463204695,0.0270428610787874,1
0.00090237563307059,0.0148560757299118,1
0.000951494722467534,0.0120113881759498,1
0.0017438622523783,0.0261375150085143,1
0.00394917326094826,0.0491394285205587,1
0.00458202200895056,0.0369622021782144,1
0.00493450514776348,0.0401869611475973,1
0.00614697094469489,0.0452436755427744,1
0.00668412814418588,0.0397148575759655,1
0.00660636229602492,0.0375084585294206,1
0.00686833976534664,0.0411737150132562,1
0.00681417222258974,0.044386248329943,1
0.00686646524227005,0.0526008377478788,1
0.00864377492290308,0.0212136693874433,1
0.0132666797154894,0.0322283818682143,1
0.0299013240888428,0.0398315833419439,1
0.0418290719792359,0.0290972904494967,1
0.0396627579539781,0.0294639718086869,1
0.0358892464422478,0.0246784831397818,1
0.0337225032625161,0.023635494827194,1
0.0287934625373064,0.0199187978082862,1
0.0250653031328198,0.0175341622713844,1
0.0197778526471055,0.012760534220036,1
0.0205072566253426,0.0172184159661493,1
0.0259494241553738,0.0210452456670536,1
0.0279096498737025,0.0251122762887459,1
0.0371539334442108,0.0386190707398512,1
0.0374393736236835,0.029588396906863,1
0.0368444777444588,0.0272412426714395,1
0.0412303224774883,0.0196915639495339,1
0.0418988776088688,0.00994238895439089,1
0.0425596411166327,0.0101389392304426,1
0.0499002428939396,0.0130962679310541,1
0.0530659477032698,0.0147464727062454,1
0.0524332968016284,0.012515739097526,1
0.0619269176385424,0.0132812024394895,1
0.0699438852520501,0.0172143798474075,1
0.0679104701564463,0.0202184039044512,1
0.0759592691356487,0.0218023607983685,1
0.0896458275614227,0.0332261235395893,1
0.129821234009909,0.0714228989604967,1
0.130208704842754,0.0629446633982037,1
0.136572969382927,0.0592577493206525,1
0.103190852408607,0.0278724326582274,1
0.070954545770244,0.0207744059355315,1
0.0719507746386411,0.0243436421509646,1
0.112916388527617,0.0142144866538241,1
0.141380671698914,0.0175696376560744,1
0.14619760198173,0.0192150644720129,1
0.145937353903729,0.0200193702282988,1
0.155502516786676,0.0170079520477083,1
0.161695870083887,0.0157244229693526,1
0.163474621837762,0.0168113065621855,1
0.159723808166957,0.0172263955642137,1
0.138504249440674,0.0121380545446063,1
0.119171561476264,0.00906822345798716,1
0.123362219452027,0.0147620797409486,1
0.132976989554303,0.0101966218666744,1
0.158583283861699,0.0134885078988488,1
0.202056732854545,0.0161441060136244,1
0.220504693282588,0.0118536913876572,1
0.324867420536572,0.019688684500142,1
0.40781069656801,0.0216783602862783,1
0.400776815202653,0.0171964804040247,1
0.44420770351668,0.0210604855026493,1
0.482903252995362,0.0226871372334661,1
0.486872940564894,0.0242998516637195,1
0.477195814129846,0.0273882075875137,1
0.458819016766715,0.024625617918403,1
0.409353170164125,0.0216964149796951,1
0.3997372655542,0.0480412592501777,1
0.248323106503914,0.0272659258539939,1
0.100153437228117,0.00828013375038732,1
0.114030463644749,0.0181286745601475,1
0.133065620669144,0.0206786613635558,1
0.146142916777788,0.0223009870106886,1
0.167263353327658,0.0240530365519484,1
0.178610150442787,0.0286692902355857,1
0.152442892646162,0.0280470715582751,1
0.119608070811231,0.0211509734584576,1
0.10749273419003,0.0202282631893919,1
0.0198674430047661,0.00207468833848221,1
0.00970604181585189,0.0132942024917113,1
0.018984052639416,0.0247177009999963,1
0.0273766257166586,0.0461270837044004,1
0.0295099337696986,0.054072349741049,1
0.0306444542168229,0.0540592078354358,1
0.0280901083666216,0.0418437023041312,1
0.0369677723973743,0.0355007646346836,1
0.0343573821056308,0.0434394632785418,1
0.0250577231622023,0.034155044574431,1
0.0155875118193166,0.024147096906565,1
0.0115883956642337,0.0201488325186304,1
0.0124153997921098,0.0225427443195994,1
0.0156446486846717,0.0266076293722497,1
0.015754079793409,0.0267444199597514,1
0.0133851570713944,0.0243799846353115,1
0.00357355765505258,0.00679000558445966,1
0.00275722752426123,0.0344062211921634,1
0.00413696856922703,0.058239485799755,1
0.00477847702894328,0.0330303560514549,1
0.00567337303897297,0.0368476548267823,1
0.00640394673311158,0.0423724619086679,1
0.00644924799174289,0.0504502458680825,1
0.00531889410498755,0.0506780739767421,1
0.0053023485639655,0.0526608355668543,1
0.00627487169359787,0.0597615422858591,1
0.00647594507224092,0.0407712089373222,1
0.00679842036055884,0.0347199069122894,1
0.00444936302658868,0.0244559766099446,1
0.00427483240592716,0.0355618543855581,1
0.00594667214185977,0.0426129523285197,1
0.00548127782692808,0.0352463088764656,1
0.00672489397121591,0.0409708355682855,1
0.00704372211819,0.038662163313562,1
0.00702991692444959,0.0368444102901986,1
0.00523720562815141,0.0225391035149302,1
0.00921778716963827,0.0239025309268147,1
0.0163317002096755,0.0334561819602326,1
0.0154737112080857,0.0317539117912126,1
0.0183749163199821,0.0364521683541729,1
0.0186971263738994,0.0313298361077818,1
0.0177812246524957,0.0292478713804068,1
0.0178797955824672,0.0293524486608022,1
0.0189174191061707,0.0279969141557767,1
0.0148279630790014,0.0173758929197978,1
0.00877337299864567,0.00927812995162245,1
0.0112191629862095,0.0113885036284093,1
0.0115687022536816,0.0077523304677381,1
0.0119940991064275,0.00599491510324498,1
0.0156911254317985,0.00860791838041077,1
0.0156905814994841,0.00982999096411922,1
0.0158681462419079,0.0092225876156136,1
0.0149821453474,0.00800797164936074,1
0.0185573433401902,0.00870025042727307,1
0.0253235335704303,0.0155932879956065,1
0.0200343739775423,0.0136106497891068,1
0.0202849382678292,0.0184871719122156,1
0.0147077596646408,0.0211233434558339,1
0.0123825779628839,0.0218673735047079,1
0.0146693942345442,0.0156409930993258,1
0.0171048573886717,0.016175362729989,1
0.0178356415462978,0.0160464821662743,1
0.0213829594426263,0.0204742888864718,1
0.0284619703390952,0.00991533793393635,1
0.0391162472689768,0.0119241940579726,1
0.0462134410000394,0.0131098879576535,1
0.0529316170759363,0.0127501683178414,1
0.0539186145692814,0.0121503325842904,1
0.0611598405383538,0.0142512404765141,1
0.062937607035057,0.0115970067736542,1
0.126925949807642,0.0159171584646753,1
0.1468725039996,0.0135763858362551,1
0.129838594695732,0.0124902174099755,1
0.147960341287323,0.0163144987162982,1
0.227560872921818,0.0272996329670734,1
0.265578573579638,0.0244577678110353,1
0.27091576745245,0.0270592799110163,1
0.25625588852706,0.0285653001074458,1
0.21379077540289,0.0244835343937679,1
0.124651078378737,0.00855737119962162,1
0.132885391175963,0.0118584596842288,1
0.11774309991028,0.0121332633243235,1
0.11518195189504,0.0101396782173619,1
0.109475042773524,0.010699084916312,1
0.11094733048285,0.00960138418888711,1
0.13501889633591,0.0138869949205927,1
0.138926978591125,0.0150873908975597,1
0.26711212196257,0.00836281016304647,1
0.494584437337848,0.0145358201399859,1
0.494617872860869,0.0144181162279831,1
0.481310808951495,0.0144631982391116,1
0.488256584238551,0.0147117092089349,1
0.487142751264049,0.0148840761378231,1
0.488074822398157,0.0156357210152081,1
0.474081831374098,0.0165674207518966,1
0.420912687705137,0.0128864550609821,1
0.416505629345826,0.0122456366141535,1
0.322972172600514,0.0248777888444211,1
0.058725644510994,0.00536277858684693,1
0.0655870354312101,0.0160096073333286,1
0.0674582062702694,0.017822444748965,1
0.0655414446148549,0.0200960993698653,1
0.0815457750502076,0.0202046805605171,1
0.0953142846299167,0.0181093864124189,1
0.0732820922186485,0.0138043757454821,1
0.072569752364015,0.0185802419286675,1
0.0830697526249561,0.0248617738213934,1
0.0622909697187408,0.018443404442547,1
0.0619226596281229,0.0181541643755162,1
0.0620567103450048,0.0186213255721299,1
0.0545071399915796,0.0135153760676431,1
0.0379183778495762,0.00856488053042208,1
0.0298569152051741,0.01046628971776,1
0.0279355488486004,0.0112604669550266,1
0.0232385521410316,0.0150541780556482,1
0.0239716962084117,0.0127032553103013,1
0.0252259276515117,0.011439064474826,1
0.0254650868611765,0.0126188631790609,1
0.0315017775644686,0.0143627962284061,1
0.0254984460323444,0.0105666633844279,1
0.0204371282612701,0.00944058605159911,1
0.0207971550702739,0.0101517129267963,1
0.0154908800404596,0.00853794638869161,1
0.0173503757195783,0.0159792596754631,1
0.0196821777972858,0.0175992721016205,1
0.0187017870867688,0.0218397489679879,1
0.0185456641306071,0.0253900533420979,1
0.0235645648525075,0.0311192118105882,1
0.0256661193439253,0.0421202395937744,1
0.0148534499850266,0.0557195634979203,1
0.010833116501331,0.088459217650187,1
0.00744487785076898,0.0624372671123597,1
0.00481374712880219,0.0521213367827195,1
0.00410859337479587,0.046052266351221,1
0.00263282722300378,0.0368455527421455,1
0.0017041864563569,0.0374149570368057,1
0.00229073879479879,0.0541390297279182,1
0.00566275281901222,0.0647526041548115,1
0.0129061395850376,0.102806641958527,1
0.0221588256656823,0.107665965592261,1
0.0322202184531305,0.0550397630533817,1
0.0293659536092365,0.0324144252973486,1
0.0304306287142398,0.033201332636795,1
0.0282850619642611,0.031891195912797,1
0.0253695866782027,0.030087278594635,1
0.0243861590201573,0.0304255211288001,1
0.0238039046655864,0.0259608069031776,1
0.0258490635131607,0.0316358035459609,1
0.029906686074194,0.0251854478967823,1
0.0366137536229654,0.0228357760139676,1
0.0313544905219454,0.0189223793815294,1
0.0410412398612146,0.0247203581968779,1
0.03317329126153,0.017479815603002,1
0.0304699196145507,0.0139187252731444,1
0.0272861219431641,0.0124358420281788,1
0.0230569804787568,0.00943335950439938,1
0.0238200769717402,0.00902598012121331,1
0.0242932082764858,0.00879261760170871,1
0.0229005374211644,0.00993738269757964,1
0.0314196187100134,0.0141341873346607,1
0.0408256550918864,0.0113888018676376,1
0.0426245136443073,0.012292331424659,1
0.0638707772735362,0.00894132109988315,1
0.153487456355233,0.0201216836870775,1
0.160422143813608,0.0103745973572923,1
0.168873901799005,0.0115436275900006,1
0.17158169412347,0.0106140136776574,1
0.175552100895552,0.0105168370522225,1
0.169796591095396,0.00596209899374941,1
0.191228195041766,0.00894034273916453,1
0.194571757081151,0.00946236011992273,1
0.180453602188111,0.00861498465404932,1
0.167260554531555,0.0132063045311198,1
0.0815693002748719,0.00387715758582954,1
0.079856226682263,0.0151522779866222,1
0.0911492625312017,0.0160674399157397,1
0.106329449485025,0.0215816361013269,1
0.0974514522769361,0.0225149958745654,1
0.0962251144142204,0.0686997471424678,1
0.0673464236797095,0.048174083261336,1
0.0501401674612642,0.0489158630749411,1
0.0435060629045481,0.0449484518253354,1
0.0303764799796868,0.0233653306946056,1
0.0327979559172352,0.0041935781904071,1
0.111819316802012,0.0207630529529195,1
0.131091704539277,0.0227935848128955,1
0.25122594751246,0.0172661039582092,1
0.478479343689012,0.0253635099184766,1
0.466462463617667,0.0229676444252904,1
0.504885760560285,0.0231059603103998,1
0.517357276624635,0.0184768645057171,1
0.464195013369609,0.0164242547516162,1
0.319694340283772,0.010923640906684,1
0.208613349017077,0.00669175834066418,1
0.218290384450387,0.00737963969422083,1
0.191993870825752,0.00596498172181818,1
0.176264079637032,0.0137954778095077,1
0.12330168618091,0.00859341694045536,1
0.238880887438431,0.0214157392771283,1
0.23922961926493,0.0229753434947792,1
0.190409181563261,0.0219198819092914,1
0.194319828877205,0.0214609733607448,1
0.164255958819235,0.0188262689148841,1
0.179864308589539,0.0235886935568046,1
0.190926914544138,0.0254996464891065,1
0.201004189595071,0.0237864127575613,1
0.224183109248342,0.0233563734102308,1
0.21138487565505,0.0311816968940593,1
0.2148337721475,0.0318749991511644,1
0.236746952607142,0.0446809039794971,1
0.142954659785576,0.0417417958485498,1
0.0639976355281106,0.0254024059701718,1
0.0384148214405329,0.0166260864797109,1
0.0719013241297475,0.0224316311322278,1
0.0807222887399166,0.0136685214809609,1
0.0806806634111129,0.017730648801442,1
0.0822886742416335,0.0185652178984368,1
0.0972440536035589,0.0198899654831354,1
0.105101211647976,0.0185876198753429,1
0.15007495291795,0.025037421902445,1
0.182574761952137,0.0308325098785085,1
0.196790548678144,0.0345334009434688,1
0.198324680097952,0.0334863373656551,1
0.115514344945686,0.027931834168171,1
0.0546817555893181,0.0274878858964846,1
0.0416580502268247,0.0196493480944028,1
0.0374538223822821,0.0175667422599295,1
0.0372466825282462,0.0259091609617363,1
0.021653979308859,0.0256522127591168,1
0.0268156801187715,0.036172195235084,1
0.0290802918120102,0.0399354697576232,1
0.0257194892862625,0.0351131150720569,1
0.0296746503892398,0.035577188657543,1
0.0309692609353457,0.031790929751188,1
0.0270737464138968,0.0337786408476231,1
0.00861585041504232,0.0148274668175357,1
0.00860690816248446,0.0260714498676697,1
0.00925687435644736,0.0242159417448809,1
0.0113252854454519,0.0249000366173026,1
0.0100895214893951,0.0220097775399283,1
0.010140476277633,0.020968449336879,1
0.0107756910279076,0.0222362144030689,1
0.00634776307178575,0.0177969172449885,1
0.00459321486789663,0.0128233332156398,1
0.00544627199506792,0.013564451309634,1
0.0077675287814055,0.0126271175911608,1
0.0223149297911373,0.0313842573057966,1
0.0261812609722675,0.0382201390765143,1
0.0266091962140162,0.038277229407086,1
0.0245573788619254,0.0378580309296109,1
0.0231724638534652,0.0362224845176819,1
0.0217278994645744,0.0348172923929963,1
0.0167648040681346,0.0286119602841081,1
0.0106532684504566,0.0192487129988678,1
0.0153444665582407,0.0275138179973433,1
0.0225810978760357,0.0489311060925262,1
0.0147470806685444,0.0416839152504766,1
0.0123306795784656,0.0309198709682628,1
0.013557954149219,0.0193982293751007,1
0.0166022305720797,0.0228546827559456,1
0.0150073985256444,0.0175010357339665,1
0.0151202759064805,0.0177306855145504,1
0.0138665652257739,0.011933132580062,1
0.0468503438038823,0.0185880122090885,1
0.0613342813438236,0.0107618587822255,1
0.055269122992143,0.0100752377766656,1
0.0551506190610589,0.0104529210318296,1
0.0548953783186351,0.0108406554807749,1
0.0538596218372902,0.0129214528866184,1
0.0490902398441559,0.00870511193348598,1
0.0582801185265738,0.0120389742467338,1
0.0653084618860728,0.0136208570055019,1
0.0647172545222284,0.0139112435557719,1
0.038172515046367,0.0160181997272032,1
0.0201101562012633,0.0293114825644278,1
0.0219153959523244,0.0330712226842739,1
0.0171772704326481,0.0257602316625789,1
0.0149834713057131,0.0228471556771734,1
0.010584928198655,0.0135400339546965,1
0.0118713297290371,0.0422609898686928,1
0.00865245445667067,0.0251859720581912,1
0.00812783920528506,0.0248226664830898,1
0.00813451513312021,0.0276945459219678,1
0.0088954473337065,0.0281225004318257,1
0.0093727380404695,0.0347407167758111,1
0.00839095422293243,0.0287307720226622,1
0.0117934640850557,0.0391025613456403,1
0.0133392586092029,0.0293374836146021,1
0.0110036811447858,0.0247803695836276,1
0.00633280376656852,0.0128553750344976,1
0.00638720185530661,0.0115527020382881,1
0.00700558916338957,0.00895600910594616,1
0.00755178165045792,0.00760482351028696,1
0.0103229849427505,0.00966600627129734,1
0.0110858978439749,0.0118212144068829,1
0.0113142730214102,0.0133433211861564,1
0.00928167308525954,0.00971493540396592,1
0.00930978449593952,0.0114856435887819,1
0.00930019179561395,0.0137485629338545,1
0.0071943265203847,0.0115451008185804,1
0.0107194038876189,0.0150546977185113,1
0.0195060871133894,0.0302769784449239,1
0.0218274719505912,0.0390119082730913,1
0.0253693180409859,0.0596651751861573,1
0.0268977454506452,0.0601291014165926,1
0.0252976958198819,0.053112744048828,1
0.0253438239089262,0.0494430631550219,1
0.0193714957445518,0.0334547954736059,1
0.0146134949729031,0.0266738034095018,1
0.0111228358313512,0.0204219467770371,1
0.0116550095148035,0.0362349868072684,1
0.0126963007226938,0.0423671373541028,1
0.0141336882622492,0.0484200450787262,1
0.0151942432909879,0.0530674001625082,1
0.0160564624793455,0.0563650042334926,1
0.0159457223002549,0.064970286010616,1
0.00936964963082056,0.0813978962769213,1
0.00156119670848924,0.121314397749648,1
0.000657238815816757,0.0785925507900783,1
0.000750016549132016,0.132599416246199,1
0.000736968926713209,0.122875864294132,1
0.000683942825799956,0.113784774837502,1
0.000591952025502365,0.0984468652355435,1
0.000468836025927599,0.0743909267281178,1
0.000401218788556518,0.0655618898603607,1
0.000390539565749533,0.0738410888329903,1
0.000544122172194184,0.0889269282217695,1
0.000538399303427955,0.0852560070679044,1
0.000516953723427995,0.106051773142958,1
0.000493376587981417,0.127951886514774,1
0.00049839570860248,0.132810222190218,1
0.000492898351631236,0.131164524685211,1
0.000496516660008976,0.127898316914659,1
0.00056124934270443,0.149168672237655,1
0.000617634423810416,0.152073465390857,1
0.000629950903905447,0.130364508890235,1
0.000742431564563443,0.13422684134277,1
0.000694000537946454,0.0833282858707567,1
0.000738548687276626,0.0898544562721601,1
0.000670208515194464,0.0834406333720714,1
0.000667171683494803,0.0818514813129094,1
0.000654293132210777,0.0823975540385485,1
0.000670326851452208,0.0923268300740661,1
0.000591851277758639,0.0827533580689444,1
0.000495522194632105,0.0785721965449596,1
0.000512924653087899,0.0922136397118184,1
0.000251193825397262,0.0599512831606053,1
0.000206739548751168,0.0926136573285732,1
0.000149478580998725,0.0763686151357188,1
0.000161607767876079,0.0728867052988558,1
0.000164399424468214,0.077090797396581,1
0.000179472150900037,0.0799085359606114,1
0.000171451214424072,0.0776067294885306,1
0.000173998520664645,0.0868887745637121,1
0.000186935917623778,0.0897340473773987,1
0.000200026374322683,0.088225151925836,1
0.000153534600170146,0.0870043868960602,1
0.000191566876130959,0.110620469993702,1
0.000173586562038602,0.124821375359385,1
0.000151419803248358,0.137471912924461,1
0.000168774159138342,0.147036474440289,1
0.000159347022466972,0.144823429667533,1
0.000158889728254622,0.142949977054284,1
0.000206638236342666,0.153229803215654,1
0.000239047127457595,0.149208583461972,1
0.000231350438346053,0.181432705456553,1
0.000171878437315304,0.210011834554612,1
0.000184774250211342,0.284726920088025,1
0.000182438997660304,0.2823333129589,1
0.000180649200465983,0.288981839035476,1
0.000158812404243128,0.291467681910431,1
0.000172815882714172,0.378052956262939,1
0.000175379755071405,0.33048089282464,1
0.000111648814549566,0.293516732217826,1
4.16433171360499e-05,0.227996706310042,1
3.65516827077409e-05,0.213262238792841,1
4.48318278767845e-05,0.189235742254621,1
6.1210133753166e-05,0.173641793401421,1
6.61082688845035e-05,0.152756944502273,1
6.91285328975382e-05,0.143744615953718,1
8.12925550734549e-05,0.159664717049263,1
9.74021782040666e-05,0.178161842247214,1
9.96337780492247e-05,0.206538243839393,1
7.52692338849957e-05,0.20822420718731,1
7.45741151503105e-05,0.213570870007687,1
6.65968089276798e-05,0.21075972522194,1
4.48106080292471e-05,0.172031570765263,1
0.000129438333351336,0.351064286731432,1
0.000198730271024105,0.4542582767848,1
0.000200192837044622,0.395593965459729,1
0.000190498704120853,0.386651289880854,1
0.000177542594551378,0.350001405686097,1
0.000185222346161859,0.368237032004194,1
0.000196176767426276,0.365673348204903,1
0.000189807246025739,0.344004008259821,1
0.00018511648643135,0.329193888764513,1
0.00018245152198431,0.387953302853665,1
0.000133405691256701,0.340047160075159,1
7.14477396887348e-05,0.20828165624778,1
7.25248031193577e-05,0.260255388134191,1
7.24433778309064e-05,0.265432151730556,1
7.14360354107919e-05,0.284285501292775,1
6.4905572164263e-05,0.266687484183735,1
6.88684882842867e-05,0.156416309821146,1
0.000889507934270224,0.123683794869543,1
0.00179166183829394,0.143510912264248,1
0.00226427744326612,0.150830352895778,1
0.00471304978729358,0.135021987795591,1
0.00803433080238051,0.131805646666196,1
0.0079139606725333,0.107291697155087,1
0.00994876264360952,0.0929843345059709,1
0.0110470275564711,0.0716482452341809,1
0.00915396559108756,0.0597057278382772,1
0.00682854385115502,0.0348674246418714,1
0.0057702004957178,0.0330133772602304,1
0.00481800861582629,0.0276606290074134,1
0.00336694538160201,0.0195299137355118,1
0.00488965199991015,0.027532728254283,1
0.00516693575580696,0.0235312946513616,1
0.00454794874442756,0.0225680595247935,1
0.00433236685633762,0.0261082629751553,1
0.00423485302557393,0.0235747250476558,1
0.00622143414377451,0.0349588296441507,1
0.0063158939722846,0.0382576450413023,1
0.0058445225725629,0.035914645487875,1
0.00616940494971115,0.0265004147916685,1
0.00790168787764045,0.032058645916442,1
0.00515824072140692,0.0234196204495331,1
0.00442789611509909,0.0242745122553319,1
0.00483522980781859,0.0242446432874311,1
0.00524034829027553,0.0272716565278387,1
0.00591655926005348,0.0347686397538999,1
0.0058727698825463,0.0266259878145541,1
0.00597744156674317,0.0263385122581055,1
0.00473941983530584,0.0227414414151565,1
0.00413872208151998,0.0322082722564749,1
0.00407059407319948,0.0313103703384159,1
0.00375697861609417,0.0317400286334978,1
0.00256380319687413,0.0258406288341467,1
0.0025206653069761,0.0269897992072942,1
0.00284052872782649,0.031166020942321,1
0.00275709660995172,0.0318902116305897,1
0.00257945001503401,0.0581442184125082,1
0.00292534154788922,0.119118835002656,1
0.00406960461636602,0.132713615580283,1
0.00500124847106434,0.139066684703447,1
0.00479939400700714,0.149435993801077,1
0.00402251358949756,0.0852828237380328,1
0.00664371205084018,0.0462418165428111,1
0.00652712392458982,0.0138894519739812,1
0.00712510617878628,0.014636983891424,1
0.00683055685578175,0.0139875740641941,1
0.00663044148945331,0.0133507801697866,1
0.00660644135589653,0.0129995858805931,1
0.00677681543153156,0.0116640444380179,1
0.00841518782086449,0.0144381999712721,1
0.00891727877895872,0.0151204258019402,1
0.0099667147576069,0.0185403320923054,1
0.00548477079612334,0.0168695703391766,1
0.00404210986218319,0.0442492528845339,1
0.00448459708140228,0.0594703915694446,1
0.00370111979121926,0.0443745357383141,1
0.00498720250527589,0.0448681269559468,1
0.00702861786141446,0.0471799100964863,1
0.00633709564536144,0.0463613109960527,1
0.00614221766134174,0.0443057847179196,1
0.00623275105156467,0.0404877190509542,1
0.00703749745763858,0.0406585397441746,1
0.00802642885387301,0.0445319075078571,1
0.00824245656931125,0.0455445349617003,1
0.00826044217663435,0.0428511844332358,1
0.00821265474575161,0.0440387795674671,1
0.00686501822450429,0.0446912617986173,1
0.00303928332287164,0.0250295601755027,1
0.0033486809087276,0.0295885780727633,1
0.00505775522757329,0.0441448807892779,1
0.00533639466596722,0.0527967172309538,1
0.00495368404805376,0.0480251312888597,1
0.00434294680769311,0.0427811827503733,1
0.00403011285308985,0.0385827394336771,1
0.00388864830158478,0.0369183583782881,1
0.00399258971391731,0.038292633453176,1
0.00450571066537879,0.0481689956302026,1
0.00506238926216903,0.0581805031218395,1
0.00508319159182747,0.0878702571915539,1
0.00274668590713727,0.0700742748213546,1
0.00140863251238272,0.0474471744210349,1
0.00119397384352347,0.0623250429801205,1
0.00111304830363261,0.0674920529467196,1
0.0010703305499695,0.0683435982035816,1
0.000896011713486518,0.091564409247482,1
0.000427854338038216,0.0675379288769355,1
0.00195548727552412,0.128104813139409,1
0.0025150669437399,0.0789783224744889,1
0.00254787322191999,0.0601287061441267,1
0.00363026757557497,0.048958961401763,1
0.00484614324021182,0.0506094140928906,1
0.00485768181198245,0.0474214571692265,1
0.00470837529935983,0.0456436080532223,1
0.00411355670332752,0.0430431612144182,1
0.00318433686065645,0.0349613930357036,1
0.00305042540699373,0.0413825948900922,1
0.00268958876438787,0.0374316841149811,1
0.0035203082357626,0.0502305131117028,1
0.00300614347434016,0.0405313690066325,1
0.00265931617961395,0.0560773577478444,1
0.00205049492428446,0.0477672537675763,1
0.00217578056862254,0.0469054613611209,1
0.00212440459384186,0.0434335226380393,1
0.00202101049291583,0.0351114158242844,1
0.00227650796296155,0.0363433372154986,1
0.00230083899025056,0.0317151370286965,1
0.0023893625267704,0.0297952439456591,1
0.00173323180757179,0.0271341714283288,1
0.00160802249328169,0.0307116654939983,1
0.00176493091140208,0.0322671346589026,1
0.0017694592137835,0.0267188898985593,1
0.00181254848878318,0.0308829376014596,1
0.00182408219714513,0.0315654610794208,1
0.00175941420807717,0.0329220422391079,1
0.00195668381989282,0.0348318314169241,1
0.00206978157297547,0.0421288346204065,1
0.00173551497960969,0.0446161266275541,1
0.00179325904589991,0.0494971431773557,1
0.00201688670751718,0.0578559609250984,1
0.00153956437760796,0.0577041448243955,1
0.000947336364129236,0.065838848623465,1
0.00105159709116453,0.0625959600598445,1
0.00113059489237957,0.0604637125578132,1
0.00103195767543863,0.0515822687921566,1
0.00104076355020205,0.0578939043884344,1
0.000986102949211575,0.0602319895868231,1
0.000925158967940802,0.0592737946149134,1
0.000946670392005145,0.0574075071457801,1
0.000911965524027557,0.0547958525561897,1
0.000930445885497403,0.0509977186286245,1
0.000952753620864123,0.052199420137392,1
0.000845949480059611,0.0475424332471526,1
0.000674782108679799,0.0589709952968233,1
0.000306474631707941,0.0609458086208804,1
0.000280351534784691,0.0680666902096535,1
0.000340581288381006,0.0846827327573875,1
0.000333052187657697,0.0876531732399042,1
0.000319187653179269,0.0952651657659441,1
0.000322151429781974,0.113106952660425,1
0.000281316597646358,0.131941392595457,1
0.00029046644082664,0.149053581698179,1
0.000404820411151229,0.247251827665733,1
0.000424848427883989,0.0885210925025686,1
0.000490551207801749,0.0589063656480691,1
0.000563619415726565,0.0648585622657632,1
0.000595480272377984,0.0563522677869265,1
0.000682212370564734,0.0616973148796564,1
0.000620666041126563,0.0583111493951031,1
0.000653984188011834,0.0564361057023999,1
0.000702670707384607,0.0545276698865415,1
0.00069578935129483,0.0499236993337738,1
0.000540108687090295,0.0343154685700941,1
0.000635649984183791,0.0567239045373547,1
0.000612568400078281,0.0795142238146857,1
0.000494773032925608,0.0690719434871687,1
0.000556856519398597,0.0829913015846315,1
0.000554622438307918,0.0826091120757606,1
0.000579551116248815,0.0871503770411824,1
0.000632606883257276,0.075569524366957,1
0.000625879115637247,0.0823716984073222,1
0.000650885075898293,0.0932234922710109,1
0.000557724559699193,0.113869116957089,1
0.000486303847165689,0.105554873198121,1
0.000518785559975823,0.10511538891305,1
0.00069825223709892,0.134873793483018,1
0.000827695382922235,0.187130303387293,1
0.000853035163682753,0.190020279080546,1
0.000886637456790343,0.194501893558416,1
0.000805490398577051,0.350454083020552,1
0.000569483721592904,0.276655211341309,1
0.000332047702577404,0.24494153651109,1
0.000312144963798412,0.260977138770456,1
0.000195896662124408,0.18878537345135,1
0.000303693055001293,0.159736731885224,1
0.000648161416492971,0.211354846397995,1
0.000607354216298737,0.121485627418946,1
0.000634350947663655,0.131611889413635,1
0.000691609494875965,0.142629052679133,1
0.000680806380744898,0.145892995855989,1
0.000767256850936293,0.163106845630944,1
0.000819660222371396,0.164167819060185,1
0.000786784742142099,0.16406772934425,1
0.000793881795989107,0.179645931886823,1
0.000737753668580359,0.275439876756335,1
0.000222378390781252,0.180171052822241,0
7.25644578675303e-05,0.261722215027801,0
7.68992754305661e-05,0.294269117909196,0
8.11375581689254e-05,0.326353123009366,0
8.03517427932733e-05,0.347849534196831,0
7.22461209052958e-05,0.334203734623624,0
6.91919316511985e-05,0.445152189568399,0
2.79759546305777e-05,0.323907319074036,0
1.47077565672704e-05,0.381172873468707,0
1.55788005634949e-05,0.434045478927073,0
1.83688329376152e-05,0.490017264419209,0
1.78602206927312e-05,0.469755604919082,0
1.87140505248331e-05,0.501261552208423,0
1.90217659629876e-05,0.502520781513259,0
1.89885330773433e-05,0.473285532763157,0
1.91367377815887e-05,0.472009105232089,0
1.3964757329876e-05,0.42330577264709,0
1.17008008150642e-05,0.511703318024669,0
1.73735227440923e-05,0.584959447027697,0
2.30332102843017e-05,0.528824282053562,0
1.94507576836327e-05,0.46734577070648,0
1.9134587275769e-05,0.478021957733361,0
1.87512587411982e-05,0.475256647882796,0
1.90972417745174e-05,0.479027314974418,0
1.87149874462119e-05,0.509546344706301,0
1.71924628184709e-05,0.474110298172891,0
1.68067672970841e-05,0.469345926668134,0
1.69377201580005e-05,0.472299168317864,0
1.13474453914578e-05,0.416485728785154,0
4.27888557211978e-06,0.312923692652064,0
4.26949716984708e-06,0.316943245062724,0
3.74885548942375e-06,0.298047829671336,0
3.52817273829097e-06,0.311141821146549,0
3.92417701145603e-06,0.321888003521848,0
3.93379201228972e-06,0.321267635145563,0
3.82588382381179e-06,0.335979823960665,0
3.7303452303758e-06,0.337037199391029,0
3.09144840716749e-06,0.334895675547418,0
1.87269005297573e-06,0.304254079111303,0
1.88288349940466e-06,0.323897186366781,0
1.26134981273697e-06,0.311329019928258,0
1.00972371107379e-06,0.301586122748148,0
1.56252093094228e-06,0.349286481614918,0
1.46309666934158e-06,0.329559242325851,0
1.30934038757245e-06,0.328555393219185,0
1.4765983849846e-06,0.332697230792796,0
1.42220164729028e-06,0.31802874602114,0
1.49754122057831e-06,0.326876688333315,0
1.64339254438776e-06,0.341261618137896,0
2.46154540120883e-06,0.401073064177789,0
3.22276305824206e-06,0.447083626632935,0
3.53620608465779e-06,0.469424992142628,0
3.2882760340417e-06,0.432554977309009,0
3.86571074502482e-06,0.535419543652675,0
4.74127694378587e-06,0.601262019427441,0
4.7662708173948e-06,0.597331441759587,0
4.53915050406447e-06,0.595222787664403,0
5.01795622891997e-06,0.591541171230514,0
5.97502412118985e-06,0.651490842680543,0
5.62317848245289e-06,0.600008800071059,0
4.89734439132443e-06,0.562569474056073,0
4.34130658526085e-06,0.517318332807079,0
4.21571987132909e-06,0.548960899060742,0
4.12906048755647e-06,0.444132692670733,0
3.92432633275565e-06,0.391458748188357,0
3.44005572743937e-06,0.373399771052085,0
3.38950052439479e-06,0.373133361308987,0
3.43801825923898e-06,0.371527356983645,0
3.57001881142347e-06,0.367236379197868,0
3.25996918131787e-06,0.361718928523686,0
3.26144146142158e-06,0.355791662677396,0
4.20309105730207e-06,0.403193751858831,0
5.55618886553028e-06,0.448901288864261,0
4.97420578589502e-06,0.489417169912528,0
4.03983403340397e-06,0.479168698378234,0
4.57266249494167e-06,0.501240236722935,0
4.37230819900861e-06,0.471990311423842,0
4.17283866666395e-06,0.500582091866011,0
3.01702848562196e-06,0.443747930151943,0
2.73468475978552e-06,0.422605570893415,0
2.66703750115782e-06,0.416506563898118,0
2.85521164472579e-06,0.438823559232894,0
1.27661338016286e-06,0.298315059409967,0
1.98143555715245e-06,0.363354692544575,0
3.43440733528793e-06,0.484398345180937,0
3.24392621252903e-06,0.445967000715377,0
3.60185163544306e-06,0.440964186884132,0
4.06973579809322e-06,0.43301421065651,0
4.22761167310041e-06,0.41471631470488,0
4.38543312258718e-06,0.400453725078833,0
4.58421047395418e-06,0.392983187264981,0
4.68510841118475e-06,0.389613718716941,0
4.66627857664508e-06,0.405169053829141,0
4.56006089367486e-06,0.402025796674257,0
3.25188768929837e-06,0.343921976176203,0
2.83708986527392e-06,0.33512065753857,0
2.64811905070671e-06,0.350643357808529,0
1.60340374213964e-06,0.303423298712595,0
1.55586008455839e-06,0.318525233719487,0
1.13395484577736e-06,0.30232762503622,0
7.23237016936043e-07,0.26251311992025,0
1.05909044914839e-06,0.280589971150634,0
2.19944343350914e-06,0.381836415719198,0
3.71602311978873e-06,0.489818979305118,0
4.18845059230869e-06,0.510853512338256,0
4.64780198466585e-06,0.487820223057056,0
5.25569021649557e-06,0.481634889284852,0
5.27198385667174e-06,0.471483331023644,0
5.79265240097374e-06,0.472575438970072,0
5.26558746249606e-06,0.452504535084724,0
3.75067822103556e-06,0.40050071983198,0
4.09050558844252e-06,0.454851405212423,0
3.92732374851656e-06,0.447118634056323,0
3.24440069142501e-06,0.400444164085395,0
3.0086727727111e-06,0.381647128051788,0
2.55785205735769e-06,0.39144110255208,0
1.11768667395369e-06,0.289055517576479,0
1.16194299521333e-06,0.300796337868066,0
1.18480380707959e-06,0.323217555982204,0
1.05926715764899e-06,0.297700430493056,0
1.19856770720079e-06,0.317504171741828,0
1.18300148503794e-06,0.297212937630567,0
1.63628146637501e-06,0.337402377779148,0
4.78614537770947e-06,0.494189531965594,0
5.41214963244563e-06,0.4258687638586,0
5.47821820209957e-06,0.431271404438783,0
5.71819567242562e-06,0.447144962373761,0
5.7106526790649e-06,0.445416090778345,0
5.88782955313309e-06,0.449201100585438,0
6.02310069532523e-06,0.465326033061687,0
5.38598090024683e-06,0.442022430041323,0
5.11354052583786e-06,0.451285367713413,0
5.02622821026096e-06,0.453399189630247,0
3.39553844278693e-06,0.388789264860607,0
4.61830195707125e-06,0.450259677548816,0
5.24539419889353e-06,0.40939031814789,0
5.10607882187623e-06,0.388956989723259,0
4.84139199083806e-06,0.38006546573756,0
5.20501953366087e-06,0.400009708494137,0
5.34492574156814e-06,0.404034369505006,0
5.41919703957713e-06,0.402020652700048,0
5.46419316414481e-06,0.402378828065822,0
5.74495052561358e-06,0.410385379056781,0
4.83479812971008e-06,0.378869588824855,0
2.15097244879148e-06,0.317947857971957,0
1.22041048272994e-06,0.299501042522352,0
1.35591415446926e-06,0.321710031663235,0
1.4796183036049e-06,0.318297863909433,0
1.80927088974539e-06,0.340297414246861,0
2.12614342171075e-06,0.335369359389447,0
2.26788352543913e-06,0.354558452559897,0
2.46272339973256e-06,0.363885576893609,0
2.36833977863859e-06,0.35869124364047,0
2.74795621361137e-06,0.388087474716091,0
3.38352156698311e-06,0.357110402079174,0
4.01527975053691e-06,0.371832702580887,0
4.66149889953115e-06,0.375442772989118,0
4.5935465439957e-06,0.360443395711392,0
6.37512496141125e-06,0.412911537438584,0
6.22577924008551e-06,0.398032272331688,0
5.89163585074718e-06,0.384303466446494,0
5.57996025821898e-06,0.37538327516307,0
6.61496619349548e-06,0.383845066131922,0
6.19297739758535e-06,0.369553445649059,0
6.25510883904725e-06,0.413895162085846,0
6.0893552188406e-06,0.406832389237178,0
4.66924773300116e-06,0.385838065958229,0
4.26724688390657e-06,0.389203386727127,0
3.4232591745216e-06,0.367231058753546,0
3.07223462849178e-06,0.377900781970574,0
3.95778668916476e-06,0.420626615073078,0
5.42026758258619e-06,0.487139616757041,0
4.6958757677489e-06,0.50420380650274,0
3.42099754993101e-06,0.461497797140086,0
3.3615706381762e-06,0.472654970871421,0
3.22470004855861e-06,0.482908937249535,0
2.85822510903759e-06,0.375497530116487,0
3.04834042950059e-06,0.359817797390725,0
2.95589746197934e-06,0.353758867236012,0
2.87561353948994e-06,0.357567936344895,0
2.57577061331183e-06,0.347630517220497,0
2.18081664802644e-06,0.314110639854618,0
2.39124385181596e-06,0.321270820409315,0
5.75453499931241e-06,0.463079762527044,0
7.15433705613384e-06,0.503476372717013,0
7.25032012465328e-06,0.51708160343176,0
7.00417721973179e-06,0.54643853443848,0
7.03989414194916e-06,0.589311077845766,0
7.92776713707473e-06,0.600124421115765,0
7.55510303901348e-06,0.531724281864208,0
7.2135745252118e-06,0.504455211701801,0
5.8588821538997e-06,0.455051099061299,0
5.6244510278743e-06,0.45440231272181,0
4.01434736461814e-06,0.4168212488027,0
2.79383134522201e-06,0.343730885560131,0
2.55627790384396e-06,0.310909973758623,0
2.43433264099809e-06,0.318382055181955,0
2.21301754207195e-06,0.301156397672379,0
1.46157920907829e-06,0.262319321521739,0
1.80578765643841e-06,0.328505863289269,0
2.30375412997537e-06,0.380210025724142,0
2.64374250621359e-06,0.402584933308526,0
2.47580070098076e-06,0.374012567752445,0
3.44147689639729e-06,0.441109027387265,0
3.16450420188707e-06,0.426658848502897,0
1.92627267559374e-06,0.380843499275697,0
2.36668677789656e-06,0.418253344678841,0
3.51354343750691e-06,0.484507320439044,0
4.22002698839552e-06,0.552927540630611,0
4.39350484592353e-06,0.550221065384388,0
4.38665856900052e-06,0.551799003030064,0
4.14444668684409e-06,0.533850918554068,0
4.58147053277065e-06,0.479746784224565,0
2.71263631858786e-06,0.322583825421878,0
2.15307916997779e-06,0.257003243816078,0
4.70625359807234e-06,0.36576321509059,0
5.49370016937022e-06,0.400091076917301,0
4.88743266673998e-06,0.382898246010496,0
4.85819831243898e-06,0.379877539099811,0
4.72277366236873e-06,0.373428984877294,0
4.41595066319658e-06,0.36128084608245,0
4.3494062191205e-06,0.366774746829377,0
4.09706595694256e-06,0.419814654910764,0
4.69652241968544e-06,0.437399015006407,0
5.07992369605753e-06,0.513754243613404,0
4.12740050918361e-06,0.470335323289316,0
4.04936338381931e-06,0.430856671992904,0
4.35126924655031e-06,0.412424958253735,0
4.17167287899415e-06,0.382952975862595,0
4.27886376702345e-06,0.363491871897774,0
4.40360147772479e-06,0.357838581669316,0
4.45341216756052e-06,0.341482584149108,0
3.67241432266949e-06,0.300112785971692,0
3.18874013034782e-06,0.311730647598462,0
2.29817690965834e-06,0.271003763597812,0
2.37088033402134e-06,0.270626484137899,0
2.50399817934142e-06,0.294441046717743,0
1.80269743818756e-06,0.274114346093259,0
1.65908732939853e-06,0.264903286883554,0
2.12663307695377e-06,0.308723773353685,0
1.98987290834395e-06,0.301708286503976,0
2.866850332939e-06,0.370109533396297,0
3.7706342451901e-06,0.444495765800601,0
3.99528447720899e-06,0.465288667968973,0
4.43972467249683e-06,0.48767464778956,0
3.31796463210929e-06,0.436994572181969,0
3.08215908725248e-06,0.42981355365545,0
2.65947863368698e-06,0.399110478994172,0
2.36673474910847e-06,0.382290601990367,0
2.22978566114411e-06,0.399819487412463,0
2.98858208028167e-06,0.417539312410037,0
5.03817042541497e-06,0.515296972721885,0
4.32363782849018e-06,0.480022892190564,0
3.85543757916373e-06,0.437800390260302,0
3.93895842459204e-06,0.42424223444563,0
4.23916662974374e-06,0.439183127855596,0
4.15463960995071e-06,0.434869364706886,0
4.52296868042223e-06,0.445183952797564,0
4.83793945910671e-06,0.440815443563108,0
4.5521107555556e-06,0.42347003502245,0
4.41808424826156e-06,0.46762866208983,0
2.82389376986096e-06,0.409551124993765,0
2.7788435686544e-06,0.406869370949406,0
2.73229841004397e-06,0.416889963344144,0
2.28307731655679e-06,0.391687260493169,0
2.00321274295186e-06,0.370611555124372,0
1.97230619942407e-06,0.371515191737245,0
2.17711344490776e-06,0.368086914190686,0
1.46314917601352e-06,0.331614295210114,0
1.87313295809223e-06,0.347210441373156,0
3.2220234293748e-06,0.432246748634755,0
3.41098342861423e-06,0.421775174563232,0
3.71929632640792e-06,0.424783826318503,0
3.41931035879794e-06,0.415396472754713,0
2.49957157034714e-06,0.366303038888707,0
2.93008720556408e-06,0.388188261146972,0
3.01453799474036e-06,0.380917878448319,0
3.24478533332414e-06,0.402428602208574,0
3.03517730339328e-06,0.405091874550231,0
2.792468788363e-06,0.422354936645064,0
1.748438508702e-06,0.343643576615226,0
1.82478303526936e-06,0.363736020655218,0
1.61440397713251e-06,0.367406863080802,0
1.74764532651816e-06,0.361491692820701,0
1.90136951118551e-06,0.334205544110613,0
2.10916248489848e-06,0.348531099616517,0
1.99910989602778e-06,0.350616443854596,0
1.9446020395626e-06,0.353551688784166,0
3.2562956331302e-06,0.417154632599002,0
4.32562784880097e-06,0.395653393399863,0
4.37295014104435e-06,0.392677311099152,0
4.30498801682576e-06,0.389761510690081,0
4.37327808969305e-06,0.386772685481197,0
4.52326784634378e-06,0.376966916572534,0
4.59965074988066e-06,0.415333160632794,0
2.67859245780115e-06,0.33301415883613,0
2.28566723867762e-06,0.311414099637003,0
2.57491236472057e-06,0.304817451245784,0
3.00341512788577e-06,0.349914358912351,0
2.55014177529799e-06,0.384825020277595,0
2.43286472191365e-06,0.383486681233845,0
2.3500521060139e-06,0.370449824842299,0
2.87296203977709e-06,0.388278888708345,0
3.04965030524688e-06,0.380283102587216,0
2.98630650042943e-06,0.340913421793396,0
2.95621197868869e-06,0.323888577257481,0
3.34304485389967e-06,0.325875198235344,0
4.09526136717089e-06,0.362690480969868,0
3.65609626078544e-06,0.331239420422785,0
3.12000505907478e-06,0.307043277447315,0
3.11708683942372e-06,0.296143136590201,0
7.88916670891966e-06,0.400423014711789,0
9.62922316415444e-06,0.442383853239418,0
1.04116564821466e-05,0.448049356976323,0
9.83778472390259e-06,0.458041936719077,0
9.53637270299311e-06,0.45760030278422,0
8.80038947339144e-06,0.425163868386809,0
6.88862346672004e-06,0.364556177348232,0
7.28357673424235e-06,0.374180379132676,0
7.23145191314408e-06,0.350813956875178,0
7.43953794735163e-06,0.361622180755433,0
5.5674788466431e-06,0.350998521372608,0
4.88753244686076e-06,0.323768978965026,0
4.34077488979212e-06,0.336483676269528,0
3.99286411151717e-06,0.325613299851996,0
4.14696561157128e-06,0.335562547460697,0
3.86570010413781e-06,0.358705126709207,0
3.49180375647317e-06,0.367109548405904,0
3.37700934413576e-06,0.381457728107799,0
3.80580429559168e-06,0.409881087875877,0
4.11291913417302e-06,0.395851018024723,0
3.69973715500646e-06,0.375964752840564,0
2.73026948944133e-06,0.33698009855589,0
4.53882185765269e-06,0.419111722892424,0
5.3812652428957e-06,0.448660203730936,0
4.91689222407581e-06,0.421950290934094,0
6.3347236067407e-06,0.459743797192669,0
6.78330991026373e-06,0.45742949200565,0
6.61469546141954e-06,0.449284417721095,0
6.0932391425976e-06,0.463709942309337,0
5.45213232926679e-06,0.498785307299278,0
5.82582126685521e-06,0.55552003208558,0
6.27042561090817e-06,0.606283142020527,0
4.49186990316525e-06,0.54797991494677,0
1.77831550280182e-06,0.357321791245494,0
8.81872581499112e-07,0.271927400944723,0
8.51549193467368e-07,0.288046555997239,0
8.1904407471796e-07,0.295937847266982,0
1.39013856145352e-06,0.344803086340125,0
2.19782392539506e-06,0.36680427721587,0
3.45393283962068e-06,0.371524513108469,0
4.0526603143833e-06,0.348897532735448,0
4.01291224039857e-06,0.345437670268723,0
3.9432161749204e-06,0.328953725926111,0
4.37555140181527e-06,0.346574463180039,0
4.34883544891915e-06,0.343546193281286,0
4.61361926902576e-06,0.342031796279818,0
4.10095092734418e-06,0.299782603722079,0
4.7261229251639e-06,0.294176093229283,0
6.07886783971323e-06,0.355114031683138,0
6.49859326662507e-06,0.405931590006367,0
6.19910079195507e-06,0.417874217984059,0
5.06171853391732e-06,0.376433185193424,0
3.5564208044751e-06,0.328239431872225,0
3.76997206802497e-06,0.34091432877919,0
3.5791882905291e-06,0.331838271169436,0
3.35218572471891e-06,0.325518470918418,0
4.27492140560831e-06,0.380912504627031,0
3.82149681287243e-06,0.402041599473075,0
2.50999109201475e-06,0.331660933671191,0
1.97399182059019e-06,0.280780767815058,0
2.31503608681274e-06,0.296963924589897,0
2.49776070070774e-06,0.312203957223443,0
2.95092241120235e-06,0.29492739901357,0
3.61544737466142e-06,0.299901066567784,0
4.26655121411349e-06,0.329938306607201,0
5.08155227509168e-06,0.375496478837918,0
5.12100188091794e-06,0.388824250205313,0
5.09447851063255e-06,0.392906582215593,0
6.0132404307681e-06,0.42742027668133,0
5.01608901491167e-06,0.430876182230625,0
3.74517007926367e-06,0.408206929469286,0
3.7470217680434e-06,0.40710696127917,0
3.84190917408281e-06,0.467251619761257,0
2.62478846984527e-06,0.415712248551037,0
2.72907474460362e-06,0.41422326602334,0
2.61899790846581e-06,0.393941657282058,0
2.81332004255216e-06,0.402531671943338,0
2.88350803100337e-06,0.386936083697021,0
2.85830046745048e-06,0.379634390321198,0
2.43516995669689e-06,0.341068963577572,0
3.43374707697129e-06,0.389669891655708,0
3.55496544512614e-06,0.385091216314273,0
2.9893557250992e-06,0.372216912260153,0
2.51333058612677e-06,0.350897608340102,0
2.16587963372307e-06,0.343515654429055,0
2.37786267474541e-06,0.355978604506929,0
2.26948750832463e-06,0.338756155398347,0
2.15770254816129e-06,0.352179948969874,0
1.54727480759344e-06,0.322758362011866,0
1.51645548445094e-06,0.320056741941307,0
1.35654685114416e-06,0.314473091871454,0
1.4914302115033e-06,0.344024210701373,0
1.96449386951357e-06,0.395347647735283,0
2.36767969476271e-06,0.432173934291424,0
2.57930216671226e-06,0.405418713002437,0
2.03027897291531e-06,0.351285327062248,0
1.82440537100105e-06,0.333806874095797,0
2.06618725665799e-06,0.32644314293948,0
1.95339333107761e-06,0.270641462940885,0
2.89422828855947e-06,0.31895052485106,0
3.40917273341559e-06,0.343616712930163,0
3.64614895028379e-06,0.323051651936592,0
3.30170326347567e-06,0.300673416729843,0
2.75726524533346e-06,0.276888014976414,0
2.53589013878223e-06,0.279099282212798,0
2.73531501428963e-06,0.303054384385718,0
2.23016018547855e-06,0.274464793371491,0
2.31493142235039e-06,0.279297737880056,0
2.27368891428409e-06,0.287428853947255,0
2.84568368983662e-06,0.324722986012281,0
3.03300080589872e-06,0.29863192009745,0
4.99565763965729e-06,0.392711370406556,0
4.92183430554715e-06,0.393945571937348,0
4.81340000370514e-06,0.387681624568836,0
5.12240909461422e-06,0.402019482888947,0
5.27159781924645e-06,0.412252520415078,0
5.70759508123814e-06,0.441042575152203,0
5.89666602480767e-06,0.463754546709816,0
5.90387583629659e-06,0.465142434969559,0
5.62297264234361e-06,0.42030828784573,0
5.26288014173663e-06,0.449569869546617,0
3.54353172481837e-06,0.373889213660303,0
5.1787522424267e-06,0.455662004772049,0
5.31326212509601e-06,0.435515467846377,0
5.26116067906101e-06,0.429017026664524,0
5.78267578442263e-06,0.446574830999728,0
6.38452016687401e-06,0.478433612672095,0
5.85323027293285e-06,0.471151122768608,0
5.45510392779366e-06,0.482732723653271,0
4.94817486190498e-06,0.507242479767673,0
4.40944175472387e-06,0.500761305732147,0
3.95561891370875e-06,0.496772823816172,0
3.11701793531934e-06,0.448940523493235,0
3.84193010697528e-06,0.519147156792537,0
5.58550189261882e-06,0.601145556173409,0
5.07982461369984e-06,0.554825730048548,0
3.64074983399352e-06,0.46628205233004,0
3.81841549110088e-06,0.494182068256694,0
4.72841437912625e-06,0.550307139047473,0
5.03478487893952e-06,0.504808493581925,0
5.377083025421e-06,0.486941838762014,0
5.14779598327928e-06,0.474862596072376,0
5.13940119563581e-06,0.47627414130039,0
4.56902017165193e-06,0.468281284405726,0
3.07063814655942e-06,0.402183750898806,0
3.11308394706118e-06,0.399602234822381,0
3.13058157743592e-06,0.378520693775663,0
3.18712358772685e-06,0.37321206382179,0
2.47500664659307e-06,0.338075799130682,0
2.43065420846884e-06,0.354356872753399,0
2.39843081156392e-06,0.375368103903972,0
2.33909024799055e-06,0.367086616071242,0
2.40118627797603e-06,0.374170116955882,0
2.43722277568509e-06,0.382720854602491,0
2.03605871896698e-06,0.357011219769809,0
2.0121022446207e-06,0.375529651852636,0
1.82824603344694e-06,0.389791072617042,0
1.89247215968199e-06,0.404784216785447,0
1.30843765658469e-06,0.346337271556782,0
4.9808334885325e-07,0.266049218658498,0
5.12843829096783e-07,0.271434397509109,0
5.34300043878324e-07,0.25563446515484,0
9.76681838073304e-07,0.301624467956028,0
9.86897264039333e-07,0.299334823227972,0
9.17011930325074e-07,0.297648875883224,0
9.58888879473979e-07,0.292072155473735,0
1.15752894595453e-06,0.318068880068267,0
1.51462385635983e-06,0.364882201344978,0
1.88217335102762e-06,0.406861975244392,0
1.90880679343926e-06,0.401891484821272,0
1.8533731798046e-06,0.399125693088924,0
1.78860872935153e-06,0.417980036849374,0
1.08092764257288e-06,0.346570479196155,0
8.45670016176456e-07,0.308883925340085,0
6.76151091936799e-07,0.27956535513905,0
7.35950260296032e-07,0.29742921856483,0
1.24315755921378e-06,0.355264550881266,0
1.46574816905442e-06,0.374328250051254,0
1.67311934498412e-06,0.392680462418738,0
2.70916895939101e-06,0.484170517190279,0
3.17320181870827e-06,0.482934529495733,0
3.16495077025976e-06,0.474848182663805,0
3.16719756738485e-06,0.41472901166519,0
3.71169960528987e-06,0.401829772101676,0
4.2545329427835e-06,0.392657164077487,0
6.74937071393937e-06,0.485448224552666,0
9.3954943366714e-06,0.573722252920915,0
9.43909947053445e-06,0.56846723471878,0
8.60869668504007e-06,0.54133618464737,0
6.74462261060492e-06,0.483898532148442,0
4.97117034204614e-06,0.439654514845241,0
4.92255718810045e-06,0.442421627945157,0
5.71668832972702e-06,0.507117835181453,0
3.49205163680817e-06,0.432236095579333,0
3.34197588085753e-06,0.48619064444081,0
2.73432628400198e-06,0.45155455799712,0
1.66296689213627e-06,0.34818971289402,0
1.32259788613665e-06,0.319946982414744,0
1.18028579112153e-06,0.302363558014613,0
1.04167306152812e-06,0.282124939033337,0
1.06443409327361e-06,0.275699396859463,0
9.28050542287478e-07,0.264404178498171,0
7.10899693436657e-07,0.256022134935282,0
8.5513656791438e-07,0.289107874176675,0
8.42980139494085e-07,0.281569301792227,0
8.29140008756143e-07,0.287244144762153,0
4.40943704482306e-07,0.236079799269537,0
4.08650531269154e-07,0.235389527603881,0
3.58398331843084e-07,0.228450031243421,0
3.1124891040335e-07,0.22680745334686,0
2.83155747623492e-07,0.223296998628839,0
5.1772817067307e-07,0.257376931311026,0
5.65350501041851e-07,0.263838599309311,0
4.37967047173101e-07,0.2500122783499,0
1.35117843642951e-06,0.306954321792981,0
3.16333614648725e-06,0.418510562408701,0
3.13187121805282e-06,0.41956619736367,0
3.10534226566278e-06,0.416277872836084,0
3.0338180609089e-06,0.420650397476381,0
3.07065210182106e-06,0.416138957114979,0
3.55137597738988e-06,0.430814399816825,0
2.93684643654257e-06,0.396124990220985,0
2.85119165716773e-06,0.398798329365871,0
2.45048027424929e-06,0.369880829290394,0
1.97844721231162e-06,0.396813720133286,0
1.57846481737344e-06,0.334771772729886,0
1.92877973834854e-06,0.313733362392467,0
1.94642180568131e-06,0.311425521096726,0
1.95180993220304e-06,0.306882827272017,0
1.95740686432715e-06,0.312924541297403,0
1.48980791233689e-06,0.289840408004193,0
2.01407133203903e-06,0.332069150346636,0
2.14763731569873e-06,0.31986501911048,0
2.19806046707997e-06,0.316465802096075,0
2.42264650489529e-06,0.333147894807116,0
1.39016385536526e-06,0.288188783608727,0
2.55272367314336e-06,0.424443950631082,0
3.09163470991047e-06,0.406087002989107,0
3.30656178781791e-06,0.402440536491114,0
3.44104149223392e-06,0.402107415199878,0
4.55007049630288e-06,0.415769107347392,0
6.6436875174902e-06,0.485795168702982,0
6.82532222545061e-06,0.466546035046292,0
7.32531849179405e-06,0.486816742229622,0
7.25026430360669e-06,0.48876043299509,0
7.11852087711802e-06,0.493691148400846,0
6.10202659641565e-06,0.438571449712929,0
7.30961864800094e-06,0.521520425836868,0
7.32082332757694e-06,0.528850416875348,0
7.20449226649146e-06,0.53209007314183,0
5.76395427760151e-06,0.541188757841597,0
1.97787434882103e-06,0.343385804247368,0
1.62831946628335e-06,0.359589057938847,0
1.80167661079811e-06,0.36382793664554,0
2.03693790045072e-06,0.384615244684903,0
1.64817082597554e-06,0.355924194696867,0
2.44133120471383e-06,0.420411530704693,0
2.48242334483589e-06,0.374542208395017,0
3.01281120555238e-06,0.299941099057752,0
8.70904595371493e-05,0.208139445857883,0
0.00073244416600275,0.292223054609667,0
0.00146230250680061,0.214837837051276,0
0.00144346600007592,0.149346159635457,0
0.00147867146195393,0.115651101909163,0
0.00146840563464161,0.103292303290322,0
0.0013348963602809,0.0992018606376789,0
0.00118870224640199,0.0894859669101347,0
0.00105670621014016,0.0834578272460098,0
0.000864594653518384,0.0687475957031551,0
0.00086992867426962,0.0715327727986942,0
0.000913294331481804,0.0851700269654358,0
0.000660555080000235,0.0788444577715592,0
0.000681799224520366,0.101839373501171,0
0.000778197711175206,0.178069889980525,0
0.000882465217327725,0.211723034430736,0
0.000977956002305048,0.23333922444164,0
0.00104733995050667,0.254462428212785,0
0.00114314490191628,0.266003188460625,0
0.00122657827768344,0.377721826117952,0
0.000929674067249182,0.598483719099678,0
0.000246497684653983,0.447602643654204,0
4.19234990174166e-05,0.52797641206766,0
1.53265633958124e-05,0.498201748703626,0
9.65450591167946e-06,0.418835638407578,0
1.07130348359873e-05,0.467709292115885,0
1.09274420803985e-05,0.486905956604424,0
7.72716025090587e-06,0.430534835432551,0
6.43468654144096e-06,0.538507633032972,0
4.54007137689237e-06,0.436247031401425,0
5.14093191339766e-06,0.451627067045947,0
4.44097454061805e-06,0.460529682227343,0
2.32497362863123e-06,0.377212274830534,0
2.30857218405884e-06,0.396341466278926,0
3.53834036748585e-06,0.495057520949302,0
3.62628642638228e-06,0.445937125093527,0
3.02630088478223e-06,0.389933184081058,0
2.93896606634591e-06,0.36532878239542,0
3.31951575944131e-06,0.38473826897545,0
3.15201825485115e-06,0.406293798358881,0
2.34192665492021e-06,0.344081799101933,0
3.23657318516747e-06,0.375566299941679,0
3.84206146087553e-06,0.382596346916022,0
5.80147212633435e-06,0.419998032481363,0
4.09498226193796e-06,0.359601307453032,0
2.97000623150398e-06,0.32448374491717,0
2.63755613872568e-06,0.31698918415987,0
2.4456517537196e-06,0.316321136252161,0
2.47262029685151e-06,0.319546784432407,0
2.6327345958268e-06,0.32756947116264,0
2.09739401275196e-06,0.311030994213253,0
2.04927208401623e-06,0.326139184811648,0
2.178346566715e-06,0.330190716782761,0
2.3137703445814e-06,0.336973305660972,0
2.24367812411323e-06,0.333964446696866,0
2.17456381860494e-06,0.320751016787126,0
2.78648669101744e-06,0.349174512484643,0
2.70607734561399e-06,0.341183379457421,0
2.70932804937378e-06,0.343099161489011,0
3.58018521953297e-06,0.369630488901203,0
3.94923909140627e-06,0.354542690784583,0
4.53464278011187e-06,0.380698122702322,0
5.45466294152562e-06,0.450701400316009,0
4.63727273975354e-06,0.445862598804146,0
4.41387952792746e-06,0.439242572179715,0
4.86440857831246e-06,0.451375542942262,0
4.78727505613976e-06,0.439837486718996,0
4.93181667864369e-06,0.451975232057021,0
5.13922239384597e-06,0.470653847815358,0
3.37133164593487e-06,0.412787377292786,0
2.84290589500588e-06,0.408595086349628,0
3.24409367566878e-06,0.360750054356384,0
3.2791745868366e-06,0.325231849119489,0
3.35863985878966e-06,0.321809328640871,0
3.93673953799024e-06,0.353040824388868,0
2.78877256287514e-06,0.314719674792757,0
2.75087861984093e-06,0.321586345683315,0
3.52542006293119e-06,0.348803185589618,0
3.88174865503132e-06,0.339187943339935,0
5.19467728925463e-06,0.379878669813395,0
4.70513421164752e-06,0.364365823687819,0
5.23725130372278e-06,0.438583852470559,0
4.90772274497018e-06,0.447612676972178,0
5.50572262727872e-06,0.481724892108563,0
5.24837853159664e-06,0.445796351979685,0
5.08044701836928e-06,0.430436082903872,0
5.23115704096174e-06,0.432529904239579,0
4.04247646219675e-06,0.391395805083879,0
3.35793947909578e-06,0.381524685096701,0
2.66905455978806e-06,0.352858632881171,0
2.63774174370558e-06,0.367970655027803,0
1.70485430773141e-06,0.314752064280123,0
2.54184397672296e-06,0.374431374044028,0
2.96422665989307e-06,0.326711702096065,0
3.50118535555582e-06,0.345071520908147,0
3.43727025721472e-06,0.348097024580374,0
4.54556277235028e-06,0.403360655444597,0
4.86783947938826e-06,0.42509263772245,0
4.96219449219585e-06,0.433183115656072,0
5.22163257488798e-06,0.403371272632679,0
5.33217202794938e-06,0.370819958059491,0
5.88194043271825e-06,0.39257100649209,0
5.77509546073701e-06,0.400345303384181,0
4.47875195721752e-06,0.44420817542244,0
2.45576879509102e-06,0.33444786336102,0
2.20733635505565e-06,0.326268579809496,0
2.34258255221759e-06,0.33106918171303,0
2.77699938082781e-06,0.349029984457869,0
3.63573919729933e-06,0.367127591919037,0
3.28584223641054e-06,0.375884492459248,0
2.6927640260032e-06,0.378627212585551,0
2.87059505296107e-06,0.3499585514007,0
4.40350379089327e-06,0.425717798060213,0
7.61434574131455e-06,0.540270460177906,0
1.26145196525222e-05,0.67666616264401,0
1.26126320289437e-05,0.646727178877671,0
1.09684016455349e-05,0.618564060012061,0
8.52246293674767e-06,0.548164300060684,0
9.36474321987018e-06,0.594799309723179,0
8.91022436018045e-06,0.564120179797285,0
1.01064863092757e-05,0.572849058143783,0
1.03201176411393e-05,0.639393998132866,0
1.03453068884112e-05,0.637859301106494,0
7.73348180999098e-06,0.596428538557937,0
2.49730715470422e-06,0.36716239186029,0
1.82045550863277e-06,0.338317975529147,0
2.19388923937382e-06,0.353870751528197,0
2.75668959079054e-06,0.39969264378527,0
4.29400522590994e-06,0.516182432099975,0
5.2213004396608e-06,0.631561947656385,0
5.68343381342719e-06,0.712937603279397,0
5.9482977018475e-06,0.666533618253781,0
7.63342118845919e-06,0.748504018238571,0
9.71147826735141e-06,0.820335671599908,0
1.30997064207656e-05,0.915365910843618,0
1.64368700040851e-05,0.964027089776628,0
1.67867401010952e-05,0.970435996922729,0
1.58545090857407e-05,0.88979488009502,0
1.32719692983265e-05,0.799835469342202,0
8.45967612131069e-06,0.63772983973852,0
4.40589519941717e-06,0.447764140345689,0
3.14339826417286e-06,0.406745083534952,0
3.42848175675205e-06,0.421910093021864,0
3.58565568209842e-06,0.430551810904115,0
3.38846940499989e-06,0.452502880003813,0
2.32705732363583e-06,0.396476299115234,0
2.21074283442357e-06,0.394124528415168,0
2.0537456175778e-06,0.412155209986903,0
2.004919645892e-06,0.42361707223641,0
1.58585360509296e-06,0.377461932317875,0
1.04967902069397e-06,0.317825771139396,0
1.09366181882534e-06,0.313435976091453,0
1.49941105119818e-06,0.36048643530961,0
1.54915615130417e-06,0.356397317209102,0
1.78538244729963e-06,0.371043794962372,0
1.83687300175605e-06,0.357136019167267,0
2.32068796777958e-06,0.385354024878817,0
2.23548132674437e-06,0.369624687913839,0
2.06287026540538e-06,0.351497742413921,0
2.02861009806315e-06,0.353890719448885,0
1.89577973113299e-06,0.337144192427235,0
2.33908606141205e-06,0.367028873403851,0
1.83337162660894e-06,0.32526898930844,0
3.09319682701103e-06,0.397238781494448,0
3.62025862555484e-06,0.41306839473226,0
3.93163871541766e-06,0.436804206275542,0
3.06388938202715e-06,0.385596374201995,0
2.74201702869538e-06,0.349071860761731,0
3.90531926639308e-06,0.409345801121502,0
3.60584336359628e-06,0.380155679850539,0
2.80304199234949e-06,0.343677346789797,0
2.82620476118963e-06,0.341046055929559,0
3.46082743663715e-06,0.362393326985435,0
3.18383921689833e-06,0.359007549606421,0
3.10415031187739e-06,0.368969697768732,0
3.18152526007658e-06,0.376940320296194,0
3.63695522391106e-06,0.38108223943893,0
4.08629790261532e-06,0.406000191541362,0
3.5641145146616e-06,0.388867712991897,0
3.56541776165862e-06,0.403756593863962,0
3.61924041477695e-06,0.409734924233707,0
3.60726680028423e-06,0.429492175279493,0
2.65849740435246e-06,0.396699120584908,0
2.87934221096112e-06,0.416980761417094,0
2.91486899273854e-06,0.418732203317504,0
2.81602021123999e-06,0.418704788613818,0
1.58359616708086e-06,0.364877563198868,0
5.74303673591953e-07,0.261801312689674,0
2.24096993114995e-06,0.392774633406199,0
5.40903708577615e-06,0.590959692921006,0
7.41883252564668e-06,0.667305213265653,0
8.78712778824874e-06,0.72352735492546,0
9.1139964741315e-06,0.733776215596851,0
7.62098007270131e-06,0.613309526028833,0
9.2627258962148e-06,0.6290016169578,0
8.9974154394218e-06,0.584231009098632,0
8.85542291989838e-06,0.567586433106274,0
8.96903741486358e-06,0.493379716264761,0
1.06657264990056e-05,0.563179760657662,0
9.0708061604209e-06,0.513583060071819,0
7.9464670132403e-06,0.460051964621435,0
8.76306211398007e-06,0.45446279723933,0
7.3117956688178e-06,0.392592098704329,0
7.33064224967143e-06,0.414776612310396,0
6.92327420694759e-06,0.421278202075071,0
6.80042621311397e-06,0.430216307539262,0
5.67661440038285e-06,0.406427630637657,0
5.47560281162624e-06,0.486371631824562,0
4.58717125715325e-06,0.44841761033871,0
4.8719911697281e-06,0.465779316641604,0
4.96686113169045e-06,0.507152115683006,0
2.49289031439309e-06,0.399527109218467,0
2.34278420574839e-06,0.418462562845539,0
2.5417197748943e-06,0.42076936517557,0
2.45002271610805e-06,0.420082889691766,0
3.5418012723742e-06,0.489691075951592,0
3.7653633428662e-06,0.489892241489342,0
3.53473520008025e-06,0.469170062483585,0
3.54999301096071e-06,0.478505329700792,0
2.88658080517717e-06,0.425980317924289,0
2.26374509259786e-06,0.387648879602849,0
2.86952049781429e-06,0.415304205194549,0
2.3966757629711e-06,0.368344105186576,0
2.39649451901047e-06,0.369209422330221,0
2.91460105171493e-06,0.375158031408729,0
3.54633551132392e-06,0.408128293227298,0
3.70851658454906e-06,0.416661614506871,0
5.65051945663e-06,0.510878347280443,0
6.29618336065148e-06,0.546962474097209,0
6.5425964743266e-06,0.548949417492387,0
6.58668672797264e-06,0.532371611658369,0
4.98991173511511e-06,0.460734424948346,0
6.15202358899436e-06,0.503650508405773,0
7.58596632123017e-06,0.554691076515807,0
7.71094702792493e-06,0.592996717801194,0
7.40148700762389e-06,0.596371651148536,0
8.25310458187333e-06,0.639157780245093,0
6.35838893944088e-06,0.551545310438758,0
5.92065930615655e-06,0.501222013382482,0
5.70633213005913e-06,0.421952172091712,0
5.85951990935694e-06,0.407798075773875,0
6.68253286048717e-06,0.459158048035574,0
6.12424773397618e-06,0.457180544210487,0
4.89950396806423e-06,0.408345090154408,0
6.19249035895388e-06,0.444904716070872,0
6.15614736881091e-06,0.428048567554706,0
4.69632704602239e-06,0.378429674171599,0
4.49156846951369e-06,0.376011172726725,0
4.08352865538234e-06,0.367118621539184,0
3.51356419595861e-06,0.411162064148736,0
2.35111828800369e-06,0.383626870415057,0
2.52830737292582e-06,0.40164723119898,0
2.48767662864195e-06,0.390424596375355,0
3.61631957851433e-06,0.441826683105283,0
3.16277357500213e-06,0.430357660427996,0
4.90451600028458e-06,0.358143570316958,0
4.1943835322451e-05,0.646999681434257,0
6.64594612425546e-05,0.517059151266883,0
6.49321285038541e-05,0.459682353584351,0
6.50472635990164e-05,0.459096012158767,0
6.43968219367295e-05,0.461156361316722,0
6.30665277237948e-05,0.456136980606932,0
6.68072542733094e-05,0.474610947924308,0
6.86497409535036e-05,0.497492209512254,0
6.94904870300488e-05,0.497427459186164,0
7.13758254344179e-05,0.578829487441738,0
4.19868585219033e-05,0.630866434704591,0
8.14619070578771e-06,0.406031892423971,0
8.16132919918109e-06,0.478317659183167,0
1.03570195395112e-05,0.47343250757733,0
3.75811475319399e-05,0.588148582447572,0
0.000127217704958444,0.89571777892605,0
0.000139196152158274,0.374568922769407,0
0.000132948384310175,0.343823349761053,0
0.000141057069029202,0.276378382999384,0
0.000265348403068258,0.304854723446898,0
0.000257655865995938,0.229234487116807,1
0.000393833248226378,0.114491908428201,1
0.00151100088116815,0.188086302865695,1
0.00199234493153004,0.13092446482054,1
0.00204643813530591,0.102487755109684,1
0.00245419334844786,0.0944902613637193,1
0.00234128075168345,0.0917017720485959,1
0.00210851881014256,0.0845941590316097,1
0.00167452721806652,0.0552335547081856,1
0.0017673761964813,0.0562358170771426,1
0.00141405163493609,0.0459417145905673,1
0.00113785292644954,0.0462575134357939,1
0.00126765680252892,0.0506894478852131,1
0.00127060049053248,0.0537145117704019,1
0.00155823609118333,0.0531710934937716,1
0.00210438246500843,0.0643504891977217,1
0.00212178025194039,0.0608641515589887,1
0.00199990655080404,0.0553356504037911,1
0.00200785821841997,0.0609183705038971,1
0.00231418113079102,0.0573385783327793,1
0.00227485769029873,0.045976493071813,1
0.00238486925070018,0.0489368560140139,1
0.00205015764078681,0.0470153231647261,1
0.00194861978642896,0.0419516702376051,1
0.0018008701590793,0.0534139910045945,1
0.00139499945592251,0.0480881886552962,1
0.00145298847333831,0.0477703519384409,1
0.00154686344049605,0.0513540365321799,1
0.0015696401330106,0.0660381295066761,1
0.000844288995110759,0.0502006459206324,1
0.000789884194589584,0.0601095147833577,1
0.000963352441128894,0.0613273047093876,1
0.00104228783040171,0.0588815114492122,1
0.00100947612031047,0.062881419449658,1
0.000879285406297101,0.0595758661576003,1
0.000541789606031013,0.0453312613078207,1
0.00050907742957574,0.0575167499806821,1
0.000485851120161595,0.0516177588468313,1
0.000486772217843648,0.050548907991771,1
0.000495345738198419,0.0531785672904514,1
0.000514484425704501,0.0694953708007633,1
0.000437099450649826,0.0578531120422189,1
0.000671696907345507,0.0750113344808004,1
0.000629039369764199,0.0915733781105346,1
0.000538168748550293,0.0706479060288003,1
0.000971823437060689,0.067435097311104,1
0.00109508074709157,0.0528553444819371,1
0.000922430221144847,0.050271236888427,1
0.00076886788733435,0.0430164275893432,1
0.000826822366873098,0.0449250277422847,1
0.000922031392326725,0.0430760719292892,1
0.00103231579902626,0.0474944072542883,1
0.000975069302705705,0.0480590667347299,1
0.00109187039497083,0.0521513073998853,1
0.00113710472835386,0.0584485299951981,1
0.0014500578776379,0.0920193655784567,1
0.00160962580997789,0.139190049819134,1
0.00161745717120201,0.131478229404684,1
0.0020056522460173,0.123626903495379,1
0.00621898696234967,0.0806321607496448,1
0.0131002767918464,0.109504524990015,1
0.0144075172963108,0.0813652664127218,1
0.0136189061137717,0.0798709597351708,1
0.0135053186913163,0.0774945965457973,1
0.0142150338391182,0.0695038352339354,1
0.0170848113160981,0.0605557147726216,1
0.0139468769436557,0.0511960126707614,1
0.00881292819416812,0.0349372774811173,1
0.00606842377074039,0.0240463838277748,1
0.0087182255852734,0.0535255125139928,1
0.0109094580971189,0.0540012809022042,1
0.0120675526735519,0.0701287436422044,1
0.0125461413530953,0.0492224569699918,1
0.0126573468293919,0.0455421106663569,1
0.0114925466848458,0.0475586818801225,1
0.00786286670428444,0.0422591516071378,1
0.00897758031248996,0.0489010862654735,1
0.00989781360197395,0.0414212059948354,1
0.0100600446882402,0.0402838746014332,1
0.00855521380678247,0.0386083416421213,1
0.00696096754222344,0.031974734140838,1
0.00703316866037542,0.0308335897148095,1
0.00694456007892114,0.0488246621632488,1
0.00700074229954064,0.0593333423814553,1
0.00723215733417624,0.0670185229194983,1
0.00609371443560866,0.0672397969604806,1
0.00338728509643016,0.0477155785226391,1
0.00165416010801311,0.0157942573868625,1
0.00772682359277838,0.0444529712559645,1
0.00840081180389274,0.0221689449646087,1
0.0101503508281914,0.0279066154572935,1
0.0112813534913975,0.0256692120269623,1
0.0140310753489596,0.0188589610442913,1
0.0207028513402618,0.0234760408687847,1
0.020644088256754,0.0189798776802131,1
0.0238762835449891,0.0193917021704238,1
0.0253343034898783,0.0172476606461574,1
0.027810521666,0.0151312560100774,1
0.0296348369320632,0.011222632637853,1
0.0300956741055419,0.0148746996152737,1
0.0269415672504117,0.0127689657333025,1
0.0241119416966401,0.0116313328264833,1
0.0232637339989926,0.0155733997832165,1
0.0223395029603577,0.0155195923201002,1
0.0225754727753904,0.0161431702778004,1
0.0171169078513015,0.0133597580938158,1
0.0134882052937771,0.012095780821428,1
0.0126566776501742,0.0215406236444725,1
0.00989443026130205,0.0352737327154791,1
0.00874422966631767,0.0284971715060026,1
0.0089871362651228,0.0199017456942836,1
0.00950796320007452,0.0175179449421111,1
0.00995143409917207,0.0184929728068022,1
0.00646016594564089,0.0134792723557858,1
0.00765292372592008,0.0187970504661804,1
0.0129418508255446,0.0319777176659496,1
0.0237940267894891,0.0379864069228057,1
0.0426956565227578,0.0414217049689623,1
0.0384965986311418,0.0351483270730772,1
0.0408679083476311,0.036874755235459,1
0.0349373499420409,0.0389455580232881,1
0.0261312333222466,0.034032985555442,1
0.0255853579238424,0.0334613937115777,1
0.0259587665532543,0.0339395226619401,1
0.0277016263869777,0.0298584394841377,1
0.0316023587226674,0.0256363351932697,1
0.0377566666953653,0.0319286751544446,1
0.0297135233580727,0.0314545591958943,1
0.0291245174311709,0.0326166093727444,1
0.0317707190559657,0.0314148160548544,1
0.0399127884187,0.0315301255257696,1
0.0507044960029705,0.016624174263178,1
0.049296320863124,0.0106614001528177,1
0.051436569989784,0.0100151049520866,1
0.0379760183336346,0.00593048434701909,1
0.0420070832615985,0.0077174364061014,1
0.0421334443032834,0.00804468904348354,1
0.041309434541769,0.00715235728890973,1
0.0565975042448495,0.0108050131342435,1
0.0749330383386718,0.0147319035294751,1
0.0732992952054786,0.014557205659681,1
0.067281910901236,0.0175252651319939,1
0.0649593130116376,0.0208090643168861,1
0.0519872352196739,0.0135596537004571,1
0.0670527440636127,0.0161446650251508,1
0.0538269985752145,0.00930162877255207,1
0.0447281446012065,0.00544330335203898,1
0.0433224548885749,0.00559928793398171,1
0.0381553621325856,0.00536010604866287,1
0.031431769288388,0.00366780653726309,1
0.046859070504341,0.0058463088947169,1
0.0674821004575731,0.0132853397726722,1
0.0948313636191146,0.0206377744546185,1
0.102980207423016,0.0268046998898464,1
0.0714783786866962,0.0157061045957667,1
0.160288512309995,0.0252003046804456,1
0.157670608133124,0.0122115843448393,1
0.151384696775861,0.0125907968719918,1
0.136731183205353,0.0100711782899378,1
0.115930951431627,0.00840495562320964,1
0.112199552065444,0.0102377991496526,1
0.113431622246208,0.00924500428912989,1
0.117423800440566,0.00975050897589081,1
0.115624835334838,0.0104128789709927,1
0.102224283834913,0.0113807424157215,1
0.055778198954323,0.00851616610660112,1
0.0658184513408406,0.0363055275819262,1
0.0775110034029223,0.0396578808221043,1
0.0804697118915714,0.0469870618893773,1
0.0677578323637787,0.0274406026510755,1
0.0768909276009826,0.0189401469909728,1
0.0767601208061266,0.020052621024021,1
0.0781928353706731,0.0215153570927143,1
0.0761507387823318,0.0160932497577283,1
0.0778972632166524,0.0163336364902788,1
0.0768507618704385,0.0196187118826981,1
0.0625728644520012,0.0177293194231194,1
0.0508743792308854,0.0139868632515601,1
0.0513300917551012,0.0118293144674263,1
0.053256503857714,0.00863118690106782,1
0.0623880158865327,0.0128228985285184,1
0.0672500535313067,0.0136320976360852,1
0.0779001359756432,0.0151057194705839,1
0.0856324664814326,0.0208168066846182,1
0.0722321701686429,0.0170327710051079,1
0.0734805869691639,0.0160789497270292,1
0.0625232662296285,0.012209706321124,1
0.0631213415722233,0.0121403446290491,1
0.0400346728224754,0.00950407163860018,1
0.011966099273821,0.00863872172340605,1
0.00908476579006432,0.00847107995564214,1
0.00787865933661225,0.00998973354729167,1
0.00906814853905809,0.00891771296291144,1
0.0155535244145409,0.0164505324537363,1
0.0180057232876352,0.0184494497069932,1
0.0186597148949618,0.0228717402931426,1
0.0172148554499741,0.0268545838346094,1
0.0170773754982746,0.0258118784511179,1
0.0228630709844877,0.0302684813718154,1
0.0277683204209922,0.0359581836713569,1
0.0304921496548704,0.0383355913018459,1
0.028072037492301,0.0420029257512028,1
0.0190122172976179,0.0515992550225688,1
0.0205216726065204,0.0656597979406742,1
0.0199977706987434,0.0722885963296875,1
0.0179338325195003,0.0665670440594809,1
0.013057864317905,0.0577923237291723,1
0.00245200855542246,0.0255153751464986,1
0.00163305862202737,0.0546546162675268,1
0.00161719413405735,0.0531297512164935,1
0.00168683690665903,0.0431275830379455,1
0.00191687955155826,0.0466262347720574,1
0.00183314823549041,0.0458555259602713,1
0.00174437642719048,0.0421499596047416,1
0.00184392776261268,0.0390416571629339,1
0.00225300441622624,0.0451975637922795,1
0.00343932515902572,0.0598739802906885,1
0.00626676058851316,0.107301976680385,1
0.00538804576471913,0.0616811813566249,1
0.00725432076324106,0.0377732540688515,1
0.0124085570570322,0.0501584136571565,1
0.0122362758145214,0.028563713954803,1
0.0122921245895147,0.0282177083021506,1
0.0121543402868162,0.0290799830983654,1
0.0109471751041818,0.0241964532198409,1
0.0114595749802963,0.0200169526282969,1
0.0121888921337798,0.0140303930511483,1
0.0147285643639026,0.0173161044891554,1
0.0148813356513821,0.0180824087166608,1
0.0140585832345203,0.0244808981042825,1
0.0112760361339264,0.0183335350118465,1
0.0108535195290879,0.0223905436355125,1
0.00956629181180485,0.0201747794760748,1
0.00856739513138954,0.018564595013881,1
0.0088483421059638,0.0224206940158918,1
0.00769645368540526,0.0259457420072975,1
0.00843698601927581,0.0212008539950475,1
0.0136445885113819,0.0307779029161524,1
0.0383413840564533,0.0316081801727709,1
0.0674782898078362,0.0308308826887289,1
0.0677757660653783,0.0305620447599811,1
0.0656955035862491,0.0287001851673382,1
0.0699372219160475,0.0272950338595979,1
0.0609922015527044,0.0230887230820753,1
0.0493092819632695,0.0177954362089757,1
0.0722758139249136,0.0175391691776452,1
0.073403568184187,0.0162498981334204,1
0.0727789976358158,0.0158996018351442,1
0.0690140929760594,0.018193676905753,1
0.0655844905203902,0.0196066371706773,1
0.0611758337533204,0.0176167588458414,1
0.0519831950290835,0.0134887537667468,1
0.0589200505092253,0.0171402314651514,1
0.0629643599135754,0.0181575756251943,1
0.0676234670347683,0.0171680816426799,1
0.0463051100652686,0.0215557568805253,1
0.049705278044696,0.0245469252255339,1
0.047379744875488,0.0189948345468315,1
0.0525842140172928,0.0220990827258028,1
0.0844518017343089,0.0319491249021897,1
0.0846706025486323,0.0273362149187516,1
0.0864302032823878,0.0308885583155473,1
0.127257172195871,0.0202242592579474,1
0.261833851813155,0.0344281926651736,1
0.226657723890938,0.0244138630806095,1
0.216963966021628,0.0223760911945054,1
0.219806006780598,0.0198019700456944,1
0.230724991497087,0.0201608390981057,1
0.222551606697647,0.0184849594995573,1
0.221389852684587,0.0184872823657515,1
0.188992892857843,0.0170154957856475,1
0.2000288845245,0.0160778109504494,1
0.191468296321778,0.0224348824375745,1
0.116245608931609,0.0143382770843942,1
0.109838066396816,0.0172173712968619,1
0.10291085701489,0.0166355479866905,1
0.107357906093902,0.0231802807650495,1
0.0788677145074961,0.0232429184672911,1
0.0925760717509461,0.0257171418286708,1
0.0928122616599924,0.0209810705687354,1
0.0799416528500303,0.0185304415926764,1
0.0925016389528807,0.0294702853928837,1
0.0830779363197298,0.0392905470179376,1
0.0966404140659649,0.0441978542632154,1
0.079850739507574,0.0302546481188021,1
0.0674896580886077,0.0227853851278763,1
0.060681232620959,0.018953797061503,1
0.0341636010405879,0.0119458801760735,1
0.0373568418120698,0.0144264087772706,1
0.0286163352595403,0.0140676942820563,1
0.0204262152675954,0.0101124901976647,1
0.0194145052511014,0.00905756095546935,1
0.0158973820798277,0.00745569899643763,1
0.0204160815714914,0.0100245512823943,1
0.0211173722430517,0.0104569933779809,1
0.0218789882245948,0.0144793080474047,1
0.0249586047483024,0.0192597729846569,1
0.0245608220570634,0.0191933758345445,1
0.0269042110201806,0.0233232311905155,1
0.0292421993483263,0.0285652510043079,1
0.0294141823138657,0.0347309979644722,1
0.0294328581074362,0.0351650496989942,1
0.0311304367404259,0.0397062705004169,1
0.0185244060079735,0.0435146278103749,1
0.00248836332450403,0.0187245365987908,1
0.00146860928848472,0.0513982773386184,1
0.00148334952103913,0.0542597357746838,1
0.00104372682162429,0.0487050207597891,1
0.00110181646641968,0.0413742571493184,1
0.00180258374938083,0.0345838222679778,1
0.00187714563518647,0.0259367946225998,1
0.00215016678920821,0.0223720679301845,1
0.00367499666202446,0.0370141332882321,1
0.00923648064243204,0.0621491601263486,1
0.0125800867818395,0.0576904039179257,1
0.012362390483214,0.0560363498048421,1
0.012402598207757,0.0353060684346404,1
0.013947475600482,0.0378779536963039,1
0.0130532302826115,0.0370119801412435,1
0.0141377540719089,0.0319296068329728,1
0.0128404631981829,0.0212063411382778,1
0.0157140290270081,0.0276270283252638,1
0.0176170687721138,0.0313361627435735,1
0.0144898278967923,0.0290630239655412,1
0.0102340374542783,0.0238567534495317,1
0.00866669690713544,0.0202921960814761,1
0.009199724159282,0.0315243958497821,1
0.00851245414128205,0.026349652542835,1
0.00809582407234394,0.0257818784858354,1
0.00630862125884935,0.0315866882000623,1
0.0066730841622388,0.0560894696133178,1
0.0132834219508655,0.0699161702597612,1
0.0126535789527064,0.0366030008133141,1
0.0114873877783809,0.0325584044031996,1
0.0118088592087331,0.0104100559224495,1
0.0544779170024437,0.0229743297632607,1
0.0611006293107498,0.018193617571925,1
0.0586687338906086,0.0176552692004036,1
0.051873116264503,0.0157156863606824,1
0.0464915187524096,0.0127645598923281,1
0.048917214178971,0.0137515148334879,1
0.051898409597094,0.015425173253651,1
0.0547798027465718,0.0173533200768284,1
0.0806282779461973,0.0239631749556142,1
0.069162955504126,0.0206820767324433,1
0.0633798434852019,0.0286965794699201,1
0.0632421552414537,0.035864620701242,1
0.0543591748873148,0.0318111672800096,1
0.0440806960353525,0.0281533202466131,1
0.042937952610963,0.0316159273429766,1
0.0475434049789769,0.0351335947175952,1
0.0510288296457988,0.0350969215963306,1
0.0501308298364321,0.0357184103379205,1
0.0248103490829303,0.00988684600423322,1
0.0554663436555296,0.018604363397732,1
0.0688850474070928,0.0221249191441029,1
0.0851366044648408,0.0280956182517613,1
0.144714919485914,0.0404500729738746,1
0.175588655774014,0.0448079202315099,1
0.180188898555635,0.042814618442003,1
0.175179774963484,0.0373430694735242,1
0.154336250357904,0.0205856796144296,1
0.129793292900869,0.018145410424953,1
0.0725506780779481,0.0121074495581089,1
0.0805623552287394,0.012096739290954,1
0.0903481678103049,0.00978338136779856,1
0.0918896554141548,0.00969074194110626,1
0.0873628983951447,0.00996701363705335,1
0.114818977496141,0.00777164590171754,1
0.175741257715441,0.0107368637504799,1
0.177371082859734,0.0114808123517539,1
0.191995330190261,0.016040500786453,1
0.208395738985693,0.0174096613410122,1
0.205765905184977,0.0138265471765635,1
0.203323222747925,0.0141125104022276,1
0.222925042082087,0.0171371362054794,1
0.248151725228202,0.0186131569878809,1
0.251134464455518,0.0165251461171387,1
0.223592058379325,0.0231223354282426,1
0.116079268615282,0.0171519187363308,1
0.116407604921083,0.0182491063690236,1
0.110742704112385,0.0185818365555673,1
0.102706933926639,0.0166779283389849,1
0.106275436878467,0.0261768020839228,1
0.120594593029009,0.0393282409542987,1
0.138019154747851,0.0506751974833909,1
0.172784281027663,0.0650558284574011,1
0.181741559162536,0.0866986473936013,1
0.117588454869705,0.0873199161407489,1
0.0862306964362901,0.0822398376949555,1
0.0593099114040859,0.0667076167815848,1
0.0338991239894039,0.0368580065003565,1
0.018945044318326,0.0231028224306402,1
0.0140009379561318,0.02714370496617,1
0.0145403646091152,0.0241131433199248,1
0.01462482000283,0.0219192175205128,1
0.0130438037805557,0.018373328642235,1
0.023159539478684,0.0197474042563502,1
0.0320018508929879,0.0145366456887384,1
0.0397538858688743,0.0139979576213608,1
0.0387434995719207,0.0132121922855185,1
0.0422721290406314,0.0149866973355681,1
0.0464448686919229,0.0167877163051189,1
0.0500481584800518,0.0169998196573931,1
0.0600040604867217,0.0206933025828194,1
0.0684546544539765,0.0239360289330862,1
0.0787045263208916,0.0285756266973531,1
0.0573670603878954,0.0396844054775297,1
0.0202897176074002,0.0286537646258902,1
0.018277949847375,0.0481476477547205,1
0.011463341780159,0.0669295675149741,1
0.00786296646347233,0.0919659575367161,1
0.00533397182321646,0.0787194542783987,1
0.00425630642209038,0.0722509015382015,1
0.0046787208088239,0.0596640658064837,1
0.00498962409275086,0.045813971122247,1
0.005231020097107,0.0312479633744155,1
0.00425120483197841,0.0198496861043018,1
0.00378485153972578,0.0153662657249948,1
0.00394537599448175,0.0198073615332052,1
0.00337964097504483,0.0158205149037689,1
0.00346517374705591,0.0164691447485956,1
0.00357696308690368,0.0162703564721495,1
0.00343044784291691,0.0148747736561033,1
0.00350885446261604,0.0179097833210149,1
0.0033502672479758,0.0197938474993672,1
0.00274944387014569,0.0265904885055616,1
0.00313130241554337,0.0434088372463575,1
0.00308088883398281,0.0526954168900165,1
0.00260533848632978,0.0418593661719461,1
0.00362156683015855,0.030956149050116,1
0.00505994822716474,0.0356842523275085,1
0.00709647266967099,0.0318817372767428,1
0.0110643693958869,0.0468201413072796,1
0.00951035322144541,0.0424733012230347,1
0.00837976311083624,0.0343783458338991,1
0.00752007387744466,0.0312557592747562,1
0.00740327423478234,0.0297391656475694,1
0.00701600296985421,0.0251608739804477,1
0.00481389439449177,0.0147378241862187,1
0.00506395797574732,0.0190286471679215,1
0.0190281604793084,0.0363726538318613,1
0.0408174076817491,0.0688966959576942,1
0.0559393817684334,0.088058107628642,1
0.0590797059145407,0.0759321654711093,1
0.0527678745217961,0.074801991835652,1
0.0569097275124933,0.0452326210642245,1
0.0546436860955467,0.0277719173249872,1
0.0547454626635515,0.0178688621169829,1
0.061252094107855,0.0134212365954343,1
0.0542070771095451,0.00829006249122827,1
0.0561458927282544,0.0101348480209409,1
0.0641818471365371,0.0115311459211435,1
0.0649848701196066,0.0103384828159918,1
0.0647488905945028,0.0105461659987718,1
0.0675346892302412,0.0106586327985563,1
0.0712153603062703,0.0148131770637942,1
0.0680510730907344,0.013946837086943,1
0.0593460636606903,0.0211026413318954,1
0.0237559787803663,0.0120671666115849,1
0.0225850381260198,0.0239277278499277,1
0.0260905924246377,0.0199523751292204,1
0.0427027337774029,0.0247847292590535,1
0.0466933736295426,0.02067156456339,1
0.0722074564146399,0.0287276271507038,1
0.0679957696141012,0.0290811920287022,1
0.0675061071324843,0.0302041144307549,1
0.0894526604497429,0.0389894186503595,1
0.182921025799336,0.0618058259192338,1
0.221738275473911,0.0574496338685988,1
0.184961097476596,0.0430886874630637,1
0.147703971085392,0.0400507660192778,1
0.159781351212064,0.0410899217709131,1
0.145875131727773,0.03195843161465,1
0.151758684400182,0.0333595997873555,1
0.142537705745239,0.0208532148115048,1
0.174120813690343,0.0236264054683535,1
0.20296252030208,0.024312530407819,1
0.151711536790658,0.0199848967270608,1
0.107772353247845,0.0157784113693222,1
0.0972252533362065,0.0167656380154515,1
0.0970224035769578,0.0163563285394265,1
0.087293168227368,0.0155040140092028,1
0.10632988306227,0.0248906360951889,1
0.101322287103245,0.0191092958852381,1
0.0891335121230143,0.0220575719729265,1
0.0802025101165444,0.0139992724768513,1
0.095787251057258,0.0188899009433801,1
0.112316807209067,0.0186205053176686,1
0.113204267268175,0.01803798619481,1
0.11860081973755,0.0152985806137501,1
0.158356270066613,0.0198629144041023,1
0.171741848880144,0.0145177785066829,1
0.159320088207034,0.0135072712865572,1
0.142461277657181,0.0109441288238439,1
0.149174491813505,0.012979396694917,1
0.146193973864374,0.0140412127782362,1
0.191381858934644,0.0192712134991616,1
0.208302355564716,0.0182289864842377,1
0.19128081195958,0.0163611262409725,1
0.195630883037892,0.0185031193252882,1
0.194243351574696,0.0181701537390171,1
0.185928005598726,0.0310266683487528,1
0.0769988581988198,0.0138148543634151,1
0.0413183053140812,0.0103044355591861,1
0.0639599810603317,0.0174815620206315,1
0.0652599965385831,0.013980684384055,1
0.0482394256729239,0.00979090498612977,1
0.0431116516175223,0.012985484892569,1
0.0517438521310195,0.0185707170787303,1
0.0799935937163584,0.0291579430057672,1
0.0994584886429594,0.0353259900370796,1
0.10909095641382,0.0388113508529663,1
0.101779376325884,0.0338290895271842,1
0.0957866632576253,0.0327520495460267,1
0.0547012002579723,0.0206597960627039,1
0.0460233988824247,0.0242785595460489,1
0.0345058514141967,0.0203070353984461,1
0.0271846135495847,0.0163753812431071,1
0.0256810722742046,0.0229893493483681,1
0.0205658098588711,0.0192396677626416,1
0.0203574090623416,0.0198468060183504,1
0.0260787602327665,0.0247026326076068,1
0.0176043778517648,0.02354395279614,1
0.00795362075179016,0.0210913067231547,1
0.0078496408299131,0.0214706030876597,1
0.00920589327108888,0.022890081563189,1
0.0120635962405231,0.0172944255078994,1
0.0140701047158054,0.0182430680751811,1
0.0117148444504984,0.0143395850294835,1
0.0114114812865437,0.0133862380755481,1
0.0112499543696971,0.0146006707592607,1
0.00914804605308668,0.0113791922777871,1
0.00956229166740777,0.0145722229078261,1
0.0104985091379199,0.0147313647754721,1
0.0112832194806571,0.0157994864480862,1
0.00988632219497555,0.0122165075320035,1
0.00768951432688706,0.0157067377932519,1
0.00637724164665439,0.0179039919734833,1
0.00615272774829642,0.0177435367170425,1
0.00642480330652316,0.0194699922310873,1
0.00713135246022457,0.0175889103993239,1
0.00716129566366775,0.0174590252924224,1
0.00696887983227758,0.0124272131511302,1
0.0281187780589393,0.0290680355526213,1
0.0432022756995019,0.0421045697905106,1
0.0487458224014018,0.0434193992111301,1
0.0462334498970171,0.0421322106720598,1
0.0419440753171909,0.0191455332831644,1
0.0850826322448102,0.028548672723202,1
0.0886791934962097,0.0223510084940901,1
0.0810794020642897,0.0213569225762212,1
0.0635029052241028,0.0157531072793251,1
0.0507497823020846,0.00946440163181015,1
0.0579170153884677,0.013319267280167,1
0.0590855172603636,0.0133536068103243,1
0.0641714152588808,0.0154831452982308,1
0.0595599110032579,0.00997055390100277,1
0.0525708805846612,0.00894505820267791,1
0.0470836751436479,0.0100717116043247,1
0.0462915839286155,0.0108176596269298,1
0.0507357788668749,0.0113802892790371,1
0.0604409543074634,0.013623096615838,1
0.0584496520968606,0.0130800351588295,1
0.0578990070127864,0.0132875695399873,1
0.0602434362509968,0.0103726447063941,1
0.0655605294449941,0.0118692471306158,1
0.0627979680332544,0.0121792866000468,1
0.0618825358338378,0.0194190080688015,1
0.0538056928902583,0.0135967306500896,1
0.168854238050362,0.0288870748344938,1
0.211663951959944,0.0277961323952273,1
0.215209061730573,0.0285498008626578,1
0.218831288881847,0.0289991627223495,1
0.265522916910683,0.0294229212237184,1
0.30191112096805,0.034968102880618,1
0.217270319135976,0.0202460882929921,1
0.164204291963772,0.0144483359986109,1
0.136496139931776,0.0116997663578771,1
0.0955968610832906,0.00762048789291048,1
0.101857422291383,0.0118941420938267,1
0.109187473883733,0.0130371926860292,1
0.106513343318014,0.0144203184829259,1
0.0964456684720236,0.0144156392936054,1
0.0977647431575073,0.0195455760825095,1
0.113784637192829,0.00976644712112114,1
0.161549537804544,0.0186901975962906,1
0.153693580351522,0.00730614333569996,1
0.223082338037823,0.0110222219149629,1
0.225868596003497,0.00913729732235542,1
0.223721896523247,0.00975112699679379,1
0.214192617496056,0.0104771311964261,1
0.221800385061956,0.0103027921303049,1
0.244272292550715,0.011368305408861,1
0.279836309785348,0.0125750959638383,1
0.29606527857871,0.0253365428774122,1
0.135827092602504,0.0114555616478852,1
0.120570773866065,0.0319023977882463,1
0.126142682365345,0.0482387215448498,1
0.0897084494896868,0.0799387562516103,1
0.0673844469991834,0.0755556200760832,1
0.0395509594298238,0.0411837141039744,1
0.019882625397226,0.0184294423930498,1
0.0135502246830356,0.00765276814320391,1
0.022007660526945,0.0118542167657167,1
0.0243792929421135,0.00740695210631223,1
0.0482916030439555,0.0174401345209996,1
0.0764555471816164,0.0245871087200453,1
0.0825254659455211,0.0250823629507639,1
0.0896995749689914,0.0252924008605618,1
0.089324200795402,0.0235103600422538,1
0.0996932739104385,0.0257916556547274,1
0.101699008137338,0.0286038947630706,1
0.109291426502141,0.0324473076014288,1
0.0515104849585031,0.0201399445732257,1
0.0321939030441541,0.0201453084792904,1
0.0309973340374369,0.0232338867248835,1
0.0337807200373029,0.0282975454824513,1
0.0306646601711659,0.0272040363693809,1
0.0295745622772381,0.0269966540891003,1
0.0126048589063408,0.0122018904969399,1
0.00810372769844833,0.0124255107204719,1
