Activity,Complexity,Tag
1.97410373885351e-06,0.264201351987189,0
5.76681559767914e-08,0.138061672888873,0
5.41398700884966e-08,0.135038829748233,0
4.92289040716593e-08,0.13614608497612,0
6.50921349553866e-08,0.147102583458461,0
5.44998245465463e-08,0.140846488613317,0
4.86626262809529e-08,0.148160790438941,0
4.96577637238219e-08,0.145886756528408,0
9.00134569923215e-08,0.173510224950313,0
1.05783986201237e-07,0.168882430601515,0
3.02399008481678e-07,0.245513632593313,0
3.20336194183272e-07,0.236600344982942,0
3.24465929583747e-07,0.238216199367387,0
3.33182109764269e-07,0.228379579167109,0
3.93247565046671e-07,0.241071045461715,0
4.16069828286101e-07,0.244982475483835,0
4.73649989584262e-07,0.251935044454388,0
4.70880183830783e-07,0.248771813706488,0
4.06627593944462e-07,0.242226851617448,0
3.97342651725248e-07,0.246338069875742,0
2.05658077195844e-07,0.190342189344506,0
1.66866283408904e-07,0.183742659988455,0
1.29810717463752e-07,0.164644139833084,0
7.95347682413257e-08,0.134927343119733,0
6.56312167681508e-08,0.132436017530107,0
1.00101072810507e-07,0.14945492095204,0
7.49831029330684e-08,0.128997303535039,0
8.10232250340755e-08,0.136957917291736,0
8.67652373768718e-08,0.136690290460892,0
1.14012861527001e-07,0.154355064135096,0
7.95321532434467e-08,0.136021832763993,0
7.33862544782323e-08,0.137014095996199,0
8.29143915001973e-08,0.148500427902714,0
8.69319434916608e-08,0.161251182687796,0
9.1534993508241e-08,0.169332800796224,0
6.20277496908337e-08,0.173924257069545,0
5.86383201899154e-08,0.175777098829043,0
1.09474271208139e-07,0.216782583280976,0
1.31581071027862e-07,0.233873331867199,0
1.30129616455102e-07,0.232770095900369,0
1.34259221105682e-07,0.23589627055751,0
1.48565351502335e-07,0.236972237318353,0
1.3717821248816e-07,0.226173860351078,0
1.44752815344589e-07,0.221053251162094,0
1.38863709371096e-07,0.207957334012817,0
1.39952202238246e-07,0.193105486389203,0
1.42945198060702e-07,0.210807828273846,0
9.43262422443285e-08,0.185203518246634,0
5.69553075549652e-08,0.146091043131628,0
2.83570370003119e-08,0.123321147259493,0
3.05537659685996e-08,0.122941170429056,0
3.02368282256599e-08,0.119897739745054,0
3.26609312595302e-08,0.122516428138289,0
3.4263794209488e-08,0.127024329614381,0
8.90904934909144e-08,0.172798819011192,0
8.79210664394077e-08,0.175565641523669,0
9.39078425836821e-08,0.172845677475744,0
8.40198818535616e-08,0.162123597708545,0
8.1969723516394e-08,0.157454626065302,0
8.61212941491583e-08,0.157625726999456,0
1.02122989170581e-07,0.175334106161097,0
1.17489893456867e-07,0.189745281311154,0
1.71616034806498e-07,0.21544867612609,0
1.63886754825525e-07,0.207327940718169,0
7.37167902101432e-08,0.154257960179873,0
5.44417715936319e-08,0.140887529257258,0
5.49511731804688e-08,0.133094082501589,0
8.03203136041895e-08,0.156493235920656,0
7.21772102088582e-08,0.163364760638092,0
7.26060698610208e-08,0.163039029910834,0
8.2639816722898e-08,0.164384674759435,0
8.65114518327111e-08,0.160842915098898,0
9.83573922247631e-08,0.169491214752125,0
9.79389925641166e-08,0.175817821304959,0
2.0745510373832e-07,0.220215641319873,0
5.84697835766114e-07,0.336816961777914,0
6.18372732453242e-07,0.331797319028437,0
6.04159303731401e-07,0.316233116504554,0
4.62628688773366e-07,0.273565968079757,0
3.41764663553173e-07,0.241350672181375,0
3.06540511372609e-07,0.231577718185159,0
3.12748516337449e-07,0.23686592018181,0
3.22305810585765e-07,0.234400315525354,0
3.05054146578161e-07,0.225362183782993,0
2.90379432230458e-07,0.238487609428513,0
9.75185009051672e-08,0.15775619933056,0
9.40708877014404e-08,0.163317922389073,0
4.80161988052542e-08,0.132375870904683,0
5.76341610043641e-08,0.135437907026909,0
6.22704214940083e-08,0.136746605972436,0
8.19729922637428e-08,0.151863118571667,0
8.07971584674325e-08,0.141104648687837,0
1.24481221036375e-07,0.171632719568926,0
1.28772955555455e-07,0.16772471614795,0
1.63052439752218e-07,0.176866284476099,0
1.59504018380254e-07,0.172744824049774,0
1.69337456404597e-07,0.175321580370741,0
1.74854448179902e-07,0.173450320669393,0
1.8248200474338e-07,0.176785304495386,0
1.91271404864516e-07,0.176857667930296,0
1.48516189542209e-07,0.159024220372347,0
1.50530391658539e-07,0.16396774486021,0
1.53376947599769e-07,0.169720759238062,0
1.46489696935847e-07,0.173339694052539,0
1.40775926570144e-07,0.165593060128177,0
2.37609821030578e-07,0.210683593882832,0
2.87103885887172e-07,0.240452155605336,0
2.80478396510942e-07,0.240992992040566,0
2.97575906393577e-07,0.251719571410639,0
2.68743985778431e-07,0.243630926136321,0
2.23145091012561e-07,0.230413666842257,0
1.84580279041522e-07,0.219072672245827,0
1.24076419364699e-07,0.190273899594533,0
1.05689977027486e-07,0.181523843930232,0
8.2339091966808e-08,0.169215744947409,0
6.857635812942e-08,0.156175826915559,0
5.44076458713105e-08,0.132761739927959,0
5.05573229942116e-08,0.140180561603974,0
4.03274512914064e-08,0.136286006137377,0
4.68499097512025e-08,0.141292904260092,0
6.87577082323313e-08,0.15322572276442,0
7.71708101586733e-08,0.153800905113859,0
7.40828899132089e-08,0.154403063778506,0
8.5655824526689e-08,0.15191577076684,0
1.63091141720827e-07,0.21083172431327,0
1.35613790007025e-07,0.208757114073344,0
1.34062704015072e-07,0.229800224755384,0
1.23019960221567e-07,0.206104292735721,0
1.18352319757374e-07,0.190578473719987,0
7.42472425299065e-08,0.151535888810097,0
7.8359980444167e-08,0.15183716976315,0
7.4482461589126e-08,0.151719256679672,0
7.81434586197823e-08,0.148962555499112,0
9.63439746077961e-08,0.171417258699917,0
8.8949806605022e-08,0.163229114803555,0
9.65897844084258e-08,0.15532038669753,0
8.36167799305073e-08,0.147777137973686,0
9.50101949395916e-08,0.153071360815234,0
7.48068520760212e-08,0.140356267089479,0
7.03423969470298e-08,0.151356680334526,0
4.42269361286308e-08,0.140485665452625,0
3.99038216350016e-08,0.132795506169883,0
3.86973923635066e-08,0.134787407327974,0
4.16119382495909e-08,0.131596216512082,0
2.71704817126974e-08,0.125041606743478,0
1.27372624191229e-08,0.112617417513863,0
1.78604355138446e-08,0.113598724608232,0
8.02281349289533e-09,0.112165827201919,0
6.61032238853181e-09,0.113322146691893,0
9.69601988579922e-09,0.118257394087968,0
7.14221295712857e-09,0.1074643285774,0
6.0381608525978e-09,0.112386142781367,0
3.22142896217902e-08,0.137656929415383,0
2.26177704052884e-08,0.129291352783608,0
4.89339323109034e-08,0.139087738301878,0
1.04140329284367e-07,0.180302070863413,0
1.8812255516847e-07,0.206922085896343,0
4.73272906890105e-07,0.307434240009868,0
6.18649006979162e-07,0.345686678429116,0
5.96757813734565e-07,0.32348919940232,0
5.81836635836762e-07,0.321117489665542,0
5.84632591569032e-07,0.312010650759196,0
5.84671685787323e-07,0.33058532480638,0
5.58792620777189e-07,0.327597427889,0
4.54881103807239e-07,0.325265223861882,0
2.2847131869259e-07,0.245893320600128,0
2.52370961058184e-07,0.281014311828303,0
1.77796974543292e-07,0.233156283359413,0
7.3526549114443e-08,0.171853995566383,0
6.50757912186426e-08,0.164006889095842,0
5.89357761986563e-08,0.162124703986475,0
5.93489458635447e-08,0.162524008448913,0
5.46084777084205e-08,0.150435377051921,0
4.75302014494346e-08,0.140373260784192,0
6.59335105229677e-08,0.142590022934832,0
9.36503960424907e-08,0.160352203349553,0
9.07979563560337e-08,0.15862860933781,0
1.25392417047326e-07,0.180883519587629,0
1.29266667155018e-07,0.180176182275254,0
1.34330479797886e-07,0.186460238926919,0
1.36657304910655e-07,0.191106382409805,0
1.37349102599555e-07,0.195085450624807,0
1.34773983438171e-07,0.197235256462001,0
1.29520452699179e-07,0.191990229185755,0
1.1235299162328e-07,0.1864476174162,0
4.85653483598527e-08,0.130377605625961,0
3.84609965552414e-08,0.137579275995821,0
2.44178041953257e-08,0.124814183080977,0
3.90702910610577e-08,0.138339085122483,0
4.34811387335287e-08,0.136397023405773,0
4.40878182414661e-08,0.131320271265537,0
6.61940950616143e-08,0.148014876232003,0
7.06265164665874e-08,0.148687508545996,0
8.52072216405397e-08,0.15147271470343,0
9.25836076577362e-08,0.153854971076004,0
6.30058896474886e-08,0.142612586855288,0
3.54844752194238e-08,0.110781533594196,0
3.7200959827226e-08,0.116225502252173,0
4.20132096741296e-08,0.129241288992477,0
3.94337757662443e-08,0.129473900202102,0
2.9476256092541e-08,0.114163052958688,0
6.18427385908913e-08,0.157392944274703,0
7.12639221996034e-08,0.16743445429171,0
8.38002220317221e-08,0.176202788827113,0
9.85437108236448e-08,0.19725561113048,0
1.00570334179901e-07,0.189453708806205,0
1.2612866970017e-07,0.200509393117169,0
1.51006321272525e-07,0.192888946506224,0
1.35932819748268e-07,0.178189173666031,0
1.24027388154467e-07,0.169847547707626,0
1.28459155809971e-07,0.167342440421898,0
4.71002957981204e-07,0.284420071214645,0
6.88602815241366e-07,0.302233556905368,0
6.94233820924197e-07,0.309602586334838,0
6.32398665827155e-07,0.280355720202653,0
8.29707054795223e-07,0.302611273465542,0
3.0669135752526e-06,0.529026481313171,0
7.52814898810541e-06,0.853093873655099,0
1.03842235216143e-05,0.911902170694397,0
9.70390671940237e-06,0.740576634335795,0
8.71480429938878e-06,0.704175430879146,0
8.5358698007681e-06,0.666613652002823,0
8.14044341948862e-06,0.610830547881538,0
6.82249808644132e-06,0.544595356348647,0
5.60432642847009e-06,0.471928705457974,0
5.09335492765638e-06,0.404141820783415,0
6.4568435867646e-06,0.462762891796841,0
5.15818595507354e-06,0.412944100389447,0
3.2163617500389e-06,0.327420640216235,0
3.03534322885853e-06,0.331217412387933,0
5.84766557910375e-06,0.402806341461661,0
1.02777334859857e-05,0.501796097009191,0
1.33472106744091e-05,0.561134573466224,0
1.91559839130574e-05,0.371644768055678,0
0.000105724714790061,0.329305012365122,0
0.000118069230677731,0.200625816335162,0
0.000108418450124489,0.190684212673652,0
0.000106075015198941,0.186397656923891,0
9.99045452599057e-05,0.186777518429974,0
9.56672026967089e-05,0.15986149594962,0
9.7452137096743e-05,0.147946936946704,0
0.000101235858462111,0.15135068814039,0
0.000100761393246938,0.151974196981449,0
0.000137288569582652,0.150060648059582,0
0.000139977297980642,0.158403071951252,0
0.000152468090050671,0.17594683938552,0
0.000200727784383432,0.184698278947349,0
0.000173247908542926,0.15964263460235,0
0.000145472339333,0.132618111931052,0
0.00014167436884419,0.124941704810334,0
0.000142973622041648,0.127088127377155,0
0.000109713044180226,0.108302557086152,0
9.59367102618681e-05,0.100391228979944,0
8.83911668308709e-05,0.123400166180582,0
6.9480846278562e-05,0.134279397561936,0
6.66455567941948e-05,0.194750057162425,1
2.58555237532271e-05,0.12534738083268,1
2.53200464535395e-05,0.129709167164619,1
2.12543765398533e-05,0.141132157923499,1
2.21145853221593e-05,0.176197934227748,1
9.07179447429291e-05,0.0772161955859637,1
0.000330095659801362,0.0821474005962403,1
0.000343774257650992,0.0668158478026997,1
0.000360194811918938,0.0687439981416157,1
0.000362001047568695,0.0672331562676568,1
0.000352464935718449,0.0658291729981783,1
0.00035527032178682,0.0676585421014727,1
0.000368793302550916,0.0608538727905219,1
0.000503242309873417,0.0584987326603275,1
0.000485173998241176,0.049033485759918,1
0.000474282608825161,0.0626262203318625,1
0.000358969893697189,0.0671968963084703,1
0.000349854588482386,0.070135921962571,1
0.000386069828912355,0.0456352446271297,1
0.000523568787626366,0.0416459310221744,1
0.000509831882776778,0.0395920090811539,1
0.000480440384910742,0.0343803996828521,1
0.000574060244054,0.0369437962485747,1
0.000567005005926329,0.0367059784404621,1
0.000614171834723235,0.0423910403386618,1
0.000632886236365699,0.0389757001120154,1
0.000691174084079874,0.0388387514931864,1
0.000655504708636418,0.0378043874430017,1
0.000688118696107773,0.0308085974168022,1
0.00177838376758711,0.0427474620076471,1
0.00192274305085489,0.0275179722981899,1
0.0021562303988571,0.0308664093958096,1
0.00233353301118936,0.0347953893801746,1
0.00251394952651675,0.0399054122276796,1
0.00257637129101301,0.0410955964263814,1
0.00256330872638798,0.0409666401934781,1
0.00248341935462802,0.0408354429447817,1
0.00274579133637262,0.0270203486501214,1
0.00469559174243221,0.0355734444204051,1
0.00426863962662246,0.033434470561106,1
0.00645748091888543,0.0582470134378742,1
0.00860316980981273,0.0714418128618062,1
0.0103512975186105,0.0796668927649794,1
0.0130442219688694,0.0794203942162341,1
0.0135046385225453,0.0659571987880977,1
0.012011232147582,0.062990445557854,1
0.0101967020571803,0.0599456741192755,1
0.00766852168200261,0.0593607612344503,1
0.00831619646461969,0.0640034255382142,1
0.00455732634418359,0.029103960079392,1
0.00437445959414852,0.0213764528197796,1
0.00370835841895638,0.00931516238453534,1
0.00490227834758659,0.00869103841766743,1
0.00503204848329051,0.00869250217664304,1
0.00512901438702788,0.00939799829890998,1
0.00521260997815357,0.00909958166334882,1
0.00667756170556762,0.0102224377596852,1
0.00829484948276769,0.00459707855342118,1
0.0121725614257216,0.00948169101750401,1
0.0138030840590355,0.0116153200172139,1
0.0122160215189522,0.0103878156102837,1
0.0146871419479579,0.0154249402813874,1
0.014423124293656,0.016920935490327,1
0.0127756599392197,0.0157106258387887,1
0.0129284360303888,0.0157352012554284,1
0.0134906147947913,0.0172062842579552,1
0.00762621854123763,0.0111743425203145,1
0.00275064177774055,0.0171646288553177,1
0.00248084718100024,0.0161814955709113,1
0.00241961416198307,0.0190592616996978,1
0.00204112667540562,0.0220866847181142,1
0.00165648585287823,0.0252619214460509,1
0.00125211695276105,0.0305316522952123,1
0.000714690125215348,0.0176924539449041,1
0.000704896493734719,0.0171449628429489,1
0.000619820873300691,0.0156845669263741,1
0.000566968892805619,0.0166800414501859,1
0.00110564276132438,0.02544923607782,1
0.00132702346240624,0.0179974242008389,1
0.00183163849972627,0.0131087074655191,1
0.00345477441621231,0.0267581124568383,1
0.00507160401558075,0.040577136341468,1
0.0059724977161195,0.046860037232456,1
0.00591745690198849,0.0487462235925668,1
0.00617905950834037,0.0513941425672389,1
0.00562406494500067,0.0486509094414633,1
0.00466633123634743,0.0432159419400639,1
0.00437677707953486,0.0462466639165067,1
0.00143340306680514,0.0411006975865472,1
0.000410020794272322,0.143610262456769,1
0.000401650802808764,0.151557299937428,1
0.000395913719606219,0.14196126760549,1
0.000553653130095703,0.105372799021931,1
0.00375129917190845,0.0649327046260917,1
0.00597785991636411,0.0430475860695663,1
0.00559792252250814,0.0377766314522826,1
0.00517301446803725,0.0351577601183147,1
0.00511965488075914,0.0346013055597208,1
0.00511201788509931,0.0297726026396498,1
0.00511591136655516,0.0276592455859082,1
0.00420988742340566,0.0208875552137488,1
0.00334684176470381,0.0166640471534696,1
0.00294801614362811,0.0153921341599207,1
0.00259212426051117,0.0105681938949257,1
0.0065199403890361,0.0342978823650829,1
0.00709463507184653,0.0325943538936255,1
0.015865530693951,0.0256927905679986,1
0.0280709661924796,0.0427990544824,1
0.0405054924377155,0.054595462015872,1
0.0540234197065124,0.0681049790819661,1
0.0707619249897209,0.0791956893716941,1
0.0689191444356421,0.027168110820886,1
0.0561698161593818,0.0174972675070832,1
0.0516147118946097,0.014779479856269,1
0.0449221537065273,0.0126767382456849,1
0.0373874961560609,0.0106963033240991,1
0.0311772016189742,0.00915767589722846,1
0.0347925621930351,0.00994396342088967,1
0.0333999003717785,0.00795186209197005,1
0.0320385198141304,0.00739500802393575,1
0.0361925122480766,0.00882691060521974,1
0.0356578041647898,0.0118440683975029,1
0.0247313347797326,0.00922033180098862,1
0.0243449583663769,0.0103135023372377,1
0.0224975855819661,0.00747907488497854,1
0.0254073987716689,0.00753624462872139,1
0.0265761196968674,0.00758317946390252,1
0.0408887408200271,0.0110401124794661,1
0.0740938433345585,0.0192635586447803,1
0.0693914700850468,0.0157256907874767,1
0.0497428284538356,0.0103710439143083,1
0.0510904787098959,0.00958306780754218,1
0.0510188561145872,0.0101764337508547,1
0.0462621624659935,0.00967634869945176,1
0.0485131889297736,0.00660279134665504,1
0.0936584118322301,0.0157574692422863,1
0.111990608369844,0.0119172640624014,1
0.115663062324394,0.0129208456989655,1
0.105411560206393,0.010144333867994,1
0.10853801543677,0.00966388226533646,1
0.109583729358539,0.00873571546651069,1
0.123721911319632,0.0123723616599438,1
0.106917398257215,0.00782248785724011,1
0.0968979088246676,0.00429379249754867,1
0.118596282672866,0.00832367943032259,1
0.141291051783404,0.0105176281179744,1
0.162779781160638,0.0188412273082051,1
0.109172287641886,0.012170332694751,1
0.10766243162538,0.0140697533900511,1
0.0949839399923021,0.014975105932254,1
0.0792198612628529,0.0148788967382949,1
0.0786942625089878,0.0139653854720331,1
0.0420260887102277,0.0113993463578332,1
0.0117344125997503,0.00648656530405764,1
0.0108789663602347,0.00896119194303118,1
0.0109367073691372,0.00849010982040067,1
0.0101099486573758,0.00657359478999411,1
0.00687068046117055,0.0071919283342197,1
0.00462945203932648,0.00948977837301832,1
0.00459673303419406,0.0099990563433335,1
0.00439312550196281,0.00885623580831688,1
0.005028358950357,0.0114420258035066,1
0.00486168973841825,0.0110455546374685,1
0.00887552181171879,0.00203820040874104,1
0.0271628699121499,0.0137815466017572,1
0.0259568037235655,0.0105331653727214,1
0.0301493934542939,0.0104395629503469,1
0.0310036346706223,0.0067847123604925,1
0.0308111022569043,0.00575616147366463,1
0.046067391959663,0.00719568944848664,1
0.047734156178726,0.00291520249158471,1
0.0497967146590621,0.00231404986290472,1
0.0600456509679482,0.00429275391854357,1
0.058122192284614,0.00287699224241444,1
0.0585073735494068,0.00168959044322556,1
0.058591985991218,0.00209488912440069,1
0.061125535193045,0.00211318086721011,1
0.0622101953199103,0.00260731202254649,1
0.0532661117208303,0.00137202993568381,1
0.0446975570249621,0.000948768505067356,1
0.044367441975213,0.0039764968638627,1
0.0393046312602842,0.0044849891115268,1
0.0279897916249662,0,1
0.0573417015788934,0.0124854652222305,1
0.051909763051931,0.0102210184856181,1
0.0838175276264,0.0143256959312298,1
0.0907123159867982,0.017634792463718,1
0.0862949325455282,0.0177384707953606,1
0.0800970679142084,0.0146577993433181,1
0.177827725457219,0.0152817244533196,1
0.245556427870355,0.0146375563554703,1
0.216559858385402,0.0129453204638354,1
0.195968182667609,0.0111780018087257,1
0.190328545629768,0.0110143598802589,1
0.142180122942683,0.00795996096009442,1
0.134281342991555,0.00812864160665534,1
0.126326879238327,0.00755523439135483,1
0.119630253776814,0.00667854573745076,1
0.117137049516954,0.00653304076514277,1
0.101486573460203,0.0195475399945823,1
0.0766105766625588,0.0272667434435475,1
0.0843252184303706,0.0338807305992097,1
0.0655716531456054,0.0208751139685322,1
0.0640327206293013,0.0184433012427395,1
0.0640591730123302,0.0150433642776336,1
0.0421747971993919,0.00685810682020535,1
0.0459607418798883,0.00648965680516733,1
0.0408987210910976,0.0053127366977986,1
0.0409758618372794,0.00502350476861179,1
0.0414283324935716,0.00469847015759044,1
0.0466484496452923,0.00531230364235183,1
0.0499856608476913,0.00676110306244874,1
0.0470296969117214,0.00928472116773773,1
0.0357441311765073,0.00725017872906304,1
0.0467257211982443,0.0139620909392935,1
0.0409861767209942,0.00653502039093445,1
0.0600531567299395,0.0112079266210729,1
0.0601504228108524,0.00859744335858999,1
0.0707650279677779,0.0113155352700888,1
0.0998589146703195,0.0160045063388087,1
0.129609554086751,0.0203928092286496,1
0.147570354179551,0.023705970684032,1
0.158911657103877,0.0241888161309772,1
0.15990493338019,0.0239822885754756,1
0.164589237432369,0.023525559871824,1
0.12506055745718,0.0491363789669473,1
0.0355118563702034,0.0258397611694265,1
0.0124671686049113,0.0178813169736456,1
0.00510456324160959,0.00314502595848981,1
0.00586179010273545,0.0114411336245855,1
0.00555714218404881,0.0105009542508189,1
0.00574852835594024,0.0120327108003723,1
0.00524753994098075,0.0111481594132471,1
0.00507420190601292,0.0136416925182343,1
0.00569644164712172,0.0145795352163788,1
0.0110582418734068,0.0251947297629852,1
0.0123985237076875,0.0148753683842051,1
0.0123334966108674,0.0122330293981806,1
0.0164276154004101,0.0177585462660707,1
0.0165936459043469,0.0141806750676984,1
0.0250306082998633,0.00429927619176166,1
0.0750945449557932,0.0134036549042335,1
0.0725907158329841,0.00734528550623336,1
0.070778897037889,0.00695035347258569,1
0.0694942451198853,0.00667108104903445,1
0.0706839885311952,0.0065105992424536,1
0.072822523009285,0.00504656924611989,1
0.0821087473253492,0.00593121120043712,1
0.0877830166064172,0.00613656125906331,1
0.0845060014841977,0.00436326031115321,1
0.0845140985807586,0.00710048376568571,1
0.0528750769659429,0.00333207351157624,1
0.0493297917856473,0.00520618888086271,1
0.044653579372005,0.00395310807824419,1
0.0463780156385539,0.00419681903708142,1
0.0532326436156912,0.00223376111574494,1
0.0821547427542095,0.00816185649219209,1
0.0744916302137554,0.00752886092900862,1
0.119850789245207,0.0087517963891205,1
0.180012115806439,0.015852309337914,1
0.227337494753527,0.0212947498616713,1
0.22954860561916,0.0202391608943804,1
0.262179311875485,0.0218613421721892,1
0.249462864614589,0.0210462694415791,1
0.167774962006506,0.0141198600073313,1
0.141406046736673,0.0137763694134722,1
0.186731014121837,0.0128033668973559,1
0.219498474351045,0.0107284510478125,1
0.187742408318775,0.0110294524238619,1
0.189048012122655,0.0101731750988339,1
0.204426108782913,0.00961949992865218,1
0.215666485258595,0.0116379514083194,1
0.21989900441754,0.0117316483737347,1
0.218195963091774,0.01142422512142,1
0.201853024827307,0.0108072964649327,1
0.210106276990709,0.0104467423967617,1
0.232817679081338,0.0200154898492561,1
0.110457325421132,0.0118661282244081,1
0.102199209457383,0.0128965851872948,1
0.0821063482196031,0.00770963019008789,1
0.0960544667696565,0.0080076503697564,1
0.118785336340915,0.00959624859212642,1
0.131041730060572,0.0107219401305525,1
0.133900079743566,0.0126836444188203,1
0.162374290239328,0.015534961599206,1
0.194952031688067,0.019444510087388,1
0.194209034329532,0.0193491741223168,1
0.213969027106539,0.0208898733283841,1
0.266421567353002,0.0242864091817278,1
0.216565096730979,0.0292421398415144,1
0.115209125610335,0.0253779568008509,1
0.127156098815286,0.034723354194311,1
0.102402782462752,0.0314006574557759,1
0.0918034176673578,0.0273062647722149,1
0.0926146253316506,0.0278210991155868,1
0.0911647704597839,0.0311475558515987,1
0.0297127276102249,0.0141087757572846,1
0.00789162660664775,0.0131796938321329,1
0.00875425751191125,0.019004303294625,1
0.00492589662964764,0.0112857767386081,1
0.0039514578750927,0.0188235358542802,1
0.00405744251648794,0.0191481573488847,1
0.00307615420855551,0.0122656575508161,1
0.00331035778499505,0.0151702734612795,1
0.00404079228303378,0.0137591666584093,1
0.00460422649693504,0.00930660706913198,1
0.00566651984559855,0.0059521058864665,1
0.00864269459495791,0.0140201681317637,1
0.00977794128167053,0.0138423384302684,1
0.0102917283008849,0.00501617296908398,1
0.0544495173899394,0.0185848012921735,1
0.0596223949250509,0.00864873296967849,1
0.060406584470744,0.00603910322059976,1
0.074349806650522,0.00748977209798755,1
0.0721107871655023,0.00574735214759505,1
0.0647903738337976,0.00492036457069368,1
0.0580761320965081,0.00427122480868051,1
0.0578375003566646,0.0039761683989965,1
0.0658611035806191,0.00500530073735021,1
0.0647255784320656,0.00266616706070733,1
0.0513589334239552,4.12377169992903e-05,1
0.0641190910271025,0.00529494024477683,1
0.0602289167235122,0.00469987940557254,1
0.052031771452523,0.00197078225495791,1
0.0597790629583574,0.00404147978969928,1
0.0579403419001824,0.00319595013190678,1
0.0546833543275941,0.00264057704848318,1
0.0549256304900886,0.00219874016990177,1
0.0625920165680446,0.00386543465881851,1
0.0852700475797619,0.0123651671420573,1
0.0940122259445935,0.0164354076106053,1
0.156662233110405,0.0220654738397907,1
0.218822010252405,0.0367829655027543,1
0.230732229768334,0.0412623252942199,1
0.255067287315775,0.0465750142787238,1
0.282418108927369,0.052480764158682,1
0.277602038279869,0.0330196949391077,1
0.211571340383371,0.0252756537626512,1
0.19404940166437,0.0227052275463736,1
0.172532336639641,0.0214682922331517,1
0.156394795316068,0.0200752478774375,1
0.124585558163208,0.0205126463526746,1
0.129029543001854,0.0216533258849218,1
0.10298956806157,0.0180967414534556,1
0.0667912491458514,0.00495614390404126,1
0.172873838825398,0.013841867331578,1
0.188594729874575,0.00905083572996221,1
0.18019698642608,0.008542080751823,1
0.241468227382845,0.00682360462825714,1
0.349225396744312,0.0101296473796245,1
0.333846469964091,0.00923556086455964,1
0.40276638167646,0.00848381377596494,1
0.495583706552148,0.0109983531096141,1
0.452268860812906,0.00918078300618143,1
0.488637735855498,0.0107615173261754,1
0.535748144800315,0.0131371561541288,1
0.439552611493621,0.0166983623794115,1
0.237282865501678,0.00855755043861449,1
0.187360739169901,0.0119153186569902,1
0.225061304895918,0.0134682190789806,1
0.152976477603044,0.00901886681217259,1
0.141208274571947,0.0163242528070349,1
0.180369129951852,0.0227903617240848,1
0.15084001485454,0.0253628928635305,1
0.166011761591274,0.0407243686370815,1
0.176622014500407,0.0452753828416132,1
0.162876998371948,0.0440127516292565,1
0.113936243714628,0.0287843608209036,1
0.0320000978180458,0.00327465371728913,1
0.0104326498399509,0.0273070122374578,1
0.00938184347405862,0.0206109374955974,1
0.00546275497783592,0.0137222579397809,1
0.00778636709291987,0.00957375873250152,1
0.0129879523758645,0.0116239356243775,1
0.0132261573475312,0.00825938216861447,1
0.030746590994958,0.0157895965274794,1
0.0324159076653348,0.0100053176936987,1
0.0300502713556243,0.00945490455739698,1
0.0260941050298875,0.00682768343766652,1
0.0284435011307507,0.00719269667649089,1
0.028426535632237,0.00687795622343451,1
0.0252615931451032,0.00356243997220446,1
0.0272118411572118,0.00506338907627378,1
0.0277757189331985,0.00505158262809222,1
0.0258652632318934,0.0040872235913282,1
0.019785209675392,0.00137530148873709,1
0.0310956822288188,0.00722314410132302,1
0.0333846082642765,0.00280981685030922,1
0.0375988327018048,0.00480914024119546,1
0.0366391045702254,0.00484120561519551,1
0.0362299817976047,0.00554263067242139,1
0.0331883789703962,0.00542591800460618,1
0.0306579473115107,0.0044482943049357,1
0.0325389192837131,0.00601619282376895,1
0.0330810034299341,0.00689479784804302,1
0.0323302231648721,0.00838674247460117,1
0.0182287259198774,0.00463417331366344,1
0.0144959585936022,0.0127819359358139,1
0.0187465458239925,0.0180652691369317,1
0.0317124834793426,0.0263535332425213,1
0.050138693791274,0.0292021562919514,1
0.135479564304569,0.0501208025075132,1
0.292817935192214,0.0978920514828839,1
0.319579069003332,0.0454794873835835,1
0.351482087847355,0.0339036486793812,1
0.414286029589059,0.03602209893816,1
0.392445011640455,0.0361952110405298,1
0.357157917816556,0.0334378614229495,1
0.386275055211561,0.0342769979739696,1
0.294357636609289,0.0137664184845634,1
0.210745077162976,0.00921912219206685,1
0.189103151780306,0.00763163815245255,1
0.211111475327387,0.00843572523326169,1
0.26582068683965,0.0141397586948973,1
0.32026216402806,0.0146336987730189,1
0.362496700631724,0.0103491050000931,1
0.388935352844253,0.0045397967521014,1
0.486355053774035,0.00800573881563261,1
0.493327521275598,0.00646654470222017,1
0.554384168893209,0.00998866262627587,1
0.474400247893394,0.00580520024059985,1
0.462617390611223,0.00514923868768018,1
0.518609978458861,0.00658836736269318,1
0.499823238669674,0.00658863914950437,1
0.448728309145132,0.00590739527600264,1
0.438451067590455,0.00742002201002343,1
0.411326890287053,0.0142104810811325,1
0.234056091949303,0.00566585319296185,1
0.230122957676711,0.00546502764248817,1
0.345677146113928,0.0119427611139764,1
0.352155107132408,0.023587026751955,1
0.325402722098335,0.0238484284281094,1
0.43600434903887,0.0304590396396886,1
0.440509472447516,0.0340841036880222,1
0.409058729262663,0.0379125982358724,1
0.405271461357022,0.0448854359823255,1
0.342277979929907,0.0389720141783654,1
0.13886443618256,0.0193387468273581,1
0.0864049616031803,0.035952721562744,1
0.0779332832749604,0.0310092734331108,1
0.0434080416346638,0.0175444526100792,1
0.0203057989952337,0.00792565989386458,1
0.0183693408567181,0.0110976506131001,1
0.0173195077004654,0.0169713196782401,1
0.00402907059583495,0.00221790404963636,1
0.00411297549793152,0.0105261916974633,1
0.00405003586644654,0.0121017781095307,1
0.00370801316078641,0.0115108401429808,1
0.00341712704277516,0.0105996349941625,1
0.0046670449601398,0.0050549354568076,1
0.013613981033032,0.0162572069933304,1
0.0128953256835018,0.0120309595318191,1
0.0182715606500939,0.0148019130517138,1
0.0161661628132178,0.00980197046125425,1
0.0159321834727156,0.00571786360005652,1
0.0308858187015739,0.0123821138321073,1
0.0302452502553198,0.00808858552793704,1
0.0290414837575841,0.00771284220149243,1
0.0425254489501037,0.00461026645634684,1
0.0655083009109948,0.00571957915572342,1
0.066484878483821,0.00610957603395532,1
0.0646254545439216,0.00561743266615113,1
0.0665735858546265,0.00405651688294236,1
0.0665027738281183,0.00202904040692038,1
0.0721435408141266,0.00219660202630984,1
0.0811534932004401,0.00320865934912019,1
0.0793251325699598,0.00307659249397125,1
0.0716513226530583,0.00202338106661115,1
0.0638959288738825,0.00369611788102005,1
0.055549953512013,0.00405890392710415,1
0.0571612640004118,0.00191941597820857,1
0.0624764664764842,0.00262813994829512,1
0.0624621603790365,0.00386094026739902,1
0.0567053723640155,0.00646267129542171,1
0.0406204581172595,0.00568635064482837,1
0.0503766352280306,0.00171596262763391,1
0.168136013471856,0.0174206821731674,1
0.210812064552163,0.0200690112189916,1
0.281297366110525,0.0228238315485672,1
0.370301632123601,0.030870388692504,1
0.385099290055937,0.0355297216613183,1
0.477664651683648,0.0459437595763403,1
0.46352032678109,0.0464533383214961,1
0.444026433312411,0.0421638797639901,1
0.314611640947035,0.0322478903148174,1
0.186193803214405,0.0252934718566405,1
0.214513985325801,0.0209380976907964,1
0.17087650883006,0.0106441032840704,1
0.149047903306223,0.0114177346667258,1
0.178898536325851,0.0140348499754815,1
0.232199191718884,0.014269775896204,1
0.23292709658395,0.0117483096906038,1
0.251614119190906,0.00963017781141658,1
0.3028216568936,0.0113698775822314,1
0.364174215901896,0.0138785049719446,1
0.396034749184994,0.0171906153795674,1
0.276463823095157,0.00625659282176747,1
0.36666969625055,0.013333976887071,1
0.41713432945773,0.0134357986524985,1
0.412613642633068,0.0134796194887142,1
0.362317193143136,0.0134214578954394,1
0.407415157425663,0.0172052715575138,1
0.415707354177178,0.0217674119781022,1
0.445592817265276,0.0212558658195693,1
0.464151139611788,0.0221357030483808,1
0.369789082105468,0.00908443240299306,1
0.334592712468442,0.0160901192824767,1
0.405613857434432,0.00774052797122061,1
0.603989993225164,0.0142501099151451,1
0.554946490431005,0.0120080336319596,1
0.453289285801857,0.00892810583284993,1
0.500806296962456,0.0090854158190991,1
0.511853414239498,0.00899478675438865,1
0.52886429380884,0.0112646540210307,1
0.591592558503663,0.0119110454563581,1
0.599241211723092,0.0205328867737077,1
0.229881668725731,0.00279673663977823,1
0.141107118759616,0.0232353332032196,1
0.147717209810792,0.0251307834231862,1
0.106205085125062,0.0303601415740264,1
0.0195874219050128,0.00385541673526874,1
0.00569273552045767,0.0374073272072777,1
0.00453332699299487,0.046238662897044,1
0.00100610373523801,0.0221237009671993,1
0.00187696752448828,0.0799302345169397,1
0.00227812774258119,0.0969710988175127,1
0.00353293277299801,0.0971140056284449,1
0.00385225472665591,0.0524858676398803,1
0.00467754850091539,0.025496805679256,1
0.00763182643099296,0.0271392477429616,1
0.00640232975628942,0.0204556283740616,1
0.0143822051398648,0.00295830338394981,1
0.0384456102195596,0.0104035396477426,1
0.0364994188016223,0.00904447403006645,1
0.0356643137332713,0.00853971717671667,1
0.0350160250936309,0.0082420012307063,1
0.034551588308506,0.00754074316747098,1
0.035394734906282,0.00630494531613002,1
0.0383638511611876,0.00725575033392551,1
0.0382741836716834,0.00700469824710003,1
0.0326245824335026,0.00524866149193416,1
0.055523409756382,0.0147369424368455,1
0.0533709613637131,0.00773472107724383,1
0.0517900821636732,0.00708529238225024,1
0.050147186301272,0.00645334882765626,1
0.0502002443591592,0.00585315712642709,1
0.043802045859153,0.00462062462882008,1
0.0439140226295932,0.00370513164492811,1
0.0786310576169557,0.00923994631939333,1
0.0789113538166274,0.00713076905890522,1
0.0716570679732427,0.00615101952876081,1
0.0602051158764202,0.00531391217722057,1
0.0703631831228432,0.0118176012368982,1
0.14902526805338,0.0232596280820751,1
0.155383136754873,0.0149651607670034,1
0.184533964484597,0.00918715954254896,1
0.343711607944583,0.0188784989013632,1
0.463456288751911,0.0240125318988516,1
0.485863380112009,0.0142677515029119,1
0.454566769182897,0.0138375487149908,1
0.392321659795163,0.0130266732922081,1
0.317254693694841,0.00929266639510913,1
0.269627496895878,0.00772481392418308,1
0.294531161241222,0.00537203590096288,1
0.249366914549664,0.00366444287226417,1
0.237863580509094,0.00307300348293128,1
0.476869060121694,0.00992696936748242,1
0.644417136295797,0.0149693836570047,1
0.661472247198386,0.0143190862405093,1
0.62649202391742,0.0137195543443587,1
0.634167689454599,0.0110637153550582,1
0.632626498466088,0.00953472535222264,1
0.631592564367628,0.009575506507321,1
0.656452112488141,0.0122315461042016,1
0.791805280259102,0.0151413643423478,1
0.947320862978945,0.0253428487476262,1
0.797249949040289,0.0248848902925183,1
0.499863517468015,0.0140318940388699,1
0.323938000454125,0.0109036284197496,1
0.374249086377973,0.0143980561594891,1
0.28881399407957,0.0168682181955584,1
0.206923169666749,0.0200462855337084,1
0.233481272368049,0.0208053314651806,1
0.251579337363524,0.0192082880902769,1
0.234244950106513,0.0232031987844339,1
0.181177984403743,0.018586124730838,1
0.126191410779442,0.0136613450791226,1
0.194454292197334,0.0164836927922805,1
0.304276192024865,0.0316564656943982,1
0.261314098002536,0.0272337413946438,1
0.294577362872995,0.0319182445750331,1
0.38814831069426,0.0377874059294283,1
0.367329755835712,0.0494815345339273,1
0.274038058400763,0.0488257333865877,1
0.267551457630645,0.0462852296756268,1
0.183493013633064,0.036102270433399,1
0.085837614157398,0.0126313300562028,1
0.0575359759478215,0.0270454561246685,1
0.0521275025542619,0.0317749619528262,1
0.0185058028386769,0.0147496953893508,1
0.00590866224036087,0.0166871928366332,1
0.00620169662724571,0.0402321952798958,1
0.00579868472327091,0.0521024822051744,1
0.00573640496518847,0.0505303852836957,1
0.0114345385809206,0.0203156920113401,1
0.0355966980993434,0.0262964470153536,1
0.0321329595529049,0.0149414347505274,1
0.037968602458554,0.0140806701247708,1
0.0388948813553419,0.00943609485796728,1
0.0397871319382179,0.00909524562331556,1
0.0413667377587646,0.00831248454410921,1
0.0415853932357536,0.00808988527402077,1
0.0371961332022126,0.00635766890870268,1
0.0455764417654345,0.00723927197787211,1
0.0482867602382243,0.00462112048482861,1
0.0462807854118769,0.00255844996373851,1
0.193847341960235,0.00854729183176591,1
0.281200307982611,0.00420382550871346,1
0.277634919885569,0.0050813536708369,1
0.256222618209317,0.00433154913927752,1
0.252975996210477,0.00440680759546467,1
0.249937009801092,0.0043248051559198,1
0.240577850088217,0.00386689180201098,1
0.246478981597541,0.00420398187902601,1
0.243197045945735,0.00514464794474597,1
0.22407493737562,0.00462518542838477,1
0.110461134336433,0.00524705115273863,1
0.0189030652082675,0.00311349509924986,1
0.131181283769036,0.0123697505629823,1
0.283143060863872,0.0285834509285895,1
0.460417693689379,0.0349424127601133,1
0.818375484754801,0.0511359617715408,1
1,0.0417847505369582,1
0.916007513857788,0.036122598283755,1
0.785254248248456,0.0313295197811702,1
0.64232818943712,0.026873488053701,1
0.439616804987693,0.0186541367877665,1
0.289892173070825,0.0122377022085434,1
0.349496497281584,0.0151968331910121,1
0.337036032942337,0.0122828615662516,1
0.395669598079601,0.00994131055998819,1
0.486171933313375,0.01384079985865,1
0.603591882892695,0.0214711988383964,1
0.638886480619322,0.0249248421448744,1
0.523358427181142,0.011949629238891,1
0.402709899538127,0.00785864500534427,1
0.376170457890029,0.00604528382227069,1
0.426324303573664,0.00378194260298956,1
0.555344205773274,0.0072323780067539,1
0.61815809032555,0.00877719445235319,1
0.612814814033353,0.0105071555965016,1
0.584093059976632,0.00898940818828893,1
0.539466895523528,0.00860868218136973,1
0.417501144532168,0.00575275360203089,1
0.35966359977297,0.00706694044599712,1
0.352870656324044,0.00860605934904684,1
0.155316312515012,0.00386160419291513,1
0.105984913484724,0.0143106280910889,1
0.0912447625002831,0.0128680840296566,1
0.0704584321851563,0.0107327184840626,1
0.0533414029041163,0.0128177123724726,1
0.0629744979723934,0.00783097145884928,1
0.149532744620119,0.0135575084961302,1
0.146293995627297,0.0126119772765765,1
0.144771922077239,0.00721619120879422,1
0.320143333014113,0.0162425809137254,1
0.476861556393256,0.0219462328321279,1
0.58694918723582,0.0263573521913278,1
0.672776563839829,0.0280349524733071,1
0.718850317081904,0.0290190056895431,1
0.638982197577714,0.0262460054076156,1
0.550413152074929,0.0320375390946417,1
0.549971059780379,0.0440511065625774,1
0.28492621549478,0.0271327184628705,1
0.0459412338471788,0.0133705365120913,1
0.028126479587589,0.0518508013076773,1
0.0207691329620101,0.0208808779809291,1
0.0148188667794094,0.0117474502162583,1
0.0141367112117585,0.0111987115666152,1
0.0151213634538778,0.0118030992477468,1
0.0148395439598886,0.0122113382782901,1
0.0301594802338357,0.0123685692079974,1
0.0449201052604908,0.0113339501189161,1
0.0408472359544346,0.0109062210335402,1
0.035621053048273,0.00914469663010471,1
0.0293141257827597,0.00643128346280802,1
0.0278072970042963,0.00763684697379331,1
0.0275328150841336,0.0104006588980832,1
0.0303833136068033,0.0102416755929729,1
0.0343640299448829,0.00711153445429385,1
0.0332994834860664,0.00644799173699877,1
0.0290780779563155,0.00933667922768122,1
0.0226361270460638,0.00905176624255795,1
0.0247179385183662,0.00896480482963298,1
0.0320522578660488,0.00468470824060895,1
0.0422289094975965,0.00365313086118287,1
0.0467129922253684,0.00480384849206022,1
0.0469007450125148,0.00433575870120863,1
0.0478559423369243,0.00510483868925599,1
0.0443767927604638,0.00480797377844291,1
0.0586054847369663,0.00615171781882311,1
0.0667929839083791,0.00392745493800984,1
0.0672590661385564,0.00511083800120871,1
0.0606287322538655,0.00387734944558031,1
0.0543458125410896,0.00639664535160619,1
0.050182918193862,0.00748659473868424,1
0.0542552719155611,0.00852862905141196,1
0.0716413990565754,0.00823808904136213,1
0.12488242304841,0.0186562967551942,1
0.116294157377822,0.0157355330872512,1
0.126667047484508,0.0202617406225066,1
0.162095190001091,0.0237646357706937,1
0.338679746297007,0.0349547494337999,1
0.407350663396814,0.0277451105215157,1
0.427838845312822,0.0241048689207098,1
0.498566106994187,0.0183825489663844,1
0.420469909327174,0.0147062448640414,1
0.511592408401681,0.0108962031548231,1
0.687009278265168,0.0118934388562867,1
0.595675407493592,0.0122433498249266,1
0.453923970152736,0.00747432349958282,1
0.352520570274909,0.00529810218988953,1
0.376714377532549,0.00547957672539907,1
0.381308997750049,0.00568922154934759,1
0.46187140770098,0.00721976473061633,1
0.536427540681731,0.0094683147856583,1
0.475762538732196,0.00856519195849578,1
0.40617241592229,0.0139014043637566,1
0.282718014341863,0.0107549172311004,1
0.283034454152728,0.00999783989094356,1
0.249756072289538,0.00908642217074248,1
0.252140609691997,0.00967993104629781,1
0.238915275624509,0.0119654880238787,1
0.287987381850706,0.0114777542681179,1
0.342571151643275,0.0198056314674856,1
0.299439148296931,0.0188918519001338,1
0.312429614506343,0.0187373749056631,1
0.313928582416956,0.01787108172498,1
0.30717200759966,0.0204592491243381,1
0.226441178433009,0.0152393012902353,1
0.159172636946523,0.00735755855751361,1
0.224670838723288,0.00935504293698471,1
0.235888458291326,0.00926891937011645,1
0.22652725716336,0.0134086762013826,1
0.219181117153032,0.0114594408716349,1
0.215445584026788,0.0114274399837415,1
0.226999732998631,0.0110550250305375,1
0.264482021448526,0.0118194811555341,1
0.254155904724725,0.00849753392506741,1
0.372513628530024,0.0132454454865579,1
0.276093352023564,0.00898078046648398,1
0.314880214453911,0.0121964088591068,1
0.339762331730187,0.0153209427748187,1
0.391339810482713,0.0191897808535503,1
0.428594347851538,0.0254705372332525,1
0.314762810012178,0.0193411755441911,1
0.267983611919289,0.0193510497410774,1
0.203014256334251,0.0186816791138479,1
0.0821409359729556,0.0178266377770018,1
0.0829214094055692,0.0239594573755752,1
0.0400219699368086,0.0226954121425916,1
0.011165768063243,0.0264634610183421,1
0.00625514689140578,0.0180575579813521,1
0.00741676400397575,0.0229633021380836,1
0.00786897455257426,0.0212763968230228,1
0.0116520049654203,0.0298403051126046,1
0.0177513674533997,0.0412660551014504,1
0.0171340569205329,0.0183958390935378,1
0.0161531362053366,0.0123182320628631,1
0.0166053870779869,0.0109512206398644,1
0.0167786030746647,0.0115823259241027,1
0.0182937657025752,0.00645412485482131,1
0.0973049940760591,0.0149387870692243,1
0.150773774672755,0.00740708746943397,1
0.149231883149718,0.00800854442229518,1
0.147696031565992,0.00781943341781686,1
0.147946156314478,0.00769990230068569,1
0.147154083369327,0.00802976491582826,1
0.143209158038218,0.00772184566160295,1
0.143892129479062,0.00718338926243349,1
0.130457055278496,0.00630559034848944,1
0.127665478311013,0.00683752934947648,1
0.0757909615550643,0.00630430679652513,1
0.0278610905440657,0.00267039041645697,1
0.0914160225134576,0.00985250760906911,1
0.0931709237895475,0.00703882720384456,1
0.0914681530846815,0.00681950415960367,1
0.0844260143813375,0.00627202510346396,1
0.0845117032799651,0.00672382564322984,1
0.0913078860929464,0.00801119962749286,1
0.0923098064124997,0.0078352935737798,1
0.0927966617131672,0.00909079327899672,1
0.116706871490729,0.01013268996514,1
0.294962514892043,0.0273249026236943,1
0.425937478453215,0.0372005211681599,1
0.427670498738605,0.04059623844482,1
0.614290454410967,0.0481178691450094,1
0.80293262898166,0.051064619829267,1
0.727613212452717,0.0292080058468368,1
0.623146773795364,0.025737361981287,1
0.45098223348994,0.0196432448854542,1
0.342215874297211,0.0104825492436373,1
0.363634380622602,0.0101661848619366,1
0.364417376090443,0.00906079536782696,1
0.546646580743245,0.0114304293676308,1
0.634835663206368,0.0131290474932712,1
0.62094382562626,0.0149362951709119,1
0.398694060469644,0.00510537108136281,1
0.335987579153795,0.00456516364885683,1
0.363263032551849,0.00320321949427201,1
0.47571095815491,0.00557090366086354,1
0.451941592457562,0.00564423412339131,1
0.455357556185451,0.00687566837169769,1
0.457325673594932,0.00794944109751777,1
0.512499367355627,0.013753318109404,1
0.559054722359786,0.0156866750900865,1
0.434758748290932,0.010113584215071,1
0.39904299067612,0.0124496279768969,1
0.384727175629591,0.0142784984799293,1
0.322169278455573,0.0198142565239451,1
0.34743386400904,0.0213248318115878,1
0.381161567938364,0.0249882823480815,1
0.398904631413568,0.0286994547953213,1
0.391633352647141,0.0311300214290194,1
0.285265732910221,0.0232593319810368,1
0.157011321614208,0.0127807390453713,1
0.117933737935976,0.0131523902630919,1
0.125566831218904,0.0121747331250034,1
0.177247927798904,0.0175925895767173,1
0.17216389024637,0.0171574717028199,1
0.174886213615598,0.0170381006787585,1
0.230787110151299,0.0144567709224312,1
0.233487036242166,0.0134749825069197,1
0.2317765966707,0.0143334088815259,1
0.256290236432746,0.0169773462628468,1
0.215611389627832,0.00859110504299559,1
0.241151346962358,0.0102531503900355,1
0.274675178834241,0.0139598784034327,1
0.313620521359629,0.0152845283124643,1
0.372584871427641,0.0181053374673925,1
0.430109614095601,0.0288165315341825,1
0.347673959846448,0.0340248079361822,1
0.361014583948271,0.0330881640570725,1
0.320029531518158,0.027888508326567,1
0.135503372246804,0.0146916089462482,1
0.0915938689931795,0.0407425532582508,1
0.103797256254348,0.0435716073276969,1
0.0737886593809239,0.0359921505544407,1
0.0778673891302232,0.0446761370280701,1
0.0817840426999358,0.0417308521325436,1
0.0881597449599942,0.0407371278891899,1
0.0932132191967178,0.0357169352924644,1
0.0777578961454365,0.0478907457245259,1
0.0393120843703392,0.0238496330109753,1
0.0184882483300652,0.0104741191799002,1
0.0270014832384679,0.0179156347333397,1
0.0267021417008041,0.0198847097043353,1
0.0281457686942451,0.0251760586808579,1
0.0394440670945813,0.0360943665482213,1
0.044834564159059,0.0371542940202779,1
0.0414811577392437,0.0332569405439471,1
0.0338959614008879,0.0269805584608366,1
0.0328679165847833,0.0258187901565153,1
0.0244301828626935,0.0185300127889704,1
0.023016084256766,0.0304165669697518,1
0.0224530080478418,0.0348363799253563,1
0.0285708758213133,0.0259117876046524,1
0.0322878899546387,0.0196609016901767,1
0.0296464071364998,0.0204923589337261,1
0.025735960386112,0.015001484675388,1
0.0330969757727811,0.0154574590078229,1
0.0402149666583055,0.0146703178771373,1
0.0326340917256731,0.0114654345637414,1
0.0289142065546655,0.0104447339628524,1
0.0280346221547746,0.0100331075789706,1
0.0253936353286441,0.00679571230985037,1
0.022336111415685,0.00753712659613789,1
0.0199521864696573,0.00998606208746936,1
0.024355275482254,0.0125535530861733,1
0.0287659605206849,0.0187046334295804,1
0.0238389972332717,0.0271111877671904,1
0.014458826252496,0.0309608555389452,1
0.0158903091030851,0.0222559723200387,1
0.0179430437781338,0.0219975304207978,1
0.0151143434293116,0.0178190290538011,1
0.0138073411866726,0.0157985637531027,1
0.0136591748086655,0.0099321046711689,1
0.0165073548391747,0.00996002325755088,1
0.0161986358940127,0.00945885203044876,1
0.0151305857466316,0.00848269950545183,1
0.01364967939625,0.00742627038989214,1
0.0133506554152991,0.0067653233633279,1
0.0156740105775535,0.0122399687367803,1
0.0139970069494982,0.0134485841179808,1
0.0147354549375164,0.0144550879212369,1
0.0141725849224825,0.0160596345918382,1
0.0156514406528491,0.0301271860670031,1
0.00800701078679125,0.0375958251057842,1
0.00914523029670969,0.0686793362195145,1
0.00842051484910963,0.0761196376380818,1
0.00611203169965495,0.0484410222323595,1
0.00379138348396581,0.0416967415146527,1
0.00413464192583242,0.0463499555368784,1
0.00420927581711097,0.046234720462582,1
0.00381435791968482,0.0443817937049491,1
0.00195799729643104,0.0307515545022333,1
0.00126939869133626,0.0526732422561601,1
0.00109490696532817,0.0638333948726201,1
0.000855241174389133,0.0697908909805859,1
0.00086370421754497,0.0746046920203804,1
0.000660830980379162,0.156195150274734,1
3.27390471299223e-05,0.12487221820567,1
1.21145341462024e-05,0.427463420988121,1
1.95769033856601e-05,0.407681636937877,1
4.58758596512301e-05,0.518715142311221,1
5.98758783961628e-05,0.591845996729585,1
6.42519075026243e-05,0.595548927829303,1
5.65262566157078e-05,0.552589273885673,1
3.99576581653363e-05,0.460666707582022,1
3.36316226562265e-05,0.32380015615461,1
0.000113238937345462,0.210920136007864,1
0.000769794348860931,0.0950015632766972,1
0.00415809252860722,0.12131831021769,1
0.00548432762511389,0.105945027478513,1
0.00674906178678743,0.112168077684543,1
0.00919627642504445,0.0845075776207204,1
0.0217339286838582,0.0829228223778481,1
0.0302412887656141,0.0933666447353157,1
0.0474621629028827,0.0956714266500736,1
0.053518474684179,0.0445449297728234,1
0.044103717031091,0.0395790148543253,1
0.0363621601005454,0.0335361764050612,1
0.0434952460431524,0.0145922465864072,1
0.0495568657258313,0.00955567734786919,1
0.0424698429751784,0.0081221186021414,1
0.0401006092021643,0.00777569532428118,1
0.0438016948224914,0.00941026344502091,1
0.0475763924937342,0.00980319788170234,1
0.0539718916445285,0.0130223435231182,1
0.0544468522448998,0.0145566533990653,1
0.0626547264808569,0.0160850011782131,1
0.0670034697946593,0.0169403068055868,1
0.0519109672312584,0.0375296929902963,1
0.0159769904274028,0.0487799033745215,1
0.0142705456254128,0.0523998045994978,1
0.01225641757419,0.0473943605718623,1
0.00769697742366687,0.041017793537223,1
0.00134691114220759,0.0326147219076946,1
0.00131856010139742,0.0590388713649081,1
0.00112738132184977,0.0627124320444438,1
0.0011833607528595,0.085461507651645,1
0.000474973961049172,0.0725184375982312,1
0.000267672837669213,0.0930673022007036,1
0.000255487156752715,0.0989826919432323,1
0.000297541423985544,0.0805425886857731,1
0.00042500736084584,0.0714403513096196,1
0.00036247869157529,0.0794042534630598,1
0.0003237862107008,0.106089562498816,1
0.000337005727237028,0.107041029356619,0
0.000356797451783202,0.112710743807239,0
0.000365959752563138,0.111993007718748,0
0.000363087421241564,0.110194404132157,0
0.000380625681563967,0.111717060720491,0
0.000388807654287772,0.11428501017223,0
0.000280006075594029,0.215155043785872,0
2.09371834423708e-05,0.193321811769021,0
1.16515508637166e-05,0.276334700095917,0
1.42154621441919e-05,0.30059134358625,0
1.42025283646821e-05,0.298456035940078,0
1.359033121122e-05,0.281229024870895,0
1.61571494540875e-05,0.387567553845541,0
7.33189509703207e-06,0.340216720370218,0
6.88129369875366e-06,0.401267239902586,0
5.67228564710006e-06,0.373304301647485,0
5.60920392251408e-06,0.363506818710187,0
4.84268018497243e-06,0.344488359784063,0
4.54510650132705e-06,0.398357842295428,0
4.35910418643891e-06,0.406245354051998,0
3.60325160149216e-06,0.370052388367876,0
2.66275297030723e-06,0.348757461444488,0
2.7284615910126e-06,0.40258306650212,0
3.44639945246104e-06,0.481616586546347,0
3.68162831792275e-06,0.510558207468464,0
2.73699171409403e-06,0.449893276365485,0
2.12290653216326e-06,0.435400677448343,0
2.44030451472965e-06,0.46376452145198,0
2.72041432728953e-06,0.491143543389215,0
1.48999964149831e-06,0.387521613155236,0
4.97158166767364e-07,0.263867396719565,0
3.67709495759965e-07,0.233258783595997,0
4.31443270067084e-07,0.238381435534242,0
2.99696813498361e-06,0.477539665875112,0
1.14494167576626e-05,0.740176870271298,0
1.25284067225206e-05,0.525867438790433,0
1.27601635245484e-05,0.530920221799226,0
1.28264836625078e-05,0.532325897623413,0
1.21350597875545e-05,0.517638657108701,0
1.19439034425967e-05,0.512758533913561,0
1.2259908285043e-05,0.519457928299923,0
1.19451377215956e-05,0.510779206852898,0
1.17724219494311e-05,0.516082192077386,0
1.10585881964039e-05,0.569278648080703,0
2.97325991046276e-06,0.356555469873279,0
8.17534108918398e-07,0.273543703966375,0
8.0724526901342e-07,0.273516269091907,0
8.645937414995e-07,0.283224525964194,0
7.81748385943308e-07,0.270004572448332,0
1.87077680465942e-06,0.394347821605454,0
8.11570828530067e-06,0.605521093113957,0
1.67258769748068e-05,0.701699641101599,0
3.86378850795215e-05,0.543359000903558,0
4.65527237409925e-05,0.307456634584253,0
4.27329492691167e-05,0.303992256180276,0
3.94780582710779e-05,0.298839535412665,0
3.60946584322694e-05,0.258821670898612,0
3.51087738978959e-05,0.255009967005399,0
3.61840348757784e-05,0.254870266558806,0
4.05389209398886e-05,0.262691592574769,0
4.23389411319369e-05,0.290924599184512,0
4.21883141161067e-05,0.303514390618155,0
2.39588565083168e-05,0.336395148602185,0
2.57612913894066e-05,0.277361903518132,0
9.79423606813849e-05,0.444468345416277,0
0.000114138935804745,0.291772393997646,0
0.000113066535634542,0.303093413208252,0
0.000109355338620352,0.313579514443662,0
0.000107677129213506,0.308637837349993,0
0.000106314602742867,0.300303543514519,0
0.000108114236961229,0.293705416520682,0
0.000106857202250778,0.28776585673069,0
0.000106722498480033,0.292451507736859,0
9.94453035163855e-05,0.497519961280191,0
3.78887115914075e-05,0.213263612604274,0
6.07470879515464e-05,0.313817426722008,0
6.27784430157148e-05,0.256737250156775,0
6.27313399741689e-05,0.244222428410166,0
6.15889944944469e-05,0.23342556653726,0
5.93155556093767e-05,0.223455339935742,0
5.59456957065863e-05,0.205246116059329,0
5.16249504010355e-05,0.193117366198827,0
4.62128226556778e-05,0.17917835952035,0
4.64250281645632e-05,0.172458143574357,0
4.39296429035082e-05,0.220485273636774,0
1.92717583679056e-05,0.193543654270708,0
1.89615803944833e-05,0.255601409220035,0
2.06190434541562e-05,0.270325164219537,0
2.52625506259229e-05,0.332430098737685,0
2.68688929613085e-05,0.386218281912478,0
2.80166140921704e-05,0.532499108965115,0
2.84431844444398e-05,0.567755036149648,0
2.96056248753633e-05,0.599340753209205,0
1.52200090031789e-05,0.594713415558265,0
3.53051595848623e-06,0.411928931693809,0
2.46076425813526e-06,0.398531141861946,0
8.30695916243183e-07,0.25094484548084,0
3.20096660377552e-07,0.210923161862002,0
3.12891818221221e-07,0.220320251458318,0
2.79521307287213e-07,0.203941765371068,0
2.90776258158602e-07,0.207862666483672,0
2.63805170034182e-07,0.202928994544827,0
2.1997257558571e-07,0.192863262264963,0
2.39490919754866e-07,0.206878133972863,0
2.19983035577225e-07,0.20318473648466,0
2.18272826964333e-07,0.205057108189048,0
1.72359740203298e-07,0.189191027622211,0
1.77199578277825e-07,0.197433938206776,0
2.4061327684455e-07,0.223236508933291,0
1.73852511742548e-07,0.188537381403017,0
1.76343950971803e-07,0.188461037142833,0
1.92889565552066e-07,0.191129169032667,0
3.01133349508223e-07,0.225595527042322,0
3.43082491734316e-07,0.247714445376253,0
3.63958673552164e-07,0.261896120474499,0
3.34594208618951e-07,0.255025412655982,0
2.40245085143181e-07,0.207186003118324,0
1.56217489045877e-07,0.17240328695008,0
1.62710005779957e-07,0.179361001591637,0
2.16301118563537e-07,0.207099541997927,0
2.03948522332421e-07,0.198935661915086,0
3.72791613387985e-07,0.262200150068214,0
4.21139132424514e-07,0.282940109047204,0
4.21038324256277e-07,0.26723911346828,0
7.69237843840298e-07,0.2876197112009,0
3.86952755227235e-06,0.589657032989637,0
8.09122915940507e-06,0.860788927759633,0
1.06980798818032e-05,0.817759216673792,0
1.05119092918016e-05,0.613917701430829,0
2.55153805191088e-05,0.606388959931257,0
2.87559503505132e-05,0.445363837206452,0
2.60986381447931e-05,0.42821933410545,0
2.50516430712348e-05,0.423934171142404,0
2.43457976137285e-05,0.417380538757038,0
2.53417923836519e-05,0.426906925974574,0
2.9987926451538e-05,0.470134986099022,0
3.24349891667862e-05,0.487145219508088,0
3.3691950657296e-05,0.494493723434311,0
3.460152850756e-05,0.567031657762589,0
1.59903187346498e-05,0.680208083041341,0
2.6841129267327e-06,0.584548628893288,0
6.09904454071651e-07,0.304354948359646,0
2.84935398895978e-07,0.233240322987378,0
1.77836199511477e-07,0.18174780537261,0
1.99633775832005e-07,0.203803326727585,0
2.55736986328085e-07,0.222895344954773,0
2.51465518042567e-07,0.229260062120638,0
2.38429230615975e-07,0.227617007677726,0
2.49747987435613e-07,0.212783670268838,0
2.95377739176455e-07,0.221886370936387,0
2.58680427940733e-07,0.205959339884924,0
2.40025425321342e-07,0.20093441435903,0
1.9831686290012e-07,0.186465328695378,0
2.08905904561611e-07,0.198337893236608,0
2.05457899108203e-07,0.19486420649674,0
2.32702385260877e-07,0.214459088526128,0
2.38312078710994e-07,0.210840887563259,0
1.97969068182208e-07,0.190800859494951,0
2.09625551977923e-07,0.195866066667668,0
1.7033573184492e-07,0.180411560109519,0
2.02826688242313e-07,0.195503579025211,0
2.3836124067112e-07,0.20573662363962,0
3.5634053098105e-07,0.254537592354317,0
2.64449505511577e-07,0.200827076440522,0
3.26324539326274e-07,0.227750070043945,0
4.51085172886025e-07,0.253526869816793,0
6.75658575740118e-07,0.290975262731934,0
6.62402628491687e-07,0.293568210276283,0
6.7226783874026e-07,0.314925157013969,0
7.15993741275268e-07,0.324686753589393,0
6.94924834113735e-07,0.312894952868543,0
6.60584681966178e-07,0.315130040349885,0
4.00904278836501e-07,0.244389733122165,0
2.77361972788596e-07,0.220892615508726,0
2.89290024114049e-07,0.214659540172927,0
3.50137756011966e-07,0.249456819512578,0
3.33609923417281e-07,0.262395072859184,0
3.91684450064475e-07,0.288106238960661,0
3.86261990462496e-07,0.283991670364755,0
2.99933980731001e-07,0.271905657121436,0
2.9656233321566e-07,0.282760825926475,0
3.25224801968245e-07,0.263833501978957,0
1.27473262384604e-06,0.446929453143827,0
1.43663812552851e-06,0.394896603536569,0
1.41102565955215e-06,0.403520469647206,0
1.3749125388426e-06,0.391865718929981,0
1.31432159973641e-06,0.375293778696987,0
1.25786627977592e-06,0.362856536606355,0
1.30803828283265e-06,0.370239029078044,0
1.36722444507822e-06,0.375747647006752,0
1.41530484208141e-06,0.379534090585552,0
1.41242834441446e-06,0.38799376191198,0
4.66530265608893e-07,0.25024618958824,0
1.34931929310065e-07,0.17479764492673,0
1.38236109880126e-07,0.166528794811336,0
1.77984077641537e-07,0.176941440504997,0
1.8006352395495e-07,0.175666896367423,0
1.80016061743445e-07,0.17786713551857,0
1.67645029777282e-07,0.17327434701508,0
1.60780660344802e-07,0.164832313153772,0
1.54700790276033e-07,0.165998206685905,0
1.49026244878516e-07,0.166419921686517,0
8.91191277176901e-08,0.140316845968389,0
7.88993237567191e-08,0.131659516064186,0
7.45222095568875e-08,0.130846740600479,0
2.84743196551869e-08,0.106743224133315,0
3.26457642718317e-08,0.115124012573325,0
4.11162654016187e-08,0.120966580709253,0
3.87333485843435e-08,0.118786384170842,0
4.42427568657991e-08,0.126294919665131,0
5.08665464934081e-08,0.127327661603998,0
5.18606379371252e-08,0.125897721799127,0
5.08083627905993e-08,0.125016638666122,0
5.08623624968016e-08,0.127398118811169,0
5.15391239478972e-08,0.13673933838635,0
4.25010375284645e-08,0.12238570359619,0
9.68748191772413e-08,0.168340974822915,0
1.13240521903426e-07,0.183268103635369,0
1.30387978245551e-07,0.172460533248138,0
1.53621319151565e-07,0.182345031317257,0
1.56691326661558e-07,0.187045751964923,0
1.83242969126181e-07,0.210428406499698,0
2.10878658961559e-07,0.224627710811783,0
2.26521576273978e-07,0.228201663100252,0
2.22462053566556e-07,0.222742210721177,0
2.16981018012087e-07,0.23166248482769,0
1.12324618896292e-07,0.170037908471055,0
4.02554080998389e-08,0.114232310722334,0
9.89528272418204e-09,0.0919009708947107,0
2.24859745121848e-08,0.108999412420909,0
1.56837112793315e-08,0.103192852172927,0
1.74828298201111e-08,0.1009761810557,0
8.01728277238115e-08,0.148244523166779,0
1.38080386756429e-07,0.185394241621454,0
2.03192657195485e-07,0.210181368927216,0
2.0359745886716e-07,0.207179418423093,0
2.06207880499912e-07,0.208405874774402,0
2.01380986664885e-07,0.200489207842946,0
2.02014469901083e-07,0.200603149166337,0
1.47737573923724e-07,0.179197175227706,0
1.17877828392222e-07,0.157907244053398,0
9.23428971029707e-08,0.142363542420481,0
7.71274011938812e-08,0.13876687898003,0
6.16230787690521e-08,0.129393485575107,0
3.26740062489255e-08,0.108888593697418,0
3.66467110267633e-08,0.115703386988201,0
4.62223102602326e-08,0.124563159257503,0
5.97861735089202e-08,0.142590979482246,0
6.82510523932673e-08,0.159425638202056,0
7.57376605710653e-08,0.155860281681054,0
7.28172309397534e-08,0.153539833089505,0
7.42994117375933e-08,0.146172543992079,0
1.24591181697188e-07,0.166286079979324,0
1.56010773463538e-07,0.173375441539879,0
1.53790248014551e-07,0.16992629621333,0
1.73084225365685e-07,0.181693325731519,0
1.76859759303444e-07,0.186042154253123,0
1.62636132089874e-07,0.18166183391676,0
1.56403676894864e-07,0.167025232892945,0
2.10188953270963e-07,0.191589693215088,0
2.11893278138627e-07,0.194296432348436,0
1.90509917482139e-07,0.195391035009464,0
1.25760085749119e-07,0.169605738464207,0
2.35961326367631e-07,0.237003616786469,0
2.62530097068361e-07,0.257557315118473,0
2.45388393721571e-07,0.24951245528539,0
2.27155059510175e-07,0.240472802221343,0
2.37023407756203e-07,0.233209620878175,0
2.89615199100308e-07,0.252768327429889,0
1.76977826457683e-07,0.192909146070957,0
1.96686673222327e-07,0.2039678157726,0
2.12567947591419e-07,0.218243631918464,0
2.22311037439041e-07,0.219522603893369,0
1.50823271420992e-07,0.192785139482807,0
1.38338617796985e-07,0.17439912992855,0
1.62092212531034e-07,0.178892580860233,0
1.60465683850271e-07,0.177999795627201,0
1.61939627404792e-07,0.18143490072742,0
8.89088818882151e-08,0.142150570873071,0
1.35718389922186e-07,0.172603360593478,0
1.25040961332383e-07,0.161681970592575,0
1.32104462853353e-07,0.15371150726302,0
1.74404668544707e-07,0.168989130352043,0
1.73628667924102e-07,0.166647202605301,0
2.08091071222503e-07,0.186033530265194,0
1.86484912746721e-07,0.170217405861785,0
1.99217991169237e-07,0.184086065039407,0
1.83740210972881e-07,0.184259117316681,0
1.72274099022759e-07,0.179660716192174,0
1.42371075276359e-07,0.171157577870182,0
1.41108554300358e-07,0.175588552213072,0
1.21029423836042e-07,0.18134853142551,0
9.68627901869975e-08,0.178708272544292,0
9.55866712220259e-08,0.183476406868113,0
3.71580738620096e-08,0.13053364216719,0
1.77721793354269e-08,0.119500903920445,0
2.29272554042727e-08,0.11998524765898,0
3.32869617517724e-08,0.135228392633073,0
3.06003129308466e-08,0.143803303712544,0
1.19400803156976e-08,0.121735295628312,0
1.04475702762354e-08,0.127639233906451,0
1.15415546389317e-08,0.12517857282377,0
8.48318386950045e-09,0.116339590460045,0
2.1613611219737e-08,0.128033300935287,0
2.3896504368139e-08,0.135158140598414,0
1.99785837958671e-08,0.11772350346973,0
3.07471450617546e-08,0.126004600320412,0
2.98346415518636e-08,0.12215409861109,0
4.70772838167848e-08,0.137086829506011,0
4.4883431346164e-08,0.129316979428882,0
4.13577604557482e-08,0.126035485567574,0
3.00829356004785e-08,0.114804880883397,0
4.47886376730488e-08,0.131987394540021,0
4.14447091352263e-08,0.126118373071212,0
4.22991596922026e-08,0.132456109860686,0
3.481935050889e-08,0.133724749688638,0
6.42302316544551e-08,0.155801651390134,0
6.83012603525449e-08,0.155942829127163,0
5.52503289378311e-08,0.140328983827017,0
7.85545362863675e-08,0.149266908254193,0
8.58399203773734e-08,0.142432764312215,0
1.35038490473636e-07,0.164818799101691,0
1.39081277194632e-07,0.164706642603127,0
1.43532657334228e-07,0.17725985685507,0
1.06780954142621e-07,0.151398824743669,0
7.52596389587767e-08,0.131100370750536,0
9.99395966914763e-08,0.151554221711657,0
1.13566350639155e-07,0.157385316509853,0
2.07272053886787e-07,0.203396624487321,0
2.1586349866848e-07,0.21300730029181,0
2.20972550774655e-07,0.215292089845271,0
2.33033051742682e-07,0.231363209757227,0
2.50075515919963e-07,0.225178591636902,0
2.50932712224712e-07,0.207785143325309,0
2.48460362479974e-07,0.201807753685774,0
3.05802035971567e-07,0.210646514163776,0
2.98977545256742e-07,0.213166822766251,0
3.37004190664275e-07,0.226773097300278,0
2.51499643764888e-07,0.198494018068789,0
1.95896813112962e-07,0.176289754194317,0
2.87386305658108e-07,0.217194685836068,0
3.603540297258e-07,0.229698396149153,0
3.45637998411608e-07,0.236675044003098,0
3.14909158335007e-07,0.231690571951182,0
3.14401194997003e-07,0.237568002188312,0
2.88745058556058e-07,0.237416307954518,0
2.9326377489104e-07,0.239134120033227,0
2.93674329558048e-07,0.242731770683559,0
2.49298338550312e-07,0.221389571552786,0
2.47987701613337e-07,0.222348001550745,0
1.48746309355565e-07,0.180790917989281,0
7.17891445236086e-08,0.132786691379933,0
1.01450411716092e-07,0.143854789427314,0
1.65482295781422e-07,0.174476498048876,0
1.91715954503953e-07,0.185610963155006,0
2.12256893593708e-07,0.179251566723136,0
2.6597875627124e-07,0.187129257370834,0
9.12608109806239e-07,0.309310890496496,0
1.12687476001988e-06,0.322078618489337,0
1.13062780497588e-06,0.311965410326839,0
1.18747785886621e-06,0.320936534850274,0
1.17899545949608e-06,0.322862303711548,0
1.11409853413236e-06,0.322516922360316,0
1.00680517115534e-06,0.300485301692856,0
1.11226071362297e-06,0.307380661186184,0
1.12877651722742e-06,0.313760802747536,0
1.0274563324057e-06,0.320666329390319,0
5.49400202145147e-07,0.259654510927103,0
3.46423413024579e-07,0.222823999597742,0
3.3154577484146e-07,0.229512785965384,0
2.72608298894182e-07,0.204887211831899,0
3.12432755343556e-07,0.225524783470786,0
3.14068567266788e-07,0.225836909886068,0
2.77559143628676e-07,0.219559614768651,0
1.21764891989522e-07,0.168016430520112,0
1.66731218768451e-07,0.201621504900615,0
1.73839829002834e-07,0.202037565511748,0
1.72333590224507e-07,0.201877467581104,0
1.93386415149084e-07,0.223457335164302,0
1.58392644281662e-07,0.208100623915614,0
1.65827606251349e-07,0.202883988918694,0
1.77594965957136e-07,0.20400567373205,0
1.67155894424007e-07,0.195303056445946,0
1.89779810074311e-07,0.217572048858623,0
1.81271652975066e-07,0.202618612871305,0
2.02933249405884e-07,0.216850830021729,0
2.07128752003016e-07,0.222593194786847,0
1.96400984704041e-07,0.224851696526278,0
1.93881172747799e-07,0.215867215751452,0
1.95073611780641e-07,0.204819217619083,0
1.5820632568278e-07,0.190969144730582,0
1.56705316900211e-07,0.189719251830562,0
1.49826957229078e-07,0.186007328827318,0
1.01771141205956e-07,0.151526704429173,0
9.14987757876164e-08,0.155865586166063,0
7.70149562850827e-08,0.148124131369103,0
9.40898464360634e-08,0.163331281244167,0
2.22536319506321e-07,0.194559985285235,0
9.30153699575446e-07,0.358887479887848,0
1.14990360809176e-06,0.400155796494547,0
1.23778008881733e-06,0.406790552904107,0
1.17736513906839e-06,0.404501100998468,0
1.17687260421787e-06,0.385135249322959,0
2.42216545119179e-06,0.419805479755714,0
4.78951989308942e-06,0.512622613528392,0
4.47054284405378e-06,0.423798712322406,0
4.32549479544865e-06,0.413567580326291,0
4.62687683125517e-06,0.446908993756856,0
5.00191002082507e-06,0.472759341518276,0
5.20245734616612e-06,0.485611147910149,0
5.32583503809754e-06,0.493709110175386,0
5.37945556960725e-06,0.497585527157698,0
5.41176426065248e-06,0.505597212325887,0
4.17980698761241e-06,0.572065164125651,0
6.29675930035498e-07,0.254636668754638,0
3.20548662760944e-07,0.264816704376818,0
3.21555436944375e-07,0.258211864963323,0
2.64063139574949e-07,0.224631374143335,0
1.90206708478065e-07,0.197911005158125,0
2.29115654169986e-07,0.205701569549351,0
3.82929437165448e-07,0.274687325565893,0
4.75877967777205e-07,0.28884094248651,0
5.28568475291243e-07,0.288392328869657,0
5.25254357729242e-07,0.288608072066715,0
2.90304721741054e-06,0.132610396033136,0
5.07664642485823e-05,0.269416809235706,0
5.64894791547871e-05,0.185044099225658,0
5.63843959880174e-05,0.188972780467349,0
5.51635151922435e-05,0.199461319139818,0
5.33952170164662e-05,0.20063776656752,0
5.07701911435594e-05,0.198787541711878,0
4.86446948482467e-05,0.196575484965052,0
4.83831813316038e-05,0.193493467543004,0
4.72306771081213e-05,0.189615533035171,0
4.70881308279871e-05,0.243086715176009,0
8.31037134241429e-06,0.19213944863636,0
1.28865068855744e-06,0.367741128980267,0
1.25405256686912e-06,0.384140044926091,0
1.18920375746638e-06,0.403858584640877,0
9.39223558219111e-07,0.366514991992174,0
4.85114140285974e-07,0.279477092985588,0
3.02006758799822e-07,0.217756404974493,0
4.76264333713833e-07,0.270597547553912,0
4.34000345743103e-07,0.247568164264079,0
4.7893581554706e-07,0.262768719098382,0
4.82194102904344e-07,0.260821394059296,0
4.92568453239967e-07,0.258267473713157,0
4.89512043718945e-07,0.254996739259995,0
4.79783728609338e-07,0.268611980710726,0
4.57586972862577e-07,0.249714344856264,0
4.4292311075607e-07,0.235825350247963,0
4.74190248146072e-07,0.24162525287207,0
4.9387372943129e-07,0.244275108637023,0
5.15433994694295e-07,0.247241571903185,0
4.5112374410474e-07,0.226622141581549,0
4.46248995808528e-07,0.230127618642104,0
4.65715563019679e-07,0.235575122332149,0
4.38754804136881e-07,0.227437034324389,0
4.1772302994523e-07,0.208230376396251,0
5.26204517208592e-07,0.240032502011117,0
7.37453067620141e-07,0.278554961903895,0
7.36930068044332e-07,0.270774832825783,0
6.01999315483314e-07,0.243540720603364,0
6.72890208235472e-07,0.264647683721679,0
7.09360014655717e-07,0.276554030552301,0
7.37998425427816e-07,0.286510012491063,0
7.16394358950336e-07,0.284314536882295,0
5.54676614115581e-07,0.246463107408351,0
5.31662540781724e-07,0.252220155983295,0
5.42267533930277e-07,0.255954276610361,0
5.12884371762228e-07,0.258385633159065,0
4.14801423564872e-07,0.262564528742129,0
2.11091127539232e-07,0.197823290358439,0
2.30145571084646e-07,0.213203763794905,0
2.48876800892211e-07,0.213897664766388,0
2.55420571584721e-07,0.217875934800937,0
2.08253201091003e-07,0.19930419274879,0
1.80722111170786e-07,0.196194319633917,0
2.55600483438799e-07,0.201890371783475,0
4.24748875496741e-07,0.246167851478457,0
4.30331372968916e-07,0.249217663799804,0
4.49460605453671e-07,0.249579793095218,0
4.67529194798687e-07,0.26227720903119,0
4.62426418687421e-07,0.262295493745927,0
4.67323263715712e-07,0.265135844883237,0
5.49445703108243e-07,0.272130883564338,0
4.63926773720522e-07,0.239007888545,0
2.66577067785964e-07,0.173042837893316,0
2.20474655178485e-07,0.17208796758107,0
1.78996604820302e-07,0.167181212211048,0
1.89015315444374e-07,0.17132887072217,0
2.06798216271105e-07,0.170262716291538,0
3.34499676445624e-07,0.207216320546158,0
3.61923028453225e-07,0.207420895018259,0
3.44651490461739e-07,0.208352299198702,0
4.3491402600204e-07,0.246196238111265,0
5.34023360866921e-07,0.289652884744017,0
5.36534804829951e-07,0.305552514228936,0
6.26025262246465e-07,0.326079469050295,0
7.51946824114614e-07,0.362900845000838,0
7.31869916398495e-07,0.365312910875747,0
6.18843432071469e-07,0.345740592538798,0
1.85308163701153e-07,0.194338831152189,0
1.48242268514379e-07,0.185273212421666,0
1.22528994369777e-07,0.173100976525587,0
1.38531735390351e-07,0.179813695290788,0
1.51157337400039e-07,0.178269675918935,0
1.26099381723925e-07,0.172459775913674,0
1.20470468039397e-07,0.174934831305585,0
8.4898521140919e-08,0.151254200546312,0
7.84035201588528e-08,0.144157530827927,0
7.495106920905e-08,0.155091506432366,0
1.37715202302621e-07,0.20824469374587,0
1.18038520011889e-07,0.194159604726871,0
1.00824511973744e-07,0.179681136111199,0
1.14186105136487e-07,0.1957316552483,0
1.22539454361293e-07,0.201232176260098,0
1.35569988792551e-07,0.20580320456544,0
1.6526786595534e-07,0.211708033032929,0
1.66799208713307e-07,0.205095926468002,0
1.8085325331442e-07,0.205699204002482,0
1.78462099253826e-07,0.195258632869974,0
1.17159226975062e-07,0.165261275633417,0
5.50165481274448e-08,0.128652607202403,0
3.75990932543097e-08,0.113446149630485,0
3.85659887200848e-08,0.110444724285627,0
3.78919730167621e-08,0.110773866805624,0
3.84404688218909e-08,0.11332192111891,0
4.34985284694242e-08,0.128062370373053,0
7.2164135219463e-08,0.156031068449893,0
6.56667807393059e-08,0.160672463736787,0
5.72298823322643e-08,0.160466475927753,0
4.15712750325718e-08,0.144620755534025,0
2.9582948006006e-08,0.124891798172405,0
2.80432372548271e-08,0.12017361231003,0
1.24201939262892e-08,0.10656827876367,0
0,0.0907634782694677,0
2.29073814203917e-09,0.0897467355422822,0
1.22423740705145e-08,0.0949346646148874,0
1.1903470345391e-08,0.0889896403533956,0
4.30585550762759e-08,0.118383001418551,0
5.88447742724657e-08,0.127246518220554,0
8.7726902846889e-08,0.14051895129443,0
1.26746985948669e-07,0.167649536806574,0
1.32810120031012e-07,0.1684813346826,0
1.63074536484295e-07,0.175628753409094,0
1.62972551567013e-07,0.174435430506621,0
1.58276015376256e-07,0.177138071781539,0
1.62672742060181e-07,0.184298892283381,0
1.5082484041972e-07,0.181206068590274,0
1.14577701068874e-07,0.155816177272555,0
1.53040135872949e-07,0.169625575374396,0
1.46839452902168e-07,0.164385716906829,0
1.77042678405083e-07,0.166021401218619,0
6.03313482667425e-07,0.28824130938742,0
6.97702354110957e-07,0.29038461305005,0
6.96091515417468e-07,0.290046997703072,0
6.94291350877536e-07,0.280568385619692,0
6.72445658596034e-07,0.269506471890063,0
9.50546499035353e-07,0.310078307339225,0
8.27108269903034e-07,0.29493705226232,0
7.99058625903404e-07,0.285229737772095,0
6.83208989866164e-07,0.250239626013177,0
1.11941260207225e-06,0.317102723145651,0
2.29204459497958e-06,0.442098052157052,0
2.31913074301068e-06,0.455619991803817,0
1.84194070004767e-06,0.383467481506977,0
1.66035001733136e-06,0.352442187465028,0
1.51852403836288e-06,0.325247004027457,0
1.90050200855004e-06,0.375447841375648,0
2.24611477223212e-06,0.40897330440882,0
2.61915467966872e-06,0.456493982179959,0
2.77635057017104e-06,0.501589558723502,0
2.63685926130897e-06,0.512459699461941,0
1.43121200492951e-06,0.384043753550259,0
1.28538664820483e-06,0.373081008928925,0
1.28626319549388e-06,0.359223592258929,0
7.6027101611307e-07,0.279571860784488,0
5.59972638570107e-07,0.245493965391985,0
5.91389092339002e-07,0.258178320174832,0
6.11192994276549e-07,0.26026179826144,0
7.78239058789637e-07,0.27014314103287,0
1.10340423880624e-06,0.302379544883918,0
1.11682702291935e-06,0.302349104645124,0
1.12446373197541e-06,0.313735670012288,0
8.58188042695002e-07,0.27531157275045,0
9.28501020915897e-07,0.300023034069024,0
1.05453345869411e-06,0.318926547190995,0
8.77649772160077e-07,0.301008272261072,0
6.46217229869262e-07,0.263846950663414,0
4.05112464173347e-07,0.212100572262051,0
3.65191775802024e-07,0.214560395578115,0
2.68434762279235e-07,0.19368552389866,0
2.6095390709677e-07,0.191102270364241,0
3.02533288622767e-07,0.207588865967255,0
2.99271471018346e-07,0.202127237858368,0
2.4490501136363e-07,0.183770582299828,0
4.03008436879871e-07,0.235887122696402,0
5.41543179517783e-07,0.276500922486816,0
5.79346504106445e-07,0.280025037621758,0
5.73281408775695e-07,0.280248174915424,0
5.62846913488854e-07,0.279113830588511,0
6.65058943337215e-07,0.299409398972053,0
7.75581828694849e-07,0.345126370926173,0
5.24923821997331e-07,0.270282798304387,0
4.22590979246957e-07,0.241727905288687,0
4.6820190300307e-07,0.260364922633298,0
5.70261086225403e-07,0.280713817182953,0
5.72407476484519e-07,0.278255499530362,0
5.72234755874608e-07,0.275468104580152,0
5.70969227651047e-07,0.277994922997385,0
5.41114319865621e-07,0.285086569185317,0
4.74109575461503e-07,0.277316162214507,0
3.69623674207422e-07,0.248152230477372,0
2.80688250090735e-07,0.219206358817711,0
2.77263648868344e-07,0.215407575242159,0
2.17864887295203e-07,0.195547078463698,0
8.45941353877987e-08,0.13527394130982,0
7.39883577398816e-08,0.130235523523717,0
1.19903536499221e-07,0.15888466028362,0
1.55572107569329e-07,0.175769833862432,0
1.84019623496256e-07,0.169335719931012,0
1.97884342250927e-07,0.173141941960152,0
1.54292196857433e-07,0.15111156709035,0
1.7962747305862e-07,0.164531926917804,0
2.29146641894853e-07,0.175729480797611,0
6.40647284386906e-07,0.277178347851064,0
6.7567321972824e-07,0.271908848549192,0
7.14537710456217e-07,0.28270616916246,0
6.89453604801312e-07,0.286094361429209,0
6.80840455537224e-07,0.275675224748319,0
6.99230166621785e-07,0.275305981675685,0
7.13012643693162e-07,0.283670338184666,0
8.15886660254603e-07,0.297633869511418,0
9.28140804958053e-07,0.316241833618071,0
8.96006142021683e-07,0.332079960818282,0
3.83560697653449e-07,0.227192971017287,0
5.49839521788826e-07,0.277689494803999,0
8.11308975717448e-07,0.335626477475717,0
8.61969329628095e-07,0.32771576366399,0
8.88655382983699e-07,0.34700527228105,0
2.1972352318771e-06,0.497911235814494,0
3.93406517692749e-06,0.594682307813155,0
3.59643495577097e-06,0.548622791260924,0
3.06947300442671e-06,0.48215584284842,0
4.61547857850001e-06,0.369537828154522,0
2.97948565818821e-05,0.595828712799814,0
5.45358665393137e-05,0.806875990897375,0
6.02341331055913e-05,0.532751833103718,0
8.03927490454388e-05,0.219044137165612,0
0.000285586103462208,0.31920047342567,0
0.000342754899444018,0.159299957027505,0
0.000334360709182337,0.145023796471438,0
0.00031150749587401,0.128179054870548,0
0.000368977812225015,0.103092289755513,0
0.000355436265368227,0.0769240237067556,0
0.000347400720365908,0.0777561850552877,0
0.000341715927445452,0.0753401756048463,0
0.000321949533468483,0.0680466871483491,0
0.000353556087123193,0.0708070537473068,0
0.000306118409005715,0.0610536341337872,0
0.00030420479422105,0.0762259457327286,0
0.000265674536831985,0.0744325851821221,0
0.000231092685660465,0.0709478712631417,0
0.000193993961790318,0.0823009346509572,0
0.000176955475547811,0.0986355581587267,0
0.000175880690630292,0.0949532174842432,0
0.000186101264446638,0.0955202237282137,0
0.000186996262114728,0.117324627508561,0
0.000113793159865196,0.135013252024717,0
0.000129629930239135,0.262536569369579,0
0.000133958284142514,0.272895756888917,0
0.000145816439581909,0.299899505363922,0
0.000126788641818883,0.386708581786888,0
5.83505429420745e-05,0.303198295490255,0
5.32181723768127e-05,0.415230582642605,0
4.14698362575962e-05,0.546225979888249,0
3.71379573370756e-05,0.67948163802915,0
2.22367380183343e-05,0.568691240147532,0
1.73732760529675e-05,0.637336803654501,0
2.00540088334417e-05,0.737206743926072,0
1.65602822341166e-05,0.968255214560786,0
1.02634629195602e-05,0.798561555984558,0
3.84933963789626e-06,0.526385511090622,0
1.91061956609395e-06,0.409717441081438,0
1.18550301246796e-06,0.326303019347327,0
1.47685993090561e-06,0.384192283852545,0
1.69330225935461e-06,0.410231617838238,0
1.66656429829111e-06,0.406919912120149,0
1.37609556388308e-06,0.386646309241246,0
7.65854428834502e-07,0.265459686879999,0
6.60887367970677e-07,0.245549820781864,0
7.18800156999053e-07,0.240676045379007,1
8.6124432146613e-07,0.263141666280771,1
8.29900956887955e-07,0.259818089376894,1
8.93268239242327e-07,0.286528033468568,1
8.10534282595783e-07,0.270834911568274,1
6.41330452582805e-07,0.210118857437433,1
3.10856787646783e-06,0.427235002258683,1
4.15161770272604e-06,0.47539447847348,1
4.59338184642212e-06,0.367291824011232,1
4.885522610474e-05,0.330881682337753,1
0.000135313692458176,0.533538720663866,1
0.00020297782465973,0.495398268672776,1
0.00036302627317716,0.384278017248643,1
0.000343885615112922,0.224223688886513,1
0.000335732542953426,0.165551288496046,1
0.00051464381450919,0.142589327273721,1
0.000468712005409339,0.101640657453595,1
0.000387830712130896,0.0829757465685509,1
0.000303584681992008,0.0666013234672945,1
0.00029359400270695,0.0627498980359605,1
0.000299582618109982,0.0596161321199115,1
0.000331321318067511,0.063243884399606,1
0.000300039075011511,0.0612947910116247,1
0.000325082431023718,0.0709016009599555,1
0.000405585506829673,0.102743908893257,1
0.000263911719691762,0.108005846647324,1
0.000249862173932999,0.145081403048399,1
0.000176186318507405,0.143853542600004,1
0.00017378316932079,0.155207387371268,1
0.000273701122197821,0.137668482746746,1
0.000303460204039719,0.104112969519234,1
0.00030561602032019,0.116017456281447,1
0.000527876399366569,0.0318231994268,1
0.00292876049377789,0.0499992490024846,1
0.00297378738495369,0.0296478125128066,1
0.00292229636650678,0.0299032636997836,1
0.00289249090728525,0.0287674831222352,1
0.00285482851839952,0.0277806677848609,1
0.00275540236882735,0.0275565623718265,1
0.00275015201478778,0.0288805114424552,1
0.0027195902724219,0.0300928670575016,1
0.00259413768218138,0.0280468186625468,1
0.0025164476934818,0.0451015840299747,1
0.000602746315385191,0.035386143544247,1
0.000437106006134179,0.173740361933126,1
0.000446274554405548,0.159281493133639,1
0.000399457807403698,0.132077163705989,1
0.00122658586238068,0.0682877998940883,1
0.00371867318225058,0.100404124677725,1
0.00389791360018988,0.0742572631041972,1
0.00377677432029294,0.0681930597912728,1
0.00452229741767693,0.0597008094836188,1
0.00584991584649261,0.0425772307067427,1
0.00505564410495669,0.0334365476788309,1
0.00398530928413667,0.0257071986398644,1
0.00348091506050629,0.016145652851423,1
0.00362823773376728,0.0168785724852401,1
0.00395138461605787,0.0248234549467236,1
0.00408190879646795,0.0260857852284047,1
0.004176332790471,0.0219917899381534,1
0.00449996747381219,0.0228349768454418,1
0.00395397072801659,0.02410030549957,1
0.00230384020607645,0.0207391229566487,1
0.00255134573869087,0.0251617778857025,1
0.00234869527097163,0.0265512274820438,1
0.00229548369388096,0.036103656321659,1
0.00288704971161571,0.0462404602183461,1
0.00346841612376386,0.0538709669575497,1
0.00389901302257142,0.0598648258665215,1
0.00337978795104572,0.126564260275986,1
0.0014316038309817,0.106497433830525,1
0.00110642919513277,0.0700146077242908,1
0.00158067735397587,0.0667581596721655,1
0.00201780689822896,0.0449933819125785,1
0.00595057048611214,0.0502412507176688,1
0.00734472774934382,0.0446543658042668,1
0.011923313085277,0.0497368828022634,1
0.0121034376768852,0.0449082012141455,1
0.0124428687273141,0.0444649807569972,1
0.0121174859631302,0.0268834686734946,1
0.0373689236938883,0.0349723966308314,1
0.0457052704005708,0.0250336178051679,1
0.0469390788253795,0.0225610090612669,1
0.0515086173763643,0.0219676228486504,1
0.0516138289229246,0.0218984625807406,1
0.0691990653066295,0.0253321845199684,1
0.0780821551336329,0.0240179638196486,1
0.0736776799332802,0.0220802572602783,1
0.0607641588638933,0.0180672629427191,1
0.0408007917746793,0.0107814601806371,1
0.0431073657375868,0.0126002822504592,1
0.046163483918688,0.00649265848314862,1
0.0837187204818668,0.0141955147242633,1
0.10412768226304,0.0197737957571849,1
0.0989445279897106,0.0179913607655096,1
0.0983145108692651,0.0177556291938608,1
0.0929491808874629,0.0178647160918385,1
0.0975062335630967,0.0173579951162005,1
0.100132621332129,0.0142310346402732,1
0.112274650541033,0.011441591906946,1
0.0820994277187181,0.0061042402346766,1
0.0654088178663908,0.00592276744257242,1
0.0622729138794746,0.00524839005337033,1
0.092442171088562,0.00676807788993689,1
0.123899427310692,0.00635534489054633,1
0.118690061116594,0.00663030411173074,1
0.103029157840919,0.00524677303069865,1
0.102242666594097,0.00572368173853888,1
0.110203425428974,0.00740539206707711,1
0.103156398029981,0.0108919222450429,1
0.0970918184165586,0.00994556027467661,1
0.099063646259998,0.0113701795032822,1
0.105879152793578,0.0141080997886295,1
0.088439099365434,0.014632328416347,1
0.0619273333513944,0.0222624123290013,1
0.0628568392086496,0.0173799976849115,1
0.0659871512412153,0.0123070700420209,1
0.091268236666673,0.0159607710363545,1
0.0931483567541543,0.0158643394889505,1
0.0953461754810989,0.0122381172307138,1
0.144504053104269,0.0157640146223785,1
0.141355470334131,0.00861946022153232,1
0.122724237090986,0.00623777262721649,1
0.143368164587116,0.00748692362689077,1
0.171208691430758,0.00801379202199103,1
0.175727319249631,0.00826378936820916,1
0.170529224266853,0.00893194933050645,1
0.156894235497475,0.00830460481415263,1
0.153031105406633,0.00802875830878362,1
0.152682987358877,0.00985353987495031,1
0.0883424587926675,0.00568064384720634,1
0.102258794205974,0.0139522754828439,1
0.105095762309256,0.0167609697187008,1
0.108325013407245,0.0288706598064114,1
0.108523337647708,0.0441751186172964,1
0.095281566112408,0.0836599415600841,1
0.0842280931508805,0.0823404567285762,1
0.06716339398763,0.0666075414641084,1
0.03478205917892,0.0382525448483009,1
0.0168396051290934,0.0164794874969415,1
0.0111589980582317,0.0165545017187187,1
0.0119905626950753,0.0121799880883768,1
0.0145915627995617,0.0105328110679661,1
0.0147609786687697,0.00760419009827939,1
0.0168097496616985,0.00606906684739504,1
0.019972306810527,0.0025866605373388,1
0.0266481720726998,0.003054965773598,1
0.0310277795418667,0.00443564431881446,1
0.0405799594969672,0.00815290676128266,1
0.0489282699886597,0.0113390968324078,1
0.053119288137958,0.0132500207310322,1
0.0596242385037856,0.0168588272943897,1
0.0688875836915203,0.02148969232613,1
0.0642348953960882,0.0210135280401991,1
0.0646826763490484,0.0225981557617519,1
0.05009099323618,0.0530977754137662,1
0.00927881006187046,0.0418994071737971,1
0.00280498620708413,0.0674709221852918,1
0.00200526863714843,0.0892038823668738,1
0.000972444397788262,0.0577377191590949,1
0.00120572035289218,0.0795621213267407,1
0.00122961920932016,0.0917719984024873,1
0.00116534325913479,0.078063493527032,1
0.001654330976951,0.0928826987905101,1
0.00278603120929306,0.117533925248923,1
0.0049604755938615,0.0191876964762181,1
0.027277699204126,0.0386679462210727,1
0.0352719723162437,0.0376366375753961,1
0.0339343379560237,0.031862673311213,1
0.0329760740752477,0.029308199342182,1
0.0320832289238342,0.0254710071562415,1
0.0280594367609708,0.0204354178596578,1
0.0243168987585816,0.0117197959549692,1
0.0241112940649985,0.00942084338427666,1
0.024087154782266,0.00767299732490777,1
0.0224289538292906,0.00692070424151962,1
0.0169122220370747,0.00405540321526389,1
0.0157656288325942,0.00325004421308592,1
0.0203999464740003,0.00534727162198867,1
0.0226755258279284,0.00616548578773836,1
0.0244705931648319,0.00624290695461105,1
0.0328781808681584,0.0110498757701164,1
0.0529447388525779,0.018850641462151,1
0.133720058003747,0.0398455727254233,1
0.159483478651385,0.0349144555185755,1
0.249462181529027,0.0278786550419952,1
0.227181740844114,0.0215750078572193,1
0.19853467150547,0.0152532341252353,1
0.190669436128818,0.0123587941306447,1
0.157478732794153,0.00998810486247283,1
0.122213533039604,0.00696522014599839,1
0.105724998031595,0.00392437557961481,1
0.101239671113328,0.00350271628343187,1
0.104339054854699,0.00382487835773453,1
0.103459296227044,0.00490874277663625,1
0.0972394700298798,0.00642261048158189,1
0.0884376930112066,0.00684968012904056,1
0.0840591897408456,0.00770193605006869,1
0.120667474874131,0.0150833642330216,1
0.105273760187288,0.0108974999563257,1
0.10641257931099,0.0117668793649417,1
0.102945398909704,0.0144732984647557,1
0.0797488359320407,0.0108291693938491,1
0.111784993611788,0.0151994697357947,1
0.103333342332166,0.0132114122458118,1
0.106269778230692,0.0126724643951077,1
0.189024558634491,0.0248746501310893,1
0.243194952332801,0.0369406860856329,1
0.239767256193476,0.0217320455459525,1
0.26358833820912,0.0250758821830974,1
0.269027769269715,0.0246300057723025,1
0.288728108707914,0.0245709307922816,1
0.282997930276519,0.0229510750221729,1
0.249853166797695,0.0202096877573844,1
0.244367043998241,0.0199695770963592,1
0.255749265920897,0.0233492080942983,1
0.201782166395177,0.0163291391465753,1
0.18672028046857,0.0128494328032881,1
0.19862014875859,0.0214074317887586,1
0.204326136279088,0.022911600383232,1
0.229153977218212,0.0255313297990515,1
0.227625809866684,0.0263183378797067,1
0.226375329936067,0.0348723433496945,1
0.175039118612564,0.0313179198371163,1
0.155359872504692,0.0354951049952691,1
0.0764575431070666,0.0213347297218917,1
0.0467514681750046,0.000984184179192549,1
0.0778083570473137,0.00309972326006512,1
0.0883870790448741,0.00530723972175634,1
0.0967732911251921,0.00646221407793454,1
0.133241730767766,0.00990765904096271,1
0.168049832510646,0.0133297781963236,1
0.183158385523612,0.0139406237890549,1
0.178653982269038,0.0131646055463958,1
0.187258952432324,0.0135010786567056,1
0.209552969473377,0.0153227618929428,1
0.179759550157743,0.0350921656403417,1
0.0567875577789637,0.0453024697611533,1
0.048040562779326,0.0452656306039077,1
0.0259158256954505,0.0287233030561838,1
0.0227157662468604,0.0385254697414836,1
0.0229775379779386,0.0393674245424547,1
0.0175655996880005,0.0479771262569626,1
0.00242567658334775,0.0263990397351877,1
0.00191155890366607,0.0362028854113871,1
0.00189326237083968,0.0413235332798103,1
0.00290346237251256,0.0511294321638331,1
0.00299376005519336,0.036169346492834,1
0.00287636110547898,0.0296816543312895,1
0.00275343318376876,0.0236399300600029,1
0.00245040473706035,0.0186722989884772,1
0.00230857648827372,0.0111915527889418,1
0.00338360676842837,0.0126695864370716,1
0.00329473345299556,0.0131747872063793,1
0.00683302794442482,0.0100944853836186,1
0.018998118403317,0.0256508846397226,1
0.0225587892433173,0.0254062719220833,1
0.0218806775013262,0.0248990023044242,1
0.0236401201024997,0.024928722091091,1
0.0236532185039709,0.015514494988462,1
0.0215223609740015,0.0149143111055222,1
0.0215061132521347,0.0157469576184926,1
0.0241261943093153,0.0119715018433136,1
0.0217928560293037,0.00531646887501756,1
0.0234116125884448,0.00884239856632086,1
0.0194557130076586,0.00630666520750645,1
0.0192819016298327,0.00663316932685795,1
0.0203189994836071,0.00851531987959768,1
0.0184209588323968,0.00846343432081899,1
0.0188938746665565,0.0147332435774815,1
0.0460426501718745,0.00917208884496898,1
0.125821104002545,0.0280658956759806,1
0.23613516139236,0.0420228521827696,1
0.334356291820312,0.0394225917812606,1
0.307577055115131,0.0354752921744137,1
0.308735233075846,0.0319349878337812,1
0.261645712859738,0.026070049688115,1
0.272188235072028,0.0224192153909637,1
0.220332200247549,0.0159490514375378,1
0.136577188898598,0.00625468176806353,1
0.112658197886508,0.00621287733802086,1
0.112916189550157,0.00644192625931399,1
0.143262295710762,0.00826112003499583,1
0.143142336976887,0.00835638345131691,1
0.149726973341644,0.00852799718466114,1
0.156180185027021,0.00842992021422059,1
0.129999373993251,0.0062407310138917,1
0.190039037321975,0.0115896872984409,1
0.211377635152256,0.0130520580048845,1
0.201829175214689,0.0127921733008411,1
0.162311353863777,0.0103559423495133,1
0.15424052869903,0.00965653839742153,1
0.149080649368738,0.011533618869781,1
0.145337036044834,0.0134762165374064,1
0.138122544795277,0.0136383582985587,1
0.166657240642675,0.0175902029398188,1
0.173604622455987,0.0152753586446396,1
0.129718619267691,0.0144593881901956,1
0.110087100551982,0.0126871537279225,1
0.103214742186967,0.016958434252874,1
0.0906858866990384,0.0113438425275336,1
0.173948081306453,0.0179723294347988,1
0.175369339476895,0.00965211762524254,1
0.210144988247399,0.011449930667817,1
0.23162233902411,0.00951417595879975,1
0.220849769028319,0.00935226659143484,1
0.22434736588465,0.0138051791799777,1
0.220336356000086,0.00959306914541669,1
0.217030558806564,0.00951344187597784,1
0.223250070437135,0.00836180118284886,1
0.273884009397139,0.0128120213350618,1
0.211850055787406,0.0113394790268827,1
0.199785403173434,0.0124788499073211,1
0.212752111102167,0.00773215666933058,1
0.277090458720528,0.0135892910771451,1
0.266510716104854,0.0133525300769048,1
0.224512178067874,0.0110310929161702,1
0.209723313761495,0.0127873778684741,1
0.183787242049685,0.0123258207587683,1
0.173250067534991,0.0119598575990655,1
0.237050249265953,0.0164873845065958,1
0.25617715232328,0.0167799470464428,1
0.127196661322853,0.00983740757281073,1
0.12542721095809,0.0321265536030416,1
0.178539654083745,0.0422765235739091,1
0.192090264261682,0.0450839513854267,1
0.185191267804072,0.038939315600735,1
0.162193367742962,0.0378280396658518,1
0.107518615871513,0.0243116002039771,1
0.0677890719729281,0.0261293896087528,1
0.0629865530006938,0.0262485217184946,1
0.0354950294759913,0.0197250452807322,1
0.00471206826353851,0.00252298262348573,1
0.00371929185322354,0.0222011696130322,1
0.00388238277685355,0.012741916488457,1
0.00698926293735125,0.0146696447950732,1
0.00653538186508616,0.0108520853551448,1
0.00599627613868942,0.00974421587495453,1
0.00508460282799573,0.00879298135450459,1
0.00658818056761444,0.00940279963483012,1
0.007185586907099,0.00672098404930988,1
0.00775853279595683,0.00736627342769593,1
0.00757883031952904,0.00685849163827293,1
0.00941939973979292,0.00891000975046452,1
0.00980299513846822,0.0123029306313265,1
0.00589477043964217,0.00903193494040125,1
0.00560116335318558,0.0110942916074978,1
0.00549441280427705,0.0113745264841592,1
0.00572042331582554,0.0123229317270706,1
0.00377575077142112,0.0115544041745879,1
0.00339993505092716,0.0225396644276337,1
0.00466052464702426,0.0289845843633222,1
0.00479155976363268,0.0245886378377771,1
0.00445302238192994,0.0279846486404938,1
0.00744576437752427,0.00272436914182558,1
0.0203940404982832,0.0138233882438343,1
0.0218764699280296,0.015413154557395,1
0.0207860683476464,0.0136054059118508,1
0.0210182330203075,0.0121055204919437,1
0.0224853250502656,0.0124122634713502,1
0.0214874406358048,0.0115625675934475,1
0.029526505520455,0.010362324530551,1
0.0380976648871834,0.0145818808306323,1
0.0538449670212509,0.00850794689485474,1
0.152150504117354,0.0308302731187266,1
0.252890993681587,0.0452424416422806,1
0.302604061285843,0.054859688950336,1
0.371779490879097,0.06566684115602,1
0.331914454420499,0.0522920037012888,1
0.280993699102646,0.0387458733858859,1
0.198974476230209,0.0292907978162012,1
0.141130222614849,0.0243806119499374,1
0.0922860565927766,0.0174563595918761,1
0.0648984495650459,0.0199058341931445,1
0.0963756291414319,0.0106766074536196,1
0.135781826316973,0.0153682412787626,1
0.144591109128887,0.0131900266205458,1
0.137213337343249,0.00849075573109149,1
0.204144822993385,0.0142886248904831,1
0.224128907551305,0.0186538456549649,1
0.189642266453134,0.0139081371372883,1
0.198087416053462,0.00942866125814195,1
0.279687685008084,0.0143129859091583,1
0.249744952228103,0.0133075691140319,1
0.234507639271418,0.0108589955718591,1
0.248885298348739,0.00955384926215085,1
0.256715848154904,0.0125279070047646,1
0.206285271725757,0.0106398874282613,1
0.252598871150216,0.0103019492882015,1
0.27029868159609,0.00919044409550348,1
0.268862718092029,0.00894653244138688,1
0.291362392707675,0.0150547162701693,1
0.297557284615159,0.0149171357546287,1
0.336576678423241,0.0164388707673897,1
0.345425673857167,0.0123221680706917,1
0.400630799380482,0.0171984392540521,1
0.368048725083704,0.0145002487502578,1
0.288373192024973,0.00955524102581339,1
0.280405539799418,0.0118119933527622,1
0.334541869780536,0.0151787755153783,1
0.375895686433509,0.016993327927029,1
0.380608625846981,0.0168241640794404,1
0.432588320447266,0.0168494200961492,1
0.516953217807362,0.0200250302762518,1
0.55663069752442,0.0410692001303681,1
0.436554774168514,0.0345396666444565,1
0.278090425268866,0.0268311988038356,1
0.286024805050092,0.0358832634217481,1
0.208639026671792,0.0277656495776779,1
0.211921794789868,0.035150636638818,1
0.19836837040626,0.040954689275639,1
0.10089308274323,0.0251998909764499,1
0.0525838121801565,0.0516724664207515,1
0.0435526335066952,0.0576255995119558,1
0.0123589524338945,0.0259510024446832,1
0.00424066119319908,0.0170161272500498,1
0.00345908071221633,0.008161868182888,1
0.00343973462894046,0.00759156157243759,1
0.00438277671846145,0.00884487869121544,1
0.00447393405070726,0.00848348757274541,1
0.00446518226262362,0.008951496282343,1
0.00393948615657141,0.00783870215761938,1
0.00368503908476036,0.00707992103960145,1
0.0040544892001203,0.00860052849836538,1
0.00405020127094614,0.00859419004162066,1
0.00364444697790161,0.010107421704936,1
0.00490647211055638,0.0205628317266001,1
0.00399879574554013,0.0200398601692507,1
0.00398387829139931,0.0262681599545456,1
0.00500656973536144,0.0345396759790903,1
0.00609336227061527,0.0401439883596587,1
0.00806822178778778,0.0369645439471663,1
0.0103902146459771,0.0193573326281745,1
0.0116500640911132,0.0191334096916667,1
0.0128705537039937,0.00741543247066592,1
0.0186615766403789,0.00655261256293746,1
0.02094888830585,0.00604177513645986,1
0.0281977144701064,0.00608333178194398,1
0.0299071986218943,0.0024347470110277,1
0.0346020394331676,0.00361476676155535,1
0.0458447202930965,0.00462718244900794,1
0.0493611047163572,0.00258074344565004,1
0.0512385290156,0.00319313304580139,1
0.0471949810115836,0.00238833697966418,1
0.0513852819727403,0.00502573764240848,1
0.0477161626519799,0.00395252359202979,1
0.0518721406946096,0.00465570252569879,1
0.0640430793049474,0.0063505695128898,1
0.247582799305037,0.0254169120012366,1
0.305230846976487,0.0122554017908533,1
0.308660597289609,0.0126119730400865,1
0.336949931665474,0.0176816646412674,1
0.451929434315188,0.0220834739830507,1
0.474251058689693,0.0160442977949332,1
0.376560778428458,0.0122683554576689,1
0.295177964283832,0.00848582550205057,1
0.240002788670652,0.00529990510160025,1
0.211476595714662,0.00481454815576456,1
0.201005875755617,0.00359632031895472,1
0.236117740738821,0.0120536947820706,1
0.217599373309958,0.0114432357223557,1
0.267931780089214,0.0134137490786792,1
0.34293063818511,0.0180347027047253,1
0.367970215056774,0.0165292260404536,1
0.389852385451106,0.00747341934475783,1
0.536394763702749,0.0119403929378029,1
0.468223095536871,0.00762017341185756,1
0.354243187546971,0.00483994725236556,1
0.309686342322425,0.00522996083463268,1
0.330048313647648,0.00591358470179775,1
0.387253672472273,0.00782190938123604,1
0.387974772876592,0.00437866200941744,1
0.381176079641066,0.00562630773823018,1
0.378377179583837,0.00923919860891997,1
0.371412614033179,0.0148126777893112,1
0.287159020150083,0.0112598568938951,1
0.286613891511278,0.0161001285220162,1
0.294945306354581,0.0160027060410195,1
0.297646664020807,0.0161911797051941,1
0.298743589207111,0.0143308110506089,1
0.269125023510571,0.0109823962737665,1
0.251646481272232,0.0196648620883666,1
0.224025642226984,0.0156328863235454,1
0.157977958828023,0.0086612942516021,1
0.109644071109267,0.0113440344378847,1
0.121842448286585,0.00995729591884654,1
0.116235183801829,0.00858451116605071,1
0.10692331051638,0.00611133642341852,1
0.135309679031605,0.00814524159092898,1
0.133318775363483,0.00959711832275911,1
0.107423859331368,0.00976064155326721,1
0.137484792850139,0.00846321751649978,1
0.205009059936075,0.0141820597088735,1
0.207991170116619,0.0180015715539708,1
0.178951376286639,0.0131968032901657,1
0.14095462323693,0.013578190816191,1
0.167848364236006,0.0163143317228054,1
0.163731012881166,0.0122418467383393,1
0.177579782787831,0.00865910164137418,1
0.241848214746695,0.0118356730362285,1
0.232340928921289,0.00757300903004447,1
0.238051088470071,0.00878384798461389,1
0.207580364850048,0.00690637025197244,1
0.192114233738089,0.00574851973836574,1
0.185564001110721,0.00462399790968448,1
0.218811401762481,0.0046626255837674,1
0.223514194883374,0.00400671547722614,1
0.236037951368241,0.00569782251795594,1
0.208767171345865,0.00517191135424564,1
0.286796094302238,0.00852475338140077,1
0.424392417029356,0.0163051309376143,1
0.554728999564895,0.0273169158018011,1
0.593993107391172,0.0278439823243371,1
0.659327401252418,0.030465885056256,1
0.680025295221003,0.0383884825050837,1
0.420612421889657,0.0332609742572886,1
0.344868287828451,0.0338754954668079,1
0.273596983054699,0.0353537459766787,1
0.0429065472104234,0.0110831900240225,1
0.0125141751091035,0.054327532606132,1
0.00285470369735951,0.0277625928657214,1
0.0032813825448449,0.0258405193674603,1
0.00328157274396989,0.0268065119926234,1
0.00465846426417614,0.029058253979525,1
0.00607532806339311,0.024755969753235,1
0.00558024277720249,0.0209583693461807,1
0.00724758125176093,0.0241227895002496,1
0.00707558165429553,0.0159010635344683,1
0.00576905564997106,0.0109834131065997,1
0.00612339804943599,0.0117111261190605,1
0.00402202067046772,0.00761217675896506,1
0.00437545547804253,0.00958261864487377,1
0.00426893668319028,0.00904763612633531,1
0.00425750447926391,0.0102324820498587,1
0.00446172117237457,0.0118525347926826,1
0.00837339192272762,0.0117418055942918,1
0.0154192549005595,0.015582730295615,1
0.0156409672798658,0.011960619533661,1
0.0300552608301535,0.0179498558461653,1
0.032434018858356,0.0177183333559368,1
0.0336093735471762,0.0186927014480842,1
0.0410357928712108,0.0199249620945323,1
0.0521549113518451,0.0222903284951367,1
0.0447032145770574,0.0171762209381662,1
0.03235928501166,0.00874380650414247,1
0.0509478212885601,0.0106159420350101,1
0.0585228513394094,0.00608999754682952,1
0.066828171952146,0.0085205109746574,1
0.0800978790349043,0.0116622618866589,1
0.089574565933328,0.0126308791276096,1
0.0911555035679798,0.0126226779448566,1
0.0902057464148144,0.0143628467689999,1
0.0732761361581507,0.0109291898141407,1
0.0755527872072456,0.0101691711261271,1
0.0785783420555392,0.0116334709243758,1
0.0414944561039804,0.00271013499473385,1
0.0733464983778276,0.0233654018072357,1
0.0730909029245987,0.0218600877776809,1
0.101673508643681,0.0190218513975452,1
0.161339306287863,0.0273258200304879,1
0.187668650690143,0.0333965211004595,1
0.198993865634586,0.0390577013494995,1
0.213676306037848,0.0422086594056236,1
0.27061921776086,0.0546802963497889,1
0.379681818837381,0.0709808381536958,1
0.36514305939256,0.0392523005189001,1
0.324894829775698,0.0388766977361763,1
0.213798164174385,0.0270460461951923,1
0.23996340355372,0.0226242128186461,1
0.236921743034951,0.00945402174015311,1
0.22423608929872,0.00597985276671326,1
0.280194368985963,0.00595783225954643,1
0.304049295249742,0.0059052372734165,1
0.316215230875817,0.00636225713596839,1
0.323017460510263,0.00665049482774759,1
0.317293005487593,0.00760948626267834,1
0.296494800940543,0.00602807130064912,1
0.246903930417345,0.00349149415752947,1
0.232879215015695,0.00472526439055982,1
0.201012033240784,0.0106429129837474,1
0.106259326166673,0.00172224834245493,1
0.139542033361874,0.00773136052311426,1
0.135889240761151,0.00702955877782164,1
0.161816584875177,0.0083276000073837,1
0.156337977842567,0.0077254081071629,1
0.167521719228036,0.00733721875990324,1
0.155718526710615,0.00690080734042986,1
0.157201940846578,0.00620093171056503,1
0.183470481912171,0.00700928787085311,1
0.155606430839181,0.00506647713430267,1
0.12254775411156,0.00644536215490586,1
0.111500612544196,0.00472652459313328,1
0.120197140877193,0.00398221011562866,1
0.138591779355581,0.00505498357328571,1
0.157968649399094,0.00237812951802756,1
0.249314596653328,0.00473023386728484,1
0.281967854905409,0.00511564448017089,1
0.290848764501858,0.00624707459882697,1
0.273601772815564,0.00594555597146581,1
0.278876690996309,0.00679366944198864,1
0.283134509795703,0.00666206356165399,1
0.296692006716994,0.00744264749160682,1
0.279027647949952,0.00812278187112655,1
0.251688363012495,0.00743544670633047,1
0.263223638667967,0.0120784900285707,1
0.200511036784314,0.0156890095977556,1
0.172250690048135,0.0183574891636184,1
0.183184560569772,0.0167537548701642,1
0.249876492814125,0.0223832864907152,1
0.260500408069157,0.0232075610705492,1
0.207745069099365,0.013612634292819,1
0.226302933550334,0.0156911133340586,1
0.205690404761944,0.013943098866986,1
0.169495965877177,0.0109281721164272,1
0.168530548948331,0.0120362521776293,1
0.196123155945894,0.015204628576568,1
0.27736526425923,0.0212900873832956,1
0.305702526967748,0.00931155468733839,1
0.40718562528405,0.0131386225197267,1
0.460949911686044,0.0148433071030724,1
0.581941695570666,0.022476612029745,1
0.647423811180917,0.0236573166592573,1
0.764793744105837,0.0280720156885333,1
0.869931557952792,0.0299646831109021,1
0.905653714646149,0.0340090026296362,1
0.751764164509806,0.0313310484205262,1
0.283364524085395,0.011923587047605,1
0.0678410848006038,0.0262751753552809,1
0.0557525407031903,0.0241762202092086,1
0.0147596535818775,0.00501267395143068,1
0.0107216915471351,0.0521226569539683,1
0.0183633949299787,0.0366050102387128,1
0.017798993011139,0.0349719500830293,1
0.0168165672435889,0.0344215395141346,1
0.0144145874181271,0.0284166075983442,1
0.0115988707436279,0.0194832668194668,1
0.0098605178808197,0.0150932536642694,1
0.00896509311440973,0.0111690215266147,1
0.00931427473828719,0.00775512952901415,1
0.0222778845650191,0.00967960204217934,1
0.0262893410909587,0.00537974358781689,1
0.0278689990357351,0.00696119142109626,1
0.0280600774072092,0.00739856426723341,1
0.0282923895614358,0.00676665592016663,1
0.0304378653034938,0.00777053264593915,1
0.02964101407052,0.00665441754441241,1
0.0294338055502294,0.00677226047719493,1
0.030193682988634,0.00735003024992246,1
0.0297216762905206,0.00631623035157234,1
0.0330666153696927,0.00818874364941779,1
0.0383493244757246,0.0145603837720486,1
0.0364323123264787,0.0112879860125842,1
0.0374984271386412,0.0101371784083668,1
0.0406741847019694,0.0103474246001625,1
0.0420282179785267,0.0103045616931721,1
0.0411525435433385,0.0120152355660771,1
0.0384672494441605,0.0110521975887201,1
0.048253635815719,0.000549049157526618,1
0.197236769259717,0.0170293409107834,1
0.215205740749144,0.0100318210663059,1
0.239224336269875,0.00949711344219008,1
0.275793784950048,0.0130736163599664,1
0.428758707760288,0.019146897891415,1
0.469910753095407,0.0164611817504471,1
0.482302829118407,0.0160338487666466,1
0.471483968436698,0.0138866822345614,1
0.327292771629304,0.00866722374293204,1
0.248934212501336,0.00808923178799796,1
0.255423281135693,0.00626064767688982,1
0.339249956269569,0.0118357932133281,1
0.511701056183066,0.0180909495618777,1
0.496434602356843,0.0119375594134235,1
0.495621096105623,0.0116812695698799,1
0.548284132744643,0.0162603103020989,1
0.549759414644227,0.012075698670238,1
0.562714441256883,0.0106056445000512,1
0.510146815413218,0.0108990968282342,1
0.36455109133969,0.00647662847572393,1
0.335304114984068,0.00493453154135444,1
0.390780103182748,0.00816150725951345,1
0.303146013811245,0.0031150512221719,1
0.337910930410271,0.0050537330871527,1
0.339482191787752,0.00616659616014617,1
0.33711630987731,0.00634600076159939,1
0.339779104825525,0.00709450806965697,1
0.327582474379449,0.00571360475862724,1
0.371388532469203,0.00634305207094834,1
0.328192370385639,0.0046784304345811,1
0.315806717090309,0.00649904862020661,1
0.313807656705897,0.00809064382245732,1
0.264006607321751,0.00649161986402876,1
0.221129558311044,0.00649029712876237,1
0.246688946505639,0.00583995248713518,1
0.227906837412749,0.00632147602568474,1
0.227681972741625,0.00874312936770881,1
0.241707564776074,0.0161846850690731,1
0.222462723024972,0.0158692978800696,1
0.260070483324567,0.0159492604975866,1
0.336767270056923,0.0221573916977648,1
0.344718732104032,0.0136222416932449,1
0.409197716816633,0.0173355896940813,1
0.392759810480921,0.0112855382575548,1
0.387744988634408,0.01203417467193,1
0.402044052151617,0.0109189169964016,1
0.425206453767544,0.0137541826803639,1
0.439734316282292,0.0138435027164896,1
0.433344129242635,0.0108379659179697,1
0.425209072816055,0.0118740133871738,1
0.371905238717242,0.00848396438890461,1
0.288909625672794,0.00731885392520485,1
0.262851294646115,0.00786750772587101,1
0.229895832886716,0.00967595857389361,1
0.215335804567545,0.0109795117110684,1
0.232692779980372,0.0109804540418457,1
0.239771644205941,0.0109747019367161,1
0.223012926946715,0.00408468185920704,1
0.346885427212515,0.0122248705419038,1
0.35555473137201,0.0116803925292104,1
0.347888382173761,0.0125354390801715,1
0.436930390307401,0.0136827446179196,1
0.404689254155066,0.0095428269442674,1
0.390254867233558,0.0101016507350735,1
0.464500521031048,0.0102285915170342,1
0.53804768009006,0.0133136982589969,1
0.468253200067255,0.0110801471880858,1
0.448437415157808,0.0163861359912351,1
0.382623971402514,0.0142477496903223,1
0.374558369246512,0.0149713442551986,1
0.345823485090362,0.0171815436215958,1
0.177380883187297,0.0092495019101498,1
0.247941099062119,0.010449072965446,1
0.351156210190246,0.0141849237378125,1
0.373931993916592,0.0204314832436949,1
0.36553591770785,0.0210383115041251,1
0.382595883715525,0.0228258057527942,1
0.364025920199561,0.0216509756927026,1
0.323233992453512,0.0189044241805159,1
0.313549875193937,0.0165895149305824,1
0.269114522715151,0.0163373865235364,1
0.225809321617754,0.0146541205230496,1
0.221627948906045,0.0205713188317314,1
0.185283567409885,0.0152431513307876,1
0.268305316521334,0.0155830215134224,1
0.38543829588823,0.0210857808431654,1
0.511205946861907,0.0253480566113228,1
0.580756564616305,0.0349911976449895,1
0.467407404281941,0.0310644881042615,1
0.36867576013065,0.0270255131069129,1
0.3294576629418,0.0240738596976843,1
0.330960242915511,0.0206168817317526,1
0.241481080996064,0.0294885341309874,1
0.0437366196306303,0.00538104534785262,1
0.00853603312791338,0.0282740044432684,1
0.00888277546712528,0.0226201836768752,1
0.00876893950850505,0.0218014555216099,1
0.0118643741229649,0.0110018085684034,1
0.0191666721725762,0.0142376569423518,1
0.0168252143364407,0.0121386664057371,1
0.0169239235306061,0.00944938800678351,1
0.0175951215848278,0.00676921519909176,1
0.0161125283960693,0.00648549559161504,1
0.0157708020636781,0.00639409035401711,1
0.0170059216519535,0.00797589918608978,1
0.0179567691142328,0.00909629780400783,1
0.0175263384195911,0.00951129409074391,1
0.0159649541256251,0.0167171761531836,1
0.0115179332486843,0.0155895394215414,1
0.0115433966057818,0.0160314520614618,1
0.0101425171815401,0.0232606940094358,1
0.00553721154035531,0.0255800568506412,1
0.00844881484529196,0.0363149707632843,1
0.00926322068663962,0.0223820471040267,1
0.00840631167863222,0.0218337170118551,1
0.00764088313358229,0.0207041065672778,1
0.00683912416202208,0.0198052147653626,1
0.00763765605557095,0.0148235978375588,1
0.0123890264575822,0.0179360539163158,1
0.0146152002883899,0.0199758548017761,1
0.0151282166987171,0.0140345334756214,1
0.0168351824867345,0.00735531366188003,1
0.0336813482635861,0.0128509413912462,1
0.0492297860948845,0.0239204790676429,1
0.0821714089904046,0.0278113329462922,1
0.0804925865522209,0.0125188304294433,1
0.0770897116474581,0.0119385425500067,1
0.0691833245738832,0.0111190939709218,1
0.0715541376559076,0.0122849929801915,1
0.0860160826750333,0.00966201117838471,1
0.0910886348802156,0.00774874418944275,1
0.0877595597656957,0.00764701660210198,1
0.0959106452230465,0.0097379779766461,1
0.0960719462193303,0.00967369791784897,1
0.0772184715212252,0.0035980437631866,1
0.100174151460301,0.0143632587268223,1
0.184482394172223,0.0119109357234374,1
0.419573830294702,0.0305632704941331,1
0.58588411829389,0.0370267506867515,1
0.69540642573904,0.0464519630045812,1
0.745869738925102,0.056368388730917,1
0.631140147461048,0.041899652647169,1
0.518010202643518,0.0287824270049971,1
0.402459183943554,0.0149656023953734,1
0.436954242771021,0.0129533478934166,1
0.415769236543447,0.0058052456172275,1
0.418017401809913,0.00917118992324039,1
0.415872629237516,0.00528304681473892,1
0.445386973638291,0.00539658718135425,1
0.448490823935027,0.00456180544031043,1
0.444207435076031,0.00374394054227565,1
0.448248494047662,0.00472486320807869,1
0.376193570591276,0.00308105503553585,1
0.302166765237745,0.00248715692765359,1
0.282182819621069,0.00103612623753767,1
0.364896313137131,0.00573271743660574,1
0.327449281254407,0.00469951268228754,1
0.320772546704049,0.00801167048105281,1
0.288205102659986,0.00572169320401221,1
0.296059382825584,0.00932194516180332,1
0.301767520970153,0.0103900082067647,1
0.43448336272831,0.0155358391409326,1
0.378175916780825,0.00682647081219669,1
0.370975650868689,0.006982548765643,1
0.347624865959293,0.0101021565756663,1
0.292886336067773,0.0105636815385288,1
0.292411744556047,0.0106003816089222,1
0.269033107803575,0.00972652039723922,1
0.260479341627808,0.013260503772918,1
0.274245005382694,0.0132313080151659,1
0.283389081310818,0.015918808440707,1
0.125907940851638,0.00394869447919988,1
0.167746332110167,0.0147566148193207,1
0.255371859650171,0.0240241973781639,1
0.305041348864313,0.0273301267224842,1
0.324998427775473,0.0305575843944675,1
0.346583761214089,0.031842247812195,1
0.356395525528808,0.0215456842672923,1
0.359667113484821,0.0127465285547977,1
0.341224164513674,0.0121834968637291,1
0.256545717085476,0.00935915255515123,1
0.223811945575572,0.00680501565987596,1
0.281648321766615,0.0122444585867754,1
0.249232222920877,0.00860015075797536,1
0.2459687954695,0.00664263849373809,1
0.261687264694876,0.00743190009358915,1
0.277220934739868,0.00803252015718291,1
0.2735378454697,0.00909837849745497,1
0.248315428450506,0.0148840477339199,1
0.207399975553449,0.00780263133583133,1
0.272159723549191,0.0112431762408152,1
0.299246995716231,0.0140377820151109,1
0.274886993944864,0.0131924502548039,1
0.250695958747497,0.0141832165770992,1
0.24709901814423,0.0188336778999854,1
0.255707931659466,0.0159552553051285,1
0.207075252959078,0.011406253619359,1
0.187126551373797,0.0110444348709073,1
0.182295439503129,0.00972096968159331,1
0.1848257552674,0.0152876242213327,1
0.194850694599376,0.0144823542806887,1
0.169154983442516,0.0145480251176561,1
0.186668172666263,0.0190491928169303,1
0.164268738637749,0.0161830874425475,1
0.193716474768331,0.018504147929254,1
0.201970724353638,0.0239417015626418,1
0.198285016814883,0.0251711685993123,1
0.199155116594323,0.0207729115191418,1
0.211146401142304,0.0130017015216249,1
0.317858733004295,0.0182018600753457,1
0.282082505086505,0.0173020960092257,1
0.233257245452028,0.0151542536299274,1
0.160247495323647,0.0107787156960527,1
0.14310951346075,0.00865443880223183,1
0.162926340813082,0.00598789229310554,1
0.191754250428375,0.00792230946817554,1
0.195666383728967,0.00792170761541436,1
0.157223767681979,0.00635595878827202,1
0.12765940335191,0.00992021636069787,1
0.15653204162833,0.0122463988600162,1
0.190028044820005,0.0102915633936947,1
0.207852024543425,0.00732701203181386,1
0.29196995094917,0.0116058793691802,1
0.298311738393285,0.0103498380428163,1
0.28239532594349,0.0122353988105169,1
0.222746044186592,0.00690099793644625,1
0.184428743468345,0.00356834612179103,1
0.214694699145467,0.0045244497428191,1
0.226495973577241,0.00436848379538663,1
0.259744201147291,0.00591942500725482,1
0.373303163185774,0.0128890257936727,1
0.374231440639407,0.00858643730412222,1
0.380013949978452,0.00971915344383716,1
0.381748693087205,0.0120337779550924,1
0.311508463809853,0.0115753142895296,1
0.344488069720456,0.011380907845518,1
0.373774116972904,0.0140095250426501,1
0.281048710269108,0.0118451188362013,1
0.280336237684583,0.0129120532044049,1
0.286896401592866,0.0112352803521205,1
0.296944767717015,0.0106367826820793,1
0.320069711279076,0.00957333758296683,1
0.394026334623809,0.010111985920146,1
0.381428045042103,0.00766993173387719,1
0.39637073352387,0.00542737149782127,1
0.464320855861095,0.00896950247565073,1
0.459633155247138,0.00742137189175793,1
0.468234050860893,0.0067774289987941,1
0.481317434651372,0.00693219011869565,1
0.472525727695736,0.0078672795334166,1
0.322391599942674,0.00572741084075553,1
0.167108511478972,0.00287957765501654,1
0.154197186829853,0.00258896943426163,1
0.138833700250609,0.00241194218587918,1
0.128613103585065,0.00625164981533272,1
0.0746151876725393,0.00044956869067906,1
0.0652026223102452,0.00281325866258278,1
0.0502160192962085,0.002417471258754,1
0.0455549364236257,0.00169544929419917,1
0.0583837996588915,0.00347151834782139,1
0.0521898336803167,0.00397767912249396,1
0.12849584920917,0.0102187996718421,1
0.234423687357936,0.0197161371044516,1
0.218352963733459,0.0160306819242636,1
0.235761507321422,0.0164392346385971,1
0.20766191982091,0.0142219102174445,1
0.219764215938646,0.0135221175288638,1
0.190028628681041,0.0120466344130985,1
0.145260543540936,0.00718682233948724,1
0.197703434421561,0.0119723024424631,1
0.228837349841002,0.0138119422759602,1
0.235553888710104,0.0195105754782982,1
0.292001238520023,0.0236164028203224,1
0.395110178162672,0.0335473911398025,1
0.410803177223718,0.0384050072353215,1
0.446304599230169,0.054847569321158,1
0.349943618694554,0.0514689285116745,1
0.284234366779426,0.0410508910397282,1
0.188747054505188,0.0380722182277212,1
0.15676073868933,0.0309714770221089,1
0.0947716278295515,0.022037592949461,1
0.0188083421407488,0.0122284628533941,1
0.0171372653268057,0.0204234914202769,1
0.0170569975928331,0.0202736796630224,1
0.0144035724339743,0.021181119661914,1
0.0154632641528894,0.0135695393422601,1
0.0215649753261871,0.0158436328833854,1
0.0184771806299087,0.00857678337391577,1
0.0183475072265065,0.00543282907594049,1
0.0172971845382054,0.0039656030611376,1
0.0187423040453469,0.00540390096115818,1
0.0194803463123909,0.00597845799447202,1
0.0209371727051895,0.00685678837352728,1
0.02164713584191,0.00650239790797877,1
0.0193768299763847,0.00524745069130526,1
0.0189779348600406,0.0100769489029223,1
0.0112210056907438,0.00477709537029424,1
0.0126215550651203,0.0106354202652021,1
0.0131280575858127,0.0193265722138331,1
0.011667911098613,0.0148060363365897,1
0.0121999038482519,0.0154647388694979,1
0.0123346983687066,0.0130822020953143,1
0.0113517772158276,0.00906667837837999,1
0.0110621895344807,0.00748643892419226,1
0.0513030374129468,0.00300641820521309,1
0.136429612828905,0.0104827947212589,1
0.136837121727473,0.00881474643748149,1
0.14116060848161,0.00914315739152735,1
0.145124846232212,0.00936142703618901,1
0.147422844056966,0.0100197731513493,1
0.14637964436518,0.00990278686773234,1
0.156946329460036,0.0111299960514275,1
0.157299702719582,0.00900438855619629,1
0.158205034744099,0.00959340736386324,1
0.130005376885627,0.0195573830789632,1
0.0343153966133772,0.00810580245530975,1
0.0376817314702616,0.0155311175292336,1
0.0381169670599379,0.0128800171102994,1
0.0370095733959266,0.0123165827226042,1
0.0368332174762403,0.0124460126354124,1
0.0340872265434863,0.0116960029170396,1
0.0257190960597742,0.00794663272852231,1
0.0215327290326523,0.024116935610064,1
0.0120352396690702,0.0144217588293281,1
0.017396350590936,0.0141364431935933,1
0.0182807688714134,0.0106244561529089,1
0.0144840640519055,0.0103848263797356,1
0.0137257436470441,0.0127467763835651,1
0.0136409801532799,0.0120357160179913,1
0.0147235876172939,0.0118489698711116,1
0.0143431247430136,0.0109428139597101,1
0.0153798219302126,0.00925186257750054,1
0.019112333719941,0.010536170808274,1
0.0306550027063548,0.0119502292003783,1
0.0500662127526988,0.0175948844298694,1
0.049058266485379,0.0209455500453159,1
0.054391676114827,0.0149249426566988,1
0.0927637874654169,0.0239933859020847,1
0.101261185401306,0.020017338334109,1
0.0839297776923605,0.0165837160629998,1
0.0693567379290272,0.0143523726895385,1
0.0501646274625391,0.010026517228755,1
0.0465702450579591,0.0096280747875014,1
0.0475944322413524,0.0107681241183207,1
0.0475371062938043,0.0104534833716266,1
0.0407974455233697,0.00916554154916635,1
0.0356936945408952,0.011751744019676,1
0.022523385071414,0.00808204593664264,1
0.0331151749336772,0.00277486776549134,1
0.162882785855573,0.0185172592206643,1
0.160927108128551,0.011266408092917,1
0.226898823862711,0.0113629270100087,1
0.340288675600633,0.017124811305687,1
0.397319003649863,0.021968017561306,1
0.368361803454828,0.0177599825651888,1
0.344076951792318,0.0166728560169602,1
0.288983757843388,0.0109591653188175,1
0.207528447057802,0.00540403593040947,1
0.191125841694801,0.00581769261799066,1
0.237389390432492,0.00807341801504826,1
0.179566789529892,0.00497874722927313,1
0.168839507616886,0.00701252133707652,1
0.200008787824533,0.00708008533324469,1
0.194912193001322,0.00513278878174123,1
0.192430470102118,0.00559473865835704,1
0.196172589829059,0.00502750097295601,1
0.234225581549423,0.00727999199207481,1
0.262876509006383,0.0114108123297242,1
0.254115019548386,0.0122883337630788,1
0.190654333202945,0.0094564773568529,1
0.202308554732616,0.0070032480248582,1
0.236406602823763,0.00712316377121436,1
0.239093852597351,0.00753028696339822,1
0.244625313156967,0.0079586060250277,1
0.231485256191708,0.00585377478400439,1
0.192811707344737,0.00475035950086855,1
0.226397085788658,0.00503346605694568,1
0.256313962336614,0.00448893062241715,1
0.233069030044692,0.00368069698164038,1
0.244759049053845,0.00371947829952142,1
0.270289324601919,0.00822019364107864,1
0.215380502553048,0.00769592258340018,1
0.233499914934785,0.0104070364711862,1
0.206957161997898,0.00701350888272891,1
0.21004988710218,0.00978908714229708,1
0.240626798815532,0.0107980940861293,1
0.212030108298166,0.0125619344598999,1
0.159890779336501,0.0114933461901731,1
0.195067352872258,0.0132355011417986,1
0.215814646311682,0.0134355452355388,1
0.20317014128513,0.0118339157567465,1
0.222635569528071,0.0111081224719781,1
0.239051440039976,0.0116498549319511,1
0.223106306554497,0.00981382626244111,1
0.372726505782703,0.00938402673267099,1
0.522967170037813,0.0102800270785173,1
0.517464064853105,0.00926856152272367,1
0.524763415109224,0.00953364355691814,1
0.513512255883298,0.00938586775913378,1
0.468294337162553,0.00908321873156661,1
0.474338519616922,0.00888745701725335,1
0.446872156030982,0.00947087389889495,1
0.396361584461517,0.00752289646096876,1
0.394425004537582,0.0113374142278131,1
0.26751394334491,0.0167227172134933,1
0.0704918057327567,0.00154969476998338,1
0.0726441667034314,0.00575977148042031,1
0.0708092673914366,0.00696971825653634,1
0.0694248307008288,0.00354524011969372,1
0.178702791587286,0.0114992317485487,1
0.295339525731289,0.0151348137008041,1
0.304569430967736,0.00866909023878194,1
0.323476642449697,0.00985235561400087,1
0.328112640511883,0.010224096585081,1
0.326775267660734,0.00878722643852045,1
0.312121139913121,0.0112398242258174,1
0.279428277568239,0.0102620016349594,1
0.280794987712401,0.0113892514909417,1
0.282390684008455,0.0132139548163774,1
0.205148572473098,0.0130487175848064,1
0.0950561778181618,0.00492431660657459,1
0.0994367702908704,0.00712510116447874,1
0.108418931315479,0.00834521604165108,1
0.106532763209257,0.00762471092447814,1
0.135069505038971,0.0121014303782321,1
0.189336634843373,0.0182046027912501,1
0.24338573275207,0.019195841768558,1
