Activity,Complexity,Tag
1.99821889430782e-07,0.175455447539794,0
1.61041449750587e-07,0.178412664202452,0
8.60110773565724e-08,0.142885100123947,0
6.58290230381409e-08,0.136937830037009,0
6.57289714436459e-08,0.141448206543494,0
7.25238166582436e-08,0.140929997529689,0
7.8627983123746e-08,0.1464988781773,0
8.07791773388325e-08,0.152666128360028,0
1.11501981391056e-07,0.172501040877308,0
1.14593558674266e-07,0.165655547071555,0
1.34692208352804e-07,0.185077584381225,0
1.35505021391274e-07,0.18172951264999,0
1.33186678162634e-07,0.177573419643096,0
1.77797628758701e-07,0.198409187793456,0
1.82961072422313e-07,0.19737156502538,0
2.642938459351e-07,0.2211691073724,0
3.3048757317253e-07,0.23602094213621,0
3.90566092597017e-07,0.249570298664228,0
3.82901698804795e-07,0.234442820371148,0
3.69956483332331e-07,0.238866058129748,0
3.50299487551395e-07,0.231874229175711,0
3.11544018303103e-07,0.225669178881211,0
3.92025588861706e-07,0.255703092858105,0
3.00406186473131e-07,0.230319242383875,0
2.41497200542868e-07,0.200573571440739,0
2.69388493510816e-07,0.225560988123557,0
2.93755558242788e-07,0.23719065977165,0
2.7054783499202e-07,0.231038325048896,0
3.04810495033518e-07,0.270123248329133,0
2.95196029416503e-07,0.252890576628269,0
3.02941449712246e-07,0.247841903748105,0
3.78513187864591e-07,0.262616116277124,0
2.62676713202343e-07,0.226642477877477,0
1.64065589880971e-07,0.169075225970757,0
2.03776560350035e-07,0.186836981125885,0
2.21194710603899e-07,0.188487852962263,0
2.67336501555806e-07,0.209844389639182,0
3.37143807010035e-07,0.241958634215887,0
3.47813995309201e-07,0.241627666668512,0
4.90004807375741e-07,0.260450983864492,0
8.13871818756343e-07,0.344317339561199,0
8.77748561700201e-07,0.361593687764491,0
1.17645047372924e-06,0.413025073249864,0
1.37609723040294e-06,0.437639771339966,0
1.3039004074958e-06,0.416253362798996,0
1.39500528309367e-06,0.414286994682019,0
2.55169361344097e-06,0.529098904930322,0
2.85061584281816e-06,0.488668427208532,0
6.48390269492972e-06,0.568748129151697,0
1.27705877296226e-05,0.791272543492716,0
2.50872128373844e-05,1,0
3.95512318983106e-05,0.662130049630614,0
0.000215802218434316,0.401999002465881,0
0.000555438088137605,0.416476161974972,0
0.0020716506304343,0.222487385041812,0
0.00358049451259688,0.138842157678274,0
0.00341527643094693,0.106780207509792,0
0.00320713449144944,0.0955931230115233,0
0.00293630465976434,0.0824774179199727,0
0.00245910081945143,0.0736308749123303,0
0.0019827256845829,0.0657215663948527,0
0.00147521202262381,0.0489683358338892,0
0.00128952836863452,0.0455118157214583,0
0.00119446084924535,0.0458760345347461,0
0.000950626643218529,0.0664526352229515,0
0.000450939895872099,0.0683515994508427,0
0.00066943092412864,0.105076182363375,0
0.000975392824462556,0.154589872700144,0
0.00105043144559244,0.166684829619302,0
0.00138643847895597,0.179367299192112,1
0.00144773772975343,0.163104854729982,1
0.00123984618219612,0.252217416084418,1
0.000720602671401611,0.166313300283205,1
0.000580441317938358,0.102376036275376,1
0.00113959530004295,0.0580729405210339,1
0.00191104976187195,0.0494924626237864,1
0.00193013702956072,0.0471489149819116,1
0.00209832264608981,0.0374446810895931,1
0.00241884938164999,0.0343636989701307,1
0.0021605539687085,0.0300536637830886,1
0.00216663531338831,0.025840381417307,1
0.00295990796018077,0.0282138968715759,1
0.00283286437381977,0.0242781610910999,1
0.002294045270003,0.0209426231261709,1
0.00207979749119094,0.0263791109371587,1
0.00180038107046259,0.0292763586863711,1
0.00171876956577769,0.0298702361060823,1
0.00204700170303422,0.0500330625911912,1
0.00219994759386545,0.0625673733917983,1
0.00245512316775108,0.0711223767829536,1
0.00255148690582754,0.0496000031805811,1
0.00507007081252432,0.0559479045032313,1
0.0071133654798098,0.0460500089185404,1
0.00717280971289324,0.0406660425465621,1
0.00753011548831204,0.0422346756218448,1
0.00777332818946161,0.0444820182098968,1
0.00771381172829976,0.0423719221781928,1
0.00734682925670097,0.0399432858911904,1
0.00692573752946977,0.0391186695989888,1
0.00677782714977656,0.0310647890469393,1
0.00686227346113315,0.0327868973322591,1
0.00446340370683364,0.0339085623252837,1
0.00234099287004203,0.0341883444675882,1
0.00252323535917266,0.042094172878573,1
0.00236858967362679,0.0355155651933754,1
0.00212089806041992,0.0285509236498529,1
0.00236540896634037,0.0325328680458404,1
0.00261511558196913,0.0368232764465379,1
0.00279383375079594,0.0390891351980013,1
0.00197830386138787,0.0489051616985943,1
0.00138064026398136,0.0511963813458289,1
0.0046624324198377,0.0771305848446445,1
0.00712268043613749,0.0737592773169126,1
0.00771302445236912,0.0788756783604433,1
0.00825795544479993,0.0868292926069054,1
0.00851238762344778,0.101042230363825,1
0.00738455168117555,0.0949341959658006,1
0.00585597424932356,0.0755691847006479,1
0.00429586474227526,0.0621704910738354,1
0.00187330443866198,0.0354400753599422,1
0.00521927728520331,0.0183783543919894,1
0.0141297547693817,0.0238451394640956,1
0.0140529022254138,0.0216515966827869,1
0.0143430196951773,0.0210001313767468,1
0.0145720663521477,0.0209206197299223,1
0.0162588540605312,0.0227846750382281,1
0.0194532857880209,0.0277443950262143,1
0.0179738715644549,0.022963567741719,1
0.017303174583033,0.0230040763154381,1
0.0143846503304496,0.0197670806288946,1
0.0155713506257887,0.0330436298339275,1
0.0172747555150163,0.0636732862793816,1
0.0174173537426114,0.0743331153094664,1
0.0195414592886429,0.0804448362277586,1
0.0140519188320507,0.0376997265881915,1
0.0119616427797318,0.0326789844651289,1
0.0114832719907891,0.0339156417041167,1
0.0108302050556486,0.0326649081584597,1
0.00982506490945634,0.0249275397872775,1
0.013966545299082,0.0250827503052581,1
0.026489176248536,0.0382208396536742,1
0.0342064229950612,0.043706389823141,1
0.040160431617317,0.0588858327094827,1
0.0357138332637461,0.0481557933535286,1
0.0321605412809569,0.055270776693609,1
0.0317058181609811,0.0598851129919845,1
0.0286071704853694,0.0539980252475724,1
0.018271475553602,0.0427962362775304,1
0.00653966301556384,0.017911872520583,1
0.00468994814120261,0.0230739015130661,1
0.00485510842122885,0.0256333287166713,1
0.00484596468205672,0.0261187967420798,1
0.00413316060013478,0.0219712629883631,1
0.00415128652793825,0.0236189170179731,1
0.00408168814855895,0.0217083895168446,1
0.00474646570734074,0.020464322116024,1
0.00487366224439182,0.0173572656854402,1
0.00476086219735085,0.0164736804954773,1
0.00470223811640459,0.0153760122760583,1
0.00547330003285207,0.0112224949711895,1
0.00636287433137499,0.0116072691120266,1
0.00849942997830584,0.0108483284024478,1
0.00961136394505277,0.0073947600229305,1
0.0108626651391105,0.00910212105911654,1
0.0105033082265068,0.0091476362804531,1
0.0105387511862057,0.0094555793691344,1
0.010881004834365,0.0101099591529715,1
0.0104436090266283,0.0100744979148807,1
0.0105606719034996,0.0114397659526777,1
0.011715831478607,0.0162970033302898,1
0.0109730927083854,0.0153998652769342,1
0.00688185537558163,0.0133689132630737,1
0.00507962186003898,0.0195514810021291,1
0.00547118088759179,0.0194405555489465,1
0.00838525254321602,0.0231870283015548,1
0.011231387871113,0.0166557262609015,1
0.0111262902517389,0.013989209047844,1
0.0133461592706152,0.0176508592053438,1
0.0142863453670458,0.02133877399981,1
0.0106386062608537,0.0149001112467385,1
0.0107907485245379,0.0120180381419895,1
0.0160437949072833,0.0169089345332642,1
0.0121642461191173,0.00942528904732103,1
0.0113412074863015,0.00884360914218153,1
0.0116449995741606,0.00973520335279828,1
0.0122101999243344,0.0127543547264266,1
0.0188014788950174,0.0130922678381653,1
0.0213237504471582,0.00875173693558721,1
0.0213372849938708,0.00824526347419519,1
0.0217594914774523,0.00860614926882088,1
0.0222784340773859,0.00818670667149818,1
0.0245357149245756,0.00899993398836587,1
0.0331361478713416,0.0145389360878257,1
0.041704161265054,0.0185252643647139,1
0.0486954345434064,0.0218796666928642,1
0.0541140075893417,0.0259785279703781,1
0.0423991064709771,0.0343130945260607,1
0.0364218406405295,0.0544058338517062,1
0.0342455939029907,0.0629469421064213,1
0.020392000867475,0.0600263836082021,1
0.00210874607844944,0.0330027562153976,1
9.08256076464033e-05,0.176677892487503,1
6.49260862751931e-05,0.261132695638794,1
6.36648075072184e-05,0.264332615314538,1
6.85802699814696e-05,0.268075933282374,1
6.30939401178639e-05,0.289524470598181,1
4.33918276926186e-05,0.225300407527077,1
6.52915547055914e-05,0.296587958033987,1
0.000140449127498921,0.452902997554689,1
0.000425583992524229,0.55414653595226,1
0.000723484621229529,0.518823031665989,1
0.00259122961150728,0.0386080370354769,1
0.0119819502139862,0.0792268443571409,1
0.0236941253352703,0.0443854621436641,1
0.0704927259644255,0.0616798281586369,1
0.0814156885025553,0.0456753984940669,1
0.0940403671209991,0.0413295970055764,1
0.1222990217036,0.0543624822562556,1
0.158864472075339,0.0574301596309171,1
0.193471398609939,0.043760979805708,1
0.162057786663585,0.03826927258975,1
0.129189525453227,0.0323306084900716,1
0.10598655254345,0.0265046161158944,1
0.0822038442038558,0.020007329539793,1
0.0773708108102255,0.0213678162064937,1
0.0509579705893858,0.0173729019678565,1
0.0254288302914277,0.00978561485999163,1
0.0206777234275827,0.00706171856633619,1
0.0201089612596699,0.0106612648881225,1
0.0281120857680688,0.0227547864299263,1
0.0294374822847629,0.0247931517732159,1
0.0412999599407163,0.0263195277053562,1
0.0455798716412343,0.0232620753070976,1
0.0386317362071388,0.0209676385375755,1
0.0390864951567967,0.0206121351141174,1
0.0299390331183368,0.0157301209208005,1
0.028731007428149,0.0071614290372053,1
0.112416743495546,0.0233339288783578,1
0.176118606067816,0.0304146395235181,1
0.179152144348533,0.0290070473091197,1
0.175002699446852,0.0296777158309066,1
0.154551322169554,0.0255277391360442,1
0.142616350069985,0.0280304488889689,1
0.134278868306482,0.0266198225308536,1
0.129944744427817,0.0257506007403199,1
0.13652014531747,0.0249823067402057,1
0.168738029986689,0.0418092768946674,1
0.131016776842114,0.0531459523424795,1
0.0952987339982391,0.0418468555083558,1
0.0822798335509086,0.0326620251428048,1
0.0590910133191658,0.0225193393037223,1
0.0509315338053908,0.0229677526280456,1
0.0452340589305769,0.0219829124407828,1
0.0270392705196897,0.0154456080655793,1
0.0254697033756055,0.0139302180674771,1
0.0182590529886341,0.00886051414608952,1
0.0186119148692043,0.00943816496274067,1
0.0136093904408768,0.00621148336931134,1
0.0129475126570743,0.00869814006295114,1
0.0132200022664034,0.012161567529531,1
0.009545761251971,0.00848318458123238,1
0.0107802332521188,0.0141328615079045,1
0.0141965983882911,0.022791609252531,1
0.0191492077603488,0.0296542664218081,1
0.0232305539417306,0.0310627761816324,1
0.0222282743122424,0.0410467568706882,1
0.0212711445205808,0.0452112168053469,1
0.0231256320088797,0.0367395463715721,1
0.0239501187893236,0.0413415417996103,1
0.01746025538255,0.0361244841566116,1
0.00890859695398727,0.0279157885345967,1
0.00967559932658924,0.0274936510534043,1
0.0144282433190923,0.0357220866439173,1
0.0175066806065894,0.0410821726347253,1
0.0193795655418255,0.0623695416674099,1
0.0162789164818501,0.0473838151123953,1
0.00805273967165005,0.0326229422857197,1
0.00565805964428797,0.0485020696107636,1
0.00540866589543094,0.0481439796827396,1
0.00541162120634939,0.0480959839945723,1
0.00420243154122134,0.0403550253839955,1
0.00291350280013824,0.0410834343238841,1
0.00301261830919736,0.0448692407817679,1
0.00446823985930923,0.0547765663138207,1
0.00522569698076421,0.0467140663984129,1
0.00578091192021245,0.0345993736138103,1
0.0148772349320078,0.0552260255518052,1
0.0158953733521032,0.0319081870458096,1
0.0145766053977613,0.0292675631147964,1
0.0122616306846316,0.0263004926095941,1
0.00950327851260065,0.0186738326108687,1
0.00941433565241783,0.0183225303164952,1
0.00878932745686558,0.0172492927165996,1
0.00879933276494861,0.0170520179990551,1
0.00947101541323197,0.0185796533220145,1
0.00934468498053758,0.02214312429138,1
0.009748168684559,0.022958001873161,1
0.0116107784256785,0.0241352946749917,1
0.0114809179496951,0.0181460655953458,1
0.0176758633773978,0.0201702243826792,1
0.0188611359135514,0.0203915792566498,1
0.0152380333353262,0.0176143943606515,1
0.0132577654152743,0.0159247817878399,1
0.0138330589186613,0.0145783653658717,1
0.0144473384837226,0.0101154337388444,1
0.0161400387308908,0.00619529168057026,1
0.0299705806913383,0.0147035071601003,1
0.0340805698494105,0.0159654180680826,1
0.105512264274887,0.0230591527527275,1
0.163439161531853,0.0169365403240023,1
0.157814045033205,0.0160092334346325,1
0.156300928952374,0.0149462147410504,1
0.143951119451986,0.0117558338791504,1
0.13868362460455,0.00944374806216955,1
0.119048747361765,0.00826203505766503,1
0.104942463296239,0.00543509737426253,1
0.145060540030611,0.00770468394112629,1
0.188619296361001,0.0112324103495961,1
0.172569036660708,0.0156701449928702,1
0.124070390461582,0.0134230864914772,1
0.126250548026718,0.0154248117389787,1
0.126461369684252,0.0164317452151179,1
0.129128503512155,0.01904020639291,1
0.131238615680977,0.0240396773329673,1
0.136960762463123,0.0247757531156898,1
0.196239046098968,0.049920930138358,1
0.192741165577797,0.0528919325438252,1
0.164835040620389,0.0440500856222811,1
0.113171878006717,0.0265497280427721,1
0.082262540059166,0.0220844968305831,1
0.0746498352300011,0.0199073874283877,1
0.119263849387546,0.0145528388516579,1
0.146530904483157,0.0165601190450226,1
0.131044252568492,0.0136440467648198,1
0.235022392908188,0.0187606691769618,1
0.247418002594508,0.0130177888805082,1
0.239710099687966,0.0124301781439652,1
0.239235024129543,0.0131152350468467,1
0.240910074087903,0.0142105405001267,1
0.189611637504301,0.00843533105625367,1
0.165754966922072,0.00630286011424942,1
0.155091330139755,0.00823495283906645,1
0.152990574221221,0.00784416436528297,1
0.166999126448263,0.00958097016150393,1
0.0808705206477418,0.00362739936849649,1
0.0685465970530446,0.00980764808139978,1
0.0704486196246407,0.0105150809322876,1
0.0742724420682672,0.0103091266489249,1
0.0537661277420774,0.00675898542672479,1
0.0482735777070236,0.0126361823367962,1
0.0397470446345672,0.0119882674337597,1
0.0913611169328908,0.0287457212419909,1
0.0996475512103128,0.0178435385846091,1
0.100667388258817,0.0133526805063424,1
0.12779033126637,0.00852567948800202,1
0.240897066388596,0.0171997990776111,1
0.307702436920752,0.022485445323638,1
0.37631540389376,0.0272129155266127,1
0.423207593630683,0.0294881864419036,1
0.430307752974391,0.0304641865846531,1
0.412072974923015,0.0307867433919792,1
0.253124982786293,0.0193722630998271,1
0.198888208296293,0.0175710851054737,1
0.0678169570010528,0.00735830340181392,1
0.0104259727985513,0.0137608266431496,1
0.0161476819117066,0.0278057817272426,1
0.0202596032753446,0.0330518461210733,1
0.0326187838173494,0.0397325477880467,1
0.0448884572249953,0.0604169555964538,1
0.0422194297169963,0.0512427542503469,1
0.0439384456276356,0.056765750786192,1
0.0448421048855699,0.0433823365623937,1
0.0346716857118843,0.0535053130361373,1
0.0154648081056222,0.0348964921436983,1
0.00985469022667492,0.0271077980957065,1
0.00839967736447433,0.0198164135361855,1
0.00556414140074794,0.0130103341658858,1
0.00530456459968719,0.0147708307248242,1
0.00545755059371152,0.0138503679917661,1
0.00638022021617973,0.0169809652409936,1
0.00618780422119437,0.0176797635825765,1
0.00578020557616947,0.0277936011726834,1
0.0046262378379082,0.0209054398623174,1
0.00403898366971491,0.0190773626259707,1
0.00388664325699032,0.0191583247454777,1
0.00380368533302786,0.0268630808306138,1
0.00316573957960227,0.0249288542698336,1
0.0031876388282701,0.0207234709633664,1
0.00305061983515387,0.0229771611234956,1
0.00295716492935887,0.0189040253299193,1
0.00440131141006723,0.0268349402168229,1
0.00536714165594147,0.0160535804234695,1
0.00600710517586288,0.00978392625271168,1
0.00779502603257105,0.013006788608327,1
0.00778423201012461,0.0126840221398586,1
0.00793988342330128,0.0122322980422926,1
0.00700639803780366,0.0108992327115127,1
0.00786121283739324,0.010907360753101,1
0.00813060440566452,0.0103370890786615,1
0.00811788580688372,0.0105975085103313,1
0.00868418824116855,0.0112416298730961,1
0.00748762376519182,0.0152552858944584,1
0.00902442278547006,0.0181128745740343,1
0.0141058653703267,0.0255936199980228,1
0.0155733357572889,0.0295028153918848,1
0.0211204796933125,0.03359494351892,1
0.0219838248498916,0.0276131692236,1
0.0211788953428362,0.0304415209145051,1
0.0184860532193379,0.0300847775827048,1
0.0162390973732736,0.02109321987132,1
0.0224306886918763,0.0296622608546105,1
0.0220579410012656,0.0296242308626422,1
0.0507176306742553,0.0474443106271038,1
0.0963222778304093,0.0649888538485289,1
0.0920063839366033,0.0386640486635516,1
0.0935970880636053,0.038764859272649,1
0.0881121282210916,0.0361905288333755,1
0.0741401484640565,0.0309487577055517,1
0.0504736598763988,0.0228096171559786,1
0.0339037481276416,0.0177398733528794,1
0.04150774338346,0.0186171680343016,1
0.082162700551459,0.0304077139110571,1
0.112589045756674,0.0173658113838863,1
0.115131163289827,0.0138014683881648,1
0.213932572458477,0.0144858877226315,1
0.323270401606765,0.0200357126499578,1
0.320835257899385,0.0211846441913037,1
0.362676823682169,0.0237971029982129,1
0.359398152523011,0.0239164860708717,1
0.372361321411228,0.0220308823463937,1
0.357179938311304,0.0120489028851688,1
0.422272520240377,0.014287483641817,1
0.418932128604715,0.0118060151872899,1
0.306667250985844,0.00539133771116791,1
0.315742023432176,0.00927813021684338,1
0.31059665494405,0.0090179235578135,1
0.404944069344275,0.0105714388157593,1
0.443546598606647,0.0101537857785652,1
0.432308976137122,0.0101391952569394,1
0.320833269519351,0.00492438586079624,1
0.309850677972886,0.0086343583228417,1
0.284160727355403,0.00788798692158097,1
0.231766032120572,0.0112806309150168,1
0.128437641817276,0.00739170460108711,1
0.126663785805192,0.00702528929739344,1
0.122709830370518,0.0067964639707991,1
0.133602487980018,0.0113741402346332,1
0.13470907644572,0.0109777205438427,1
0.138788290692904,0.0122751689826022,1
0.133259731098498,0.017961176394224,1
0.110069821533532,0.0173013689722488,1
0.111813277043591,0.0152810195109177,1
0.125469467305754,0.0169791586871032,1
0.145197582408622,0.0211119070419886,1
0.141838800735277,0.0209163035969635,1
0.126143595063995,0.0165635704367736,1
0.152021608688087,0.0198875856066026,1
0.148182191056681,0.0293569081928857,1
0.131559415718084,0.026706240323383,1
0.122150965120159,0.0237814742837408,1
0.11034898106661,0.0213675103528717,1
0.0862412544671218,0.021033552812926,1
0.0986288937811492,0.0250512063699126,1
0.125624553181115,0.0283602293823191,1
0.100212738179732,0.0332396399230898,1
0.0579901540661314,0.0345944141092552,1
0.0604956602737566,0.040964725469839,1
0.0444678342868772,0.0389533567224462,1
0.0280359963300123,0.033256762462432,1
0.0241796410812123,0.0288827575543041,1
0.0158664189688167,0.022034869399052,1
0.0131214217653249,0.0208457994874955,1
0.00800109077186799,0.0168057319908302,1
0.00786030398586541,0.020875894238405,1
0.00316133931387371,0.0150991905598992,1
0.00325674651742914,0.0299833612569483,1
0.00289398867871371,0.0308385441850848,1
0.00309514997786509,0.0185277785398938,1
0.00655645172798712,0.0345668783563056,1
0.00692758464684489,0.0315585503838192,1
0.00658849363417399,0.0282981323844357,1
0.00804160625041371,0.0259418661638312,1
0.00856003444721962,0.0272714555334925,1
0.0117501732675691,0.0353008615392068,1
0.0119651228675485,0.0349573717732484,1
0.00964103629909091,0.0289471616495722,1
0.0100400204943556,0.0265720784074316,1
0.0126235300731922,0.0445020384455706,1
0.0134480103946176,0.0512210698960208,1
0.0142777696620533,0.0560003465248802,1
0.0142144721352862,0.0632031423135163,1
0.0131698724046261,0.098237487146025,1
0.0108062395309195,0.0883004616928027,1
0.00515984169477705,0.0593508763889805,1
0.00395027719000236,0.0608520565296406,1
0.00515108418312743,0.0716532888987857,1
0.00703095983776122,0.0795862585892388,1
0.00574867228642495,0.0445101766512277,1
0.0153887071500815,0.0340166690126521,1
0.0211122215318667,0.0288165163116038,1
0.0221400312288789,0.0277950730270186,1
0.026146486295927,0.0319706319059862,1
0.029178318488021,0.0355755428278979,1
0.0283047840043555,0.0333918175158999,1
0.0403738383919826,0.0254251791182233,1
0.0629846675278887,0.0308453770651557,1
0.0583536934053034,0.0263268830595878,1
0.0530036385098797,0.0214088866361279,1
0.0576482018970378,0.0251886672305093,1
0.0615709924446775,0.0317394170449145,1
0.0662841008157091,0.0229875292796357,1
0.146186662683774,0.0381464310221414,1
0.174343119441174,0.0372037728323052,1
0.140049073255081,0.0362535425648414,1
0.131473165991345,0.040848879172222,1
0.140774830490015,0.024319509048056,1
0.138814948998094,0.0223893878782651,1
0.136426389527313,0.0233568771572197,1
0.136674859859916,0.0198374967981568,1
0.137713471359448,0.0186445862199849,1
0.135360195594595,0.0226790302279761,1
0.0985725055239681,0.0188161336875019,1
0.111748608042861,0.0152554770881007,1
0.132416734424335,0.0150656227538976,1
0.128051184343067,0.0144689391937125,1
0.142059928094511,0.0204814338281501,1
0.13493808780775,0.0185410333563996,1
0.132070831169193,0.017603332610182,1
0.147401173213642,0.0180587713906065,1
0.144570295936003,0.0161601334443266,1
0.123959865297667,0.0124156076842421,1
0.0971624958317705,0.00887725631599388,1
0.101445466510078,0.0125473235467496,1
0.114871502298152,0.0133753564602436,1
0.109499833785735,0.0112687495209217,1
0.111724138881337,0.0142767269577501,1
0.134164653122894,0.0145103987129436,1
0.162773768335227,0.0146000785463873,1
0.201483097114979,0.00528863096450074,1
0.298239975040298,0.0062470739204354,1
0.341466614432498,0.0058270467672633,1
0.418211713975444,0.00822477807697073,1
0.484979275846635,0.00998777592617638,1
0.490662017907239,0.0104977496618685,1
0.503101889910722,0.0107208234260173,1
0.487657656005103,0.00940350613175045,1
0.465262013602666,0.00912459777627385,1
0.454740809894866,0.00805535648560199,1
0.375803417392995,0.0176166101999869,1
0.196447029651866,0.0154116171522977,1
0.192620790169463,0.0205049779249214,1
0.157795529026488,0.0169107698918226,1
0.136052285208595,0.0159723190311342,1
0.167927452833815,0.0193776635829914,1
0.23729365119194,0.0286250323530096,1
0.251830167743045,0.0437503416001268,1
0.216181827997406,0.0383171419167588,1
0.25237199580412,0.049725137963054,1
0.28582588007567,0.0575892725443664,1
0.189142770215944,0.0544813442991222,1
0.164935024824445,0.0704259387137144,1
0.114566397530316,0.0556396081347397,1
0.0705532339929448,0.0370092223849792,1
0.0419867063380417,0.0318838754547635,1
0.0357093809733966,0.0236739996644939,1
0.018174493062322,0.0113699835010679,1
0.0102117587843496,0.0133564307323154,1
0.0103321797496224,0.0124533569333265,1
0.0108980886995016,0.0144921859247069,1
0.00992199960223373,0.0151653114166642,1
0.00970546956875221,0.0167814607309766,1
0.00647937010850438,0.0142869549109687,1
0.00407840061334832,0.0146777830130334,1
0.00303792386400091,0.013271420613197,1
0.00229354139046856,0.0166498172186167,1
0.00101355445352414,0.0098728775161155,1
0.00309322498246914,0.0332520792740375,1
0.0111608965343104,0.0593708393106153,1
0.0125825247415302,0.0178817012429143,1
0.0131643726515416,0.0169055073742229,1
0.0127447391825853,0.0156623860398895,1
0.0140806409882821,0.0151825938171701,1
0.0200329774018654,0.0208959310135598,1
0.0219643164957875,0.0169299600180616,1
0.0222176784169234,0.0162577841393989,1
0.023708863774112,0.0176756904349401,1
0.0220442173809906,0.0162088516674243,1
0.0125314456804236,0.00883106246981406,1
0.00846620822991316,0.0119150158308262,1
0.0118253524547343,0.0169387716628248,1
0.01122389854349,0.0137529618235076,1
0.0116192425498714,0.0164101339834775,1
0.00974153432329104,0.0146878567634012,1
0.00816072510142934,0.0167585447123559,1
0.0116987996396201,0.00777967125151031,1
0.0331000380135779,0.0234946258846171,1
0.0358770956088504,0.0210888196651813,1
0.047206751695045,0.01753582283111,1
0.0764220285926714,0.0211475322181689,1
0.0752477619717643,0.0202791688778896,1
0.067975673198579,0.0187899302418074,1
0.0611209548929028,0.0146375832934769,1
0.0627615303148982,0.0145280189607398,1
0.0519599280282789,0.0105593714719868,1
0.0482061205773424,0.0116036100989266,1
0.0472832520342984,0.011563107944259,1
0.0875997248058412,0.0134741712910708,1
0.122594884259242,0.0145311093488789,1
0.113504926342186,0.014590706561493,1
0.115918424324334,0.0135023475074937,1
0.322539963645006,0.0168158504410903,1
0.554814234773229,0.0240981345148426,1
0.490143570393851,0.0177254785240634,1
0.456704764197237,0.0116605908729194,1
0.677979310179893,0.0179771761356613,1
0.694149258288069,0.0177958365943492,1
0.6732186463006,0.0169263081203146,1
0.627264508156843,0.0170157183493444,1
0.530186189840262,0.0126948310270576,1
0.363288309847989,0.00725249569109329,1
0.387007910303773,0.0110366076314885,1
0.392100351557864,0.00931421511538836,1
0.371992830688851,0.00957200242259026,1
0.340579647303735,0.013835948142233,1
0.392464303654539,0.0179794915343304,1
0.413140552710104,0.0167863823682869,1
0.422491630708269,0.0178609592859157,1
0.459138871606042,0.0217160338774761,1
0.382392139140558,0.0284554889088408,1
0.387936571781479,0.0111978358539838,1
0.425794134853689,0.00930749267951334,1
0.421627748263925,0.00837289593236433,1
0.447113594264621,0.00824941203690423,1
0.455458883882653,0.00710897040525493,1
0.468412669290241,0.00799847158899113,1
0.456285014713275,0.00839652994859428,1
0.458877164356269,0.00905282764219562,1
0.434006792773128,0.00849592964455268,1
0.411054359131622,0.00692230636071387,1
0.386890679427874,0.00933807411466279,1
0.313427069447902,0.0115775251550678,1
0.227750757181703,0.0106802600022366,1
0.19227196987594,0.0104005950149828,1
0.214959177642327,0.00454152400034694,1
0.289501398089541,0.00608316385531852,1
0.295279477723227,0.00672141257517291,1
0.319641152366306,0.00754382015526039,1
0.320987309939463,0.00800171902722673,1
0.322308252404458,0.00907838549805507,1
0.351697653555746,0.0159898707771901,1
0.336170220385751,0.014965686126103,1
0.323735128421258,0.0172738820808599,1
0.353122645030779,0.0170240582059755,1
0.398372630638753,0.0566688050239914,1
0.293421106661623,0.0731926887853827,1
0.289043374300417,0.0581379904855654,1
0.312850790114072,0.0562369346368694,1
0.28947266914475,0.0506515442989765,1
0.258887527157159,0.0442210941761756,1
0.237807894628546,0.0396239294554189,1
0.229167660923583,0.0402176396653023,1
0.12272152819503,0.025743464087695,1
0.049451667362207,0.0162492387287882,1
0.0361462420080785,0.0197524930377966,1
0.0369146738621463,0.0227704162265879,1
0.0142162590966826,0.0151664121829265,1
0.00330542845818081,0.0265013252863354,1
0.00263311443320625,0.0205993270837185,1
0.00291502844868265,0.0252307243774396,1
0.00399392842667894,0.0298918777157549,1
0.00418407522160458,0.0301036625267245,1
0.0047621361351086,0.0374560706812893,1
0.0046306668085921,0.0516818917425251,1
0.00325145440503687,0.0434516456827166,1
0.00285521079519039,0.0130529958744517,1
0.0246557048089753,0.0296027246182191,1
0.0372856738982178,0.0330768996088843,1
0.0396487753180687,0.032639861825567,1
0.0376265299971675,0.0285841024246827,1
0.0403327596982109,0.0278496304117351,1
0.0416990373927303,0.027362564682932,1
0.0417531951919015,0.0279731166474743,1
0.0403360736312448,0.0277631866091058,1
0.0411982750204181,0.028581567658388,1
0.0417254285669574,0.0356343029701956,1
0.0276899096430966,0.0471248426684562,1
0.0162673948994965,0.0290517653035172,1
0.00779892288895671,0.0132977532033971,1
0.00800286970705414,0.0154308927382578,1
0.0070001587862277,0.014153849266808,1
0.0157386709582483,0.019590018842701,1
0.0347589395319646,0.0390396246442199,1
0.0440292450010405,0.0433370586154915,1
0.0571210275655867,0.053424060580767,1
0.0692006743319485,0.035638988936115,1
0.0669311051039273,0.0247197165699775,1
0.0689117753299119,0.0278228100092407,1
0.0508963615056391,0.0227541491502431,1
0.0424890960481794,0.0180303279967425,1
0.0306635512163115,0.00795914907718696,1
0.0511532677694583,0.0164590928876778,1
0.117348098807334,0.030811516181949,1
0.131943676202476,0.0226517636650668,1
0.137679717247732,0.020431401716199,1
0.196468665365992,0.0314888949628798,1
0.172455907654386,0.024298996254146,1
0.180149061490458,0.0219421455838328,1
0.160469931336209,0.0138359485713006,1
0.120254956639037,0.0106493523009109,1
0.103771730617916,0.00835194302238485,1
0.106435028524761,0.00801472344212172,1
0.0971061245109971,0.0071891162643628,1
0.0882553127476331,0.00831972561320674,1
0.0834342367312054,0.00887325312415017,1
0.0789020165363128,0.00728498681266826,1
0.0884165703387244,0.0111031543469049,1
0.0878489048519666,0.013941733429589,1
0.144123064341048,0.0284484220688745,1
0.166647303277867,0.0259916317513625,1
0.157441039367287,0.014713492185588,1
0.18510286086429,0.0190289708846866,1
0.186418741622975,0.0152392678910286,1
0.177760171711993,0.0153906987353203,1
0.189923639812755,0.0125673048620578,1
0.231883080183692,0.0165695853629332,1
0.241350852809576,0.0177736221978713,1
0.266498137187065,0.0179923702704549,1
0.269812401239266,0.0178684688073671,1
0.246459273359371,0.0178670995946648,1
0.229695356381493,0.0247500746705041,1
0.174583331166601,0.0192242377101891,1
0.15946033956079,0.0197649611982256,1
0.191599600235699,0.0191173275775456,1
0.216536210315854,0.0220131193589087,1
0.220919827297203,0.0164074913698114,1
0.272309068514137,0.0129755549039377,1
0.389889613666224,0.019455629279548,1
0.38755771504124,0.0181989158910837,1
0.431215578754427,0.0188871524943227,1
0.543755042698834,0.022966656471133,1
0.560372474864412,0.0228641075427133,1
0.626380870882227,0.02306218637981,1
0.754345203198149,0.0298359066400747,1
0.76531675463771,0.0349703093364081,1
0.727444670563234,0.0370332783046565,1
0.651190976353961,0.0645465071865049,1
0.301235787484254,0.0359852246685752,1
0.184716562548047,0.0345948946174367,1
0.193968262207219,0.0372504320083538,1
0.218615263149186,0.0410253535511683,1
0.144511354583467,0.0356403978675679,1
0.104035261113841,0.0772699723614195,1
0.0971578186578812,0.0629541200524939,1
0.0625239890592763,0.0523490701639742,1
0.020828953676478,0.0229746482506531,1
0.00600537288697233,0.0140457543526272,1
0.00463559959273221,0.0139981477626659,1
0.00655696714165282,0.0168673520202735,1
0.00692728372154522,0.0148379703175545,1
0.00705130232659503,0.0157756362779228,1
0.00758784834447725,0.0167176819527064,1
0.00848532985980397,0.0178209109182019,1
0.00842006071104994,0.0168643783545836,1
0.0121921323670388,0.0382679284182106,1
0.0114416535103416,0.0259505091565626,1
0.0120400211011732,0.0285824714283298,1
0.0107836591478131,0.0275664256823158,1
0.00828700618337748,0.0193668452600506,1
0.0107377229842911,0.0285218432278011,1
0.0126411773405782,0.0340436981697875,1
0.0141488252265341,0.0375835348691866,1
0.0147499510759043,0.0266804171571499,1
0.0207791688444079,0.038613100784103,1
0.0224963181843467,0.0373464741805036,1
0.0233940661010578,0.050190330200718,1
0.0226159424187283,0.0464272613149991,1
0.0216580189948872,0.0480713590910654,1
0.0219872385369133,0.064553467300936,1
0.0189700038928401,0.0361899739373791,1
0.0277269400660687,0.0194797585219054,1
0.0315776751662523,0.0120202848060751,1
0.0308010440050275,0.0142361264818943,1
0.0613945858906521,0.017826836441187,1
0.0707168753533635,0.0088197539475686,1
0.0724772816838902,0.0039907754299497,1
0.179464231852702,0.0134488356954356,1
0.188591725621791,0.00951809446813947,1
0.171014195978151,0.00804455091144539,1
0.149343123337004,0.00692142397860254,1
0.174836685334333,0.00891889973125749,1
0.223267641022477,0.0140282131883578,1
0.192929081696434,0.0101624676907387,1
0.18235460077599,0.011281032981756,1
0.172312503687689,0.0114518470979647,1
0.201969731669446,0.0148892601023748,1
0.210652701875199,0.00980374485020588,1
0.22033384132119,0.0137767731969685,1
0.196473984369501,0.0115099266122074,1
0.186128507582402,0.010541162984712,1
0.18324371987628,0.0109385534747455,1
0.176687603982426,0.010566122042491,1
0.191957339169803,0.00829790460270247,1
0.247865341008554,0.0110011266795967,1
0.247583672139698,0.012142156999627,1
0.219624403880637,0.00320678846934419,1
0.44878300594719,0.0139593610642755,1
0.366872802095139,0.00882930816269952,1
0.449403178044624,0.00954504208760747,1
0.484517369250476,0.0105041991966269,1
0.522945876235542,0.00994548928581391,1
0.451026170675267,0.00784246461482526,1
0.382474129206672,0.00755971320248998,1
0.382477675922396,0.00754476448393053,1
0.300109498235334,0.00554816989747349,1
0.280323783184057,0.0094379787451848,1
0.311369711531382,0.0141273774117499,1
0.343136219314017,0.0177376804108299,1
0.286909992069067,0.0235386614884386,1
0.264056511075216,0.0207608121501572,1
0.201647929758308,0.0119770440177265,1
0.221563124227095,0.014958101164554,1
0.247504384231205,0.0136982887631118,1
0.286605942075716,0.0170159721151911,1
0.334362379735943,0.019077789997658,1
0.34439765409708,0.0187175436665153,1
0.338236013436472,0.0182740670128844,1
0.349461732777143,0.0214143069684033,1
0.328440559195084,0.0126128901194796,1
0.243744968899608,0.00809094388088159,1
0.175356125535691,0.00856759631327391,1
0.171774776439788,0.00762651037101461,1
0.185610602200532,0.00895833984629789,1
0.231316216836727,0.0114696433969756,1
0.224110285214532,0.0051504698817187,1
0.423488401720849,0.0109888806627238,1
0.62417537761839,0.0161877206548557,1
0.678714384974195,0.0174000583078862,1
0.682668054964217,0.0223543186689522,1
0.87516088721096,0.0249952267417829,1
1,0.0278438110335252,1
0.922177949297095,0.0241863383056547,1
0.780732656426773,0.0233351140084215,1
0.462515340524945,0.0143324341196136,1
0.446843973568007,0.0150560878985945,1
0.579916657053972,0.0229251947527143,1
0.578261907401572,0.0226091896140318,1
0.689427800840117,0.0265075797131939,1
0.833693380428109,0.0329692350952187,1
0.74384886358898,0.0433829860571783,1
0.523992059622759,0.0336753821077702,1
0.436376537422317,0.0291798334853646,1
0.452286147429885,0.0301088771432158,1
0.300432579715657,0.0250223757730006,1
0.233397519348337,0.0409471891592089,1
0.1910386288298,0.063156383855927,1
0.06846354379588,0.0484296685796301,1
0.0407433507140122,0.032523468507382,1
0.0483011022004842,0.0520277686977523,1
0.0690134744816575,0.118590792985648,1
0.0718036706770164,0.0842437169590601,1
0.0569635098827136,0.0672636418914735,1
0.0477477371270271,0.0578128726681705,1
0.0328878355123926,0.0423497875176306,1
0.0308928293512241,0.0226782220396277,1
0.0338507962994303,0.0112690073054077,1
0.0447114263345815,0.0101587586048333,1
0.0509204231320481,0.0116483436974533,1
0.0576454603914507,0.01283406799387,1
0.0555083629746482,0.0104073106072732,1
0.0548685129106869,0.00953701960842504,1
0.0700050422332666,0.0119635149029543,1
0.0893120514430246,0.0162767560858345,1
0.100163221771652,0.0168076936466546,1
0.0846213440595328,0.0207711920348797,1
0.0389675196073526,0.0148946978543339,1
0.0386772139233834,0.0243381350237562,1
0.0388218215131403,0.0282626763952547,1
0.0376070639861213,0.0316617606462383,1
0.0160430068681408,0.0255166189672225,1
0.00476118565379398,0.0201107193371164,1
0.0042989998054807,0.037863482106279,1
0.00413625914790556,0.0137104789766774,1
0.014914421809684,0.0310277464166159,1
0.0392034813763105,0.0639131924519674,1
0.0674716128782163,0.104083640041121,1
0.0789628925602023,0.101190911416644,1
0.10335456328504,0.0973152643449384,1
0.108068152125062,0.0762326121022546,1
0.092652198709546,0.0635992227726364,1
0.0999950906448518,0.0363362828666317,1
0.134311531889791,0.0472345291016831,1
0.104381451715973,0.0290758676303422,1
0.147731070216566,0.0233214483269196,1
0.145036551569436,0.0130585542307594,1
0.140279188279964,0.0107284937351173,1
0.126452059993628,0.00874041197071412,1
0.12413396071099,0.00866918550104334,1
0.118740453701607,0.0077138098710698,1
0.153739932165762,0.00900644824356212,1
0.204018194593234,0.0142443923319894,1
0.177601157582731,0.00996704361678565,1
0.185860502940885,0.010694562232682,1
0.154373806193168,0.00965022576537928,1
0.168626042449474,0.0179206022874318,1
0.236107652147355,0.0299903754295598,1
0.301974873401676,0.041289863140126,1
0.354511238138828,0.0344323538298561,1
0.360215549844515,0.0281986402052991,1
0.390002160595301,0.0291611945376183,1
0.250880405660942,0.0075568405641507,1
0.253010158996839,0.0075013967254913,1
0.240794694491458,0.0071118888086324,1
0.24093967784154,0.0071841300732426,1
0.250212390702311,0.00517679574545929,1
0.373808006145682,0.00914079341370953,1
0.390610376476402,0.00580691981215619,1
0.403197218518467,0.00697598991147974,1
0.429710461530186,0.00916924606581083,1
0.354477318654737,0.00722992954089915,1
0.389693641936093,0.0161252867451992,1
0.375087111187275,0.01765592136155,1
0.38785772830115,0.0178725508640289,1
0.388839133313917,0.0183738106326213,1
0.374874304861637,0.022910423250524,1
0.17349017121942,0.0106127565153556,1
0.125760768185607,0.0198581328381998,1
0.12494101769052,0.0188457922249113,1
0.144511726258494,0.0211051215752164,1
0.141271760877085,0.0186794614791598,1
0.199865613326998,0.0125590222740227,1
0.366433203424607,0.0210503437401249,1
0.385704702095675,0.022105299613669,1
0.409421738743788,0.0177559688394325,1
0.473614319165497,0.0156087387856944,1
0.504367404214995,0.0144959927242179,1
0.481690759213091,0.0139096711720479,1
0.444012732754682,0.0128591160302393,1
0.505760864460939,0.0149947255642503,1
0.518669838336397,0.0146851971298524,1
0.482399344715505,0.0207687661391159,1
0.428887122443791,0.0173891179239032,1
0.436829118906997,0.0184392521373041,1
0.301669034638696,0.0138801748258487,1
0.345695275084578,0.0238889108752275,1
0.378555129778379,0.0445904068096491,1
0.358950892540582,0.0412462231527483,1
0.28855272846893,0.0334131492304703,1
0.26754199982319,0.0317557480172301,1
0.186281319688284,0.0351700293925024,1
0.0350978947000502,0.0112519867715377,1
0.0129485996502113,0.0191717288799367,1
0.0116735952099697,0.0169035911737807,1
0.0142812967873689,0.0140556777863065,1
0.0158556222203465,0.00669983486540931,1
0.0226140870179645,0.0107244683609729,1
0.0272528543668223,0.0148095685836449,1
0.0291551030013441,0.0171806623865851,1
0.0292788380414897,0.018638171503489,1
0.0312835433610157,0.0188237064081473,1
0.0349388574541138,0.0215895835338065,1
0.0348050001992491,0.0197716023462163,1
0.0335845404928571,0.019912277986988,1
0.0164047603853835,0.0135744841031068,1
0.00518063345977526,0.0358757287401118,1
0.00864585014283724,0.0502655922288284,1
0.00961666879185571,0.0408766593158261,1
0.0153535461021423,0.0458732616573157,1
0.0168369471182854,0.0342462220030187,1
0.0201686133031426,0.0274640033997986,1
0.0199969940718282,0.0146843978705263,1
0.0192403627561899,0.0122565174296374,1
0.0206452798235866,0.0121671217352567,1
0.0200103611810933,0.0106741933016299,1
0.0199298641152776,0.0103795261946708,1
0.0201158343025948,0.00998916547423757,1
0.0237258274529927,0.0122518486878212,1
0.021925935978298,0.011592334198904,1
0.022401005094519,0.0129840136235012,1
0.0190840705550172,0.0190700813434891,1
0.0317272966760471,0.0174893461157213,1
0.042865159015641,0.013713249661248,1
0.0419266770417934,0.0093901960173872,1
0.134802407054311,0.0212257167869251,1
0.157614523978195,0.0155094745441765,1
0.153576331340678,0.0156741856220447,1
0.147477967126187,0.0146757553290602,1
0.151773664641989,0.0159695487261515,1
0.140444568102745,0.0157478809904258,1
0.113235811746115,0.00682263578069122,1
0.123589525026441,0.00837624884872556,1
0.12668258002193,0.00898730125962707,1
0.113742833295559,0.00820555367877674,1
0.096781142379751,0.00843033516198875,1
0.113193181079188,0.016070299998055,1
0.12894811343617,0.0141720376978583,1
0.21091547651683,0.0231995603687747,1
0.262481704135192,0.0279745483508714,1
0.281283653299542,0.0237666406619507,1
0.260593979972807,0.023546511438932,1
0.203918254253904,0.0150192180106935,1
0.20666773388179,0.0153996019211206,1
0.228150424266301,0.0168393761870427,1
0.202173449124274,0.0139659124786913,1
0.205977996726574,0.0146982448328757,1
0.268320370286089,0.020856733200233,1
0.26484499633169,0.0150687953048715,1
0.258315683633703,0.0149093138676537,1
0.29437845618697,0.0132334802764684,1
0.283900983589124,0.011774736276679,1
0.160249929285626,0.00475047378424619,1
0.213876749032296,0.00697345853948781,1
0.230238175321795,0.00643371466052482,1
0.213294550274297,0.00585009299884564,1
0.213195057946982,0.00588682136946134,1
0.18815148748177,0.00530691986058392,1
0.245155465683736,0.00872719703228169,1
0.252933779712881,0.00690114876539599,1
0.244150501365906,0.00887988181389445,1
0.205462048968131,0.00777379704596298,1
0.189548374742661,0.0104679277790859,1
0.0987839531836055,0.00313714648638094,1
0.106917965403484,0.00496688719516201,1
0.107843085059841,0.00512467585918901,1
0.103262642583645,0.00391678771906604,1
0.10363066543402,0.00351805013795759,1
0.0756841230610289,0.00206992651180441,1
0.107442464297034,0.00873003475910158,1
0.112513585021944,0.00963528187773941,1
0.118398214360825,0.0118341561027672,1
0.0982262868292503,0.00808178492579288,1
0.127665471429043,0.0150600212167509,1
0.154312454473039,0.0230795458944139,1
0.154897879311637,0.0116534367339975,1
0.29055003449317,0.0185029026345477,1
0.404777241069124,0.0240693586728914,1
0.490877171707597,0.0327450162985754,1
0.463519770879136,0.0300560377558376,1
0.451596438370822,0.0307368160005314,1
0.438013912312542,0.0308924993162324,1
0.428053292216776,0.0301692536542995,1
0.34332031383681,0.0221828490704233,1
0.290290052150212,0.0184507468099986,1
0.316259010311191,0.0322908297550015,1
0.347362751807699,0.0454607804753754,1
0.348287130106372,0.0425807972491726,1
0.316963349940568,0.0382228527966064,1
0.34699667624588,0.0429733754592045,1
0.391457604902909,0.0463929789450584,1
0.43258239355937,0.0505980205865036,1
0.38413019260938,0.064249062401719,1
0.190932477414713,0.0561770202438157,1
0.146871130089912,0.0518121882865781,1
0.0768209204277443,0.03319473003151,1
0.0328294727483751,0.0373633154449186,1
0.019827773254405,0.0270521583872096,1
0.00769203506967416,0.0295568013906343,1
0.00459198467002816,0.02283922395434,1
0.00193651232990196,0.0259008485920175,1
0.00242477165448656,0.0353693153308754,1
0.0112874710072824,0.0246785282375156,1
0.0217562384574938,0.0163692463534535,1
0.0219497175526499,0.0150394271884939,1
0.028334823141254,0.0161009444280803,1
0.0299596603691267,0.0110624437215803,1
0.029865709728065,0.0110941352192146,1
0.0279342622230593,0.00831386862663286,1
0.0309388282336764,0.00979638487980478,1
0.0422644743017346,0.0141118084259726,1
0.048764378368098,0.0114943612999001,1
0.0473828858921531,0.01442682520998,1
0.0454939966211364,0.0179240709484721,1
0.044072137170051,0.0181042532535691,1
0.0456627124146319,0.0219166828022033,1
0.044878460349614,0.0277702456726242,1
0.0361356951833954,0.0205338088847669,1
0.0405318208768532,0.0268235363882934,1
0.0384042992991275,0.0241301245306541,1
0.0254914244340822,0.0169934206121472,1
0.0174889265493293,0.00985776970713967,1
0.0192562434937683,0.00710371197474994,1
0.0202610641916964,0.00833092975114105,1
0.0200375948228701,0.00831169881963244,1
0.0194794912309864,0.00788699490636541,1
0.0231082565876212,0.00850166106929482,1
0.0482142050655273,0.0204070461690154,1
0.0597035877291932,0.0210666506282175,1
0.0589050557312151,0.020780837052607,1
0.052977802856758,0.02065995683751,1
0.0511840568615139,0.0255419918988431,1
0.0916083701855792,0.0138105899923947,1
0.26358551787563,0.0339083559441643,1
0.356278882447838,0.0277737088224638,1
0.326328790748216,0.0189083844236615,1
0.29972675289356,0.0186914758695727,1
0.33471490656105,0.0190730201758785,1
0.341559817114509,0.0163058410649373,1
0.299269371136027,0.0132354359357945,1
0.243763713218969,0.0105143983942942,1
0.206496224147518,0.00857556708838921,1
0.20774557955889,0.0158747544316065,1
0.186411587865852,0.0180798695745216,1
0.116188578728089,0.0129211768902627,1
0.111446718612732,0.0148218362009851,1
0.168703273747841,0.0170502829861492,1
0.162600449056606,0.019564141464379,1
0.262260785148267,0.0199499231166794,1
0.462111128679222,0.0213963271640833,1
0.444809966527506,0.0196526410108698,1
0.461299574344168,0.019454830771342,1
0.434292107993807,0.0146967046056836,1
0.338931309253079,0.0111374584986606,1
0.282276543329797,0.00903977812769404,1
0.223165262797287,0.00481906983432604,1
0.354172218169074,0.0102238688402318,1
0.436445154563095,0.0122824304519017,1
0.433907581359774,0.0140798353423776,1
0.394287139700144,0.0157071126008172,1
0.373146779463004,0.0147663122135761,1
0.378706094602285,0.0149039128295474,1
0.349227721622395,0.0170508102353126,1
0.342507501301825,0.0170978913452649,1
0.334138962474294,0.0162571327480845,1
0.414094738883974,0.0241098549032787,1
0.341195513120239,0.0204201523858451,1
0.196397911950238,0.011608562888149,1
0.179112421189265,0.0115318900117816,1
0.188292412096573,0.0111503394032484,1
0.129457122610759,0.00508133663034578,1
0.125289999358941,0.00447676189959083,1
0.0988887039103422,0.00316340560371907,1
0.123422698657536,0.00269019300176441,1
0.227484891634952,0.00782297265686286,1
0.209872666455244,0.00718846034484023,1
0.215139832414403,0.00740263474235871,1
0.230014167386617,0.00873310588196155,1
0.183778336870882,0.00655477806596759,1
0.185880750780401,0.00654753165409434,1
0.257819388696392,0.0131207638013854,1
0.288067950703379,0.015085903307914,1
0.32249513135786,0.0161020519312957,1
0.354932302390431,0.0268879616975681,1
0.252804480053773,0.0141621506964512,1
0.283424168962254,0.0173850905576471,1
0.241852988586559,0.018148864214784,1
0.192931076140036,0.014742001064738,1
0.162334177967788,0.0119491197397769,1
0.161867780055892,0.0147158190351776,1
0.139435619365718,0.0135952727612425,1
0.137586462483006,0.0114137509223613,1
0.188225756532025,0.0156833644652557,1
0.225123827783319,0.0185434476755611,1
0.258209844667685,0.0323183594604387,1
0.216505060584004,0.0346348477105089,1
0.237632845093832,0.0461578770040574,1
0.182126079510327,0.0403963028573244,1
0.168199954116226,0.0392691796357605,1
0.167376683006991,0.0369262814031801,1
0.0917612402756917,0.0305751333526932,1
0.0294320379330831,0.039735276120517,1
0.0207350275239358,0.04750813733299,1
0.00963465334233963,0.0290243494260956,1
0.00273704735757435,0.020101061398607,1
0.00371638893955021,0.0378836422088525,1
0.00555226716064484,0.0412776560776625,1
0.00640336741806811,0.0344465758578585,1
0.00723749985457659,0.0331961950237206,1
0.0069566011191952,0.0319808355838924,1
0.00573094706763557,0.0226052780447913,1
0.00522465304803285,0.0211301510744138,1
0.00468731721725808,0.020271889781942,1
0.00280556309716511,0.0110584579875652,1
0.00356787667324588,0.00488664013014626,1
0.0114926076926195,0.0206603578451001,1
0.0138052648765227,0.0178393101556379,1
0.0136246154885471,0.0182866012065942,1
0.0155184904234348,0.00711885533001393,1
0.0368345700237276,0.0152124986108781,1
0.0370439538953441,0.011299328298046,1
0.0452053238238642,0.0055704154286094,1
0.0780723317482014,0.0099191510487678,1
0.0705013396322883,0.00733538362427309,1
0.0632265342065697,0.00676779808824849,1
0.0639535365630435,0.00632123486307622,1
0.0636538899805062,0.00613926865335166,1
0.0588328193590507,0.00539626293193141,1
0.0523696767142926,0.00588250369137227,1
0.0584485612672343,0.00723294096929633,1
0.0475276514445226,0.00581188167217877,1
0.0463329349197975,0.0105126127152996,1
0.0365317661308589,0.0097725125914248,1
0.0316695543374029,0.0109092446969367,1
0.0306901729284375,0.0106777177852392,1
0.0259482634069583,0.00934861640497375,1
0.0235441134508228,0.00839005876549983,1
0.0267666365717516,0.0102796359307168,1
0.0284228926374791,0.0118453906100997,1
0.0223927511989403,0.00923029751298601,1
0.0286405868278283,0.0126477990037412,1
0.0291147984954295,0.0215980734278259,1
0.0236439298177342,0.0182570458619557,1
0.0197916019483154,0.0159585528899925,1
0.0200141397732668,0.0170113918785499,1
0.0140336232622673,0.0112679703374591,1
0.0137802493075915,0.01307631493205,1
0.0130532890993382,0.0141017998695717,1
0.0124802566315291,0.0136982507801793,1
0.00786840323327427,0.0119679073021608,1
0.00865220469393864,0.0194856457341996,1
0.0102290570257401,0.0188398856813422,1
0.0116465578106474,0.0144261553006732,1
0.0386364271613092,0.0304818539467854,1
0.0463173785657956,0.0158865278750796,1
0.042723814607959,0.0157390744295526,1
0.042754846393078,0.0172099739237999,1
0.0458163749830182,0.0156014933851986,1
0.0530512760996877,0.0169415623327762,1
0.0520728024082188,0.0145745257169958,1
0.0493033962669588,0.0139001207399573,1
0.051116995254641,0.0149444974639009,1
0.0540006743600493,0.0176837241581572,1
0.0356956838047928,0.0142643697922584,1
0.0278126150249348,0.0271270639791262,1
0.0284143047577873,0.0233396289384065,1
0.0291268332796121,0.0203558239134109,1
0.0249923463393148,0.0261376659286137,1
0.00927876754161661,0.0130012307289339,1
0.00881362718959232,0.0182118253232978,1
0.00841289045866345,0.018539167218962,1
0.00792278397033006,0.018628060355637,1
0.00975038111153899,0.0211853360998,1
0.0112826809101356,0.0158220653538112,1
0.0116707340532073,0.0160109042198463,1
0.0112164998345836,0.0207583191858857,1
0.0101479842265283,0.0245940430722189,1
0.0108772826858993,0.0260161570717456,1
0.0104973414543222,0.0237739316058446,1
0.0103317408869775,0.022471448338988,1
0.0113825299968061,0.0140336295591545,1
0.0154335889004251,0.0132529565506174,1
0.013223336197356,0.0117902148709518,1
0.0161908761928767,0.0135672339523898,1
0.0196668410181892,0.00932562865618627,1
0.0202386825506357,0.0101691067741652,1
0.0188310745759005,0.00781035041430626,1
0.0171546219274797,0.00453675020058679,1
0.0199555812743571,0.00625476362788543,1
0.0226972335435991,0.00769615946925528,1
0.02362954902869,0.0112668395940836,1
0.0228549835868727,0.0128716203944409,1
0.0230059124484304,0.0107431057471347,1
0.0187236385010588,0.0136060793628063,1
0.018626618587255,0.0200089315461606,1
0.0204701524881406,0.014106865773887,1
0.0179491291496263,0.014340832102355,1
0.0162499869072823,0.0179091799904045,1
0.015432612479588,0.016874148038339,1
0.0154160042994805,0.0169130934581149,1
0.015587171514168,0.0169211193221255,1
0.0148580676836859,0.0160763455017643,1
0.0163508110864309,0.0240609895014832,1
0.0163823028078804,0.0131050899751417,1
0.0198071929330788,0.0166196205837673,1
0.0165455854179341,0.0194704938830495,1
0.0162297333716203,0.0203499277963406,1
0.0162617248069587,0.0191008334217029,1
0.0166901062845317,0.0189891389857715,1
0.0164258316512206,0.0172416023089915,1
0.0150283824851177,0.016650631869747,1
0.0132639665906787,0.0143813522745403,1
0.00939267197072777,0.0100272794526779,1
0.011734987178359,0.0185493715578715,1
0.0089713674259412,0.011940731382772,1
0.00859475346619511,0.0132486122704877,1
0.00715664793259415,0.0107433885098643,1
0.00806394771370973,0.0136389340534185,1
0.00745959195748835,0.0151456774791562,1
0.00791640187395454,0.0180507236383727,1
0.008221598985166,0.0165481661545059,1
0.0106077150589266,0.0167056530594999,1
0.0120905943836335,0.0121137639474273,1
0.00953290173077415,0.0108308284708504,1
0.00934468149826647,0.0141371954295925,1
0.0100777586096041,0.0100854935925214,1
0.0127340623285397,0.0043661020884426,1
0.0267416780143932,0.00946621875460972,1
0.029463065250703,0.00519311635974525,1
0.0325326302690703,0.00595926962512442,1
0.032520000283048,0.00620194180395958,1
0.0312680382774258,0.00668428191102612,1
0.0302120281343037,0.00752332745185613,1
0.0303678459091609,0.00751497450227273,1
0.0298490021275883,0.00757766520173789,1
0.0301225955446677,0.00939264286739298,1
0.0294745622862727,0.0165775070662388,1
0.00601620208766132,0.00328428321271773,1
0.00344540808329562,0.0259754788656971,1
0.00317704710844905,0.0378784248565971,1
0.0023656923472787,0.0326837739116026,1
0.00236596421090257,0.0311208443990251,1
0.00240301343525092,0.0280068110882888,1
0.00268187778317152,0.0347646502436921,1
0.00242450263834126,0.0413809506673109,1
0.00255676372272613,0.0415002797065838,1
0.00266624732355259,0.0403627683379579,1
0.0032094622962635,0.0543010472370445,1
0.00382925217435403,0.10859486405062,1
0.00362242317591933,0.107935734057814,1
0.00298638037749166,0.10671503523476,1
0.00263540356255836,0.129017348852237,1
0.00128046199278656,0.129290680471584,1
0.00116322248832964,0.21595574161743,1
0.00113480738976233,0.253140119543668,1
0.000705908936427728,0.244781242394739,1
0.000174679655520701,0.311216976218281,1
7.77399883614885e-05,0.202242856682866,1
4.71771581456515e-05,0.176453029508328,1
4.67710702966902e-05,0.185800184274498,1
5.27453410850348e-05,0.169664821991585,1
0.000104681514984524,0.232921745573532,1
0.000139329752298113,0.204714507092194,1
0.00015024878623921,0.206874373957196,1
0.000149833904551547,0.2183294834492,1
0.000151072061718781,0.162868689161235,1
0.000302730503750203,0.165004377218126,1
0.000287623582020422,0.11982898443573,1
0.000283342624505896,0.116054654304735,1
0.000293074617622401,0.104468164566963,1
0.000332248100733824,0.121617731664618,1
0.00033628974230846,0.125600410140305,1
0.000325436914325015,0.106780186336992,1
0.000386948275861737,0.112600320683776,1
0.000349916700003135,0.102703818656987,1
0.000332680804854924,0.117924191550167,1
0.000213463818682985,0.124756271170932,1
0.000202526715152134,0.158803385356024,1
0.000203096766670846,0.152469234272869,1
0.000220506570515381,0.186545292868989,1
0.00021685024699597,0.183359231770687,1
0.000206253416559861,0.1788684540014,1
0.000187339452501574,0.293890280812414,1
8.5986024199497e-05,0.27251073294274,1
8.60619259890043e-05,0.287011421523117,1
0.00010916657826142,0.326119134649159,1
0.000119933537006356,0.380618270931911,1
8.45253346199501e-05,0.362971620614435,1
7.502944984697e-05,0.442807572980648,0
7.45204444094519e-05,0.451732347061899,0
7.4978272182384e-05,0.453335315779167,0
7.43314992664509e-05,0.501000001195687,0
4.15735752874405e-05,0.558357033523392,0
1.59026590696353e-05,0.376268576449734,0
1.50070936801052e-05,0.526488734022976,0
1.41792209231943e-05,0.532765570038559,0
1.51845986282233e-05,0.555205527880908,0
1.75706363580182e-05,0.598859315528543,0
1.81818853522985e-05,0.696793242947674,0
1.61713077928676e-05,0.735876483253619,0
1.56348673248312e-05,0.760159553478219,0
1.11280700897676e-05,0.686622310908253,0
2.85574582270568e-06,0.350102707999709,0
6.29188296133384e-07,0.245861317849527,0
7.27576044502701e-07,0.266081468535065,0
7.72056027731441e-07,0.276251492154516,0
7.28152742572838e-07,0.288756932858544,0
5.56988245755459e-07,0.257185254335925,0
5.94047084569425e-07,0.287700871084962,0
5.87278738588684e-07,0.273872353316634,0
6.35337477323065e-07,0.275174738184194,0
8.09744053482606e-07,0.301730801274315,0
5.19256734082068e-07,0.251739344784903,0
3.23788023279684e-07,0.212136304131268,0
3.51377123061541e-07,0.220077138299186,0
4.32880782659324e-07,0.245339600459679,0
3.87769574090782e-07,0.236105275413267,0
3.6048623469957e-07,0.236362735414981,0
3.93967676942965e-07,0.252409244205753,0
1.91668279013524e-07,0.20918620274169,0
5.94873826692359e-08,0.166698251858518,0
5.57856435398016e-08,0.16778528148145,0
5.13787869761577e-08,0.160663570199001,0
0,0.118036507845123,0
8.48145350278488e-10,0.114545023952078,0
4.4361212303662e-07,0.31204272239066,0
5.89895537931973e-07,0.302203188188317,0
5.75230420262118e-07,0.289579217324062,0
5.5545791500027e-07,0.26695328537967,0
5.79907365170832e-07,0.269547037884163,0
6.03017924564128e-07,0.264574722773048,0
6.38897377604617e-07,0.26162546862515,0
1.26147360529026e-06,0.340032346467681,0
1.08483192067508e-06,0.293056445998526,0
9.18532241539785e-07,0.266043031636886,0
8.58756085168271e-07,0.265623929479634,0
8.50399993425652e-07,0.282395961753116,0
7.76820454085257e-07,0.274600550490716,0
7.49092573059423e-07,0.274495916896599,0
8.44935715511022e-07,0.291049704628453,0
9.29841808789173e-07,0.313017834566843,0
9.92730096336823e-07,0.343443994157097,0
3.89413885524928e-07,0.222122692739077,0
1.03401250534693e-06,0.359096139548893,0
1.15209716821485e-06,0.348369829941238,0
1.14129703174966e-06,0.35245301764638,0
1.14334002075983e-06,0.346565243940867,0
1.10962365261629e-06,0.325008124881159,0
1.1810164955629e-06,0.335552954037654,0
2.38029843739554e-06,0.380253538276219,0
4.13806736049845e-06,0.424553621474469,0
3.62852106682268e-06,0.387029616753228,0
4.449698350646e-06,0.396397923163207,0
4.92603227122215e-06,0.362188399432165,0
4.9156024445634e-06,0.364607030313508,0
4.91585928329154e-06,0.356469468734581,0
4.71063290908919e-06,0.344243683801474,0
3.83368917668393e-06,0.309201285917214,0
3.59182047726642e-06,0.294865049161401,0
3.30336187805783e-06,0.301270990375014,0
3.07068790318773e-06,0.295991558882188,0
3.24468255215432e-06,0.298656936229936,0
3.26592066888867e-06,0.315208905179647,0
3.68430280342416e-06,0.371471240131005,0
4.33072222637246e-06,0.398497198550831,0
4.68075213517943e-06,0.393260505941208,0
9.92669453859342e-06,0.524145061284595,0
1.12497958492875e-05,0.46098713284518,0
1.11777357692217e-05,0.460845815448896,0
1.19576311536356e-05,0.44951795152823,0
1.57007865471846e-05,0.538680958944096,0
1.65521824701493e-05,0.563952791365925,0
1.67842749906766e-05,0.55000617483809,0
1.65559643864479e-05,0.562669355218698,0
1.67303879492958e-05,0.561457100487523,0
1.69291322032164e-05,0.598236706988907,0
9.2758232443573e-06,0.507295147594329,0
3.69007267186255e-06,0.382425428019584,0
2.83244195479874e-06,0.343710883615,0
2.17595537098838e-06,0.349207394953083,0
1.90060539919437e-06,0.32897626128422,0
1.8106328562432e-06,0.308856684106489,0
2.22582149336526e-06,0.370893230200911,0
2.01819405076191e-06,0.380809215788618,0
2.28303809553329e-06,0.4179935380242,0
2.20248874808809e-06,0.407945492037316,0
2.15769671939401e-06,0.41164083204703,0
1.90973183725453e-06,0.386981128046238,0
1.87332070086809e-06,0.383252456732377,0
2.65702127334356e-06,0.425454232869599,0
4.24848440210335e-06,0.524035386617839,0
4.17246285644299e-06,0.509160942540898,0
4.00862488818617e-06,0.527135192250295,0
2.63852412864448e-06,0.412082905654231,0
2.05647100499883e-06,0.366509766160422,0
2.48122263807215e-06,0.404715304496344,0
2.62637032298314e-06,0.403685469162682,0
2.65595790665164e-06,0.412996660346576,0
2.86046880153988e-06,0.43616223018072,0
2.63699192935357e-06,0.464927173332566,0
1.25203444229721e-06,0.310092315635268,0
1.35438348639425e-06,0.326775379587878,0
1.1740519533315e-06,0.322383193468345,0
7.41436332877619e-07,0.270864088526339,0
7.44748227508979e-07,0.273864061566119,0
6.33254229861456e-07,0.253199562004654,0
5.83705588690205e-07,0.256853013212711,0
5.97260116674476e-07,0.264617081890352,0
5.68052695091677e-07,0.258694508984488,0
4.86587085675841e-07,0.23777133720856,0
3.67110363696057e-07,0.226196917406105,0
1.4645396124658e-07,0.168397277980556,0
1.55191743876857e-07,0.165463567338538,0
2.39002705355839e-07,0.185749053909666,0
2.27204431082068e-07,0.181935826081877,0
1.9313406035291e-07,0.173931474656813,0
2.01524635072918e-07,0.173215504920448,0
2.15895543300217e-07,0.166904874695136,0
2.33867289728037e-07,0.174398360882219,0
2.36674339981061e-07,0.175288391657992,0
2.32679070876605e-07,0.177763703937214,0
1.53403385325339e-07,0.155097297139508,0
1.28295870847349e-07,0.14930903452775,0
6.75730463330162e-08,0.131995126630747,0
1.887195597795e-07,0.182687279044124,0
2.30919249961548e-07,0.185165282153578,0
2.15847301105249e-07,0.184499931566259,0
1.9272145369242e-07,0.185240793734147,0
1.76737659404458e-07,0.173005166430972,0
1.74834640706446e-07,0.169118215927732,0
2.07930654990743e-07,0.179422833891384,0
2.31709470704487e-07,0.185433120669573,0
2.67855105151721e-07,0.190961661657743,0
3.72459132129778e-07,0.216596619999369,0
2.17064057593141e-07,0.176556158456993,0
1.65712619185257e-07,0.169806953735301,0
1.70912074628212e-07,0.171814188752116,0
2.08303173066681e-07,0.187623415006088,0
1.82703554226634e-07,0.183501855950154,0
1.87811621286163e-07,0.190769257841718,0
1.84384556907659e-07,0.19498252791638,0
1.90885022812817e-07,0.194817984751013,0
1.84938832549149e-07,0.208509732967239,0
1.17896620227673e-07,0.17573331761281,0
2.39133163122515e-07,0.228488666589527,0
1.97441035188943e-07,0.191959524815495,0
2.65496503471645e-07,0.220549354226537,0
2.58226370716475e-07,0.214836481018114,0
2.52953532779765e-07,0.212855508575125,0
2.54718789435102e-07,0.206548355025168,0
3.096763319169e-07,0.226554213468748,0
3.29399915516244e-07,0.235624390938254,0
3.28092619979345e-07,0.229210032510286,0
3.4748649195744e-07,0.246250423159114,0
2.72894545990237e-07,0.23121890002561,0
2.6040049696086e-07,0.23008295583029,0
2.40518767292798e-07,0.224233873397594,0
2.30592256210439e-07,0.218561614092588,0
2.200769865092e-07,0.223262704337599,0
2.30820727169006e-07,0.240375426315184,0
1.72790802361854e-07,0.206008025786228,0
2.11739919857556e-07,0.217895038552821,0
2.41497200542868e-07,0.228244835604596,0
2.20414002406447e-07,0.219710047882797,0
1.70116418144994e-07,0.192068628777789,0
1.4692958852092e-07,0.200827788824388,0
2.2196845425912e-07,0.21533889398945,0
2.55581713204261e-07,0.22320548471354,0
2.28869126542259e-07,0.210186014315872,0
1.90218295294322e-07,0.191924130914842,0
1.65619022532342e-07,0.184248413060609,0
1.99959311739689e-07,0.193210317371781,0
1.91039941410745e-07,0.188175815556709,0
2.1627196831448e-07,0.18911298300277,0
1.90536286100595e-07,0.179451930932234,0
2.00037450506188e-07,0.179643719277826,0
1.33720569778081e-07,0.161758637727601,0
1.13465642566545e-07,0.160133871943476,0
1.19135119676678e-07,0.162902654564693,0
1.15014318945173e-07,0.156379693553001,0
1.58112095341305e-07,0.164864520515045,0
1.14412820310017e-07,0.143278119341528,0
1.14888447584356e-07,0.152070225687649,0
7.24040605052403e-08,0.136553168687888,0
5.20621614492538e-08,0.126736765599579,0
6.10999289961322e-08,0.128466573333031,0
9.35191936157963e-08,0.147777231829966,0
1.20018427471881e-07,0.160974194067035,0
1.64075272293342e-07,0.176273022016305,0
1.90851049436078e-07,0.171064152454963,0
4.38378864083811e-07,0.259871345220998,0
5.13458837607864e-07,0.27442597013756,0
5.15010571590398e-07,0.268533407211438,0
5.16771241839875e-07,0.268867228395109,0
5.16824749908238e-07,0.275268470589782,0
5.50630977633253e-07,0.291319720986804,0
5.05612176649441e-07,0.269304154970535,0
4.50715276645121e-07,0.252468687165593,0
3.11493907572414e-07,0.218817506734282,0
2.31417129797651e-07,0.214030327215561,0
1.39104840390493e-07,0.176325994506081,0
1.81338503949279e-07,0.222328624151526,0
1.53777092469463e-07,0.197075457930484,0
1.3269474366746e-07,0.189848326589761,0
1.41749328035823e-07,0.181701327562232,0
1.47099285537729e-07,0.184284300382279,0
1.5116878647036e-07,0.189290645595645,0
1.79887840762542e-07,0.188937862406382,0
1.50035434622361e-07,0.177295997842229,0
1.68195393557312e-07,0.183996182869979,0
1.74144981158654e-07,0.193839842190615,0
1.21619422850686e-07,0.161750011337804,0
2.05649003008981e-07,0.195439982833191,0
2.34536055649136e-07,0.186457185996852,0
2.22960476859887e-07,0.185671250867374,0
2.50252139728398e-07,0.189577086567188,0
2.72441511011428e-07,0.19542226961023,0
2.16319531041914e-07,0.184668060656092,0
2.87802063703121e-07,0.201632531364361,0
3.12411188744355e-07,0.20205274412759,0
3.04299535447371e-07,0.190837625077637,0
3.02003784514261e-07,0.194942303160287,0
2.1651114088672e-07,0.173411784306032,0
1.88270941339668e-07,0.178658026993927,0
2.24334360215195e-07,0.194555212730974,0
2.04555060277999e-07,0.182467111594326,0
2.25959136957717e-07,0.197629880746325,0
2.28275271916868e-07,0.199722993561896,0
1.76063627609964e-07,0.189166727416745,0
1.45393822025453e-07,0.186437695253727,0
1.41451551388709e-07,0.19089222676194,0
1.39625142655244e-07,0.189977027186713,0
1.25728672634099e-07,0.176766316282226,0
1.24467071288913e-07,0.179138873418134,0
8.23242865129023e-08,0.156471966268083,0
5.44710437269025e-08,0.148200709847557,0
1.99140043759638e-08,0.121418846799167,0
5.67355391534121e-09,0.108256657109652,0
2.62019668096214e-09,0.108803955264371,0
5.40992051185008e-09,0.110165611940019,0
4.32956713156355e-09,0.110473759346574,0
1.6986688369284e-10,0.102387324042025,0
2.35321689986217e-08,0.121868893098626,0
7.60677494527274e-08,0.1499256153369,0
1.17971361656498e-07,0.167603452588577,0
1.93091933365754e-07,0.187673956735093,0
1.92065088053831e-07,0.183521761002502,0
2.25066826217678e-07,0.195915187172259,0
2.82647113383694e-07,0.220313799571078,0
2.833897713992e-07,0.217632430264988,0
2.95084766607685e-07,0.215933790299168,0
2.90757747479377e-07,0.214624482531373,0
2.49202871987828e-07,0.212939607512207,0
2.22346238208453e-07,0.210439718713866,0
2.16867861342475e-07,0.214982846178468,0
1.39563480976464e-07,0.189946057876597,0
1.5869100168093e-07,0.202936087413039,0
1.27004203063749e-07,0.190404973122001,0
7.33391776999697e-08,0.162305796594542,0
6.14143525978476e-08,0.15446807261128,0
8.95606157582182e-08,0.16913310851498,0
1.23742758896846e-07,0.16825955232327,0
6.78970334402829e-07,0.315546382690781,0
8.08259416919131e-07,0.309255563984754,0
8.33695284083298e-07,0.304894579459401,0
8.39293247235396e-07,0.301934161577601,0
7.80816912257902e-07,0.277550751932195,0
8.43978345754527e-07,0.289647523297943,0
9.57242865930782e-07,0.301678655757909,0
1.00485502462793e-06,0.308974049255107,0
1.00512494310612e-06,0.314220714244732,0
1.0023178928531e-06,0.321133574034887,0
5.57007950313968e-07,0.2461686113644,0
3.48115678894639e-07,0.214371056619835,0
3.70145545173881e-07,0.224068966979982,0
4.0669529293742e-07,0.243530000516534,0
4.78869183815257e-07,0.269050050797712,0
4.51621686336505e-07,0.258592907937788,0
3.82636876333118e-07,0.245641049082894,0
3.57147331233704e-07,0.232260038587686,0
3.52332624282314e-07,0.230797795693726,0
3.26103648638186e-07,0.234572491986625,0
2.23762248550917e-07,0.199410867027121,0
3.39946610590966e-07,0.230206691552649,0
4.00468652448775e-07,0.24793399197948,0
2.8384841198517e-07,0.210708843610995,0
2.14600308312059e-07,0.198900894661262,0
2.36886843452561e-07,0.204242023839835,0
2.59483385655802e-07,0.210888141712774,0
2.3085130320807e-07,0.204863955482454,0
1.83654808775314e-07,0.192365191089911,0
1.63909312347974e-07,0.192052512205837,0
1.58811946902119e-07,0.189873343601433,0
2.15086807066955e-07,0.225655610387998,0
2.08743468029214e-07,0.224312901718578,0
3.05997015216114e-07,0.27696671691953,0
2.65427197783099e-07,0.233876292216503,0
2.32318953083177e-07,0.22456662787841,0
2.32406434528279e-07,0.217637306826461,0
2.36402552967153e-07,0.215953032536098,0
2.49828831454236e-07,0.201383206894065,0
6.05377205711739e-07,0.280382598785877,0
8.15861129831269e-07,0.30169879516509,0
8.26926938102557e-07,0.300883485918692,0
8.56048407042207e-07,0.306279916563473,0
8.75257463850846e-07,0.291087321832833,0
8.67882693095321e-07,0.288798649717144,0
7.93052254023412e-07,0.274177052767196,0
7.48407669784373e-07,0.267422303089945,0
8.14278140342136e-07,0.278658267031448,0
7.90568630316938e-07,0.294627986293762,0
4.49292641494193e-07,0.240159052971443,0
1.92696992861168e-07,0.185074135258613,0
2.05968352750324e-07,0.195304003341251,0
2.00008912869728e-07,0.198535786257998,0
1.404787237458e-07,0.198100266111669,0
1.02420218321302e-07,0.187688223668587,0
5.23096574987947e-08,0.162258177542651,0
5.11571106929386e-08,0.16833149672585,0
2.75786359818224e-07,0.235493286953259,0
9.97686642136095e-07,0.422580567056498,0
1.10752070059617e-06,0.380072107718178,0
1.19444702072208e-06,0.398697828595121,0
1.21181896718358e-06,0.373651794422815,0
1.22135461456656e-06,0.361165577190411,0
1.2428480412271e-06,0.35498397194957,0
1.42791274513707e-06,0.378757781878683,0
1.43886491246316e-06,0.364102669600387,0
1.34346444311047e-06,0.338219769500926,0
1.24776466830871e-06,0.362152380671256,0
4.50141806045773e-07,0.224175347538692,0
2.47745583992627e-07,0.188589213368215,0
2.34026454998057e-07,0.180091525199914,0
2.97831004516347e-07,0.200995509435182,0
3.28714162906776e-07,0.214811793968424,0
3.61165532367458e-07,0.218012108321382,0
2.79195418307056e-07,0.190525312438961,0
2.49661002973148e-07,0.191424309623815,0
3.25374749840259e-07,0.223099180594376,0
3.19146750416544e-07,0.208422976841442,0
4.00775941641376e-07,0.226190905010862,0
3.74250718152086e-07,0.216963936141336,0
3.68427681379095e-07,0.217644524232058,0
3.06562162338159e-07,0.214553928456442,0
2.61177807820638e-07,0.204847010577051,0
2.33255938813626e-07,0.198044796329673,0
2.55219726875113e-07,0.205697063221099,0
2.96907778003476e-07,0.222392818129439,0
1.68770223091728e-07,0.176761264379657,0
1.34801772492786e-07,0.18452860857804,0
7.90152796185661e-08,0.157140904704052,0
1.43935854562718e-07,0.192130620028963,0
1.72449709659399e-07,0.205963652679751,0
2.01235351769989e-07,0.196355095674243,0
2.19479734546137e-07,0.1868244659689,0
2.38573451740747e-07,0.199499138259557,0
2.05397600021116e-07,0.201642912763154,0
1.28193271249599e-07,0.162562246237323,0
1.23384509639138e-07,0.16033152133634,0
1.50237066613304e-07,0.172372401602039,0
1.99786047518322e-07,0.184241296014968,0
1.53255261402758e-07,0.171332279790006,0
1.26579535854517e-07,0.163015410780653,0
1.15963535091249e-07,0.171778399829703,0
1.9325228770396e-07,0.212205701728993,0
1.44633667720928e-07,0.183119359154641,0
9.08189896326146e-08,0.158362058783697,0
1.13058811380101e-07,0.173328564258203,0
2.39910473982294e-07,0.231926934028512,0
2.71030087074824e-07,0.235982216575166,0
2.3917936691488e-07,0.235165562543707,0
2.47928190892596e-07,0.234594369049653,0
2.54413878378873e-07,0.233329182074547,0
2.31217536209313e-07,0.217491052088085,0
7.65122910873524e-08,0.158368824220648,0
5.47895441338265e-08,0.14712882650218,0
6.88708293244288e-08,0.145649467533178,0
9.96651473346869e-08,0.170732697701889,0
3.6974754706539e-08,0.131970929979808,0
2.22729457898064e-08,0.12092476938945,0
2.74622092197393e-08,0.12148845333139,0
3.77364378130177e-08,0.140595581002176,0
3.0464776255894e-08,0.134879658826407,0
7.76877699225062e-08,0.162489097685951,0
1.65961304302984e-07,0.206636510972282,0
1.54907216846672e-07,0.197513654276757,0
2.14794636027004e-07,0.226031204876097,0
3.4873671222142e-07,0.264083666277784,0
3.86949966376963e-07,0.280641224918376,0
3.84923964055159e-07,0.284470514687218,0
4.3056040102808e-07,0.286292473228647,0
4.83045191283961e-07,0.284449310067775,0
4.84794650319115e-07,0.275703331418764,0
4.61937362449404e-07,0.287652743774596,0
3.38872202551609e-07,0.235515813374341,0
3.98385404987166e-07,0.256762696498133,0
4.06076977480778e-07,0.25234173080506,0
3.3287675089167e-07,0.217668953103076,0
2.95160697104695e-07,0.201530325328524,0
3.14252545763585e-07,0.204886739642058,0
3.0024056626153e-07,0.207517130407832,0
2.80897484481658e-07,0.203792630664868,0
2.80075328764584e-07,0.202487206343016,0
2.2107835178857e-07,0.182001571753224,0
1.87584848996433e-07,0.180645772295379,0
1.67343511135592e-07,0.172619907258854,0
1.00629141899644e-07,0.154139016985081,0
6.48458335153269e-08,0.14136152478163,0
1.51295167431827e-07,0.171619524847062,0
1.49620110091731e-07,0.174546820684021,0
1.50516497636979e-07,0.172726614084927,0
1.66912558851664e-07,0.179596832397525,0
1.67920888673264e-07,0.182528006082651,0
1.5247472307219e-07,0.173346760535267,0
1.74725076566465e-07,0.177875799434836,0
1.79537065647716e-07,0.177494710607398,0
2.07649525298232e-07,0.183600559556111,0
1.98967289138923e-07,0.189974231872662,0
1.50197147895636e-07,0.188829757097361,0
1.02012537800439e-07,0.159193325864056,0
8.87289474956577e-08,0.148627160072244,0
7.78411597184808e-08,0.141692374955075,0
7.62649649046951e-08,0.142938073086711,0
1.48413545616861e-07,0.17665063886037,0
1.79136179802201e-07,0.169079443088142,0
3.21637678399016e-07,0.218925022936264,0
3.05570989071811e-07,0.20464558321973,0
3.90538404294975e-07,0.221345620220143,0
3.96483745224224e-07,0.208162204446468,0
4.40294962531866e-07,0.214671209348042,0
4.3367915701268e-07,0.216014434732675,0
4.45560835926344e-07,0.217812293534129,0
4.52941212289031e-07,0.21473292470384,0
4.25848293674439e-07,0.213354182604021,0
3.80510822416818e-07,0.221618755073327,0
1.44666282162597e-07,0.151648896597862,0
1.44496924879555e-07,0.155416736320388,0
1.17366635550552e-07,0.138743705416422,0
1.23097264738814e-07,0.158044927588692,0
1.32780356576841e-07,0.171980116243858,0
1.70886084995006e-07,0.189250880911073,0
1.58007627207833e-07,0.183537193948059,0
2.04311301299899e-07,0.209789271099063,0
2.74831028464335e-07,0.2344030146262,0
3.78661311787171e-07,0.274020391173433,0
3.91040360936287e-07,0.273209963012214,0
3.92359886888813e-07,0.280137969642929,0
3.70643594876868e-07,0.306366736329709,0
2.88815829265e-07,0.269130138243122,0
2.07380286287579e-07,0.238691121997568,0
1.01123964131841e-07,0.174570646866254,0
9.73880817587847e-08,0.173751672259887,0
9.6417802119131e-08,0.173185297945488,0
1.26816670024152e-07,0.180293252177726,0
9.31454864716719e-08,0.152252236030238,0
8.51829762985696e-08,0.152605321477933,0
7.01835606016072e-08,0.141663143421714,0
7.57546847860819e-08,0.146037420122517,0
8.04633948020476e-08,0.147530971187508,0
2.09208053956113e-07,0.196822798900632,0
3.20936977503783e-07,0.236404393226064,0
3.11414919471497e-07,0.236206100645362,0
3.11468767273628e-07,0.236224108661987,0
2.1914322824954e-07,0.216184993634444,0
1.66436931577324e-07,0.2065261114942,0
1.94420122529349e-07,0.219569089155885,0
1.86297258018041e-07,0.205300731522904,0
1.9319708096676e-07,0.201625784720023,0
1.93229185807779e-07,0.206508041230699,0
1.15703978492966e-07,0.184498414650189,0
1.72734236689586e-08,0.126665801429425,0
4.01809921362415e-08,0.139494825277553,0
4.8643930148703e-08,0.135134850587435,0
1.56645974268151e-07,0.184701006884753,0
2.36924893634509e-07,0.192093831169602,0
2.53028444075474e-07,0.188303557901411,0
2.57404045132518e-07,0.194385406169446,0
2.5879100823787e-07,0.190074997218224,0
2.67700696154444e-07,0.181184075191525,0
2.59985512163998e-07,0.178889361203933,0
2.59484065123337e-07,0.182372359914882,0
2.32969033647069e-07,0.179745055348337,0
2.2024396565587e-07,0.179471540775004,0
1.49732392101852e-07,0.155426818351579,0
1.16489273096278e-07,0.158082648305715,0
8.01352119827527e-08,0.140773648628701,0
1.32455401228336e-07,0.167404134197466,0
1.74147529161909e-07,0.190615974292166,0
2.10387609596477e-07,0.215653024914167,0
2.28237391601805e-07,0.219420145607713,0
2.34614704016286e-07,0.221961586525811,0
2.66926273031688e-07,0.225696717255161,0
3.0162328269479e-07,0.247369646270728,0
2.54663242964134e-07,0.223022636356738,0
2.49500478768058e-07,0.214618710343064,0
1.8160213735277e-07,0.19385134941078,0
1.84368079819941e-07,0.192121727097496,0
1.9171176493575e-07,0.198243585301022,0
2.33600938454407e-07,0.207241132695198,0
2.36421578058126e-07,0.209781664076429,0
2.4323324009421e-07,0.215336825738446,0
2.38670615598219e-07,0.223733189054869,0
2.07232162364998e-07,0.204611871707156,0
1.83490207765016e-07,0.204071634621115,0
1.04252062795045e-07,0.177817882407266,0
1.02216547927755e-07,0.165912325454531,0
1.27424793467772e-07,0.177619550371602,0
1.09762714368925e-07,0.157195186298568,0
7.01402445462656e-08,0.146411906124353,0
8.96844487164301e-08,0.155066499481306,0
9.58456904548534e-08,0.151235817603074,0
1.01236076275079e-07,0.148536411877458,0
1.83525540076824e-07,0.18399186318423,0
2.06015915477757e-07,0.18527181975108,0
2.21367974825266e-07,0.186240759528054,0
2.2387232229155e-07,0.19185988994095,0
2.44277581695153e-07,0.210647616123693,0
2.5324859155674e-07,0.219159868757048,0
2.05451957423897e-07,0.195623981901582,0
1.34305761192403e-07,0.175428905841472,0
1.26800362803318e-07,0.174481132143082,0
1.21612458308455e-07,0.180722613464577,0
1.34236965104507e-07,0.181009118002887,0
1.26579365987634e-07,0.175725639888444,0
1.87035839228337e-07,0.20916558275776,0
2.90704749011665e-07,0.247215787257066,0
2.67762018099457e-07,0.231789499817351,0
2.78093831566307e-07,0.228044406305544,0
2.78821711162931e-07,0.231653610746236,0
2.7638785845338e-07,0.218180682715849,0
2.7124428921516e-07,0.219333779363929,0
2.76962687987797e-07,0.212692814988045,0
2.21561623072676e-07,0.195929903598682,0
2.79668837311908e-07,0.232455081478564,0
2.32486611697382e-07,0.212263297661158,0
1.37368800839152e-07,0.16904119125777,0
1.26713900559518e-07,0.170410414365468,0
8.93839541991775e-08,0.161614547953075,0
1.09441835825629e-07,0.171400354032133,0
1.27815487300266e-07,0.183958011232444,0
1.27021019885235e-07,0.170474032182265,0
1.7402335646993e-07,0.187856567542743,0
1.97132726795039e-07,0.206765618253021,0
1.39754241486851e-07,0.170165169517297,0
7.89828350437806e-08,0.136696432129998,0
1.09422980601539e-07,0.155858321625313,0
1.05579742357989e-07,0.149631189013872,0
1.65885203939089e-07,0.168930253563494,0
2.33510739139166e-07,0.198065291271104,0
3.39067889201623e-07,0.234330483810524,0
3.52842224933392e-07,0.236798248935488,0
3.40705405960422e-07,0.236085015539402,0
3.24947364760888e-07,0.225432006549479,0
3.12704548852492e-07,0.233395028288128,0
2.68894011012387e-07,0.231868845793946,0
1.68600526074919e-07,0.194169068272584,0
1.49464681893152e-07,0.185348156221727,0
1.34769837518652e-07,0.19092349052659,0
1.39053030990967e-07,0.186493975100059,0
6.94981477259064e-08,0.151164834925311,0
8.89547005840857e-08,0.168770766210216,0
8.3014795395114e-08,0.165180200348411,0
8.10849377294796e-08,0.174297859737615,0
7.87068013577799e-08,0.174322701660365,0
1.0560420318924e-07,0.182129466301435,0
1.35653145313854e-07,0.181706463239379,0
1.37528475709824e-07,0.179723482284634,0
1.7903035273366e-07,0.190154466371824,0
2.55524807798225e-07,0.219895695243913,0
2.56931135728317e-07,0.214279841496435,0
2.02085365655989e-07,0.195511868696048,0
1.56997768584279e-07,0.18039318890632,0
1.20748175604225e-07,0.161447714770049,0
1.0153283372089e-07,0.149748289687168,0
1.00827546419797e-07,0.151581477345938,0
8.68237205281591e-08,0.156118039949026,0
8.79171536584896e-08,0.162213651515792,0
8.11272345835193e-08,0.163058474811393,0
7.55703792172768e-09,0.115676883288218,0
4.33381380365566e-09,0.110333241340846,0
3.77189415239989e-09,0.10982223941881,0
1.90318856489469e-08,0.123071778919277,0
1.55912319197482e-08,0.120204824628784,0
1.77884600603151e-08,0.117479554947156,0
4.31748959613278e-08,0.14457940731255,0
4.61494349616734e-08,0.138463477672347,0
2.19510140718317e-07,0.211198286880817,0
2.82912105722255e-07,0.233175219457964,0
3.041242328234e-07,0.248078263695218,0
3.08197131093703e-07,0.253599581576499,0
3.05648957971427e-07,0.252679085812213,0
2.72883164909029e-07,0.236853454299847,0
2.8233370898328e-07,0.244105290603096,0
2.57937597014198e-07,0.238818585143655,0
1.56849644661699e-07,0.192166814338112,0
2.04690953784953e-07,0.198675970295698,0
4.61637887133454e-07,0.29777295311849,0
4.74364314059723e-07,0.286069962317859,0
4.41138351609401e-07,0.268991616554907,0
4.78693031856867e-07,0.29150045612802,0
5.66064403218052e-07,0.298291446927016,0
5.63710727677604e-07,0.297828150677229,0
5.34448778825137e-07,0.290447918244432,0
5.07047212082878e-07,0.278119121111859,0
4.95353575809462e-07,0.273331265206354,0
4.4964579474539e-07,0.284095302724812,0
1.94701422088744e-07,0.199724897964421,0
1.11201656740687e-07,0.169387164315051,0
1.16311252602168e-07,0.16934269538056,0
1.68536656126651e-07,0.17558701299666,0
9.40221694584107e-08,0.140121971140727,0
1.10414833335422e-07,0.143362037201868,0
1.38755424210737e-07,0.147616837405006,0
1.9557521733846e-07,0.168326936590221,0
2.39763708994783e-07,0.190480500590325,0
2.53065135322352e-07,0.199549679217463,0
2.69179217510106e-07,0.20493158099047,0
2.72121311935667e-07,0.205900086893868,0
2.70517768553606e-07,0.210704357271008,0
1.71921083917347e-07,0.191366545735551,0
1.82704233694169e-07,0.20040743678046,0
1.24770623410072e-07,0.176843682301321,0
5.2483601187696e-08,0.148353040421085,0
4.6979744289164e-08,0.14746767605354,0
3.49531689237104e-08,0.132969740318014,0
2.94910992785668e-08,0.124117188176222,0
2.17349773691513e-08,0.116179536795696,0
6.77267758627575e-08,0.148719299153087,0
1.25246250684412e-07,0.182932386071545,0
9.53063630991287e-08,0.161020156798806,0
8.98380083792885e-08,0.163511980090269,0
1.02997765725857e-07,0.172205858255791,0
1.19659838480405e-07,0.17810853938478,0
1.24853518449314e-07,0.179337321800786,0
2.27951845370317e-07,0.212836976974769,0
2.40178184190993e-07,0.208311556134565,0
2.44365063140255e-07,0.209749375394978,0
1.99146498701218e-07,0.190043990272742,0
1.37820476882891e-07,0.16243428032584,0
1.20864534419554e-07,0.156907731853898,0
1.15157516728126e-07,0.155339411351065,0
1.54161671094143e-07,0.169828501016643,0
1.8148713747251e-07,0.188215075140963,0
2.31407107651514e-07,0.21115875138174,0
8.54078800525789e-08,0.151802183597737,0
5.16519329251358e-08,0.147771933971419,0
5.99991915898025e-08,0.156580558286497,0
6.10515169342799e-08,0.154223924337872,0
7.23417193589251e-08,0.161663487748113,0
6.49375616325212e-08,0.153785191236712,0
6.86615533237195e-08,0.156194439672692,0
7.37643545098525e-08,0.162732089010111,0
6.58460097265104e-08,0.14880084878736,0
5.04368751060808e-08,0.126972712103578,0
1.01588550058741e-07,0.15196453572042,0
1.10577905543767e-07,0.148118806854353,0
1.818684886264e-07,0.171873596182847,0
1.78138211860506e-07,0.172616172541709,0
1.52195461915399e-07,0.166347421848743,0
1.5874807695385e-07,0.171391797940055,0
1.48265421694281e-07,0.16688852704732,0
1.42937716754139e-07,0.166861381399796,0
2.70661306070327e-07,0.21733245119434,0
2.83162659375702e-07,0.229943741284711,0
2.89991477967038e-07,0.226091435040914,0
2.99074430104978e-07,0.230614434785293,0
2.18667600975201e-07,0.198886347765995,0
2.57709805523165e-07,0.206343525466062,0
3.95886323394277e-07,0.240726817739036,0
4.5552998359651e-07,0.243834643077336,0
4.68317562600908e-07,0.25112356261943,0
4.73217372861028e-07,0.249564228866043,0
3.27254157041436e-07,0.211219624854,0
2.71539687725902e-07,0.196284014018268,0
2.81999410956175e-07,0.206658995370048,0
3.07402833545556e-07,0.212200922078608,0
3.06608535997407e-07,0.211957886011721,0
3.44446724073758e-07,0.216884905626088,0
2.15742663104894e-07,0.182366302122372,0
1.32762690420937e-07,0.160132211198934,0
1.31769139018217e-07,0.157582511250553,0
1.36077812523086e-07,0.161806765869891,0
1.42078020455769e-07,0.164222409685572,0
1.2694627845641e-07,0.161986472781512,0
1.06881602154611e-07,0.156862670694289,0
1.33979616775712e-07,0.168459560832047,0
2.37383024619828e-07,0.222890049359133,0
2.35114961988761e-07,0.24194110018148,0
2.0900642196517e-07,0.244213909442258,0
2.05125813007207e-07,0.233549401489763,0
2.02883570142461e-07,0.223546611064485,0
2.195019871079e-07,0.239433401495701,0
2.32526190681282e-07,0.260608962909198,0
2.73714153704055e-07,0.267796534305569,0
2.62620996864493e-07,0.253333857283131,0
2.66828259839797e-07,0.27164057222871,0
2.34088286543721e-07,0.229061280586282,0
2.70286919458668e-07,0.239562425763216,0
2.96171914663319e-07,0.237814528284596,0
2.69694253901463e-07,0.239336841314617,0
2.51944013889979e-07,0.244521598320711,0
2.36129407018175e-07,0.23794990889763,0
2.35324068122587e-07,0.225777107575259,0
2.12055022926806e-07,0.214472637324431,0
2.18874328972655e-07,0.226527362563023,0
1.718361504755e-07,0.203881916341335,0
1.15907648886513e-07,0.180544518868239,0
1.16761060110186e-07,0.181819336751544,0
8.45339149359793e-08,0.166205747509642,0
7.41543688748114e-08,0.151424693143222,0
9.96889286984043e-08,0.163417445618202,0
8.64678494068218e-08,0.1559167341347,0
8.62176354871433e-08,0.161131641957271,0
8.40897130351218e-08,0.165835234724059,0
1.11481597365013e-07,0.18179523076589,0
9.04031555013345e-08,0.172955479165932,0
6.88084881781135e-08,0.169531894280983,0
1.13259254302858e-07,0.190370983650525,0
1.51443800955058e-07,0.211086602052737,0
1.54422586627496e-07,0.212912355831543,0
1.9081707605934e-07,0.21904019884985,0
1.71553322114152e-07,0.202153880811914,0
1.23399457924903e-07,0.181660124836563,0
1.60857144181781e-07,0.19066378994414,0
1.64450338372536e-07,0.181005226351036,0
1.63977259101451e-07,0.186229289132528,0
1.28005738210002e-07,0.170950413313748,0
1.5298347438885e-07,0.197240134202395,0
1.90484136967302e-07,0.210981741479646,0
2.19925465248946e-07,0.21950860809993,0
1.30656341063145e-07,0.185422369352121,0
1.18646752386061e-07,0.179156759290772,0
1.48216330164893e-07,0.187886939774834,0
1.42825434744018e-07,0.191578004893262,0
1.23235026781488e-07,0.185034809410213,0
1.0358023927004e-07,0.171095562820876,0
1.01759266276853e-07,0.173044334162552,0
9.91343133231469e-08,0.168808835251842,0
1.46404869717193e-07,0.187218064816641,0
1.31637322316472e-07,0.185925558423317,0
1.64103130462268e-07,0.201922976977659,0
1.64714651243562e-07,0.20221302812345,0
1.24645771250558e-07,0.17784489341598,0
1.19189646946343e-07,0.176408285163886,0
1.36689842905032e-07,0.182215387920543,0
1.97797246044047e-07,0.206889727600958,0
2.28185582202279e-07,0.209727781084718,0
3.17039551724334e-07,0.222853668323621,0
2.90445192413382e-07,0.207421337803757,0
6.58038487659777e-07,0.293861143245895,0
6.65153362083252e-07,0.276420268182014,0
5.98499635324783e-07,0.262286543940199,0
5.96673226591317e-07,0.253489482577115,0
7.2836626524564e-07,0.272933555598421,0
7.67003337275998e-07,0.282357558184471,0
7.85559595650604e-07,0.275496017055179,0
8.6198423542597e-07,0.284264570526582,0
8.1986998828642e-07,0.289117776519679,0
8.85408708820329e-07,0.315693396393396,0
4.38085503975675e-07,0.229909851650901,0
1.2542512051294e-07,0.138251794331364,0
2.5786965026072e-07,0.186094956965826,0
4.49174414143142e-07,0.233828088953638,0
3.85184879588511e-07,0.217581565877564,0
4.74023730957918e-07,0.239783665971701,0
4.81668590058515e-07,0.241821976650997,0
4.75006241013198e-07,0.244825937420302,0
4.77204997955717e-07,0.238064159699216,0
4.32400908712892e-07,0.232183617345021,0
4.05705478606142e-07,0.226270060643493,0
4.28582301167477e-07,0.238415242868506,0
3.5688081009319e-07,0.230255416458122,0
1.78596852446476e-07,0.177123214598341,0
1.94172796346693e-07,0.188426238292159,0
1.07044674362956e-07,0.150372233082754,0
9.53374487388444e-08,0.155744190051474,0
7.3785587870314e-08,0.144903207618792,0
8.25840129780691e-08,0.168574089843883,0
5.41849878947636e-08,0.141307019652514,0
1.11023806113461e-07,0.175369251106176,0
9.25108637941955e-08,0.161962892794873,0
9.89046532963942e-08,0.160119195006477,0
1.046244110041e-07,0.165902693530133,0
8.68903083465666e-08,0.149897250149964,0
1.00473713701065e-07,0.163668897667997,0
1.45747145143534e-07,0.175446141902019,0
1.39657757096913e-07,0.170239038018282,0
9.28397260810248e-08,0.14337485804856,0
7.89079237480723e-08,0.142278429839387,0
6.62428187668171e-08,0.135108234444432,0
7.93550133859517e-08,0.149310427030496,0
9.25788105476724e-08,0.159341363991303,0
5.22627742388954e-08,0.133002641628735,0
1.06650583192788e-07,0.161684288765957,0
1.3607016851332e-07,0.165134540989395,0
2.35742620124006e-07,0.206587278319874,0
2.34669061419067e-07,0.206190417583878,0
2.25217668010397e-07,0.202665397631641,0
2.14251061999187e-07,0.201290221387698,0
2.76364077089663e-07,0.228063039797473,0
3.26481602454401e-07,0.237999176325907,0
3.54900841696866e-07,0.247582909550264,0
4.26139105779322e-07,0.282100344386484,0
4.40914127322926e-07,0.302592229586238,0
3.71713756244133e-07,0.301181952825106,0
1.61028370000543e-07,0.218021367663322,0
2.25705525700363e-07,0.251930043594773,0
2.31057181871106e-07,0.259749647501596,0
2.43009015807735e-07,0.245305685157472,0
2.53124248997877e-07,0.245214519572067,0
2.87661583790307e-07,0.246089290453517,0
2.67386272552729e-07,0.238456452725771,0
2.54480975797933e-07,0.222742134693644,0
2.79952345140791e-07,0.241241443821217,0
2.8853062276728e-07,0.231721916800399,0
2.70170730510222e-07,0.232341452553761,0
1.72626880819091e-07,0.192982793173542,0
2.33921647130818e-07,0.203291490174193,0
2.68317143075365e-07,0.212621362461948,0
2.5059442149904e-07,0.206385209814935,0
2.06803588217441e-07,0.201263076881428,0
2.16655018137208e-07,0.202267577280188,0
1.75491685812571e-07,0.188657500343857,0
9.65469009507373e-08,0.149689202842039,0
9.37746734088705e-08,0.147988674228217,0
9.8821758257152e-08,0.144346942510102,0
7.25747767233523e-08,0.136647626875136,0
3.78689339822979e-08,0.120982747824203,0
1.54383517244248e-08,0.109408192771404,0
7.45800552853466e-09,0.104852995074268,0
8.3506560023405e-09,0.103719193714495,0
2.12426012200791e-07,0.193759405216017,0
9.35016633533991e-07,0.376106586845208,0
1.16908232778218e-06,0.390325920087643,0
1.16283547313438e-06,0.384893059045867,0
1.13969535690332e-06,0.389454574490242,0
1.16626661431809e-06,0.389591739386887,0
1.15670327863306e-06,0.401270481533368,0
1.10402331132782e-06,0.392184071764461,0
1.09484778173827e-06,0.39515211760687,0
1.08234982577057e-06,0.388386426515335,0
1.04292643993559e-06,0.420897850890105,0
4.30852572068032e-07,0.27561452464462,0
1.09611702709322e-07,0.168461417486851,0
1.12799764382469e-07,0.170133655877762,0
1.28400338980821e-07,0.172750869653119,0
1.07618144962303e-07,0.159645206610621,0
9.01063980555232e-08,0.150484038235487,0
9.27378059508092e-08,0.156782807583282,0
1.07874474089795e-07,0.162478243726084,0
2.4440532159169e-07,0.230115033824272,0
3.12303663006977e-07,0.259122968099602,0
3.45771515899677e-07,0.254894318054923,0
3.38297373017193e-07,0.23890100577747,0
3.21920336893481e-07,0.236517653345741,0
3.7313639139506e-07,0.249239297880377,0
3.93320823849864e-07,0.244084260790449,0
3.98769983611846e-07,0.238478297253731,0
4.8379447410793e-07,0.252419920437741,0
4.88289831317978e-07,0.262061736169506,0
4.00860025748804e-07,0.233686664259449,0
4.47121063253063e-07,0.23668531998426,0
4.10641810246256e-07,0.229199716260387,0
3.25615281347568e-07,0.213903342099873,0
3.21910144880459e-07,0.216473655667245,0
2.21195220204551e-07,0.188599659357155,0
1.64035183708791e-07,0.175853690133214,0
1.69406204704275e-07,0.1831166665376,0
1.53118858295153e-07,0.165283906960937,0
2.16922218745257e-07,0.189349435588067,0
2.11349735625713e-07,0.179568783371566,0
2.03433938845626e-07,0.176599506095775,0
2.57930122871315e-07,0.194126497776024,0
2.50988512669207e-07,0.19186048571254,0
2.81593938704798e-07,0.204051635537297,0
2.81579500019684e-07,0.204008785023539,0
3.32077017603244e-07,0.210007922503008,0
3.64864553626754e-07,0.219023652571955,0
3.5233109548036e-07,0.225759911521927,0
3.38543510131664e-07,0.214234039873497,0
3.84021461302099e-07,0.222989689319,0
2.94331746712274e-07,0.204627819214477,0
2.3777966379325e-07,0.198095834834458,0
2.42175818743222e-07,0.2061147014946,0
2.4262562625124e-07,0.206276948544939,0
2.74207277267415e-07,0.201839389399052,0
5.90345855040642e-07,0.284179317833362,0
5.49079073783836e-07,0.264956069441496,0
5.44927697013267e-07,0.263826905568528,0
5.99645047721524e-07,0.283906126503048,0
5.90628513535108e-07,0.286491470840802,0
5.71117093673495e-07,0.28881920022129,0
5.01338325855728e-07,0.268336445695689,0
4.83764747403286e-07,0.263797238308449,0
4.83129445258273e-07,0.260619475990186,0
4.76569016343172e-07,0.258961646431786,0
2.01350691384016e-07,0.183758734194781,0
1.68819314621116e-07,0.177997687392192,0
1.38509456963149e-07,0.174634516225299,0
1.62591145330518e-07,0.178912177118066,0
1.70361705925047e-07,0.176182285925452,0
2.3879207042006e-07,0.197149037887325,0
2.54646256275765e-07,0.202629008791934,0
2.76487740180992e-07,0.207289098350214,0
2.70826246814392e-07,0.202974024210928,0
2.85860145488744e-07,0.222116042763671,0
2.61861522027502e-07,0.219098652432149,0
2.8533644588632e-07,0.218374535027766,0
3.00210499823116e-07,0.209872735916923,0
2.3799029872903e-07,0.199662232407773,0
1.8725174003751e-07,0.190584154324523,0
1.2624387889234e-07,0.1771195229002,0
2.72657581687485e-07,0.217273537429242,0
3.76984385911355e-07,0.23514780409736,0
3.78381880763496e-07,0.247613755523985,0
3.27300870434452e-07,0.238264362924822,0
2.40491588591407e-07,0.203317397949477,0
2.516312889571e-07,0.205473281247265,0
1.84192097728435e-06,0.396473498951893,0
3.86767325503617e-06,0.490404595255525,0
3.70185277037977e-06,0.449713394437278,0
3.88145965131668e-06,0.445954783290617,0
4.47314762460538e-06,0.495586184638894,0
4.76653015517158e-06,0.525594755334109,0
4.8708554305935e-06,0.523986513438367,0
4.88719679467163e-06,0.527251673328746,0
4.91963457478164e-06,0.536702450070634,0
5.0576072523923e-06,0.552574865437558,0
3.5835404858877e-06,0.626316761323282,0
4.26186668506757e-07,0.271194662251449,0
2.04417807835975e-07,0.232866152245559,0
2.65639191653947e-07,0.289904313028261,0
1.50976497158019e-07,0.22514099336386,0
1.05931196940349e-07,0.191527302225437,0
1.33928656710604e-07,0.215060252569443,0
1.57729045518577e-07,0.206272390707056,0
1.72727442014237e-07,0.202474776887436,0
1.62319528183492e-07,0.187130240603451,0
3.08457876760171e-07,0.230095381204442,0
4.24872408427625e-07,0.249324974265318,0
4.3226081949391e-06,0.268300262827423,0
5.51230281588273e-05,0.482927887592447,0
6.5477558943235e-05,0.289070956749492,1
6.45959131256222e-05,0.30110154506236,1
6.48481178851787e-05,0.265977657055198,1
0.000229955702656095,0.175337437736324,1
0.000517312190405138,0.178497316005094,1
0.000495494114156484,0.15513251833082,1
0.000462399679804073,0.146106598922458,1
0.000469398637575716,0.140959443036689,1
0.000492088463876806,0.142518440485284,1
0.000501365735576081,0.144485214323907,1
0.000679963448398323,0.119445871066024,1
0.00112046682383726,0.134291033175557,1
0.00105532531594737,0.117623699812651,1
0.00121144981383087,0.147976280054272,1
0.00124899190031745,0.167727871237725,1
0.00109731998920109,0.170248339263129,1
0.00101794216048439,0.136520512866159,1
0.000947512562140434,0.0745237962349525,1
0.000813143892955926,0.058425361090153,1
0.000528987939016233,0.0341649886457708,1
0.000600473092553588,0.0471695155297972,1
0.000642340523111132,0.0308109856773491,1
0.00132032097166872,0.0370769429716917,1
0.00136395127683829,0.0315516466249884,1
0.0013691051644705,0.0303270126797647,1
0.00143188139406245,0.0287431989237462,1
0.00140049662555915,0.0306472620174034,1
0.00133010211491869,0.0364862911930737,1
0.00133305261554672,0.0373009062552117,1
0.00132062517556912,0.0347386608982821,1
0.00137023025654128,0.0316612495339893,1
0.00124564745307597,0.0355503524003533,1
0.000895582976358163,0.0344575049948585,1
0.00133752579578577,0.0545393797457232,1
0.00160932966048919,0.0687663744786689,1
0.0018028731005414,0.0741277068273623,1
0.00177789848260894,0.0712147263540753,1
0.00185785930296382,0.0689447692244763,1
0.00153402583638581,0.0560291098789276,1
0.00128068800763986,0.0582931744556234,1
0.00158761351846971,0.0586644730928553,1
0.00142086115631978,0.0481809164698279,1
0.00140618647310597,0.0541784199922582,1
0.00179720997050738,0.0491345144402901,1
0.00178104863729792,0.0375694233488725,1
0.00146473944386778,0.0331400550323428,1
0.00143892678902355,0.032526834488427,1
0.00139813697070439,0.0328744268238398,1
0.00131816902409401,0.0363674854321674,1
0.00117222441396406,0.0342341987989994,1
0.00110900302697003,0.0409612201383981,1
0.0010230670961748,0.0577122086346665,1
0.000919261602375635,0.0582638511952147,1
0.000865392126589577,0.086359226121748,1
0.00102479479254428,0.150985424891142,1
0.00151906548922276,0.118965697079862,1
0.00252879635130712,0.0837995774807124,1
0.00264688836941111,0.0537474693945483,1
0.0033075285768213,0.0622094774144885,1
0.00386692644275616,0.069225205199698,1
0.00441140576067203,0.0793563810790752,1
0.00463208573639829,0.058819377575299,1
0.00541022314668986,0.0540808800289988,1
0.00548181146021581,0.0490993258897068,1
0.00524305979110524,0.0470736543714662,1
0.00480251721548555,0.0532123371018189,1
0.00318082197527191,0.0399190249747531,1
0.00331660089002645,0.0537478217397234,1
0.00320595451182134,0.0448881349759141,1
0.00299796847682917,0.032826445395445,1
0.00232004074238213,0.0271198196236032,1
0.00274991623554875,0.0224622472890628,1
0.00445584643517508,0.036955341475674,1
0.00557897481437254,0.0504510513148126,1
0.00572667138244938,0.0436174519558988,1
0.00512982378665262,0.0338739677033159,1
0.0046325868846431,0.0299530072283127,1
0.00455554922178372,0.0271525212595579,1
0.00454646514223928,0.0273702780916917,1
0.00451907272384791,0.0277822789597493,1
0.00413005640564905,0.0247459078965474,1
0.00406508292056796,0.0396566157273462,1
0.00359121083996913,0.0354980527264274,1
0.00340446206218489,0.0345297163902465,1
0.00253655858961342,0.0247128492162166,1
0.00292897513050528,0.0318293797911055,1
0.00378948884326741,0.0398327944013613,1
0.00488457159252321,0.0371331909614726,1
0.00486978773994005,0.0334627582786743,1
0.0072527345080493,0.0353698978105726,1
0.00948883347769278,0.0425826653685184,1
0.0111198895792306,0.0464877931733893,1
0.0107535894275713,0.0419851649890912,1
0.0106495326233617,0.0385088790490732,1
0.00739354929219112,0.0262192034974896,1
0.00673535911340421,0.0241660883208213,1
0.00684885733372118,0.0264063022069549,1
0.00654404967750302,0.0337759338678666,1
0.00464785584494124,0.0245021203555146,1
0.00548732462530997,0.0381213945416292,1
0.00836841402650191,0.0447595107518506,1
0.0097015556629973,0.043795702104687,1
0.0119625757552449,0.0482213616884613,1
0.017993481488084,0.0470694175110376,1
0.0357396433408603,0.0714476358343275,1
0.0529945222724957,0.0774214648069825,1
0.0656937513297638,0.0775593803538253,1
0.0772654183291201,0.0419237148151785,1
0.0671005496803716,0.0364761307611796,1
0.0575731445395907,0.0291469753327141,1
0.0548432577147896,0.0180095927542426,1
0.0530719686923224,0.0131546786158266,1
0.0431360307351407,0.0102605977310339,1
0.0369713540824504,0.00900678161810728,1
0.0399568556147198,0.00963076150371985,1
0.050118043241304,0.0137977895482397,1
0.058132608721387,0.0155203832142928,1
0.0449477355057774,0.0152712836967119,1
0.0568837644090622,0.0185491287021067,1
0.0603755721385212,0.0151279017679405,1
0.0634909124805927,0.0228884853081929,1
0.0453788095433238,0.0129938178526507,1
0.0467327033034924,0.0115391166251719,1
0.0484890519187905,0.00977449177964994,1
0.0522580177699557,0.0111456999214532,1
0.0527518306171182,0.0112232558890643,1
0.05003284509929,0.0109026149630978,1
0.0501089045261148,0.0106695368192672,1
0.0495951825286923,0.0105519883506308,1
0.0508652429151452,0.0142665394356154,1
0.0330495230676521,0.0108963134350787,1
0.0201360571426315,0.011834457634255,1
0.0218816347380072,0.0200775393654565,1
0.0129929505373263,0.0240558913527375,1
0.0139001014885525,0.0262605666219665,1
0.0141013271837299,0.0264835242954112,1
0.0115632162961759,0.0182875765790215,1
0.0106562820692735,0.0183473824875713,1
0.0122526385696591,0.0170481194259514,1
0.0138533856452072,0.011400681260307,1
0.0141220247594097,0.0118421375876581,1
0.0154583606640045,0.0147848768963047,1
0.0174270443637991,0.0169574905487883,1
0.0178800429163533,0.0158199269715597,1
0.0184350284519341,0.0163440292947981,1
0.0150957417369909,0.0160234403919823,1
0.0134038944437647,0.0165599199715673,1
0.0149548733059994,0.0194765895430314,1
0.00715134437593019,0.0131776657182989,1
0.00325676975776683,0.0294155558853436,1
0.00341346867699463,0.0264538129797481,1
0.00343604558173678,0.02391588317315,1
0.00476096048657643,0.0245200563005006,1
0.00429154191750005,0.0182746628465741,1
0.00453160772710347,0.0240116610281364,1
0.00578616024431944,0.028230443891332,1
0.00632983601424628,0.0294612818361334,1
0.00727877247161018,0.0336991217295136,1
0.00825461987497165,0.0418443976645447,1
0.00897881211815272,0.0444762448435362,1
0.00868789702077073,0.050584724800639,1
0.00831896315646224,0.0555718094461284,1
0.00348789356686547,0.0548819079348613,1
0.000299576330520352,0.079832633154302,1
0.000273449794629236,0.122600289837257,1
0.000276604468117059,0.131509430111785,1
0.000141121953408407,0.130246233754467,1
0.000158697233757158,0.255921078685568,1
0.000166585206341696,0.187750889921697,1
0.000172077029870188,0.144944901590366,1
0.000237666961872193,0.159500836930507,1
0.000274280783424262,0.175712128258215,1
0.00029807613143246,0.184696641742418,1
0.000314578022433556,0.231256061149533,1
0.000207890953702687,0.207840691726668,1
0.000151134364645048,0.187940250402879,1
0.000124653606360568,0.188397133713056,1
0.000126276509131629,0.194524231019977,1
9.88872359954748e-05,0.246669486534886,1
1.65106386360052e-05,0.15483869029286,1
1.92930063814946e-05,0.220361919219823,1
2.75823093531822e-05,0.236114079961815,1
3.06833827047912e-05,0.240332674406409,1
3.77157964386457e-05,0.26619271986505,1
4.21076712527482e-05,0.286078040776458,1
4.40571962760435e-05,0.253471218630347,1
4.44009176685239e-05,0.230548066404663,1
4.5916219451178e-05,0.214049240689372,1
5.13254012119507e-05,0.216726495945682,1
5.11247179275527e-05,0.214325453420175,1
4.71447653802657e-05,0.222708831206528,1
3.64745906704501e-05,0.217535402416801,1
3.67344700158118e-05,0.216968307865123,1
4.34094259017692e-05,0.205657871394422,1
4.8518969274383e-05,0.217994724029864,1
9.25253609135173e-05,0.317340409901152,1
0.000118561970635342,0.399827603358703,1
0.000144697448149349,0.47890517521074,1
0.000224075685735639,0.720754216084327,1
0.000285969240796127,0.84386196250308,1
0.000308538692628757,0.810752908674734,1
0.00120103421114551,0.0723014217479379,1
0.0055814449837725,0.142931054067785,1
0.00920110841668644,0.120290555162071,1
0.00991280631272175,0.0948049505310662,1
0.0136612112634415,0.102858776128431,1
0.0168521894981533,0.116719002302739,1
0.0265699353484585,0.0532396437446467,1
0.0406120083188259,0.0416279453869274,1
0.0491355016329111,0.0129124113841554,1
0.173937589968271,0.0293686558208014,1
0.197251930599372,0.0259466038516312,1
0.204968173370103,0.0269493789538346,1
0.192257086116659,0.0263285484292567,1
0.163816629898243,0.0222687701623755,1
0.135706862393226,0.0179109327143912,1
0.108099544422065,0.0113699410991538,1
0.110457463972452,0.0120303269274293,1
0.11091511654468,0.0130100457255095,1
0.0901978211911662,0.0134005839986752,1
0.211763620425788,0.0311853326795503,1
0.237685027167711,0.0195025451937205,1
0.235782180691788,0.0184758654300635,1
0.22233167442793,0.0169759578457117,1
0.216431242300665,0.0161954913178823,1
0.155128953898919,0.0110149601008432,1
0.103182714779127,0.00764642876400426,1
0.0985407778832368,0.00720655374442408,1
0.0944173182546186,0.00665965112101515,1
0.0884451332413549,0.00717739659338004,1
0.0478465573592002,0.00209630552951284,1
0.0379064007314627,0.00737403088299236,1
0.0357547279006341,0.00964849343279743,1
0.0444115788424971,0.0129985583714806,1
0.0409985997498893,0.0140052840729897,1
0.0360338020652417,0.0136359125723427,1
0.0369211273551019,0.0105091804162948,1
0.0698239319038582,0.0156291672519234,1
0.0717605725335379,0.0100600250790106,1
0.0875796405073664,0.0136819663532902,1
0.078661265110503,0.0103798042465933,1
0.0848554281129938,0.0113117131125608,1
0.0864754230184859,0.0099613930223767,1
0.084505178329172,0.00928691953769977,1
0.0904744918479145,0.00938658495402833,1
0.101778693862141,0.00838917672245389,1
0.102663575235528,0.00986060817479106,1
0.0738058679060593,0.00809883964689924,1
0.0720638640218222,0.0103953809267552,1
0.0803018486003261,0.011999443286621,1
0.0777811720087034,0.0139221310856249,1
0.104874785971175,0.0163946445863945,1
0.115356053641339,0.0182200328601875,1
0.126967895614108,0.0196041523092628,1
0.116609306472036,0.0247842809684116,1
0.108495513007405,0.0301551566815076,1
0.139798334084065,0.0373226049925567,1
0.120456942118039,0.0329483017461357,1
0.0910140251782771,0.0317089525402731,1
0.115036615510613,0.0385680517982058,1
0.09641599281939,0.036326225797538,1
0.0814183597471225,0.0408800039331684,1
0.0587375030295218,0.0433673283015042,1
0.0401092044093559,0.0343014111957966,1
0.0204535240114884,0.0181901598768354,1
0.0194624162969409,0.0312972412629794,1
0.0216740383083406,0.0351361335708721,1
0.0160004544527721,0.026541982230909,1
0.00997437827325003,0.0215943410554973,1
0.0107813744368685,0.0319883344986824,1
0.010470054704004,0.0323498757116693,1
0.00627937055309167,0.0232963314002934,1
0.00286186402578139,0.0220700826182636,1
0.00354163707208845,0.0242235002956162,1
0.00368906324538035,0.0244973960832584,1
0.00344252681820111,0.0258187700774779,1
0.0028107069855832,0.0243227604696078,1
0.002992543695513,0.0246407718333118,1
0.00272218573772358,0.0274982459666713,1
0.00151573538027506,0.0167068214457742,1
0.00137253360477076,0.0190644520661913,1
0.00282318573164476,0.0304625276317211,1
0.00748105892432415,0.0436230523937687,1
0.00810106623202581,0.0437002845935493,1
0.00824593307958519,0.0403346961415847,1
0.00862377674986772,0.0352069240092292,1
0.00897511257574183,0.0324527584278564,1
0.00857099018310921,0.032227926165628,1
0.00873327401206843,0.032566055378886,1
0.00854229211671984,0.0193061718237115,1
0.0236628399156222,0.0285048302960428,1
0.0262413460417881,0.0150025743974701,1
0.0272824952331458,0.00800722745922041,1
0.041695363086593,0.0120760293203035,1
0.0418516398285203,0.0107420036426385,1
0.0620607928138614,0.0132371839619262,1
0.062411305623133,0.0103013055909855,1
0.0589593052291165,0.00827753574618854,1
0.0711756202061754,0.0111643457003572,1
0.0916395155083643,0.0146987167750428,1
0.0950529887870528,0.0126245233609144,1
0.0814468192346244,0.0109668297955282,1
0.0848066246574573,0.010013858000627,1
0.103531954598838,0.008586794297092,1
0.102447058036339,0.00859578053337427,1
0.109217659990795,0.0111036358629067,1
0.119178767578698,0.0130218263141366,1
0.132849967334929,0.0155104755575488,1
0.121029846223049,0.0136873742490673,1
0.100625984829844,0.0104960009055242,1
0.0955182899690426,0.0102973992418019,1
0.0884425852984023,0.0124913002608313,1
0.0255916149978639,0.0012653346564784,1
0.0295550588390905,0.0113056780446856,1
0.0374735578658097,0.0165546998800427,1
0.0397332186260088,0.0184423725140494,1
0.0389692904356418,0.0201709004838489,1
0.039340403567046,0.0271669585260901,1
0.0191368699271907,0.0173878880616554,1
0.0165961666540715,0.0331661711607568,1
0.0112567662295039,0.0710272468892491,1
0.0015084219450539,0.0431031661605072,1
0.00140632149009981,0.178200655012479,1
0.00301439282087999,0.177687160877706,1
0.00292984161689259,0.126461828044891,1
0.00249850549699717,0.109620265012987,1
0.00279191691988188,0.0695271202536449,1
0.00542822247491318,0.0734904124108318,1
0.0202504814168956,0.0660115123892533,1
0.0540311656294239,0.0804974516473388,1
0.108066827388952,0.132214049148166,1
0.225566243826065,0.0460137607148143,1
0.516518543970344,0.0805597167825246,1
0.685283240430272,0.0783650037606056,1
0.710949845507255,0.0931061490130674,1
0.677566465310826,0.0867287459125141,1
0.53870516225901,0.0757172157135829,1
0.381778775831012,0.0621518650007611,1
0.249006431354433,0.0448431839397161,1
0.146193301862976,0.0328866618949046,1
0.0949288087196232,0.0173266405198514,1
0.0985037252015878,0.0316467477279911,1
0.116049899911125,0.0430355396655556,1
0.115836447176596,0.044478423090443,1
0.107922303936301,0.0295469923091738,1
0.119397540435819,0.0255295614235852,1
0.142691719936124,0.0267090939203564,1
0.192762816803148,0.0328089156891554,1
0.221706518104379,0.0365875119108149,1
0.242122776712128,0.0313001994153078,1
0.230654322676737,0.0353120599166627,1
0.210095795770444,0.0324488101037813,1
0.166055146595133,0.0259348108206282,1
0.100835347568152,0.014855785994535,1
0.0769892560404687,0.0129955206763983,1
0.0812818800368569,0.0160433381359485,1
0.0853402861547461,0.0181173985609091,1
0.0739326297654758,0.0111303064792006,1
0.074229689883498,0.00636696702801875,1
0.0773061459238408,0.00479115647896382,1
0.0894863649241482,0.00723170354601435,1
0.0868432265340231,0.00748865570852281,1
0.078174430552559,0.00811291542913956,1
0.0730759136156208,0.00865771581048146,1
0.062485118875524,0.00869981992579071,1
0.058712904591146,0.0090737906943545,1
0.0563298196342884,0.00787924009206289,1
0.101547438882345,0.0180630266024998,1
0.115809576958901,0.0265229841053947,1
0.105220403398955,0.0394373936576501,1
0.0942840517327356,0.0255946456503457,1
0.116056279102097,0.0273199177250655,1
0.121213692032187,0.0275651397207364,1
0.115475678241105,0.0202219696197441,1
0.114561931276059,0.01469847607054,1
0.100184194622902,0.0113579761733376,1
0.113355801714769,0.0133292947503068,1
0.149509276866749,0.0198613816275669,1
0.180095969986654,0.0256906027995965,1
0.18188883510235,0.0296177267170446,1
0.185964540875431,0.0395148340685108,1
0.255381778592525,0.051809363955784,1
0.287534114656147,0.0544502178649794,1
0.251187597908474,0.0680735499125634,1
0.103802717039574,0.0582050971967787,1
0.0746021654363196,0.0565927059680125,1
0.0556052022497997,0.0458988959350586,1
0.0490406382828145,0.0426205987262208,1
0.0386517506308711,0.0350196128954235,1
0.0322691784446144,0.0337519608149772,1
0.0194848826572413,0.0548009648573177,1
0.0243939387100094,0.0746608644593948,1
0.0246159119584216,0.0706546431087081,1
0.0229743659693717,0.0856991769729828,1
0.0127217310595477,0.0730264553856454,1
0.00988690293027628,0.096411620389373,1
0.00576093911386669,0.0543645101996948,1
0.00182159107218929,0.0230008952758967,1
0.0010210779352622,0.0281121249564966,1
0.00193192720704683,0.0322464883009084,1
0.00271494413869793,0.0249496201323538,1
0.00277894707490035,0.0244983450075824,1
0.00321957065646967,0.0268274588284928,1
0.00318807861991705,0.0261546808780883,1
0.00318288122377033,0.0264466715527355,1
0.00303485601423361,0.0269980446541439,1
0.00295055069340969,0.0326583362824336,1
0.0028219347449414,0.0353302912795733,1
0.00285437722645713,0.0311505704273165,1
0.00413322353836319,0.0361738035616299,1
0.00873152703495831,0.064840467039452,1
0.00837314841614402,0.062140330233632,1
0.00707137749948118,0.0584846931635679,1
0.00904960880562701,0.0443729928776266,1
0.034558402419379,0.0267470111799747,1
0.0802034299465458,0.0406525502884189,1
0.0967046881491645,0.0517911365101656,1
0.090442110985441,0.0410933315519138,1
0.145736604627028,0.0143225187134701,1
0.25361977215927,0.0225114618394454,1
0.261734894261174,0.0249515653685046,1
0.225853943674919,0.0191624438868992,1
0.18135827264018,0.0146876055668261,1
0.161986406352908,0.0105599952260342,1
0.17084728344427,0.011882598917389,1
0.179874132015811,0.0132300347593404,1
0.166383407074,0.0109823321129605,1
0.143404582856028,0.00803005537047928,1
0.129589141043698,0.0107225594515596,1
0.123832278763747,0.00761285587682694,1
0.133666670904622,0.0066317172134184,1
0.157427159044133,0.00725378022955749,1
0.163732279190347,0.00844668252087998,1
0.158810920063602,0.00999740607731681,1
0.148540958106701,0.00785797622058065,1
0.17704048576409,0.00967556916330063,1
0.19777160011151,0.0106995536931094,1
0.146911537135462,0.00924120858129947,1
0.122519429343302,0.00967881038891169,1
0.123705867609291,0.0107131924043947,1
0.0676360410265381,0.00465900828315167,1
0.0692866307517475,0.00862763183532642,1
0.0694357262746823,0.00839147230490515,1
0.0669842140000622,0.00913080035068902,1
0.109435906848486,0.0215278976828195,1
0.19607267956923,0.0385516956477876,1
0.286291574678705,0.049385073150303,1
0.325644845650131,0.0501494582814246,1
0.305297184149398,0.0457418575278838,1
0.289008915123926,0.0455045222306163,1
0.229663616341159,0.0411653394997326,1
0.212007100853453,0.0322386695910938,1
0.180924890833108,0.0289933587130912,1
0.159479111283076,0.0175004055733002,1
0.181960194778617,0.0223357720484566,1
0.189809310462314,0.0253057794981162,1
0.159968355925955,0.0212916631323061,1
0.118127781281105,0.0140738423380362,1
0.129306316415344,0.0135739743407289,1
0.157528430466309,0.015141128631199,1
0.134338269435504,0.012064061891996,1
0.152172413725859,0.0188363213098798,1
0.124012362732814,0.0162081117298156,1
0.0989107325211353,0.0206426550802523,1
0.103222351528639,0.01965387107305,1
0.104379532992742,0.0194397985209806,1
0.109316047142422,0.019862700156903,1
0.12829458985485,0.0252449567616296,1
0.143589781629074,0.0479789582003049,1
0.0700477114558992,0.00757809641115839,1
0.077623379470341,0.005453786601226,1
0.0865216112766938,0.00669565466315863,1
0.0886146537467673,0.00626695551221465,1
0.0874374252154435,0.00638254932673174,1
0.088485775296209,0.00629595644990783,1
0.0857671806852264,0.00590905897837223,1
0.0903607289901109,0.00674544058920272,1
0.0961830842524081,0.00652746792190398,1
0.0697483080641353,0.00320805441947838,1
0.0617825410128879,0.00780253666742558,1
0.0459391282245111,0.00887756854935898,1
0.0389447479486995,0.0063958373733354,1
0.045212458913636,0.00905323351570246,1
0.0611962956588067,0.00275478674784858,1
0.134638582445745,0.00883792364560331,1
0.137842757771657,0.00691189249248729,1
0.122169480174263,0.00429277934530534,1
0.209272696181746,0.00810109993221118,1
0.267017268736048,0.00772947760318611,1
0.288868628731619,0.00668357119343083,1
0.301736904286876,0.00674967724965509,1
0.301853761784493,0.00667274587766199,1
0.265289987224813,0.00571807851918709,1
0.255119308192336,0.00911319770513943,1
0.258252736527538,0.0110216900071524,1
0.265589856951283,0.0148108705748725,1
0.274034601221854,0.0167072616060458,1
0.273411737794113,0.0217878199013707,1
0.25243880399916,0.0294646102118166,1
0.230779165153839,0.0267762126603161,1
0.26699501042531,0.0320634650087005,1
0.330638018194429,0.0411826337620116,1
0.459314441077808,0.0497687033151267,1
0.602097186765705,0.0622969611346286,1
0.671145996899263,0.0907997242196298,1
0.634992193360454,0.0786830924750984,1
0.488841424619536,0.0836341245695669,1
0.274440796171206,0.060181527804676,1
0.123561057236695,0.0296990744764748,1
0.0590023661061788,0.0625973519034027,1
0.0452289958909816,0.0691496747280587,1
0.00915488762829094,0.0430147346380125,1
0.00142005977871992,0.0471489135620642,1
0.000634285470139261,0.0619309403283773,1
0.000551323919858574,0.0457393823568362,1
0.00124007529457204,0.0525701079264588,1
0.00132525873375787,0.0377118164025287,1
0.00140912892170398,0.0338634663661537,1
0.00140800494854637,0.0289628219795295,1
0.00141951202053102,0.027118140007871,1
0.00146688369800147,0.0298439123010463,1
0.00194960248819988,0.0313282346236973,1
0.00192480977103075,0.023112806432111,1
0.00203269351560572,0.0177633981443475,1
0.00192310653464318,0.0111147162568916,1
0.00360652917054822,0.015687043910587,1
0.00336917930683182,0.0156783112906436,1
0.0032463020535109,0.0139472255506909,1
0.00347924411586404,0.00707321740013573,1
0.00557700620038833,0.00875779181120351,1
0.00569938499615587,0.00857817064076267,1
0.00582486388972952,0.00866625471307009,1
0.00543853132237736,0.00850605161893889,1
0.00611761589429787,0.0109318589609142,1
0.00569117247335535,0.0114489341040849,1
0.0103356095617676,0.0147047504605646,1
0.0196593613281338,0.026833267804836,1
0.0399098758867378,0.01965996444506,1
0.110583897285534,0.0334958043725094,1
0.11731114609931,0.0292048039469887,1
0.133313621629454,0.0296457958307409,1
0.127398181680119,0.0250999711220135,1
0.10883434937331,0.0225497108700299,1
0.0820383854351005,0.0178333363747885,1
0.0558364179799843,0.0122526519113041,1
0.0438446166642611,0.00867723326760259,1
0.0517712837704889,0.00572287569700119,1
0.0923164757549339,0.0169580586938993,1
0.131665131554222,0.0220651996168222,1
0.122751735651664,0.0193208648418313,1
0.125142794832715,0.0194373730266786,1
0.11693683754692,0.0182272767101718,1
0.102017011826615,0.0156360211866991,1
0.0903381648393141,0.0136766027513281,1
0.139714760120182,0.014514248932184,1
0.148101267984255,0.00920502300216102,1
0.13713359670877,0.0114893763570612,1
0.133862019609227,0.0104574591482896,1
0.133432765227526,0.0115212124650944,1
0.129385391445469,0.00976764504054709,1
0.200925559987026,0.00929257396475628,1
0.293431270831254,0.0118630224068129,1
0.264005851491885,0.012069778220962,1
0.244764209662522,0.0110604863871586,1
0.245946959479766,0.0126996957289181,1
0.243837500201786,0.0148367889820362,1
0.319808388270168,0.0184101904032308,1
0.367777747207332,0.0216953664063659,1
0.378201598923971,0.0230610702815821,1
0.274585313511197,0.0139885091048645,1
0.285411934921042,0.0114688048806247,1
0.478800214906153,0.0234382308009342,1
0.451735905074558,0.017520600475463,1
0.361904820482189,0.0102845383557343,1
0.46948246443147,0.0140491980850439,1
0.492411490287134,0.0159358595612956,1
0.601617233949399,0.0183723973048114,1
0.829739335776121,0.0250793872449354,1
0.866152905523342,0.0242948028056912,1
0.94304072130856,0.0266249383288053,1
0.919931941809859,0.0501353813333078,1
0.542012051453993,0.0386551507573783,1
0.290115683580579,0.0227818303803887,1
0.174470252568277,0.012721256622306,1
0.209390835467009,0.0169384820469134,1
0.258311309096862,0.0196942889534874,1
0.276509135750737,0.0205489979875649,1
0.265867310398287,0.0192732329965998,1
0.302375248839333,0.0208678626523134,1
0.287410316025484,0.0191988649675905,1
0.286378569596515,0.0190322803593036,1
0.22479856595283,0.0164764562199576,1
0.133960330600188,0.00448706499068766,1
0.179058438518944,0.0121162857097208,1
0.185452071611793,0.00722538254078599,1
0.179015406572081,0.00669719787122076,1
0.174828360382078,0.00825851623297461,1
0.213583712592765,0.0109245461102163,1
0.2094059209619,0.00989229128235893,1
0.218438334263836,0.0105785168707749,1
0.232110585699239,0.0111319794464392,1
0.29250749885,0.0109580411087696,1
0.307728115654244,0.00918046780101022,1
0.236347926129164,0.00644312904794892,1
0.244003540536317,0.00519070171060993,1
0.300113808354066,0.00866841337288678,1
0.369567655305457,0.0123508038366343,1
0.350928358129867,0.0103353477440049,1
0.318843872931906,0.00944461473065342,1
0.289733865245195,0.00858264582864428,1
0.267640490008764,0.00810414350132008,1
0.271010303981589,0.0130288162826318,1
0.320146556308408,0.0255993563960505,1
0.408888112139705,0.0314738753198801,1
0.456298997642822,0.0824650334597255,1
0.430089359682783,0.0720555933716349,1
0.304146392050785,0.0734967121477846,1
0.216663163966533,0.141082498148862,1
0.183993956923221,0.124639398323897,1
0.110398074677716,0.0833228883435808,1
0.0561908848009218,0.0675193814820515,1
0.0257529393563229,0.0307011110610714,1
0.00951741545025916,0.0510380965918733,1
0.0106845408495398,0.029981612208103,1
0.0120266681467456,0.030953276143515,1
0.011414162792023,0.0312841546611058,1
0.0115736417428171,0.0323373136767325,1
0.0109636543656795,0.0314268291406344,1
0.00996495026711391,0.0288561014828691,1
0.0100657825303973,0.0292405778942375,1
0.00939535373667992,0.0291189879702712,1
0.00847541710369252,0.0287235725781611,1
0.0101069991295794,0.0320977385395311,1
0.0134098732416753,0.0706493301191388,1
0.0205725544294647,0.0709814768182501,1
0.0429738896188246,0.16809936924734,1
0.0563452579139893,0.0600935323850994,1
0.055258714375185,0.034519161409796,1
0.0515962867241318,0.0276787957284834,1
0.0438855834042055,0.0200941637667787,1
0.0416260294800842,0.0193879847623874,1
0.044793940254538,0.0210721558709487,1
0.0508668748730103,0.0237985921712561,1
0.0547605330894026,0.0254286068192176,1
0.0514079141643455,0.0236378790695955,1
0.0363009022588604,0.0176021053643104,1
0.0257934352273041,0.00681603592526331,1
0.0881278245285888,0.0223312691932169,1
0.0919352801405049,0.0193504085944695,1
0.149390202326529,0.0252863826616269,1
0.157796378373986,0.0159284515242503,1
0.152464854104024,0.0123817419821874,1
0.162616114111314,0.014176578929394,1
0.132126734667736,0.0093612735060026,1
0.108269958319251,0.00514021738296035,1
0.112641705558232,0.00410561973254372,1
0.104696385764786,0.00332976536388774,1
0.21012267993285,0.00597993859916972,1
0.263979564248333,0.00443779485043688,1
0.290257219257692,0.0056466676723375,1
0.279823008113856,0.00558707981163817,1
0.269984913430721,0.00506097802043341,1
0.308532331197707,0.00579276253583454,1
0.326185534819829,0.00469654229008337,1
0.375847626880198,0.00664322751151735,1
0.376790458907123,0.00612614190649579,1
0.33959177205865,0.00496585476043702,1
0.270703302601924,0.00723516315957876,1
0.200766305662763,0.00792181887580892,1
0.189273426949569,0.00859062936837421,1
0.181763530587324,0.00911400563287524,1
0.16784883895253,0.0118438285530959,1
0.109449439486744,0.00762178277585677,1
0.106027628357808,0.0179150854199995,1
0.168444904171867,0.0209955881772906,1
0.177897962408324,0.016012215855178,1
0.177647434153543,0.0146088655587781,1
0.176081869371525,0.00886934492418707,1
0.20296724392624,0.00760375729308278,1
0.470720899479013,0.00949754193543736,1
0.585084867406394,0.00762664485395537,1
0.553280640206099,0.00654701705660746,1
0.548320521288861,0.00611404767654265,1
0.549625973594601,0.00529515426739027,1
0.536785335399327,0.00488039791824666,1
0.536838147501834,0.00553337453317431,1
0.540713470283913,0.00519261206831334,1
0.524138921880294,0.00621637741599998,1
0.439505654597334,0.00523415714285446,1
0.262856133437796,0.00869584678093688,1
0.133666013617456,0.0103455637772354,1
0.138098245223689,0.0118090259022374,1
0.148273612801963,0.0166162069892823,1
