Activity,Complexity,Tag
1.50191520986179e-07,0.255259892811143,0
1.37728001468996e-07,0.258340546661475,0
1.26495232446418e-07,0.253310495404003,0
1.25441410504936e-07,0.255648901218368,0
1.15463573768659e-07,0.254637243534407,0
1.33956015428782e-07,0.294952632213839,0
1.57638392435869e-07,0.318070760283123,0
1.65318025301357e-07,0.334947827630281,0
1.62251886153817e-07,0.341312999004268,0
1.0228729827546e-07,0.309291661203481,0
4.46244621755542e-08,0.263942256448974,0
4.78273825000479e-08,0.262181491652188,0
5.63669161435156e-08,0.241208959268446,0
1.28753195575046e-07,0.301673351998943,0
1.38131716014488e-07,0.292628464328447,0
1.15980727993331e-07,0.266405027215442,0
9.97022740800297e-08,0.244948241036808,0
1.01791804960723e-07,0.243336031350991,0
1.00800911697237e-07,0.242555440923561,0
8.93729143872821e-08,0.235950616049608,0
8.9017470059186e-08,0.235953707239484,0
9.32942860132474e-08,0.250068196599576,0
9.06401709844064e-08,0.256053011978872,0
2.0896896028777e-08,0.172040946960734,0
1.10303515538844e-08,0.167106999109623,0
1.16854073474028e-08,0.169486420352805,0
1.31534008253801e-08,0.177800546599052,0
2.13599913446052e-08,0.186051837536278,0
2.21045851235832e-08,0.177693651998154,0
4.68477865214853e-08,0.200905071630285,0
5.00508935779613e-08,0.204343967209062,0
4.31086653101365e-08,0.192388563400929,0
2.03871177174017e-08,0.17688195083459,0
2.34042397196172e-08,0.192283085437762,0
3.28496102086831e-08,0.208080269628164,0
4.02524129105765e-08,0.221907405250708,0
7.81862681643058e-08,0.276430153721605,0
7.58472633554083e-08,0.247081165919951,0
8.57114736805237e-08,0.273376320100568,0
5.00390360970922e-08,0.2482244375451,0
2.32347804457809e-08,0.216010154726502,0
2.24638574573144e-08,0.219719606527713,0
2.23485504583127e-08,0.219542353818889,0
2.46142629642007e-08,0.223001779477463,0
2.56312987051923e-08,0.224538874211088,0
2.49228375647677e-08,0.223551218630147,0
0,0.169172693443338,0
1.73045461554286e-08,0.216706248108092,0
1.84085056341289e-08,0.213405483775015,0
1.86251147334678e-08,0.204563059659323,0
2.64800889302315e-08,0.203444666761997,0
4.46014007757538e-08,0.222795324532091,0
5.77320202993071e-08,0.222393630244812,0
5.02866427054749e-08,0.210989474929992,0
4.05691103523687e-08,0.193911865821524,0
6.73621620847486e-08,0.215644594395815,0
6.45749071526073e-08,0.209979078961459,0
5.62078204946909e-08,0.192352457348357,0
1.47263563505459e-07,0.258033520705976,0
1.55077176568167e-07,0.258288902239131,0
1.25378575192929e-07,0.243297122866039,0
1.5247198531866e-07,0.256787947234452,0
2.16841113826895e-07,0.296488435502861,0
2.18078773404843e-07,0.290755541424407,0
2.04578424556556e-07,0.289200164802422,0
1.99476159875229e-07,0.299906107116289,0
1.85418976256054e-07,0.296382174263918,0
1.86509397666046e-07,0.311098020311695,0
1.09009649634258e-07,0.244996670429334,0
8.64566276554483e-08,0.236734105552079,0
8.96165062580471e-08,0.246699756426801,0
8.48544672482685e-08,0.2540484295373,0
4.57311292679964e-08,0.232740101940973,0
6.3978205103523e-08,0.270953714493155,0
6.441132993621e-08,0.277419658289165,0
5.86914492237932e-08,0.258668569972829,0
5.83724176322233e-08,0.258278535755715,0
4.85294947530777e-08,0.263139061725807,0
1.45665884665851e-08,0.220182249451636,0
2.00771426269681e-08,0.23885935405034,0
2.52498986315717e-08,0.235000198275337,0
4.24315751427199e-08,0.233353576708976,0
4.66269759525471e-08,0.221297186071068,0
3.2224431532315e-08,0.203611645416624,0
4.01675432246717e-08,0.217541864029615,0
8.3830709155918e-08,0.271574385993483,0
1.08546554318429e-07,0.274063909869454,0
1.23162906858268e-07,0.274200334089769,0
1.24048389917807e-07,0.281149280923208,0
1.08991443265994e-07,0.268208042526359,0
1.02530516682261e-07,0.258349257250817,0
1.36782670809165e-07,0.306630450737158,0
1.96253912790578e-07,0.365754694271835,0
2.14536841166685e-07,0.380091115074137,0
2.22417957840956e-07,0.393286932623482,0
1.34707705023083e-07,0.32825252664518,0
5.95316497776518e-08,0.259780096567055,0
1.12468672872323e-07,0.340380750480217,0
1.23370085992506e-07,0.322981697012887,0
1.1929932878079e-07,0.31314242562936,0
1.18391064419424e-07,0.305814968187563,0
1.1682102191318e-07,0.298993624329631,0
9.78771556861162e-08,0.271265064019936,0
1.07183877678407e-07,0.285017698560589,0
9.49046626276434e-08,0.263855085523141,0
8.69752757359776e-08,0.244313733060935,0
1.00009168092757e-07,0.260076229110482,0
8.05973515183275e-08,0.225687158815564,0
8.50900296437993e-08,0.230592019946731,0
1.2672911425411e-07,0.246529875824783,0
1.5459540805412e-07,0.248097850040078,0
1.88826368101045e-07,0.259804359229967,0
2.04287776226279e-07,0.266109851983289,0
2.36037161595906e-07,0.288778104640928,0
2.4210921882673e-07,0.286147672476027,0
2.26844999674688e-07,0.280974720783176,0
2.29737851542757e-07,0.279861106715234,0
2.3603071934252e-07,0.300831681035126,0
2.10238270936699e-07,0.292560178504165,0
2.07210972041454e-07,0.289182227528281,0
3.57319117197585e-07,0.389210805718374,0
3.04224212211973e-07,0.340041544392828,0
3.27353955917773e-07,0.364633707863846,0
3.43531294462719e-07,0.331590038220516,0
5.04732066288795e-07,0.392082214085011,0
8.17284524906389e-07,0.490842990836599,0
1.23880536539018e-06,0.606781642777138,0
1.21739467631241e-06,0.532510145348278,0
1.10195929907306e-06,0.500985979854557,0
1.12118662444909e-06,0.521089078904426,0
1.20036173182507e-06,0.54434243883734,0
1.1455648581878e-06,0.548083035835405,0
1.07954613934891e-06,0.532199855955149,0
1.03876387443888e-06,0.569233740681769,0
1.07608646254891e-06,0.600513855499546,0
9.04696380016727e-07,0.564282271566118,0
3.36804741634322e-07,0.366548648508179,0
2.84640228749967e-08,0.1799523083856,0
3.84907833906072e-08,0.191858172851429,0
1.5658148941668e-07,0.294543873312967,0
1.4799826048938e-07,0.289544529236134,0
1.38703769441923e-07,0.29082707364961,0
1.78781027753207e-07,0.327159228874902,0
1.74973189172412e-07,0.311758120739194,0
1.57941645174944e-07,0.291649593136237,0
1.06224355387929e-07,0.24724945098269,0
7.39757420639212e-08,0.211163803869498,0
7.6020924098844e-08,0.197516848167476,0
1.33538109252643e-07,0.240808228783726,0
9.67836531984184e-08,0.215126647155296,0
2.42590707242804e-07,0.309339120992609,0
2.97133251920335e-07,0.33316229552519,0
3.1025892304636e-07,0.33592020901578,0
3.50931482916861e-07,0.341282100265692,0
3.82179866378276e-07,0.336508085806909,0
3.87724779223381e-07,0.332704660895683,0
4.86597869936501e-07,0.353808732926827,0
8.41339338851953e-07,0.453735704607219,0
7.18452795327324e-07,0.394181715393191,0
1.01550603259329e-06,0.443325875559489,0
2.02275711108397e-06,0.292104959670931,0
3.1152664647344e-05,0.531959346936793,0
3.91589066882391e-05,0.348156401399745,0
3.67315706493174e-05,0.337720487660422,0
3.59356640420259e-05,0.334619220750007,0
3.48803608490946e-05,0.336053312463933,0
3.36592293857206e-05,0.328163444505481,0
3.29182566199754e-05,0.316318534220571,0
3.17488995863749e-05,0.306759350277373,0
3.41533168887307e-05,0.319266321414721,0
9.33966936602851e-05,0.139763257105586,1
0.000453334260078113,0.176013792593584,1
0.00047953221042796,0.132284602075413,1
0.000552744522684396,0.124843967683446,1
0.000549090175552177,0.110259490953074,1
0.000507411309933845,0.102674037261218,1
0.000480407805282115,0.097596345198659,1
0.00039851594204664,0.0799280997183999,1
0.000353406336736657,0.0706478586466674,1
0.000338548371685064,0.0694048607694958,1
0.000354435256941289,0.0884746717036436,1
0.000354209551660267,0.0824279326305837,1
0.000470077952897032,0.118950556026757,1
0.000724845605818594,0.144637226500192,1
0.000796099558942546,0.0775261614862821,1
0.000846249954991366,0.07027002805814,1
0.00130370745881338,0.0506671574635713,1
0.00358585077323894,0.0889584562602102,1
0.00536306277639002,0.0999781638557773,1
0.00714031045860767,0.0967562424836002,1
0.0065822063438334,0.0403786285343078,1
0.00668952212254178,0.041606699690143,1
0.00701839511596515,0.0429307461893124,1
0.00711329829323324,0.0384226246576081,1
0.00654614829602372,0.0416996622257041,1
0.00526593757592446,0.0335917277738274,1
0.00513291978366943,0.0373511444325103,1
0.0047134235235478,0.0386323606688714,1
0.0043442073207482,0.0287582310355683,1
0.00427030553155167,0.0313782328760849,1
0.00427217377457648,0.0663396745230338,1
0.00381171417320753,0.052324001743459,1
0.0036183260466046,0.0478142208254156,1
0.00283763075953537,0.0444340669860215,1
0.00269509674218094,0.0410802379086268,1
0.00233750908721362,0.0376587878640774,1
0.00150418475186717,0.0243865064652168,1
0.00164064545761869,0.0220972724048111,1
0.00280142854688606,0.0167426118854985,1
0.00782393008613986,0.0445721442660818,1
0.0275951621938292,0.0106030904706881,1
0.401338596987568,0.027068211034739,1
0.687500618725622,0.0322129140623323,1
0.786107316902416,0.0378023850585303,1
0.76771757347296,0.0289306657257968,1
0.698620650165493,0.0262554951390807,1
0.642607978824901,0.0231450170467238,1
0.553724126300763,0.0161748605478072,1
0.50142907924924,0.0143366446974983,1
0.457350580748884,0.0126898095302983,1
0.461263416045059,0.0145668992353659,1
0.366482002656912,0.0290164109009914,1
0.254882033617146,0.0234718435013232,1
0.177618224203725,0.015504051132248,1
0.144527816169811,0.0177688529521615,1
0.138175081170367,0.0221293654227737,1
0.031918920105685,0.00223438015823132,1
0.0257933511762476,0.0132001314385127,1
0.0267297764448111,0.0194270042530137,1
0.0191473847198088,0.0129182849475406,1
0.0173601862383388,0.0116300776134683,1
0.0134452221634876,0.0093492428966894,1
0.0186603960810817,0.0127453125045448,1
0.0197549562538321,0.00887042362498082,1
0.0190224823471164,0.00783403279707543,1
0.020211789944362,0.0122992973217059,1
0.0122187184135168,0.00647543573977095,1
0.0154948078793264,0.0125191149619889,1
0.0147263306118763,0.0079300149996478,1
0.0171126211199355,0.00968577897366366,1
0.0233854702477103,0.00937171760926091,1
0.0242423243573661,0.00827178697896121,1
0.0200712088141461,0.00610067905947707,1
0.0188864766456773,0.00894642028892784,1
0.0197997701616724,0.00823917957231407,1
0.0218108111456638,0.00216362116704294,1
0.0303929837313543,0.00493059889107086,1
0.0318069446382871,0.00496956429034763,1
0.0321362285364643,0.00485692115433696,1
0.0283758808702929,0.00331897973914171,1
0.026472435746084,0.00380691875525548,1
0.030296539645317,0.00614093107662376,1
0.0305483866763371,0.00587915351060228,1
0.031019927358364,0.00421770823823075,1
0.0324402724103972,0.00534627481111308,1
0.0323875048815886,0.0151170420263772,1
0.0247734829966929,0.00583304881111671,1
0.0292317143619414,0.0090092257961081,1
0.0286730241100401,0.0110788671305021,1
0.0273584967112311,0.0063199475044755,1
0.0384186162852255,0.0144647551524772,1
0.0530695238365249,0.0217764726620558,1
0.0643987623763546,0.0202471746881092,1
0.0737457571502804,0.0213208158665034,1
0.0802936212137023,0.0241788537137825,1
0.0989289720693435,0.0260977683347801,1
0.13208510200965,0.0347621050462122,1
0.128978842038947,0.0282587356276286,1
0.104435901672321,0.0244810994399403,1
0.0866929106456839,0.0153278775163901,1
0.0920186120417951,0.0155103867244732,1
0.119809958143342,0.015589051647646,1
0.144052694127461,0.0210686095065142,1
0.132645363356479,0.0228585863298701,1
0.127063255300618,0.0185949119359228,1
0.124228959935051,0.0217403307976788,1
0.124577146100798,0.0221551066989751,1
0.103855665748861,0.0242674434203689,1
0.0544767035983207,0.00955922671965441,1
0.052156685353879,0.0058614986181961,1
0.0585827439395406,0.00882365865050198,1
0.0556753765432782,0.0097120106027059,1
0.096076093163518,0.0187822832937697,1
0.117006028544605,0.0172138685666694,1
0.114446194596928,0.0189381730030536,1
0.115120429140111,0.013828888425598,1
0.155962818719621,0.0193254028199259,1
0.205900761410373,0.0257768274368478,1
0.258231688624152,0.0374545425136221,1
0.301771750928942,0.0561060272025079,1
0.353662699507949,0.0574528760372734,1
0.407316477388855,0.0921811517657702,1
0.325184478719615,0.123794015882364,1
0.23122812668529,0.121121699676507,1
0.155545807611121,0.0855587377715145,1
0.0674883566877603,0.108349163885687,1
0.0502188311370222,0.140845502161461,1
0.0321358628367224,0.116496433687114,1
0.0202695963128403,0.064644370027336,1
0.0158556129852608,0.0375494972608531,1
0.0237859681629225,0.0499860381233367,1
0.031662007406371,0.0828525879012597,1
0.0511920982747089,0.0967556339868912,1
0.0617783454999675,0.081225543216244,1
0.0624118594794363,0.074710657995024,1
0.0576168221829774,0.0481515378687121,1
0.0610225175982536,0.0415851619857293,1
0.0517988656253232,0.026726880676599,1
0.088158164440849,0.0376973129124791,1
0.117004281722465,0.0296877311395672,1
0.109989992357472,0.026721744861126,1
0.0991037989838849,0.0228849097324463,1
0.0972746922402911,0.0188158843687072,1
0.12001646458159,0.0228248703636337,1
0.124616454644786,0.0156886033358925,1
0.125938525777873,0.0164477633766381,1
0.133522721239243,0.0162684368568948,1
0.16964966568108,0.024912864148897,1
0.137757770518466,0.0205012640657008,1
0.0975744304290386,0.015058291813163,1
0.11397643779391,0.0176808354323246,1
0.118657757241317,0.0196172041445469,1
0.122816743864083,0.02302205992932,1
0.136564833333161,0.0250686019275657,1
0.117664059339646,0.0436291372560726,1
0.044507381661262,0.0186733528223897,1
0.0289463448364964,0.01309076845968,1
0.0287562228546795,0.0147313686018612,1
0.0136236819842217,0.0102993257775542,1
0.0112521351846757,0.0214854978585013,1
0.0129453803851345,0.0102308383592394,1
0.00877107586421344,0.00276510688081383,1
0.0117893357389568,0.0100232134205338,1
0.0151140375555811,0.0160139761967944,1
0.0149126152846042,0.0154152176156914,1
0.0154293086507293,0.0172069275907788,1
0.0150508653178306,0.0175162748250594,1
0.0132355675509976,0.0144962667344531,1
0.0103576353457208,0.0102444480606422,1
0.0128625875696819,0.0156770569254941,1
0.0199835189636646,0.0465663640167988,1
0.0192874454355531,0.0549545225902032,1
0.0187102673198196,0.0530192973657986,1
0.0185978536396094,0.0431796278047479,1
0.0151660547682091,0.0323230805498713,1
0.0125852383464492,0.0260208482702442,1
0.0102554320072797,0.0205294686949407,1
0.00857488819085891,0.00908513314171684,1
0.0170746173533481,0.0193485394488109,1
0.0181314042684723,0.0158828907805952,1
0.0196456552616914,0.00766731439560323,1
0.0331253770792904,0.0221402383461049,1
0.0584817268634462,0.0276556431217387,1
0.0900644070281607,0.0333285309341052,1
0.0787866306163337,0.0299587230634765,1
0.0685238193027441,0.0271929191595208,1
0.0889280651053248,0.0269044667901452,1
0.0877032252042587,0.016447343643446,1
0.0890981520601394,0.0114918287304516,1
0.216305890429402,0.017810611939043,1
0.324067299450521,0.0208258754901078,1
0.317157429809448,0.0157845654612309,1
0.316502827912921,0.0157080278498577,1
0.31270869182871,0.0139238744934872,1
0.282336745818989,0.0118987805778537,1
0.244987361033782,0.00919205754671041,1
0.247111531406752,0.00888230270513565,1
0.25098229587026,0.00698683601346591,1
0.248394698868507,0.00789518750919499,1
0.204169369758058,0.0105559456520221,1
0.142662809184111,0.0058317232356868,1
0.140439750864778,0.00514183301609309,1
0.180604193973018,0.00667508868241246,1
0.199768327228353,0.00736979150951983,1
0.22139471368217,0.00793383756854211,1
0.265147083715276,0.0122659201828512,1
0.264101829884899,0.0110772275262396,1
0.254075059991609,0.0157819933002832,1
0.227343718617853,0.0155493364238535,1
0.219734184135624,0.0199574736027081,1
0.181948163066127,0.0145757042402157,1
0.175996817827474,0.0167769224476352,1
0.186591111769678,0.0296842082332524,1
0.211320669782874,0.0423111300362573,1
0.238107750182655,0.0844007230084952,1
0.170729953106064,0.0597076079576643,1
0.130410128735413,0.083082823132214,1
0.140027097463033,0.0997228220561226,1
0.10334069637269,0.0818523476256908,1
0.0369421628699794,0.0298873853877577,1
0.0354838186013636,0.0328767870249449,1
0.0742588540796226,0.0537626269981448,1
0.0903517920233144,0.0544627095444718,1
0.135037644060709,0.059716941788461,1
0.173020714947364,0.0537441051690718,1
0.192608691845724,0.0401565916154043,1
0.286362629793633,0.0491910551634657,1
0.246564975658591,0.0271173804152913,1
0.209719338896672,0.0199046182259896,1
0.178370619624005,0.0157896875910598,1
0.179074432361074,0.0162550819956316,1
0.24572368656334,0.0195902582461762,1
0.24752127005941,0.0173427715469222,1
0.250631711798835,0.0197312717058595,1
0.244583687661665,0.0181255751945769,1
0.228096450305833,0.0252421670465993,1
0.105024067620362,0.0118671083173412,1
0.0437955896815427,0.00413810496460609,1
0.0507777802854409,0.00575379018727804,1
0.0652912087872837,0.0104408141828273,1
0.0606680854317266,0.0121904919291226,1
0.0750268165818972,0.0222948298825806,1
0.0564196533178269,0.0244717197055877,1
0.0473025609982857,0.02253858653496,1
0.0416128948900795,0.0234962853734481,1
0.0321961336277052,0.0219327511557628,1
0.0364348032255172,0.0218587062759586,1
0.0217230261104217,0.0109119322852551,1
0.0140066404198896,0.0153793592734807,1
0.018952083546923,0.0331375501070495,1
0.0169732180462228,0.0417846924852383,1
0.0210020995219122,0.0529874732463366,1
0.017023392504088,0.0616697896303771,1
0.0113717425511093,0.043581472424825,1
0.00808839670362652,0.0298506615812309,1
0.00909030239949087,0.00432006608472845,1
0.0324862589030267,0.0190454432074763,1
0.0334240248449473,0.0126671894783722,1
0.0333164448727888,0.0113036456915316,1
0.0404282276089205,0.0143278312133826,1
0.0375080166586383,0.0121815660713349,1
0.0361870441482306,0.00974907406833467,1
0.0444783931030205,0.0141027971242679,1
0.0431154754480282,0.00789642811841287,1
0.0366436683165134,0.00601665271581152,1
0.0286125362902779,0.00683462599710967,1
0.0230347387106776,0.00747808585809886,1
0.0461761810123313,0.0129958090186128,1
0.073679549825137,0.0198158107914265,1
0.0908388618557217,0.0202108912619882,1
0.131357081345506,0.0245224378253975,1
0.125053926789699,0.0214211360449568,1
0.13268276039323,0.0203384929758525,1
0.142424072942425,0.0279880038875675,1
0.117673233239927,0.0200864638977187,1
0.0825674809817175,0.0134684725253428,1
0.0474227177338521,0.00366477958272619,1
0.0441983391423721,0.00712832871776899,1
0.0612029235479222,0.0149781538842812,1
0.0551499144966647,0.0149197378056646,1
0.0634548701702159,0.0168857123977025,1
0.0567250111400355,0.0172743508669944,1
0.0899484706506004,0.0280150218807738,1
0.188388943578203,0.047239884376575,1
0.218143253836536,0.025905003669078,1
0.172755035300621,0.0216932573533156,1
0.14675248077334,0.018280592389356,1
0.171779254205663,0.0194946315271989,1
0.179054838667549,0.0127790472432445,1
0.195458197084714,0.0151953585593599,1
0.188752292645596,0.0139902982513042,1
0.228168900357691,0.0141090611174752,1
0.229009310607364,0.0120097747201494,1
0.205599038151137,0.00974775098172434,1
0.190460374031155,0.0134512575722037,1
0.194909980513827,0.0124503407064318,1
0.211737821079289,0.0144397616608268,1
0.16396558325604,0.0111568585765,1
0.196329144107753,0.0185396160766032,1
0.207531381933622,0.0222600866221216,1
0.264897519569849,0.0326376654632414,1
0.213381609855278,0.0415633023176314,1
0.231206239835353,0.0699551454153376,1
0.185852233989628,0.0886468975212592,1
0.191373275006927,0.0958687070419217,1
0.187214865681022,0.12214500926993,1
0.176325357234108,0.103901337019656,1
0.101249501030051,0.0890851607262433,1
0.064156579681574,0.067223110564765,1
0.0432896667067353,0.0444926034758474,1
0.0578626846772997,0.0572644970994143,1
0.0717372990158038,0.064373296521927,1
0.0904560246239553,0.0880006989978125,1
0.136924285405762,0.086343750986527,1
0.153567836954541,0.0395573955930626,1
0.126103286277121,0.0342011301467899,1
0.0932811879146855,0.026368185805399,1
0.0676941827833433,0.019277666154815,1
0.0432173422852606,0.0123994766255141,1
0.039570861947653,0.0109519299558248,1
0.0561096307601236,0.00229879726218072,1
0.111870503015093,0.0154657732056925,1
0.159721269275217,0.0243063758963932,1
0.166338759886965,0.0171138684874093,1
0.161996442440088,0.0189671110343758,1
0.139592825366974,0.0170982869259923,1
0.129493435771805,0.0143248385267292,1
0.127518264451623,0.0142943520654422,1
0.15531791086419,0.013221955436038,1
0.231179519360647,0.0210273935881631,1
0.259795749795498,0.0404696134684643,1
0.239363721799747,0.0341162046874868,1
0.194000373220953,0.0267125390096218,1
0.17743016950358,0.0336610843371527,1
0.160699608876468,0.0354707754169677,1
0.119127700902548,0.0240890871746695,1
0.087220227348423,0.0170632638839461,1
0.0464284110220571,0.00543666679151416,1
0.0279827009566273,0.0101883396629204,1
0.031352834972626,0.0103910540776492,1
0.0264804554432846,0.00820780132561639,1
0.0257564681537297,0.0131055443776589,1
0.0254647966255564,0.0108784528955038,1
0.0157785370192071,0.014463305880729,1
0.0055969309732807,0.0114314930361141,1
0.0195341491089048,0.0194679465742214,1
0.0350117630820824,0.029645305938561,1
0.0365238651442304,0.0250126642207276,1
0.0391773336875287,0.00773953026838985,1
0.0922141427252796,0.0191367668591696,1
0.0902149591395283,0.012787768056526,1
0.0814871219083253,0.00981579039120847,1
0.0776584428829146,0.0097454233726386,1
0.0785594328164558,0.0102556513092509,1
0.0616601892188978,0.00425808707118608,1
0.0666918018538373,0.00269405884075916,1
0.0753734085442603,0.0035449888274068,1
0.0701508548262635,0.00186486466951152,1
0.0708592940844072,0.0041936741051492,1
0.0642815162296737,0.00535256961283847,1
0.0520207766541027,0.00635469351495895,1
0.0581255104127951,0.00818064016583458,1
0.080659056094983,0.0113746952128431,1
0.212060767287922,0.0263324668818166,1
0.268403438321637,0.025870987372623,1
0.240904597984878,0.022314709244059,1
0.231948313476045,0.0213650257903429,1
0.217583893844518,0.0138771634120472,1
0.232767626907894,0.0173824527045066,1
0.21129334695897,0.0153809128099307,1
0.182647361498034,0.0131055963963208,1
0.209376100210852,0.00794960261146262,1
0.277869404550619,0.0118119187803396,1
0.256699707769543,0.0133170684752509,1
0.227290929031703,0.0134947279037121,1
0.230176737997943,0.0144141316731599,1
0.180730510263473,0.00909213753562132,1
0.188054309186172,0.012955828943907,1
0.224661182752016,0.0154585272445764,1
0.261170850903685,0.00832312737173703,1
0.30255894870792,0.00611934295751647,1
0.282550520644936,0.0100020266950723,1
0.218314631492802,0.00654869011550814,1
0.228696069127153,0.00628965646748241,1
0.269699152607314,0.00824170373531177,1
0.254740374554902,0.00855153800193338,1
0.255138333885229,0.00972070648346019,1
0.238817370781637,0.00718912606271805,1
0.231320610848044,0.00573604184397345,1
0.204398004609925,0.00999022165976217,1
0.158191450365684,0.010749296503901,1
0.18027138272749,0.0137128981097727,1
0.252398691881002,0.0197685552799428,1
0.311818201421102,0.030571340727939,1
0.241445322953696,0.0262068303537896,1
0.253416217793447,0.0253963655892479,1
0.199189615181931,0.0189852099084841,1
0.207601489260876,0.0291973924058449,1
0.233097306419716,0.0477446755100177,1
0.14151039647424,0.0521590322919458,1
0.0730436039245189,0.0403340391449685,1
0.0352466130641974,0.0283487592259946,1
0.032237851086436,0.0630779169813546,1
0.0325770936323975,0.0498429513560945,1
0.032809765531778,0.0430128442910485,1
0.0445307178243829,0.0508306959648696,1
0.0514667394181169,0.0613480404558292,1
0.0621013695360631,0.0718284434154131,1
0.0847771831350616,0.0519293694769721,1
0.0741742674965822,0.0340456927716188,1
0.0717262407676122,0.0278800514975782,1
0.0579207775072038,0.0193091538740445,1
0.0372500399339739,0.0101041810993607,1
0.0348620234353138,0.00783311416480513,1
0.03991669198004,0.00847706905381946,1
0.0437419809611936,0.00659275190656099,1
0.0655775711260637,0.0132138675450065,1
0.0798440835383352,0.018910632617819,1
0.080709725879598,0.0235823191401813,1
0.08914144189646,0.0293494808672072,1
0.091727523807661,0.0318492279560106,1
0.0906758898764254,0.0344489465411305,1
0.0880271939463956,0.0381968048762861,1
0.0645368919979832,0.0318855875284179,1
0.0528711093446023,0.0309125533966714,1
0.0570789915969491,0.0406354330244057,1
0.0539267938524574,0.0367130801491506,1
0.0588598982805936,0.0400179113916318,1
0.0690613726221227,0.0483561844149742,1
0.0587508005088692,0.0557197128729984,1
0.064303651330071,0.0657288021251228,1
0.0565178511341544,0.059456921142912,1
0.0546508856541287,0.0505024173680716,1
0.0504059817798778,0.0447897232252108,1
0.0514905168128528,0.0371634568706093,1
0.0464143160237177,0.0440413522661414,1
0.0259382432921295,0.0314834515213166,1
0.0186537421809059,0.0203836332391163,1
0.0145421017520217,0.0141775644357118,1
0.0120115847048207,0.013273173776135,1
0.012924992509752,0.0126905914016165,1
0.0129097844434279,0.0107800679956532,1
0.0133935037689008,0.00846446910547613,1
0.0119852119265591,0.00782241692197784,1
0.0103472014908108,0.0116670484324806,1
0.012510404022682,0.00332626924666557,1
0.0380664324730662,0.019885792417418,1
0.0447743681474872,0.0207002342655845,1
0.0444432951038054,0.0229373670227928,1
0.0428140540216208,0.0244988841851731,1
0.0432566810204496,0.0243173462398749,1
0.0431836824449812,0.021503953333178,1
0.0377811858513441,0.0176989892577681,1
0.0364681899165872,0.0178179670024881,1
0.0253097957113568,0.0104901964712665,1
0.0154713424086027,0.00934184516669955,1
0.0147538156164281,0.00893427522944955,1
0.0241582003370819,0.0172536736177783,1
0.0439947508507998,0.0308330960646891,1
0.0721695996247253,0.0480533679097203,1
0.0749223875365033,0.0304227462268073,1
0.0865239299610628,0.0182467924468307,1
0.168569661573982,0.0326729763658872,1
0.2357211808872,0.0271885416740328,1
0.373327401814998,0.0248775444316912,1
0.305831304810679,0.0172595331920033,1
0.248175719607008,0.0126703872814034,1
0.238932802962025,0.0118413070855773,1
0.229760400224804,0.0106130239942149,1
0.223864699544094,0.00966624182868763,1
0.197240872191562,0.00903832612486908,1
0.209258120261166,0.0100867424303239,1
0.286201354885942,0.0153155158955355,1
0.266396249042743,0.017475074484367,1
0.120453581981672,0.0098501201659582,1
0.143095348429037,0.0156326152101355,1
0.14437004497807,0.0101190244046055,1
0.155877833109101,0.0131400916193198,1
0.175508130510686,0.0144739596115418,1
0.216363984515825,0.0191549773353711,1
0.231991995744658,0.0172565856388867,1
0.218732566639194,0.0230772045717927,1
0.168476869842087,0.0181642903501452,1
0.179846127100125,0.0229657341668444,1
0.195055215665323,0.020490820037867,1
0.169156868540883,0.017186162956299,1
0.145125619123905,0.0153125014809178,1
0.157227282899794,0.0124191512858498,1
0.150163570629469,0.0158335195185247,1
0.128114574823372,0.0111486694423134,1
0.11887883218689,0.0117364386630777,1
0.122370616562391,0.00972944065479737,1
0.142804054735103,0.0124140939000915,1
0.153002042243867,0.0146439949943368,1
0.164448174724916,0.0261844494914687,1
0.191486296342697,0.0301150010083732,1
0.230872073894858,0.0438417331542826,1
0.285155909187333,0.0792903044188047,1
0.292233095777562,0.0685534895340097,1
0.226505636648878,0.0627287318349486,1
0.104720811486874,0.0430852114520802,1
0.0637070921769825,0.0409028497656555,1
0.0487414363219179,0.0318117841117134,1
0.0360673613675652,0.0214532258915798,1
0.021088459129325,0.0250439943351975,1
0.0220125680111292,0.0307776437324378,1
0.0247909401454527,0.0356009920185509,1
0.0232658739567241,0.0436537754916592,1
0.0322211416267246,0.0304076613927783,1
0.0585687216788168,0.0554750037845983,1
0.073978330544152,0.0699286802698154,1
0.0732845309006848,0.0563001203381994,1
0.0604898325537241,0.0514367087618423,1
0.0567641051150651,0.0461335265980275,1
0.0506033454892954,0.0432612843253527,1
0.0426777667518808,0.0280603419131506,1
0.0369121481269701,0.016839545959297,1
0.0525382395867018,0.000820184261551283,1
0.10375943170764,0.00728880890238103,1
0.1025657070914,0.00742456457585715,1
0.103706073175189,0.00661053889638718,1
0.110037839624967,0.00784613052781605,1
0.118429807778828,0.00862008555289183,1
0.117238545383615,0.00886312179574146,1
0.116537163644773,0.00843643506523985,1
0.150546036271966,0.011804862389977,1
0.171894694505625,0.0126554363120215,1
0.14284040251663,0.0296105624901755,1
0.0576461273923511,0.0200758779458667,1
0.0502420712345678,0.0136193027198189,1
0.0443411928061332,0.00944650017852944,1
0.0541108005523243,0.0122912444403189,1
0.0556327069027844,0.0121751391544379,1
0.0524269039605491,0.00689477777120523,1
0.0569519239940044,0.00854610757944924,1
0.0534182160648971,0.0103670350637573,1
0.0621298335421323,0.0187204057070185,1
0.0650039885093451,0.0245679169327484,1
0.0701130232217086,0.0256469226486606,1
0.0612926891578007,0.0247399394925518,1
0.0481901166726555,0.0254455399858053,1
0.050019119461061,0.0258862700053403,1
0.0317115781328484,0.023522222386374,1
0.0152247820125534,0.043759135287326,1
0.0119392716208716,0.0460184557926387,1
0.00685222655365443,0.0141331411485751,1
0.00800492071465207,0.0111369629634888,1
0.00823975421412173,0.0126663765768588,1
0.0106049893636182,0.00692687943949881,1
0.0227478428174697,0.0199441703295825,1
0.0292470866832257,0.0225651086849356,1
0.0311620896192314,0.0249215828910675,1
0.0469785825501004,0.0303307699180861,1
0.0433182081926655,0.0158326769331388,1
0.0362299194217178,0.0113570692601156,1
0.041854145559601,0.00819895033444325,1
0.0806129258280637,0.0200920561322596,1
0.0628035174760957,0.0115637594059681,1
0.0541548600080573,0.0103808260445995,1
0.0663846302056647,0.0139309918603847,1
0.064450157557207,0.0133814158532319,1
0.0674051939323494,0.0124271758070464,1
0.0716690656365161,0.0127243709005099,1
0.0840171897931241,0.0157508767779265,1
0.0652525233276787,0.00673345401976351,1
0.0546903038852307,0.00723252290896249,1
0.0527351201099363,0.00833014319609405,1
0.0452575417544375,0.00822319251580202,1
0.0378177586339855,0.0056954538952784,1
0.0476725172934098,0.00965130168392429,1
0.0732945779033208,0.0184718196858936,1
0.113707373279401,0.0248506913878821,1
0.211266372747338,0.0295103534751703,1
0.209413473926552,0.0254944958195606,1
0.201030478196632,0.0224252137810529,1
0.216951956532526,0.0201275136078413,1
0.188360742412991,0.0119579405855853,1
0.167190161222658,0.0101010311301155,1
0.160712738766989,0.00920929360386136,1
0.178394547419401,0.0108303202428862,1
0.181521615233091,0.008949776795482,1
0.187038066544832,0.0121190054630859,1
0.140284379983171,0.00723617394114158,1
0.144288826921974,0.00606905157672681,1
0.251870855464316,0.0133652286589474,1
0.252225591480564,0.00639617011153544,1
0.252518031200211,0.0096400834880211,1
0.248742128029521,0.00905688951574711,1
0.236920420588372,0.00881163548039066,1
0.278621496382415,0.0112517513736931,1
0.284781232507689,0.00818577195264046,1
0.294154629279697,0.00800482282174002,1
0.320037828919084,0.0112174396146861,1
0.288155254358997,0.0116435339580846,1
0.228244368131988,0.0122362926969426,1
0.208319677013963,0.0243469307381067,1
0.199124513921389,0.0223223710772876,1
0.189905942702176,0.0227241631042105,1
0.246050167902032,0.0259743815845328,1
0.184066913759924,0.0267962938839788,1
0.13779889777286,0.037755013704843,1
0.174099586554026,0.045509762508059,1
0.194903133561911,0.0473876288403783,1
0.190239621099938,0.067448480322205,1
0.176006451338278,0.0638571615175517,1
0.157658142293351,0.0592932434961994,1
0.14562234862864,0.0504016643894633,1
0.0823476868942997,0.0324225512765747,1
0.0771195096955094,0.0951762659215163,1
0.0707289326292916,0.0718708174265662,1
0.0549181779409575,0.0561128049055701,1
0.0474521032408725,0.0552698330183813,1
0.0267800049205042,0.0376617040273346,1
0.018504615242385,0.0171443881039753,1
0.0233694799756779,0.0228823735423344,1
0.0256776203128257,0.0313159515181358,1
0.0304407713745809,0.038780489660777,1
0.0267062633021592,0.0332860824752916,1
0.0170608311341741,0.0186256809900384,1
0.0132279899443791,0.0167972605535895,1
0.0155081872205284,0.0243104889688563,1
0.0262215494295448,0.0343130404145402,1
0.0255338889692546,0.00912982024407939,1
0.0285511786538027,0.0145530470592312,1
0.028945347661289,0.0144977446153861,1
0.0301082946642548,0.014503225577302,1
0.0304194424053939,0.0139796127687756,1
0.029322315449922,0.0146277809565989,1
0.0296181334245017,0.011265476396991,1
0.0599279749573955,0.0211914853437603,1
0.120951089637791,0.03727268768293,1
0.154666851257214,0.0424728212087589,1
0.155589841183841,0.0592961351739072,1
0.134005326694904,0.0557298234192783,1
0.152887967953431,0.0412239110360632,1
0.142679832854835,0.017361045018536,1
0.124758064050235,0.0108793268126884,1
0.11635283718702,0.0085015645700882,1
0.103067925308349,0.00228612194916653,1
0.154643590954894,0.00871758487823191,1
0.15776834642462,0.00836615881539231,1
0.155440162962931,0.00717693519902812,1
0.187043164646418,0.00987397285856543,1
0.189994497952226,0.00823121547454751,1
0.159393380199497,0.00573049835864962,1
0.164435543098718,0.00974065300947219,1
0.165824657492263,0.0121232082168008,1
0.0715975888207321,0.000177482803748484,1
0.0592744324438755,0.00382501185594599,1
0.0666708233401535,0.00510662437794972,1
0.0700422767366479,0.00777034187390809,1
0.0708602989467167,0.00914480792354703,1
0.0780793714110447,0.0104960094585906,1
0.0487771449185624,0.00869090927940691,1
0.0253460254998383,0.00879465792717427,1
0.0283844877849584,0.0112413264226082,1
0.0217015688814784,0.0187891070976375,1
0.00546602707818926,0.00466482497797737,1
0.00522642832595904,0.00912650127149914,1
0.0065959927806435,0.0147801734632165,1
0.00745241092041817,0.0113509698646165,1
0.00794882042937128,0.0136321904197394,1
0.00760859631666184,0.0135910428389144,1
0.00730872125626573,0.0153919991965762,1
0.00860115400670689,0.0296509523148364,1
0.0467041121349035,0.0308287855843016,1
0.0951261065911852,0.0537256540358055,1
0.112697066013831,0.0303126240606625,1
0.108470814989614,0.0216040452305372,1
0.138983578846324,0.023076675045568,1
0.130042553474639,0.0215181459609813,1
0.110713148715568,0.0173163903519152,1
0.0944892772989058,0.0135927739998461,1
0.071251225621853,0.00734779477110553,1
0.0652433702053462,0.00511873490932213,1
0.0836078329115765,0.00318692675714752,1
0.106490612610885,0.00510147332156429,1
0.114545234838908,0.00804068013946321,1
0.127404657323899,0.0121702098409359,1
0.153302429221309,0.0180876182893507,1
0.157639151316139,0.0195277729849502,1
0.163187757176088,0.0205738597699401,1
0.263255516685746,0.0263460847092946,1
0.245396157333408,0.0198279274916318,1
0.126776286183544,0.00883483719177917,1
0.100266990225281,0.0125170065664614,1
0.0879701882318118,0.0097658912135151,1
0.0856182334923529,0.0055976307580648,1
0.0981700371210132,0.00555572378268931,1
0.102592021121539,0.00543859259499043,1
0.122030233299414,0.00616996264987876,1
0.157699526204226,0.00334227532489746,1
0.1446928176408,0.00218061585200909,1
0.140290396301932,0.00324017803485686,1
0.144774420334903,0.00280742699948238,1
0.175626640286136,0.00426609623301673,1
0.183590877770585,0.00459651121886948,1
0.238673125613646,0.0102166607538535,1
0.256325840436541,0.0123221588840292,1
0.353749255385987,0.0155145876207938,1
0.456509204403487,0.0187254380425126,1
0.380450361493265,0.0173012691813796,1
0.32364465877722,0.0164608489349109,1
0.314371767729591,0.0153627234649105,1
0.293045597824243,0.0157525411039705,1
0.316198384723755,0.017637189472247,1
0.31643980997853,0.021364625307065,1
0.35582235244046,0.0240969676587798,1
0.4501920431309,0.0291363898037715,1
0.377893370294277,0.0413073136361636,1
0.222947505508366,0.0275159331763768,1
0.190398378396386,0.0478367323111476,1
0.202991080411667,0.0534250393968449,1
0.200607359832016,0.0611425869282469,1
0.122963141915982,0.0430855032818027,1
0.083511908607083,0.0376225770590166,1
0.0271697286251694,0.0146777093416251,1
0.0122306197663181,0.00749191687528825,1
0.0143880240740737,0.0127550712780346,1
0.0204473143781215,0.0211944673288222,1
0.0320166915650937,0.0323553145684664,1
0.0396298681971217,0.0355656805834887,1
0.0503265280981681,0.0466523950178102,1
0.0617379729041125,0.064430241210768,1
0.054086885442378,0.0652879385225791,1
0.0434796858328418,0.0643304478265124,1
0.0384202534871029,0.0891382239522309,1
0.0199614950087573,0.0571247019681662,1
0.0129281080203688,0.0429757971325383,1
0.0168539545667148,0.0456605036959132,1
0.0318822354410825,0.0701636920554858,1
0.0495903314051813,0.145836236250223,1
0.0480056330483823,0.116857833460803,1
0.0412378318631783,0.106015450247516,1
0.0307189651418468,0.0696100132440993,1
0.0215786682079447,0.0618275898894264,1
0.0231020868573134,0.0175261410446274,1
0.0281762878452337,0.00590497644613294,1
0.0297090250667929,4.02406120090363e-05,1
0.0467474732888363,0.00236041933510562,1
0.0531139032349149,0.00347822533821073,1
0.0562228235206155,0.00399825768673564,1
0.0646675061981045,0.00505796592171181,1
0.0661769417659202,0.00438620740279153,1
0.0670499531873027,0.00368468786187781,1
0.0730163225335475,0.00509014008603706,1
0.0885331646036815,0.0102299905108348,1
0.0916664277389041,0.00707196986286574,1
0.0954316900479034,0.010771709369026,1
0.0751053906124671,0.0089602259658705,1
0.0887799625550234,0.0107053737696371,1
0.0943547688773352,0.0108482566745634,1
0.0866217180313085,0.0103794046143829,1
0.0867391599506005,0.0108239465107469,1
0.0886360562343417,0.0104547722527165,1
0.0823257260147484,0.00761232453759719,1
0.0524662510277192,0,1
0.0464865463979096,0.00659126133301772,1
0.0605130557217747,0.0150445738966322,1
0.0590427116556301,0.0147430074762408,1
0.0596661959013433,0.0192527468732464,1
0.0663861688398516,0.0264059789541728,1
0.0654678133112146,0.0272077062225912,1
0.0639314842616044,0.0288314089277439,1
0.0569399012400191,0.0443974152230909,1
0.0146280163756271,0.0163835819041475,1
0.0082916100343909,0.0204621014338727,1
0.00769108594697226,0.018176868750849,1
0.00759764352012866,0.0226926404579917,1
0.00614716048309838,0.0318595712789333,1
0.00428129140429433,0.0245308385492261,1
0.00410374451808852,0.0224081824371011,1
0.00397546318835041,0.0189831900092125,1
0.00496136145571466,0.0200223731000086,1
0.0171603091043966,0.0347911643937451,1
0.0249762505975623,0.0262877765211129,1
0.0225265270619595,0.0255652843438626,1
0.0188838797385121,0.0230665345672883,1
0.0177207446325778,0.0219314134906932,1
0.0177906223863051,0.0207693023151165,1
0.0179395284405912,0.019443023448125,1
0.0214873865450045,0.0131803399862674,1
0.020961199972138,0.00782239032652716,1
0.0196631506534413,0.00715962533701709,1
0.0173903920641855,0.00682292684234746,1
0.0368333621943472,0.0123900128484538,1
0.0725467356424418,0.0277417579930255,1
0.0966411021294463,0.0372480502620698,1
0.099236812455442,0.0249705843724419,1
0.0935322255335209,0.0242402690116351,1
0.113816764985659,0.0123322203805584,1
0.218815382345,0.0322746242343425,1
0.292089324946899,0.0418040973741227,1
0.236907118897331,0.0233865596004026,1
0.185984948875252,0.0199307967076836,1
0.175384569516918,0.0183360152416774,1
0.177525027504873,0.0179670919949003,1
0.174219048530845,0.0175507889486832,1
0.17144384880512,0.0209279293294557,1
0.119489781089336,0.00959792824697862,1
0.114283297746444,0.0131995925202433,1
0.117136399432487,0.0123289975172239,1
0.156852894179353,0.0184067247602997,1
0.162816777063118,0.0264606739595221,1
0.157097227117931,0.025674278888657,1
0.187028833943766,0.0296661310532535,1
0.18295433031606,0.016987442447977,1
0.16824186941935,0.0143034826192345,1
0.188611567329627,0.0148395743317293,1
0.205866004928175,0.0193330821359779,1
0.206044199611622,0.0127132336214042,1
0.229682835153724,0.0135883482932175,1
0.227179920240671,0.0132644281638927,1
0.312397452128138,0.0189806059506918,1
0.289024075964256,0.00551617441001467,1
0.272437121207187,0.00492662124983199,1
0.269177317284477,0.00760446194705413,1
0.278538060428311,0.00809764011859987,1
0.307918134259113,0.0109754713730871,1
0.29277874241584,0.00526007616920237,1
0.323435873775944,0.0114668519057115,1
0.296134160062288,0.00911519131944334,1
0.298096995409766,0.00963565644063917,1
0.223506765920699,0.0049040525683694,1
0.212215824565676,0.0203522198470106,1
0.157348794973434,0.013928729468938,1
0.153288732406234,0.0153008594603555,1
0.141856845454431,0.0150014910868372,1
0.0853928576527642,0.00427989874558994,1
0.0824964186473517,0.0186585033304383,1
0.100369596518269,0.0213569790769454,1
0.113115652029298,0.0252745541003365,1
0.0979556756560033,0.025756769594964,1
0.0976679625383983,0.0259620804023485,1
0.136826206901835,0.0343008282081456,1
0.157710892078886,0.0509532786011401,1
0.141818150572237,0.0441646555438975,1
0.084367482060348,0.0318170896673773,1
0.0683553106669573,0.0445649947275904,1
0.080022208493726,0.0481632242881329,1
0.100761968575787,0.0605456249835636,1
0.0950909666567285,0.0618689510426915,1
0.0679539328073429,0.0521125675633666,1
0.0395759833080137,0.0725729549397206,1
0.0392146312087374,0.0739745373265607,1
0.0353104237083445,0.0613297051874962,1
0.0267120327173579,0.0552735373136006,1
0.015467606082489,0.0304735768969282,1
0.00844183082234748,0.0193074290695378,1
0.00864189869320601,0.024024948002998,1
0.00861683470353542,0.024607765237748,1
0.00723459084596828,0.0203820330741075,1
0.00847585195306651,0.0596778699297455,1
0.00997881387486283,0.0692966986287299,1
0.0111182856719263,0.0710785403563634,1
0.0119484314424007,0.0671391622010991,1
0.0120646458393273,0.05446808468777,1
0.0114735301602023,0.0515744283095042,1
0.00989301851520048,0.0392984826199689,1
0.0106267981618275,0.0139042636433099,1
0.0183614843280333,0.0258412053732972,1
0.020417461836394,0.0281457270912565,1
0.0191034903401898,0.0256963612200461,1
0.0162313625439653,0.0213720520022377,1
0.016594930111773,0.0194370534189943,1
0.0170950671032131,0.021679239284808,1
0.0217073838397672,0.0207439133738399,1
0.0286993389665617,0.019761467955945,1
0.0229384484622901,0.00981337349778671,1
0.0226243996403779,0.00980776065244648,1
0.0257519188786343,0.0121716388462343,1
0.0254835212754389,0.0133175404803203,1
0.0219774085263008,0.0111571412277266,1
0.0168611707188496,0.00754221270449113,1
0.0198593318443017,0.00828793050327098,1
0.0242385563839161,0.00840423473816961,1
0.0226140275705993,0.0107056174557091,1
0.0196476600127977,0.0107399942185225,1
0.025384925586756,0.0190091941464104,1
0.0273374849430087,0.0139891583327309,1
0.0389231686097505,0.0240314001986122,1
0.0422295430370204,0.00865417427672426,1
0.0452079855202292,0.00617406709623834,1
0.0776208255793584,0.00806837848645522,1
0.103839131599856,0.01516948973095,1
0.10878906726674,0.01761686073065,1
0.140184861806191,0.0251103975732879,1
0.125519291447356,0.0149617670111593,1
0.0960414253763968,0.0106531688207076,1
0.0967355273651789,0.0137253472532036,1
0.106944634010485,0.0148799354265505,1
0.115841060719072,0.0227997207716811,1
0.108194103580091,0.024092683901835,1
0.0996854904512151,0.03902747099876,1
0.0908201393474684,0.0357646756731821,1
0.0792910332122463,0.029302992540921,1
0.0247244186665306,0.00887129161831859,1
0.0106735001704251,0.0214639725426042,1
0.0101020144546184,0.0221869560314785,1
0.011347564266896,0.0230702217706616,1
0.0121891230573749,0.0288142483879633,1
0.0132411109691465,0.0319172420751528,1
0.0126510447943462,0.0475706587723839,1
0.0102479342914189,0.0554769181799176,1
0.010833984875237,0.0627349206158187,1
0.00693262074301692,0.0667657810644153,1
0.00317006710074102,0.0321751296487406,1
0.00279670996946504,0.0287505037033039,1
0.00312674691431123,0.0300624203673495,1
0.00298194893002147,0.0292451167210286,1
0.00320390181962984,0.031364893836581,1
0.00342170783913689,0.032413368257735,1
0.00346093412628695,0.0326283666714117,1
0.00482431615533568,0.0273940061902721,1
0.00578437314378741,0.0298554781426188,1
0.00986683018201455,0.037102830344023,1
0.0133041899743259,0.0214705881712435,1
0.0487658411787822,0.0452905449181043,1
0.0485736028819026,0.018876054524777,1
0.0434427773053495,0.0150013794917019,1
0.0578737917731774,0.0152498424219958,1
0.0613599183136823,0.0117450868765725,1
0.0511947989826351,0.0094594148383313,1
0.044597984491732,0.00744760285998538,1
0.0391142384822294,0.00456850530430276,1
0.0394858339839854,0.00447198629502331,1
0.0363636699976075,0.00422431368315012,1
0.0299398670962908,0.00284628967731244,1
0.0460396081968991,0.00445234786034753,1
0.138191794007687,0.0239058256318174,1
0.200801045700431,0.0331266347115611,1
0.278738151585208,0.0502334103292029,1
0.285802771526554,0.0455474238849584,1
0.276501832649054,0.0444146741237755,1
0.313151543231578,0.0466697508626829,1
0.265160250240372,0.0169506143579155,1
0.254301038439112,0.0155193926771986,1
0.224564866198134,0.0129611865530143,1
0.274881122007412,0.0245356723345556,1
0.29308315003331,0.0195996030972395,1
0.295328198649578,0.0181869438577871,1
0.329257527882202,0.0196822410168415,1
0.374725931092235,0.0220654880603252,1
0.381116701172846,0.016432987661603,1
0.33873594868848,0.0146696401197655,1
0.310801321838186,0.0243901744370484,1
0.292145360177092,0.016580022662404,1
0.278261905256109,0.0154189705549928,1
0.249950161145513,0.0135317746065001,1
0.231333632544655,0.0166401060699989,1
0.221032051426491,0.0177704465291589,1
0.158238706337582,0.0116952116995604,1
0.0883250395551524,0.00428285300953512,1
0.0899469500061727,0.00516639705570287,1
0.159576294593455,0.016178644714047,1
0.159027565839988,0.0134972494459546,1
0.154042309569946,0.0216930898874038,1
0.138008997599305,0.0194467721692132,1
0.12774393158106,0.018531270752792,1
0.129598244133437,0.0188412992561204,1
0.192683309143606,0.0261647159248542,1
0.213234211199773,0.0403348216446966,1
0.154357629163125,0.0251337401514668,1
0.123023128132279,0.0247445454664272,1
0.219207459560654,0.0303291396661157,1
0.238614467112813,0.0260636740967354,1
0.217508691702908,0.0225510073923311,1
0.21319207605829,0.0235666895987623,1
0.230789169036388,0.0252269022651822,1
0.235433895655475,0.022496718519511,1
0.211506186498384,0.021149070652858,1
0.202180850011928,0.0185525836670097,1
0.216937868598725,0.019227745260803,1
0.2540156194155,0.0252076405312158,1
0.226056804442551,0.0313631676044075,1
0.255836403235857,0.0662093199544407,1
0.253176534345471,0.0519719800899848,1
0.209935352214924,0.0434587322620924,1
0.114247316756948,0.0279288073816751,1
0.0555456809958852,0.0185631305730791,1
0.0518338945000931,0.0176129992559718,1
0.0653043125645516,0.0204289437324651,1
0.0711600119084403,0.0258482840224963,1
0.074135519209508,0.0272829598695473,1
0.0736778106109242,0.0269814724133523,1
0.0740680242313132,0.0240844588309585,1
0.0762641347025823,0.0388912410131246,1
0.0518837286304245,0.0147039798179557,1
0.0534105545988127,0.0152598516676159,1
0.049759028127224,0.0168763537580361,1
0.0479163216352937,0.0164729917737699,1
0.0424448015517356,0.0123771377677471,1
0.0396727376984432,0.00866726693698054,1
0.0367213295743584,0.00813329971972113,1
0.0376548039161937,0.00943067513834042,1
0.0441026888642615,0.0125967694427881,1
0.0411546966720222,0.0126526326363097,1
0.0386179782622283,0.0300731241266007,1
0.0289806750125674,0.0221173019634901,1
0.02326159133714,0.019686134037421,1
0.0274957169503472,0.0249137862428203,1
0.00987615499721552,0.0107426771793689,1
0.0111702058740218,0.0217528705410194,1
0.0118772820670296,0.0197375761767225,1
0.00771597118932022,0.0144038115923658,1
0.0119135935873528,0.0247868647679043,1
0.0126222722660548,0.0193696201469705,1
0.0187837761181149,0.0214125346265181,1
0.0242327704299591,0.0267038825034757,1
0.0282872357183173,0.0300885749445995,1
0.0317381856825088,0.0360839831470241,1
0.0356052633544823,0.0400108701437541,1
0.0422542195290712,0.047964614005982,1
0.0482093745137721,0.0619446204468286,1
0.0505548896088647,0.062835726845279,1
0.028330144381817,0.0433738700579866,1
0.00816004015539015,0.0226168652635776,1
0.00654885358756652,0.0353747376260104,1
0.0115504621152836,0.0464736404649973,1
0.0157013546022921,0.0562785733205544,1
0.0192045653770512,0.044519578555518,1
0.0196122189286709,0.0419554198357291,1
0.0215359054530812,0.0435878495537302,1
0.023612239069606,0.0496754494803539,1
0.0209977216392335,0.0347613342647217,1
0.0201561830203836,0.033681819277645,1
0.0208108559269749,0.0339934032586701,1
0.0207608265588328,0.037295523978237,1
0.0165123074681635,0.035494932674671,1
0.0117908217039875,0.026721369025384,1
0.0059163980360637,0.0178466574864381,1
0.00807843549341256,0.0112930884667447,1
0.0176878250848929,0.02156095390211,1
0.0142759515523547,0.0136833054539078,1
0.0144430737694635,0.0161862192600012,1
0.0147228129393904,0.0165976338044849,1
0.0129466701504981,0.0138216609417405,1
0.01625826683334,0.012397008248663,1
0.0200857453469797,0.00891728853834088,1
0.0177832069541723,0.00695965692147913,1
0.0151178455461617,0.00518602894499595,1
0.0147619346416919,0.0104173177522878,1
0.0128170471625785,0.0103485125392256,1
0.0125213122134262,0.0113732479589959,1
0.0137828708675783,0.013724391156364,1
0.0140477188614236,0.01015673011941,1
0.0130335725914244,0.00893217392827692,1
0.0156478650983628,0.0214753388636166,1
0.0197218720217035,0.0448418066267722,1
0.0202929148719904,0.0280176866422048,1
0.0256777214538697,0.026381788735778,1
0.0390441141490131,0.025603800729596,1
0.0418432927826929,0.0173411935595484,1
0.0421550166009602,0.0194946872457556,1
0.0405084119481345,0.0176751728302254,1
0.0400320946676984,0.0145182407171118,1
0.0466345966781946,0.0173321295349622,1
0.0484725795605571,0.0175183343943644,1
0.0480954120828898,0.0173278135547795,1
0.0488313826778982,0.0163122663514228,1
0.0441545113975942,0.0145456989594212,1
0.0213403561484967,0.0052080813509032,1
0.0211364895070425,0.00726408512785954,1
0.026439267380367,0.00850031455621538,1
0.0258663583173921,0.00591914381482188,1
0.0252816404584974,0.00958426734282103,1
0.0237288855650863,0.00817621470938478,1
0.0281784130326797,0.011101371691509,1
0.0293798559968339,0.0112226951309112,1
0.0276878375463238,0.0189011589951999,1
0.0199028551288382,0.0159428078737571,1
0.0204206988352119,0.0170502853535603,1
0.0173716338959122,0.025088702544561,1
0.00375473598291787,0.00285158057801533,1
0.00316445851490423,0.0136352424845932,1
0.00327692544248608,0.0127363368787829,1
0.00334399049979554,0.0135998056051979,1
0.00288800668337647,0.00978338112793177,1
0.00288308663241692,0.0103185424645534,1
0.00267288865684149,0.0110622938756123,1
0.00326975965719533,0.0175050362334666,1
0.00453275060727235,0.0269650223785804,1
0.00549126382416694,0.0320829437537624,1
0.00562001947685477,0.0294592248471778,1
0.00581775554711764,0.0313679081033128,1
0.00521844661452518,0.0383606946191857,1
0.0055075117354503,0.0498499422713442,1
0.00329041081029427,0.0502354918870938,1
0.00150682551005069,0.0404751610272792,1
0.00118704083539938,0.0309988924321679,1
0.00137381720826193,0.0317951808307362,1
0.00154825952587826,0.0409476757466827,1
0.00176096124215094,0.0327667514609651,1
0.00489801532707356,0.0666231045769889,1
0.00851106935095183,0.112473369562876,1
0.007448154826579,0.0592352326631451,1
0.00888931997383069,0.0156775477998789,1
0.0151923604689815,0.020858863538321,1
0.0139317132420571,0.0140040295261338,1
0.0134416320555184,0.00565119134330841,1
0.0188509100851277,0.009917813222922,1
0.0169430326383046,0.00564919120568541,1
0.0151403957354164,0.00410381838874364,1
0.0372483491379636,0.00516002825232853,1
0.0664218983558934,0.00876816083390194,1
0.0605375923459689,0.00855299301815659,1
0.0667454952258627,0.00825732696638621,1
0.0821962659762523,0.0110353956077936,1
0.0704418846163682,0.00853891672684154,1
0.0605190530405567,0.00795810132259975,1
0.0602182256832774,0.00797555413132823,1
0.0502381938454195,0.00608811580574459,1
0.0441853135189744,0.00377523731005446,1
0.0477358370375687,0.0166471805344403,1
0.0356866439510592,0.00886906805599023,1
0.061845809456098,0.0100093288240646,1
0.109845639107142,0.0408634728040246,1
0.239810746997041,0.0493940874644464,1
0.342947978232009,0.0364024201237015,1
0.338137084041037,0.0386875401830141,1
0.328999871208125,0.0319456961210475,1
0.322004983015797,0.020953392029539,1
0.319720625995683,0.0190252457665102,1
0.237725859661217,0.0122461267399733,1
0.183481924076029,0.00686121805843033,1
0.20602552191727,0.00685790268607187,1
0.210046008302106,0.0060388645221932,1
0.191256757286303,0.00533831322803818,1
0.236066099660418,0.0112618734048178,1
0.236856349411936,0.00776625104870286,1
0.180994170663013,0.00529531615882295,1
0.165111294966701,0.00867233491850024,1
0.200427107483968,0.0105035268431618,1
0.185638805476721,0.00924229349700297,1
0.182861514540742,0.0102878271711614,1
0.179659712982172,0.0129520729332781,1
0.184179135012266,0.0147875880476843,1
0.177810574922408,0.0148577284867401,1
0.0936597205539287,0.00331779595676542,1
0.0934591573342859,0.00563687710746379,1
0.0930337372554247,0.00543541877047729,1
0.0927445450276265,0.00654178089081267,1
0.0814163241003529,0.00747811810123547,1
0.0669563724270725,0.00705438333555598,1
0.0670889959145801,0.00988807249766453,1
0.0792537220088117,0.012617130217799,1
0.0854219018601241,0.0129048118648879,1
0.0995349008210041,0.0141346714009611,1
0.109304714677942,0.0195553825898169,1
0.076931791122362,0.0107407621932662,1
0.0675165702604723,0.00845697341481395,1
0.0688659957446368,0.0107376923403894,1
0.0838995654671228,0.0134877385339351,1
0.134431196786919,0.0206535993993627,1
0.166963017088525,0.0316281924612459,1
0.15321256529228,0.0280509487896583,1
0.154944353601045,0.014612075191346,1
0.147363328103205,0.0190673106362518,1
0.174957166877432,0.0236377342020932,1
0.177990305056541,0.020428460084424,1
0.195323197257579,0.0170125835676157,1
0.199230723070071,0.0138825865645432,1
0.199059103383481,0.0143685406149734,1
0.168610783121941,0.0116010073531564,1
0.135834686132993,0.00831282464251192,1
0.126430994276877,0.00663610299315316,1
0.141895493693963,0.0108030575780074,1
0.13469870469242,0.00852459492623906,1
0.125344291055815,0.00831386213482786,1
0.122876000828968,0.01013179518315,1
0.138951861758118,0.00415972527613331,1
0.170663466105148,0.00889408354701516,1
0.158428421704159,0.0085659572512297,1
0.140912339667446,0.00635551645506461,1
0.146827532178265,0.00504493164899389,1
0.191676016343589,0.00925667359018423,1
0.176447267288221,0.0089005861345973,1
0.213031338174881,0.0124317595580908,1
0.222902383784991,0.0121180862642272,1
0.20505112340785,0.0110609653768538,1
0.206047103356313,0.0240050650237637,1
0.165725168750686,0.0210208178680085,1
0.120014440996696,0.0141728836517974,1
0.0708878075795867,0.00623524073121699,1
0.0758824736710165,0.00912787297781396,1
0.0831056159693534,0.0039463777352942,1
0.113796332201515,0.00896123565081053,1
0.126026557700805,0.00987249074747545,1
0.123110107897052,0.011617727798141,1
0.116391316392561,0.0098449202118083,1
0.122170588254718,0.00890886292410059,1
0.123468191336169,0.00878121900808224,1
0.119149721616722,0.00802138073637613,1
0.118251967743484,0.00633140854573484,1
0.0745646698814377,0.00191902233858015,1
0.0679564315008613,0.00460004892575682,1
0.0797959062317713,0.00754518238111714,1
0.111201589778341,0.0118331251039714,1
0.113228397416934,0.00947183595740854,1
0.0936756612482463,0.00858644602247822,1
0.102622583152927,0.0120553354262197,1
0.100760757414318,0.00974083674468077,1
0.131659770635763,0.0111045558173902,1
0.15253169788792,0.0157887501445569,1
0.114886560671806,0.00944078720214989,1
0.104166010087224,0.00746401727428079,1
0.113067621653728,0.00536787199975275,1
0.117457590239579,0.00672355067828081,1
0.109949510113717,0.00619832232480791,1
0.0907322459120698,0.00207786254750013,1
0.0934094138466464,0.00311077772865698,1
0.08913388888207,0.00297626432809585,1
0.0901308108709758,0.00728493316474136,1
0.0695169993601221,0.00320235211970762,1
0.0812679501313807,0.0031776594652953,1
0.0880051168161019,0.00927372074509086,1
0.073158444252754,0.00352369452602047,1
0.123021858101591,0.0102218030578783,1
0.123485538550582,0.0105245659151708,1
0.137475063370473,0.0137266809925833,1
0.143638287575322,0.0151005003691234,1
0.153220737234213,0.0181280498833881,1
0.138338151926027,0.0149639975456362,1
0.136868960089952,0.0158809630826353,1
0.114486457892579,0.0178681192059668,1
0.067710189102562,0.00854748817837413,1
0.0523085374439161,0.0156976977305452,1
0.0339192651079724,0.0136330623478133,1
0.0386805669012863,0.0188658127267845,1
0.0492550126049562,0.0287317570032294,1
0.0417375741796748,0.0239509522985066,1
0.035567397922962,0.0170382240963053,1
0.0331423714921,0.00906816307517725,1
0.0329353270415715,0.00854988943088104,1
0.0360095613753305,0.00665812783640535,1
0.0387214427301234,0.00706823289583983,1
0.0373455512656569,0.00717609296697273,1
0.037211077902269,0.00570265207355765,1
0.0376415675750906,0.00537410197113181,1
0.0451859069461238,0.0099724527832951,1
0.0540848153346112,0.00930656501086852,1
0.0575517323474454,0.0101908656979466,1
0.0562075402134402,0.0117624724133871,1
0.0461847054725957,0.00663816449440473,1
0.059728463056552,0.0131952143836055,1
0.0647170233647143,0.0162302629357464,1
0.0664329823819683,0.0135165053413642,1
0.052027796947543,0.0100955939534427,1
0.0451256636591748,0.0120332912170893,1
0.0436943496622134,0.0118003172060244,1
0.0407191453151136,0.0149086467404924,1
0.0250853389309187,0.00995930329757762,1
0.0180563620432916,0.00736942859270394,1
0.0177117129044268,0.0119484359096821,1
0.0251096442999706,0.0180112198727245,1
0.0371738136622081,0.0215045635927995,1
0.035743046214073,0.0177966541920008,1
0.031910419550102,0.016614786909196,1
0.0322099172056486,0.0177907255421273,1
0.0288136769445903,0.0170718701850148,1
0.0204243099330696,0.0115598578237542,1
0.0231675812220092,0.0158733050367131,1
0.0271514515385166,0.0199810196970458,1
0.0271451079465611,0.0164629735816344,1
0.0255208439219026,0.0208302835224812,1
0.0252361390091007,0.0125859092592507,1
0.038693408401161,0.0263162104832429,1
0.0373908896494829,0.0282890619553026,1
0.0393417586113857,0.0294024573112392,1
0.0421499509474181,0.0299704638269886,1
0.0445169783383421,0.0260498110019222,1
0.0451343010737086,0.027222002243892,1
0.0380473224198565,0.0232535800804671,1
0.0338829315434718,0.0235376144285072,1
0.033616589985351,0.020348017008733,1
0.0387327776352847,0.0444505178766385,1
0.0310403398444615,0.0435193635339347,1
0.0268378930816054,0.0398235834755763,1
0.0214348438722199,0.0325856072938796,1
0.0110020053418042,0.0190214094221775,1
0.00997418244712522,0.036941351171445,1
0.00992825331874732,0.0363388686381588,1
0.00981148911610851,0.0393762451282582,1
0.00557095820256134,0.0211266426620405,1
0.00286818735478159,0.0141684553153284,1
0.00304865872002475,0.021388471234618,1
0.00207086183399275,0.0225175051897383,1
0.00286939931751791,0.0175459995855079,1
0.00716193264256926,0.028415127133295,1
0.00653839740147216,0.0216315804944353,1
0.00800956358878009,0.0228234347658644,1
0.00860912920082111,0.0192672382538411,1
0.00827019284601313,0.0192671799276501,1
0.00773118876207619,0.0199790605540203,1
0.0079159787279156,0.0208270993353669,1
0.00874596621175748,0.0222299641884394,1
0.0090552770519947,0.0228212263677749,1
0.00830506874508824,0.0357275236523865,1
0.00328075869977122,0.0198759857850509,1
0.00235809720921208,0.0128044088482341,1
0.00255801078660816,0.00800867491945265,1
0.0134086989427821,0.0347021071325302,1
0.0200670742827339,0.0218312350085585,1
0.0202849791324767,0.0175482637770693,1
0.0265716057385014,0.0208342441920588,1
0.0260971666216935,0.0128788893939555,1
0.0287874729053774,0.014428370501323,1
0.0285312787006867,0.0126764310742992,1
0.0247935780440227,0.0114072385771335,1
0.0224906202189719,0.00971848950567973,1
0.0242505595402865,0.0120025053644017,1
0.0210766065468094,0.00163431311217122,1
0.0352836171744696,0.0129204710457823,1
0.0369038361888955,0.0148382325682692,1
0.0341089318841799,0.0152270923445539,1
0.033384299224246,0.0211994481420247,1
0.0297078330907276,0.0175870696552646,1
0.0265407389668676,0.014005519427995,1
0.0288572701891043,0.0138182289655473,1
0.0323366935568387,0.00997990431551818,1
0.0284763110546763,0.00880728854131973,1
0.0276860254288641,0.015264354897271,1
0.023882397758838,0.0147107298392953,1
0.0309908254127284,0.0195618123698814,1
0.0372817980831423,0.0222525624007502,1
0.0390427579613094,0.0235002572203823,1
0.0336181131638251,0.0217715557275731,1
0.0348875420884176,0.0246625211377943,1
0.0386618620513429,0.0284036995729845,1
0.0383307942831198,0.070746641681543,1
0.0120853296008721,0.0223887069704954,1
0.0085066593302051,0.0432046066316322,1
0.0123720057273428,0.0523718405079478,1
0.014559311153844,0.0647018858840738,1
0.0175928669440929,0.0801157454473189,1
0.0201680766909377,0.0962518190487238,1
0.0213659797376919,0.0759844340356941,1
0.0176852854055716,0.0632241022692897,1
0.0120054092722977,0.0508297262244181,1
0.00695797149857978,0.0185215886150493,1
0.00900477102535263,0.0303566300403234,1
0.0125432369593119,0.0432559382234184,1
0.0136746434228121,0.0440585677818291,1
0.0141249255699287,0.0306462408184974,1
0.0195482900506878,0.0370716770286996,1
0.0224956201041094,0.0433281680623186,1
0.0240108767729493,0.0509650081092323,1
0.0249665931067306,0.0534822305025715,1
0.0265328220061491,0.0524450974988541,1
0.0287785355189854,0.134546826143465,1
0.0218178845979647,0.0996986052455096,1
0.0120516966045289,0.0687905190388478,1
0.00366020240155451,0.035426058539163,1
0.00191925601683096,0.081934484684153,1
0.00207558544131982,0.110211606630707,1
0.00187796264109012,0.106983865433177,1
0.00143310434754083,0.0796781335988482,1
0.00128342102128545,0.0741901428500665,1
0.000993157714149466,0.0457491887149981,1
0.00209250381490562,0.0391718171467779,1
0.00243462533472094,0.0225014644935975,1
0.00246432198894843,0.0234761161164958,1
0.00271416840189455,0.0223594105738396,1
0.00259762680273181,0.0156661067037315,1
0.0027033641237638,0.0172249512589219,1
0.00268361406087683,0.0172243748192649,1
0.00284972369076071,0.0172931592291071,1
0.00356823200300019,0.0218584272688725,1
0.00420403793707384,0.0290099244048805,1
0.00303751733165883,0.0348206075838682,1
0.00225021403305151,0.0594155150544193,1
0.00239504090664623,0.063272802871218,1
0.00170075033200677,0.0776731020895066,1
0.0011294007067488,0.12977715020083,1
0.00110664661027772,0.135041036310441,1
0.000705909094590844,0.0732913759365445,1
0.000716563816089358,0.0962730345387326,1
0.00072626639354484,0.0694568696323117,1
0.000766028593080841,0.072445573625906,1
0.00074083067017612,0.0714818612493842,1
0.00087297969001669,0.0674220939312151,1
0.00104627137076073,0.0732915698074635,1
0.001131452535602,0.0438763498803859,1
0.00293218574785317,0.0562947432568676,1
0.00294559485954833,0.040553320084126,1
0.00294737788846009,0.0419328847025343,1
0.00300700738850402,0.0430721609713916,1
0.00313787538539891,0.048320933285118,1
0.00277463493495773,0.0447671612719778,1
0.00200067069796997,0.0294563565339968,1
0.00241216777311914,0.0299956331818951,1
0.00264206387254752,0.0325252420390624,1
0.00281193905872927,0.0440099820255618,1
0.00299744307870544,0.0707824195597021,1
0.00351736290216123,0.102312116677627,1
0.00380228347471714,0.120609093944796,1
0.00405644330383276,0.135663372371117,1
0.0033627581075572,0.167489480903933,1
0.00160700873653264,0.112376241173716,1
0.000438674996155304,0.066252633764962,1
0.000359824681799465,0.134518738922103,1
0.000225864263884106,0.233302490249627,1
8.50053459429487e-05,0.398597270930334,0
9.31400720052666e-05,0.482228879508081,0
9.22652075532604e-05,0.511195433858942,0
9.30139856224952e-05,0.627233375302601,0
8.90979993468964e-05,0.978633378446556,0
3.50158207105419e-05,0.834479945239193,0
1.02893534859555e-05,0.595004133737771,0
6.63399958825466e-06,0.475562842153963,0
5.63028596043457e-06,0.420286765591159,0
4.20939450457244e-06,0.393926856439928,0
4.02549711387325e-06,0.407620369181397,0
3.93922469731823e-06,0.398359721930118,0
4.66045830532431e-06,0.384578033691229,0
6.11857366144389e-06,0.435819984262185,0
6.69353721345575e-06,0.455679508146147,0
6.66722957151107e-06,0.457197284546976,0
5.90958556112794e-06,0.529286333966601,0
3.77465303974968e-06,0.532078044912157,0
3.78891562854926e-06,0.574618970089978,0
3.92241405725568e-06,0.593453477708798,0
3.67065331583156e-06,0.561439365581285,0
2.60609288488325e-06,0.469996050400011,0
2.3110398272445e-06,0.539896595957417,0
1.62514860804334e-06,0.436181072949591,0
1.38220507072019e-06,0.415225760773323,0
1.45654307282955e-06,0.420094816589724,0
1.59937959450128e-06,0.411702940964823,0
1.73626356741078e-06,0.459237709382565,0
1.59985986915947e-06,0.436304321807929,0
1.54401589593207e-06,0.421467618805926,0
1.62837729738137e-06,0.432581335671249,0
1.75141910854919e-06,0.457031422110372,0
1.75885094807431e-06,0.467260610811717,0
1.706822282707e-06,0.460063328906489,0
1.61319253268775e-06,0.437555258479794,0
1.63329656472015e-06,0.431947382734563,0
1.40481878059321e-06,0.435164708501926,0
1.52566910521805e-06,0.454518421022745,0
1.82884341686017e-06,0.497496554442982,0
1.75947323240496e-06,0.445058989964807,0
1.87386151005418e-06,0.470475899905093,0
1.82472252211124e-06,0.470322010611477,0
1.8300309389009e-06,0.474569438298349,0
1.92091796956576e-06,0.470809734045357,0
1.94515120592031e-06,0.463815637687033,0
2.03248472696411e-06,0.488913561739444,0
2.36858698288144e-06,0.544139097132957,0
2.24881475535576e-06,0.534398797493143,0
1.54876822487878e-06,0.438909168864766,0
1.48009604457298e-06,0.463151006008453,0
1.36380375426737e-06,0.439189790190518,0
1.34079165171035e-06,0.439392975088167,0
1.41722488002587e-06,0.435611997408626,0
1.39916752388424e-06,0.446472431478498,0
8.33043210347268e-07,0.340618902641687,0
8.47097032790763e-07,0.355990233947505,0
8.20305848378205e-07,0.337449614057229,0
1.01065669638184e-06,0.372877908795687,0
1.20040206593323e-06,0.378911229982962,0
1.67985407637533e-06,0.47057479133214,0
2.07939133405999e-06,0.539347990687783,0
2.17684124697086e-06,0.539634996066996,0
2.226554809223e-06,0.568860855802456,0
1.71965142344531e-06,0.526419547358331,0
1.718396584525e-06,0.544388024676616,0
2.10336183851559e-06,0.59019626826662,0
1.84892718847251e-06,0.516363803840599,0
1.26726780104333e-06,0.433999762466366,0
1.36500630823267e-06,0.501818677299401,0
1.51259179767542e-06,0.515312682955919,0
1.57743569224837e-06,0.516238974750834,0
1.62399357736751e-06,0.534550975209585,0
1.62892255476936e-06,0.547262638744745,0
1.86690527688769e-06,0.585235243762817,0
1.86956209953028e-06,0.514256985646302,0
1.22546569941256e-06,0.415214408781705,0
9.72812099015596e-07,0.387796982792262,0
1.05161028788553e-06,0.392489238796617,0
1.31856167606073e-06,0.422497921297503,0
2.33117523024991e-06,0.569433919547334,0
2.51866114281682e-06,0.560574534073894,0
2.8746865808418e-06,0.586317634185726,0
3.32273428661735e-06,0.631626010724589,0
3.7078017763682e-06,0.666512888283316,0
3.62764520569383e-06,0.714851075126548,0
3.21549784388596e-06,0.685942127864596,0
3.29438697123123e-06,0.698826039504549,0
3.40676442553025e-06,0.692339365361465,0
4.26647632410976e-06,0.73442661790118,0
3.37542482349554e-06,0.602710251830215,0
2.95189101224375e-06,0.582954248521274,0
2.84318041387897e-06,0.58599930616367,0
2.51079972636667e-06,0.523461971247789,0
1.90632038359013e-06,0.445359794599248,0
1.71402332150214e-06,0.437166201241708,0
1.66248155977838e-06,0.427871927942315,0
1.86672648101475e-06,0.470869238301815,0
1.81652097335553e-06,0.490080896945914,0
7.24755840020117e-07,0.347951810325037,0
7.78836409773713e-07,0.396202173374964,0
1.01273642383347e-06,0.435888225581529,0
1.01430945405142e-06,0.431342501506132,0
1.136211079736e-06,0.501985795287709,0
9.04106960514945e-07,0.46309878776852,0
8.24036286552382e-07,0.42662190960345,0
8.18866891723459e-07,0.434104283094212,0
8.14244808334328e-07,0.419729545521039,0
8.53849261266711e-07,0.398092265008771,0
1.08528114535188e-06,0.444298771697338,0
1.02814414651382e-06,0.463355553121844,0
5.90954158574614e-07,0.363041753463617,0
1.03275306529821e-06,0.446514413661525,0
2.20496411051439e-06,0.63793914481074,0
6.17407040655041e-06,0.278584703147694,0
6.69679687229303e-05,0.409449769483212,0
7.60839087964363e-05,0.282844611302112,0
7.42484372345024e-05,0.28918047217517,0
7.32045404713371e-05,0.276275268140951,0
7.01395031358577e-05,0.26464393518908,0
6.74223399205508e-05,0.266385835061162,0
6.25589143142122e-05,0.252528521885846,0
6.03833292132855e-05,0.236992467834066,0
6.15100766227982e-05,0.243254597290443,0
6.34959279315564e-05,0.320581124912626,0
1.57094222761674e-05,0.314931376494974,0
3.77717644239099e-06,0.475311178628836,0
5.12200972112383e-06,0.519437629632903,0
7.42301317115564e-06,0.634583250054368,0
7.75689182262906e-06,0.588608092599945,0
6.9852364713284e-06,0.56451937394742,0
7.01598740078926e-06,0.705076934441831,0
7.18964226216742e-06,0.810678158827769,0
7.12134877432151e-06,0.810082004999171,0
6.58381639506733e-06,0.76969672516381,0
7.18679786724872e-06,0.685495274206972,0
7.56462613151408e-06,0.673825596158286,0
6.98924364630018e-06,0.726714173970588,0
4.78985806038768e-06,0.586892260850627,0
3.57814937293293e-06,0.527988779655723,0
4.131597479225e-06,0.572096106290113,0
5.3033000532537e-06,0.647367858998013,0
5.42990695142546e-06,0.536623184523518,0
5.6254295284078e-06,0.515426355454725,0
5.52113635517967e-06,0.511513088225912,0
5.06468972494323e-06,0.555252905005481,0
4.1511584946532e-06,0.542173112865077,0
3.26008878767072e-06,0.460021221789094,0
5.65496940759817e-06,0.476917053871957,0
7.55328179013214e-06,0.440872584573517,0
7.17893719772651e-06,0.423225922909678,0
5.81778587790014e-06,0.379221866018907,0
6.62681712929175e-06,0.47470442231068,0
7.83695605433825e-06,0.530820459359826,0
8.33870489047959e-06,0.549132747528179,0
8.15813506370301e-06,0.536352660537408,0
8.18824568919694e-06,0.53711261664374,0
8.30848568033801e-06,0.560285576748986,0
4.84246073986824e-06,0.630610389260217,0
7.57033116703391e-07,0.358117329485202,0
1.4388760798967e-06,0.522925125717561,0
1.5362133934223e-06,0.518638045370574,0
1.56097778890018e-06,0.511434028505328,0
1.33911489187629e-06,0.463035791113756,0
1.41945810116685e-06,0.462922416314548,0
1.51194570501705e-06,0.445593367484105,0
1.57117708976734e-06,0.438698118780762,0
1.54394904588244e-06,0.442218326113404,0
1.03712670178503e-06,0.364629222897859,0
8.89041424191952e-07,0.363305877082946,0
6.28404658092447e-07,0.304567302266129,0
5.93403615350976e-07,0.304307031934901,0
5.86703018268104e-07,0.305110477323936,0
6.82822839269842e-07,0.332881171825037,0
7.08975773767277e-07,0.324616458373764,0
7.10528356833186e-07,0.319989002013165,0
9.09682123941166e-07,0.363056694774741,0
1.40439303167382e-06,0.452658270935649,0
1.45536712817172e-06,0.428639571647013,0
1.33878988486129e-06,0.403891530534326,0
1.22736476367143e-06,0.366706536841779,0
1.2152309194688e-06,0.350955272270273,0
1.17023859528833e-06,0.348430448344633,0
1.23817841275998e-06,0.359760373663197,0
1.31837046251097e-06,0.403167829823458,0
8.70655793225641e-07,0.349385670492533,0
1.00210437159759e-06,0.372128127352697,0
1.0516924499577e-06,0.357005220885517,0
1.1677897920739e-06,0.383927647323866,0
1.07952793298065e-06,0.378062085755574,0
9.95610113355038e-07,0.382032117700756,0
7.27884254283717e-07,0.345117071908406,0
7.52438016085689e-07,0.350753773112615,0
7.73727702838999e-07,0.34880640660166,0
8.56092939398699e-07,0.359511356503595,0
8.52117882327856e-07,0.358810323743616,0
7.77378406456782e-07,0.345396045822837,0
8.33735612537224e-07,0.391090020446047,0
5.42900083448189e-07,0.319638336157659,0
5.35454425756383e-07,0.316583359055916,0
5.3809033441696e-07,0.331447157307178,0
4.43133386834304e-07,0.312633626531682,0
4.48179631920974e-07,0.317496695503549,0
4.56049638042304e-07,0.329487636796477,0
3.06991113358056e-07,0.288012022394737,0
2.34443590859907e-07,0.260827695577721,0
1.99777078464525e-07,0.252611839933113,0
2.49487466272965e-07,0.270159689146348,0
5.79548849200494e-07,0.424423844572837,0
6.11940872686824e-07,0.44499434450647,0
6.10236103055431e-07,0.451693939790538,0
8.52432992547799e-07,0.475104718302608,0
1.1555341052529e-06,0.505923124118009,0
1.07564540160698e-06,0.461035145649725,0
9.97081561374685e-07,0.420488930215184,0
1.03526003552508e-06,0.401518301707791,0
8.71726981241466e-07,0.354731979132009,0
8.86026169509558e-07,0.358840785808421,0
8.71205252083232e-07,0.345393194377092,0
9.08856395115927e-07,0.356938096227371,0
9.08208061673768e-07,0.356810747031128,0
8.33056655049986e-07,0.355317429125183,0
6.36117155786801e-07,0.329463585463079,0
7.6332224986351e-07,0.377062228316657,0
8.29854201555448e-07,0.391276780378339,0
7.2265650571036e-07,0.376357931915234,0
6.40927651745958e-07,0.38692562192612,0
4.87209137080196e-07,0.349972167754707,0
9.14428010634486e-07,0.42408044040679,0
3.24676872855123e-06,0.680711221206448,0
3.46016155622903e-06,0.604296655785872,0
3.77860382166284e-06,0.625339296601694,0
3.69696086441025e-06,0.615356946623133,0
3.2463486749573e-06,0.565422526920009,0
3.20192663025044e-06,0.580856380114857,0
3.1923341149594e-06,0.58525146849883,0
3.16700028030184e-06,0.575801546093986,0
3.26703960560972e-06,0.583079726629178,0
3.10923240746195e-06,0.623335216842155,0
1.35795465502328e-06,0.459841017348733,0
1.38309316802748e-06,0.535045951069243,0
8.78789838369789e-07,0.43878215821667,0
6.32121371465934e-07,0.361736934201489,0
5.69378678522563e-07,0.359805517324345,0
5.69347400915546e-07,0.361061097719885,0
6.25578282810037e-07,0.364407607321856,0
8.01287102626283e-07,0.411621030514673,0
7.94918048177787e-07,0.423363876932721,0
5.83234938528902e-07,0.374724233670061,0
5.42596924075105e-07,0.401926638130482,0
4.62473218229599e-07,0.381130654003802,0
4.25164541652238e-07,0.359496984346565,0
3.47123550970076e-07,0.307278577440034,0
4.58178756103221e-07,0.337983076068584,0
4.54257384477256e-07,0.325303235802347,0
4.3079600477109e-07,0.338992861897448,0
3.28727182914789e-07,0.301180932709313,0
4.39434226267144e-07,0.339278281977209,0
5.05408782992247e-07,0.339895114294042,0
6.66819628298286e-07,0.396680911523158,0
7.15247447487062e-07,0.397892477882531,0
7.38022400426703e-07,0.405617465078937,0
7.67755267120673e-07,0.42223425043354,0
7.45579443745885e-07,0.430108768825303,0
7.8732552578199e-07,0.427285494450146,0
7.57506762376213e-07,0.42077265542467,0
6.89683372295458e-07,0.405759488184108,0
4.450048147598e-07,0.321069526844197,0
4.24910119326507e-07,0.328031283837087,0
4.10401044310436e-07,0.2976062827106,0
4.44687370390079e-07,0.316372266378716,0
7.05667629970819e-07,0.403556571059585,0
7.25896025503361e-07,0.40237503107496,0
6.81115362024706e-07,0.373731643901275,0
6.85415146012578e-07,0.377125890842149,0
6.92824204235874e-07,0.365772657549325,0
8.09938021897127e-07,0.382773478468596,0
8.09391270653277e-07,0.377262366404726,0
7.6649417267896e-07,0.376403107814236,0
6.37814922968862e-07,0.355186511261171,0
6.22134198130547e-07,0.340672589950028,0
8.93825497575629e-07,0.39808749616521,0
8.29613317298424e-07,0.372820016802637,0
7.27070849769302e-07,0.351795533116158,0
6.86782024122199e-07,0.342198210674867,0
6.70991500878357e-07,0.343943956580594,0
6.53559790243058e-07,0.337580461262157,0
6.76201323181425e-07,0.349728442771925,0
5.60374462341419e-07,0.328243700867207,0
8.30790755812115e-07,0.378992963354648,0
8.80489099407704e-07,0.381034359433098,0
6.61624277723838e-07,0.341398189125467,0
6.34466445064252e-07,0.347904794146305,0
6.26487294099332e-07,0.363859094739011,0
6.54528462400663e-07,0.381088277676242,0
8.34960574340382e-07,0.391926322025198,0
1.07849073018558e-06,0.451543273997736,0
9.92673286105163e-07,0.432759623616559,0
9.57640498926719e-07,0.421236445601881,0
7.89886741649691e-07,0.400241156133594,0
7.26914088270255e-07,0.406860534586413,0
7.3394678818345e-07,0.407596994723378,0
1.05680517163003e-06,0.480503776946815,0
1.0484381783381e-06,0.441692001031169,0
8.33491740568485e-07,0.380305127731903,0
1.07718360631026e-06,0.483426453822805,0
1.17068488472576e-06,0.531001044486236,0
1.21366003666863e-06,0.504058548330484,0
1.30090019172135e-06,0.517958734086057,0
1.3004404575812e-06,0.524653001980686,0
1.29295241172943e-06,0.526337338639924,0
1.29298079499073e-06,0.54070496845271,0
9.56052810248158e-07,0.482127529215538,0
6.71102793139742e-07,0.435329910582755,0
6.71822925029054e-07,0.428573962675622,0
4.96238095248982e-07,0.339878162326922,0
3.38604837942622e-07,0.252389619122386,0
3.93450355261255e-07,0.285784288758641,0
3.99049233649213e-07,0.288857522201368,0
4.62835384909055e-07,0.298667761424315,0
4.66728373273728e-07,0.294597049278109,0
7.94185311879677e-07,0.350256597459406,0
1.50413283888227e-06,0.452539191349553,0
1.5371769304504e-06,0.443516286546885,0
1.54363309536859e-06,0.458444305546417,0
1.44750449796369e-06,0.46294977737183,0
1.54524001744131e-06,0.470505378727212,0
1.68352746792894e-06,0.440612960686537,0
1.56332388952441e-06,0.421286818820626,0
1.68714213227416e-06,0.4431753606034,0
1.89028570827958e-06,0.462900264524936,0
1.79341877261711e-06,0.461787511997531,0
1.35159792488561e-06,0.409100531058957,0
1.28735941539892e-06,0.420432323371384,0
1.38701874112304e-06,0.421568094412576,0
1.52439027123804e-06,0.446886197311496,0
1.53694911743213e-06,0.501886515820293,0
9.09407161097393e-07,0.421647695358009,0
1.09600254884124e-06,0.465832935957613,0
1.14699718585718e-06,0.44828293584553,0
1.13096017639685e-06,0.447555182467029,0
9.23483017914786e-07,0.433730720653741,0
6.78839939455744e-07,0.374825673083573,0
7.14369340340819e-07,0.369990694997983,0
7.08481307478441e-07,0.36945270926392,0
8.08997359536849e-07,0.385475035467626,0
8.04743604982588e-07,0.377986243181535,0
7.71407091130347e-07,0.387619849674454,0
4.081159116784e-07,0.2973055003609,0
4.30573326882329e-07,0.318589007624826,0
4.34412536436132e-07,0.317549612323343,0
4.50457015175749e-07,0.308067783646074,0
4.65283814659515e-07,0.31973798250492,0
3.83034445294762e-07,0.299001589321769,0
3.81650761306744e-07,0.298647368666793,0
5.0522130408213e-07,0.345803025828053,0
5.11040619575062e-07,0.333669756791861,0
5.22104116055785e-07,0.326330380038191,0
5.74149027105549e-07,0.331472823358198,0
4.95717393116649e-07,0.305345359495505,0
5.05130178874822e-07,0.31913619623391,0
4.44253778727437e-07,0.307633663068214,0
4.47604030585877e-07,0.311182094836003,0
4.34314782243455e-07,0.303899622237939,0
4.9747416760508e-07,0.333761511327756,0
4.20673264016634e-07,0.317080064673613,0
3.87172426020067e-07,0.326977028086938,0
3.93850615265076e-07,0.329856871337836,0
2.49936276592156e-07,0.268605297299004,0
1.71644504857914e-07,0.245003373607395,0
1.94570243873173e-07,0.263089384983159,0
2.24444373311668e-07,0.2906493510559,0
3.4138574398737e-07,0.367692797045474,0
4.38945361937773e-07,0.397151043128789,0
3.59055724631941e-07,0.340421278348089,0
3.82395074987748e-07,0.333854977901903,0
4.3552667280786e-07,0.329858439490998,0
4.48550388271611e-07,0.314472447333316,0
4.51447068145315e-07,0.298655478919548,0
5.29941350714241e-07,0.313193609171341,0
5.28957273168105e-07,0.312882821082106,0
5.62459231556565e-07,0.317782957711101,0
5.79355114768973e-07,0.315125089678823,0
4.73469397830744e-07,0.29663186700059,0
4.74581666882653e-07,0.311739637433083,0
4.09598096787023e-07,0.29429067945164,0
4.12849474060895e-07,0.288852516807042,0
4.65705082011333e-07,0.3413064227061,0
2.73669911528355e-07,0.29928947762418,0
2.7504136457154e-07,0.318603666015305,0
2.43984007927906e-07,0.298838092663084,0
2.3865663784205e-07,0.302279330794483,0
2.32223627689654e-07,0.30876396946224,0
2.90416502521003e-07,0.330051852168,0
3.14688205663879e-07,0.324730576686824,0
3.15842302679797e-07,0.328458950078027,0
3.41319640865675e-07,0.376289683249101,0
2.60274972884013e-07,0.328762837920452,0
1.96477244241276e-07,0.287583000323407,0
1.89907919741883e-07,0.261251912803653,0
3.1596965389165e-07,0.306958768841537,0
3.13040482653045e-07,0.296302318953305,0
2.76429810225106e-07,0.289780825553107,0
3.13263067175814e-07,0.289536835318539,0
5.00864193375727e-07,0.359873671218885,0
5.01208807248856e-07,0.360683151916587,0
4.95385103554343e-07,0.36696580755324,0
5.03591600707577e-07,0.366856580830907,0
4.31891654676582e-07,0.346909851072804,0
3.78404612528373e-07,0.338847901050072,0
3.0823101371979e-07,0.323292356853362,0
2.92107827449678e-07,0.328629922229568,0
3.17414959433791e-07,0.327773264984047,0
3.51076293569049e-07,0.324141309933711,0
4.98516972359614e-07,0.352024260769933,0
4.90266406458583e-07,0.350782862149104,0
5.00026887167592e-07,0.339149636815996,0
6.55087631321327e-07,0.381410957240491,0
8.4633581986537e-07,0.43085036381049,0
1.03515023711955e-06,0.4747504651128,0
1.04236042578182e-06,0.455027304228691,0
1.14433886935874e-06,0.483472929930745,0
1.23343990197996e-06,0.498586605678387,0
1.18324139677007e-06,0.527201286539125,0
7.68837659055429e-07,0.453344246388224,0
8.54331683342695e-07,0.492112075597497,0
8.49028495048532e-07,0.488291817642943,0
8.01442463635464e-07,0.481482334313932,0
7.92589967189848e-07,0.44126006403451,0
6.39926021393497e-07,0.384796675030614,0
6.21750277175167e-07,0.382142820999976,0
6.22782998402662e-07,0.382494438137588,0
6.52601388344474e-07,0.392732217274174,0
6.59615041595486e-07,0.378895338539389,0
6.88196238789306e-07,0.39116502878089,0
5.06418629551924e-07,0.327763187900633,0
5.62119752812946e-07,0.34690440953105,0
5.67994340972606e-07,0.34347505614463,0
5.29946859307715e-07,0.341917272817813,0
4.70934791270504e-07,0.329631060529004,0
4.58540549318712e-07,0.335155572507529,0
4.12916697574483e-07,0.305586703605116,0
2.99102153940534e-07,0.26119395027491,0
3.04548659031026e-07,0.267888306626206,0
2.69247444628186e-07,0.261356700224635,0
2.71211865080812e-07,0.274375129395512,0
2.20286972460216e-07,0.258790659656511,0
4.31102618685843e-07,0.330664733166796,0
6.92852680863157e-07,0.417953526123854,0
1.17687981160087e-06,0.527202840540899,0
1.49135598309897e-06,0.524160858343723,0
1.47592818673053e-06,0.524006876073705,0
1.46162965202438e-06,0.532884440996149,0
1.39018898335065e-06,0.531550853772033,0
1.20143329330486e-06,0.47428407807653,0
1.14073447527254e-06,0.464825894052304,0
1.02309332649359e-06,0.426219815226359,0
9.78066270164433e-07,0.443100268566487,0
8.95810832010261e-07,0.427557680640956,0
5.68665829180556e-07,0.369374133940203,0
3.3399265134855e-07,0.325074259653578,0
3.20144981013392e-07,0.318151000712388,0
3.35434128885056e-07,0.304468742775417,0
2.93662184469418e-07,0.283170456267965,0
2.70286794841049e-07,0.282019880461794,0
1.98236166147504e-07,0.237192857430044,0
2.7235905301339e-07,0.289093500576803,0
3.32214869512121e-07,0.317706758535094,0
3.49572727648465e-07,0.328731975916884,0
3.84570782678221e-07,0.353075066620131,0
3.59556633174163e-07,0.342300481724927,0
3.89731774567947e-07,0.362609197470927,0
1.630268238799e-07,0.267344878380573,0
8.0781749350739e-08,0.212252274893889,0
1.11465642029996e-07,0.238847870800493,0
1.87060630477467e-07,0.304002008962431,0
2.58393834895444e-07,0.339976326242271,0
2.55310423039551e-07,0.333525079248263,0
2.62498203863954e-07,0.345801769634224,0
2.89555668083113e-07,0.357060413924914,0
2.60698107555654e-07,0.329535071926693,0
2.32258733302306e-07,0.295540930554409,0
2.76290134702429e-07,0.306382006308337,0
2.89585451834272e-07,0.308330910774808,0
2.79060210292209e-07,0.307747523662811,0
2.35738390424403e-07,0.281471069362317,0
4.69576502832062e-07,0.367277719795056,0
5.04055442951334e-07,0.355778823486678,0
4.96105515541627e-07,0.342922521673197,0
4.47666118969955e-07,0.322106916420587,0
5.05251928127209e-07,0.347213541846671,0
4.96497185874268e-07,0.354524078699677,0
4.96837504911807e-07,0.361618216858877,0
4.89671478363329e-07,0.353644888705146,0
4.86115634592499e-07,0.35788027414874,0
4.72188883262884e-07,0.35476396454275,0
1.87729130973703e-07,0.236267091834793,0
1.71825261416673e-07,0.245034134165755,0
3.2217018272622e-07,0.287686067895468,0
6.65992779081154e-07,0.387182309882325,0
6.00356487341786e-07,0.370484876897488,0
5.63662158985825e-07,0.358216992651234,0
5.71482494399893e-07,0.354594583887408,0
7.88212969527341e-07,0.418462658751954,0
8.35162524979121e-07,0.412999371711919,0
8.34112344311292e-07,0.415323681108932,0
8.07697985038791e-07,0.42241761523045,0
7.96485849900246e-07,0.429684515869531,0
7.28003762752319e-07,0.446448317995986,0
3.60319526687395e-07,0.335851714210054,0
3.62431932235906e-07,0.336708670841826,0
4.2217785696312e-07,0.362789643796466,0
4.48477189334592e-07,0.394229031752639,0
3.45726795743304e-07,0.347643034428604,0
3.21698124275247e-07,0.35270335441088,0
3.2263850653755e-07,0.353106733407175,0
3.07050120664428e-07,0.361714588342416,0
2.50814383738399e-07,0.330282721295726,0
1.33141397156483e-07,0.276279718667053,0
1.21940185838896e-07,0.283903481030089,0
8.79126702865654e-08,0.265891209947497,0
6.15356574105023e-08,0.25782665372414,0
4.30944736794902e-08,0.230072922828037,0
3.37123119663954e-08,0.198381494648387,0
4.35660653005081e-08,0.206745649811906,0
4.70916584902241e-08,0.20736141584851,0
4.68712213852501e-08,0.192340915299975,0
1.03285660818233e-07,0.236800459261768,0
1.14912714421202e-07,0.230234863863903,0
1.66774067932475e-07,0.255793423624921,0
1.69105976926049e-07,0.254729641908388,0
2.17471520998765e-07,0.275914063790321,0
2.4381968378358e-07,0.28182100638065,0
2.97224283761652e-07,0.317456362633285,0
2.73690918876352e-07,0.314292119607915,0
2.7221760353688e-07,0.315159336565177,0
2.75146307945531e-07,0.320038410598362,0
2.89421221055937e-07,0.336339750255194,0
2.10398860441381e-07,0.306269263953738,0
9.74733477746326e-08,0.209817569427847,0
2.75969049059055e-07,0.299167736637576,0
2.82794383106029e-07,0.306496533309449,0
2.91100221673788e-07,0.316601596359646,0
3.02598897039002e-07,0.3255142048358,0
3.3520491537692e-07,0.326345260238847,0
5.13173565641614e-07,0.374167346199858,0
6.49323588495123e-07,0.417306587548151,0
6.14100988256784e-07,0.400346226838844,0
5.80400347039276e-07,0.391911435330125,0
5.15085327675263e-07,0.395471699595805,0
4.24405942974597e-07,0.38009451052752,0
4.19372489028707e-07,0.385753384514181,0
3.7019475419946e-07,0.363400445597708,0
3.17540723423796e-07,0.308579995942614,0
4.26695743906187e-07,0.333802096016244,0
3.52150842760554e-07,0.30168696225611,0
5.03804381801281e-07,0.347259355185679,0
5.31771604237664e-07,0.351080433615116,0
5.84444214845556e-07,0.354803875572631,0
7.12023986644528e-07,0.372826287604812,0
7.27149744031778e-07,0.365716976992496,0
7.08412590108996e-07,0.350976892134155,0
7.95218313205146e-07,0.367597315413135,0
7.6181392227738e-07,0.372720791065819,0
7.01619280596967e-07,0.369795026763076,0
6.79490140217727e-07,0.379637857476694,0
4.31107380351388e-07,0.312027017953643,0
3.47253983259635e-07,0.282769245821381,0
1.60129863908223e-07,0.211080970479988,0
1.15265917965512e-07,0.196749915833749,0
8.68856443845269e-08,0.189511317531177,0
1.37352576818805e-07,0.220963455824646,0
4.72529015568441e-07,0.363786062768955,0
5.52226225566627e-07,0.366829589171448,0
6.08569333382414e-07,0.376879418266805,0
6.88213884961623e-07,0.39116992724396,0
6.97641142448416e-07,0.382880195274294,0
7.7172976399557e-07,0.398636860980423,0
7.92448704445322e-07,0.389541481231365,0
7.75464403639347e-07,0.380970283490467,0
7.55051236810429e-07,0.368184592377821,0
7.40462520603955e-07,0.368998662099402,0
5.86932698606196e-07,0.334203493438972,0
4.44117837844404e-07,0.305764370252578,0
2.49552449002768e-07,0.23581181266601,0
2.82732388087943e-07,0.248098402789619,0
3.70569618653704e-07,0.282609172865056,0
4.84694697574033e-07,0.309543796063047,0
7.64835992677124e-07,0.391823472245733,0
6.80408861570095e-07,0.366520652714592,0
8.06422232136475e-07,0.386630610716641,0
1.09616827347543e-06,0.434740441802879,0
1.23722262510915e-06,0.450202337250145,0
1.56538699782962e-06,0.522288475513122,0
1.5840601960485e-06,0.516128615997833,0
1.53566188051291e-06,0.516598593043479,0
1.24497125544205e-06,0.463341996829352,0
1.2280443747206e-06,0.470276794112932,0
1.09917587214655e-06,0.444139415409535,0
1.0946326830199e-06,0.45816595940687,0
9.08844724367041e-07,0.431775459530889,0
3.83263658802899e-07,0.287198576302293,0
3.57617141441159e-07,0.294271420550445,0
1.68672852093362e-07,0.214028840708406,0
1.70242801233614e-07,0.213176220709763,0
1.8106513335934e-07,0.213118409323564,0
1.93543217971134e-07,0.213867505826794,0
2.74521876197092e-07,0.24830321789028,0
2.45238940214206e-07,0.240445399040237,0
3.73687762658284e-07,0.249157775114823,0
2.10156435645504e-06,0.525202270034569,0
2.1318855222589e-06,0.45637663648314,0
2.26231818528175e-06,0.471447595355787,0
2.18392436451925e-06,0.450777322484596,0
2.27430889942003e-06,0.46436280573034,0
2.44320274881432e-06,0.495746220383361,0
2.35035484560449e-06,0.495589874220753,0
2.36722150526169e-06,0.504598029905183,0
2.39612164068108e-06,0.499285074111762,0
2.37490935433439e-06,0.544887976489637,0
1.04297206638948e-06,0.422294667835273,0
3.93589563953977e-06,0.561053771982124,0
1.28964991657544e-05,0.743636353466599,0
1.34499589427953e-05,0.662942827530442,0
1.73694315045016e-05,0.625652734297058,0
2.07824802081604e-05,0.642454844395494,0
4.99472909396033e-05,0.507335214367258,0
7.68701229868263e-05,0.510475745912693,0
7.57738978534623e-05,0.429833161297695,0
7.04361103637842e-05,0.341450140531719,0
6.97763318383382e-05,0.346500129234208,0
7.30659899154866e-05,0.370221493078501,0
8.05788090324962e-05,0.405564127862412,0
8.53365163271187e-05,0.416654237782166,0
9.07309448554901e-05,0.464434987297675,0
9.36157679952529e-05,0.48772098036071,0
7.05185331137945e-05,0.824766253269385,0
2.9623294700971e-05,0.629646772881577,0
2.89167965805093e-06,0.258145768567,0
1.17429366701354e-06,0.424391895391085,0
1.40387578408315e-06,0.488104091919614,0
1.66708160879361e-06,0.552036159063081,0
1.71777971542184e-06,0.532423841642495,0
1.81119238951179e-06,0.532290799975231,0
1.67469056360384e-06,0.541106188271855,0
1.15393045098986e-06,0.454393728892068,0
6.4701147309166e-07,0.338405593111433,0
6.21951947715931e-07,0.343473795226296,0
7.93790187005366e-07,0.376270222103482,0
7.79423495125714e-07,0.373912678392175,0
1.34541065402177e-06,0.362731329548574,0
4.8891610081238e-06,0.560875306297566,0
6.63547028934639e-06,0.415332649322608,0
3.22812495929274e-05,0.637955489401976,0
6.89707199296385e-05,0.901180815254268,0
8.38156914229824e-05,0.938231001865505,0
7.94573636908858e-05,0.616507454635366,0
7.61632367439397e-05,0.577187421386032,0
6.78216035225155e-05,0.42385590617333,0
7.72859354306146e-05,0.412658341472908,0
6.74700686151981e-05,0.30969938618556,0
6.43452048735072e-05,0.305736987259897,0
6.45311558491805e-05,0.353516886780843,0
7.11371490012825e-05,0.450985278668864,0
6.17775299465414e-05,0.43234181306006,0
5.79944109455493e-05,0.420098290862278,0
5.9085135514914e-05,0.523407320175501,0
5.88032830079261e-05,0.546446027258656,0
5.71405770896711e-05,0.819866320121492,0
2.27751971850737e-05,0.725202521988548,0
3.88855833512697e-06,0.49076846596567,0
1.51060730353471e-06,0.342924295144717,0
6.00994055685172e-06,0.210523885833321,0
0.000100332781807071,0.412237131264224,0
0.000139868073227988,0.357346399263778,0
0.000141185663150813,0.325806888334821,0
0.000157292893919974,0.126082083600562,0
0.000608108541592318,0.135299568156221,0
0.000680220631717311,0.0983096870462733,0
0.000621067610443834,0.0909781236391918,0
0.000552055186540221,0.0821922725076367,0
0.000474971301836687,0.0735185139156602,0
0.000402053566004505,0.0674766384976065,0
0.000446566050985764,0.0750706620633606,0
0.000478416269478355,0.0654947201662182,0
0.000545649905807083,0.0664185793201562,0
0.000520157912428413,0.0661520586265825,0
0.000321411644269643,0.076229369799371,0
0.000269495344499147,0.0962832613650599,0
0.000274025602436034,0.0883604637056145,0
0.000350616361492999,0.0915284603883048,0
0.000353121718075451,0.0854658826803823,0
0.000367515582726321,0.0876003506524672,0
0.000400952220773555,0.0945071392013991,0
0.000468866981147345,0.144633505403534,0
0.00037124378319779,0.165849739208326,0
0.000302183963355922,0.242064236070925,0
0.000307380523486785,0.248909746081812,0
0.000339792941186647,0.257645831751912,0
0.000328798814797013,0.32272982017205,0
0.00013510727411857,0.311378649449082,0
5.79408666700485e-05,0.226250262858269,0
0.000100068948469535,0.296224575057028,0
0.000104844708638731,0.217772540289292,0
9.17015814335472e-05,0.182894994496999,0
8.65533017903391e-05,0.154165108229631,0
9.84960556863152e-05,0.155478038396604,0
0.000111024734301658,0.179965104888072,0
0.000112954164075167,0.186187354549358,0
0.000127105315429249,0.208778578797105,0
0.000130119361955718,0.205575010227219,0
0.000128747393532261,0.237582073266563,0
6.31830965887233e-05,0.195383865690522,0
4.26797419470489e-05,0.237090468872486,0
4.10567961228334e-05,0.289003605792187,0
9.09395406319114e-06,0.221257101200181,1
7.67266225395919e-06,0.386859910803988,1
7.5247238410701e-06,0.381539822821964,1
7.64278317612317e-06,0.385762498715393,1
7.0073608500421e-06,0.371957417067353,1
5.81919523753571e-06,0.493423279650641,1
4.34853970842025e-06,0.493258201169879,1
4.54851248200211e-06,0.509855542234342,1
4.46910928150988e-06,0.502620535320524,1
3.7437334913089e-06,0.510863050424284,1
2.42008757020313e-06,0.450782928229008,1
2.5465392007317e-06,0.497166001642693,1
2.40627173767093e-06,0.482918139895792,1
2.48286695598099e-06,0.488865915372096,1
2.34126958774308e-06,0.500715936337291,1
2.43864919606265e-06,0.525823060272254,1
2.3933453095699e-06,0.603161493716434,1
1.27137786533729e-06,0.438018758879312,1
1.02259213785339e-06,0.412463744796222,1
1.35584271630472e-06,0.461645183449287,1
1.42542390789981e-06,0.449286494057322,1
1.52852078268405e-06,0.457607383012035,1
1.64151463925628e-06,0.49106647955613,1
1.42784759566263e-06,0.44741984094549,1
1.42267708044182e-06,0.440612537808361,1
1.27642373696e-06,0.425545374973282,1
1.25816620413347e-06,0.415123250202023,1
1.32307452124027e-06,0.418798843569431,1
3.53140354207371e-06,0.636838975770264,1
8.26117153069101e-06,0.9046184861605,1
1.9180208415353e-05,0.933526692068275,1
4.44596293733087e-05,1,1
4.834680000971e-05,0.890904546709539,1
5.63489119126231e-05,0.807642069748974,1
7.03358675006157e-05,0.91697687327601,1
7.50990298899997e-05,0.951168821939384,1
0.000103870345263774,0.843510984906804,1
0.000163348357399934,0.908340091705998,1
0.000168295767022385,0.743685857537269,1
0.000190871080038203,0.456302461851341,1
0.000215453801729828,0.302980583049711,1
0.000198471213162764,0.264986805728068,1
0.000182069445183065,0.190712430257768,1
0.000210235141308677,0.206830089523146,1
0.000203294361800936,0.147029779922901,1
0.000154030783291766,0.111072850951095,1
0.000256981901346231,0.104851221705934,1
0.000285842606907101,0.0996314945327001,1
0.000267311319392723,0.0925122797370686,1
0.000256730707989935,0.0926559500428925,1
0.000253036829697086,0.0931494099302879,1
0.000157747137673017,0.0710927247265562,1
0.000135910053583198,0.0757034667796623,1
0.0001524653414881,0.0672048316854516,1
0.000390967644973407,0.121595139969171,1
0.000462250891396966,0.0807084551999769,1
0.000456798853904672,0.0783404329240539,1
0.00128390041615591,0.0710828243741524,1
0.00236119520110114,0.0997159086988823,1
0.00256532455438056,0.0902997552724971,1
0.00855534994244754,0.0181972510813458,1
0.0276741978237117,0.0447666142250318,1
0.0307596335068766,0.0417410740362833,1
0.0468719358845559,0.0488096962671694,1
0.0829443544329796,0.0697599069830698,1
0.118054199075792,0.082793422082005,1
0.122407420561335,0.0880076028524451,1
0.117128344897821,0.0658587602289926,1
0.0964119115968126,0.0532824955723697,1
0.0993589652062323,0.0397006983963601,1
0.0899037699775009,0.0294059248742136,1
0.102885231936994,0.0228886758389782,1
0.110586257759491,0.0220779225298907,1
0.0943649526016739,0.0203375040266803,1
0.103517756803409,0.0227031052485973,1
0.10410205350531,0.0213658844246134,1
0.110767832346715,0.0130613275885109,1
0.137812080390238,0.0177437855685272,1
0.131314200786384,0.0174628475022214,1
0.165597460891204,0.0277349220078147,1
0.169730507886777,0.0281208319386998,1
0.169644011636836,0.0420789237102032,1
0.133024357979796,0.0348420912545518,1
0.119520177462193,0.0282936684926539,1
0.11396925344718,0.0161520429445342,1
0.0933942089963139,0.00460319363393568,1
0.099388271530396,0.00911818481954703,1
0.122261353405791,0.0126491087956901,1
0.14291792919216,0.0138575714785734,1
0.142680070545228,0.013868180142596,1
0.15642833539205,0.0159479902208443,1
0.183437498884048,0.019239334565129,1
0.190607378868816,0.0192706928269843,1
0.196338161741281,0.0193794600044368,1
0.0825310361331718,0.00763233513019811,1
0.0292333069210569,0.0126984802370242,1
0.0260133739374247,0.0101890303873733,1
0.0255318443394795,0.0101215171061044,1
0.0248202763075198,0.0200985466037445,1
0.00921917978257117,0.00377290051674756,1
0.00714993037112177,0.00972381037972269,1
0.00648490125604646,0.00796501459992053,1
0.00707855672802573,0.0123580715745484,1
0.00767714903368818,0.0211131836783761,1
0.00845103471327797,0.0219077393027513,1
0.00995063218112821,0.0334965938127134,1
0.0106096907673922,0.0234931132432976,1
0.0106190186796365,0.0259202991822693,1
0.0085562106007038,0.0191872901390064,1
0.0075520435584074,0.0148081925125654,1
0.00925101769085119,0.0170309159514065,1
0.00793941546768316,0.0136622513553795,1
0.00850718841884422,0.0162239547377258,1
0.00851656032140884,0.0205187587796095,1
0.00802531314788207,0.0223751950029235,1
0.00901454710798558,0.0195949125062775,1
0.00910564316082934,0.0237273518857789,1
0.00741134158570956,0.00600635367782953,1
0.0125495079742413,0.0121997127692866,1
0.0200761178381152,0.00955388420591693,1
0.0434696305298759,0.0239295764752087,1
0.0606150809348975,0.0335122905873127,1
0.0608516594437137,0.0245945293511948,1
0.072678791077348,0.02176687255319,1
0.0641523165112463,0.0162815067382499,1
0.0655914328762704,0.0158664828285971,1
0.0572682146475493,0.012472692395742,1
0.0345687949440892,0.0029133173990327,1
0.0633492071644047,0.00780987532742955,1
0.0549262108312395,0.00439579728483036,1
0.0538354981417635,0.00406405760352216,1
0.0730496601513592,0.00612891743750255,1
0.0704595345942829,0.00620815091945308,1
0.0729580243557897,0.00765309360305934,1
0.0630882925559609,0.00615439489700327,1
0.0713842188336435,0.00263174387947913,1
0.174896977863107,0.0138910235077537,1
0.163416922876076,0.0123105117452169,1
0.213310335258093,0.0185099641747972,1
0.196496380141927,0.0180625791401184,1
0.168672071870374,0.0151291748041347,1
0.170380879711594,0.017406957889842,1
0.167983189463255,0.0185377987074775,1
0.132888184587062,0.0141394468707644,1
0.0947154425837083,0.00431744904034097,1
0.0954697738067374,0.00954064954000235,1
0.0865338111930352,0.0144593309518802,1
0.0936332063550407,0.0222265584850255,1
0.0815439701972046,0.0233306547419264,1
0.0884106270921087,0.0282906496158048,1
0.101838605568008,0.0298413356643092,1
0.108701258739868,0.0239907072167192,1
0.121831220166137,0.0200291358209325,1
0.0969372296615838,0.0129389942115315,1
0.0666278323951665,0.0101533390381832,1
0.0785406737427192,0.0121211574144118,1
0.08294933587684,0.00994247733287352,1
0.0981304261504811,0.0098082562690832,1
0.0980209464273568,0.00972075945445218,1
0.112174974729343,0.0108082655953848,1
0.133709175313358,0.0136875323031697,1
0.133366784667474,0.0143888054645305,1
0.127524262758684,0.0132759336453206,1
0.142983776627354,0.0228787023797168,1
0.146974731782425,0.0269442425440779,1
0.131393591830624,0.0222215472909874,1
0.133452636889732,0.0253389895690335,1
0.123239139316184,0.0250988817674664,1
0.129242157874471,0.0276927051764561,1
0.118066969927769,0.0232464869363215,1
0.0937302489055034,0.0145470905652426,1
0.0976599883344303,0.0181212432180177,1
0.0862879653552057,0.0239629021660982,1
0.0687677164168114,0.0188954920747056,1
0.083646336440452,0.0229854163645216,1
0.104089846138658,0.0303113145473431,1
0.123029500361451,0.0350912075720266,1
0.116714291533261,0.036457729314691,1
0.151665000395838,0.0441957912839222,1
0.141301272578785,0.0502613318136392,1
0.0593817814747883,0.0356923125712086,1
0.0482798894469734,0.0393205527486755,1
0.0303428663196428,0.0237745113013977,1
0.0208491662735853,0.0133919080608523,1
0.0219317238791981,0.0143173572051171,1
0.0209668914446604,0.0131121588853493,1
0.0179542069950482,0.0155303138046097,1
0.0105577427889144,0.0122215379202656,1
0.00924682422757241,0.0141355590933187,1
0.0112340322342794,0.0330010721140468,1
0.00833810768798879,0.00729295040865154,1
0.0130669808125986,0.0133044487038256,1
0.0127669811309188,0.0117926370453928,1
0.0121607636417563,0.0192411829092088,1
0.0117942107090812,0.0195907909635533,1
0.0156381773227781,0.023129963839754,1
0.0247151349192011,0.031194133596886,1
0.0238129024385592,0.0259502106269373,1
0.0229226431700403,0.0238566177526681,1
0.0172600479749575,0.0201870861523996,1
0.0133720915513284,0.0105177207208973,1
0.064874544499082,0.0230617600043505,1
0.100541866304505,0.0309537407906804,1
0.0978503039203399,0.0223285813210138,1
0.0933767738206799,0.0207887526230074,1
0.0937541473432714,0.0221203125135159,1
0.100234954755311,0.0262482724797777,1
0.0967862271150486,0.0281974035378829,1
0.0860350150586964,0.0215833903061325,1
0.0679808316488119,0.0156598596420502,1
0.0519071884322454,0.0119510945554124,1
0.0397643401699165,0.013422722959114,1
0.0436814270759362,0.0148367442154065,1
0.052258391568275,0.0196451400754929,1
0.0569414973819611,0.0181699163252333,1
0.0592062833115226,0.012914985809736,1
0.0618599314292728,0.0127328501966641,1
0.0557132303465311,0.00797693690028054,1
0.0524408642335373,0.00748553140320536,1
0.0609374715905812,0.00921242864041586,1
0.0608599112316821,0.0127035943177451,1
0.0569626539311453,0.0140670797452965,1
0.0477596396848175,0.0127214673059884,1
0.0413244039987564,0.0129360152220972,1
0.0353420308210296,0.0116419502314986,1
0.0341090477020776,0.0184074541976082,1
0.0325519451213895,0.0157787794018676,1
0.034666073280279,0.0093624808801719,1
0.040656103782188,0.0100772430564337,1
0.0379869633405921,0.00747128858534188,1
0.039477946701141,0.00753536309501819,1
0.0516394131108597,0.0126322349266621,1
0.0583555786851798,0.0141603256845604,1
0.0667959295801951,0.0158850102218766,1
0.0707662578175511,0.0213481787725531,1
0.0666404409232717,0.0218339777548214,1
0.0693674418845004,0.0238740178559826,1
0.0537435492073036,0.0482374594606255,1
0.0110814183998778,0.0163100589670511,1
0.00652562065772805,0.0181634161467718,1
0.00385974029614345,0.00894764183848857,1
0.00639341642208064,0.0231981792234254,1
0.00817218761188745,0.0351270010012027,1
0.0089980508393379,0.041571945489131,1
0.00911618339200118,0.0355181354867719,1
0.00993962404535834,0.0244577613395874,1
0.00987682352945619,0.0132512283646826,1
0.0112703075883523,0.0166668118721135,1
0.0115781150919758,0.0178144425430035,1
0.00858400929892675,0.00791485546757633,1
0.0103606398804002,0.0111762275191931,1
0.0114499419909741,0.00418919427124392,1
0.015153766084353,0.00689437151309574,1
0.0150572412513919,0.00675970260345069,1
0.0167442301716619,0.00623284676526774,1
0.0214983043474974,0.00924692354797243,1
0.020651647354318,0.0113059446769528,1
0.0203695350332117,0.0101976071041541,1
0.0208283835073037,0.0107986965984209,1
0.0205021098001044,0.0136775445554271,1
0.0204365276270281,0.0109118974000141,1
0.0288352167125243,0.0238207066545103,1
0.0314698315931871,0.0199384867352863,1
0.0264440681363859,0.0162334027626909,1
0.0257465592266035,0.0135695603355666,1
0.0285380154431059,0.0178272515226235,1
0.0248177516993368,0.0147860316454408,1
0.0299356940460855,0.0158704586124653,1
0.0286563457879801,0.0152452939474247,1
0.0312092237121911,0.0141776825037218,1
0.197149131793497,0.0106025629038677,1
0.632377914204748,0.0421296328469835,1
0.941914756006882,0.0560479837663917,1
1,0.0405280519372507,1
0.929588820473285,0.0402379268244305,1
0.793396213600472,0.0333330343615321,1
0.669072345235942,0.0288921974554824,1
0.597562787278438,0.0231559937364517,1
0.518138305141535,0.0209390279725548,1
0.391580741833304,0.0146623365424601,1
0.369250573442364,0.0289589804465608,1
0.312787620541835,0.0278378507532159,1
0.199696250084465,0.0124549114808626,1
0.227247833462933,0.0152590014497589,1
0.319840759826238,0.0171700836355414,1
0.298001815410831,0.0145325995257617,1
0.263244089035758,0.01061540936966,1
0.27934612699698,0.00932051277332089,1
0.285755861625412,0.00646827546872392,1
0.31213646801581,0.00766521752825848,1
0.308900121336972,0.00829606092532198,1
0.262036705605241,0.00563839286721838,1
0.249582826209173,0.005106212582473,1
0.228938318708396,0.00569614990485962,1
0.167733152078857,0.00326876399874013,1
0.165841607327853,0.00413992731801939,1
0.155505696909205,0.00313800529159371,1
0.140531753575808,0.00703082738586685,1
0.154701615012156,0.0189831050517774,1
0.145004546556384,0.0226565818217548,1
0.183675745366585,0.0305100664466562,1
0.188193022275407,0.0304776869981116,1
0.165946364943202,0.0419718932206466,1
0.120364845910641,0.0327582532011974,1
0.108070695610661,0.02768242105394,1
0.07474988673106,0.0209853621831592,1
0.0409882450827537,0.0185480251050582,1
0.0311923655503329,0.013006301712023,1
0.0287941859962304,0.0121842199464624,1
0.0325158143743376,0.00915539164546046,1
0.0363210147855205,0.0120294631320813,1
0.0379186293860583,0.0140685746337327,1
0.0387024419492019,0.0181606169692048,1
0.0342039451894354,0.0160466408777577,1
0.0471642893653975,0.023961083267521,1
0.0487324080512029,0.0290334669341359,1
0.0576633738212582,0.0409367527912121,1
0.0600297626751666,0.0320401603765349,1
0.0600362148907033,0.0261530373196974,1
0.0650379609669725,0.0363277651743261,1
0.0598257491218586,0.028870137522232,1
0.0589447076109872,0.0286419820882102,1
0.0443001274397593,0.0227615101512111,1
0.030398016379645,0.0147047496872636,1
0.0298268312466835,0.0176623949387483,1
0.0300014675492323,0.0177452815279073,1
0.0308690084924056,0.0176955977901849,1
0.0275739539274486,0.0182706856431819,1
0.0131329669514683,0.0138314894450639,1
0.01455461849837,0.0139306113002993,1
0.0174938218190719,0.0219713057041267,1
0.0177106850340294,0.0198379217729711,1
0.0153959087827303,0.0154707006281463,1
0.0167292171345689,0.0232458384345171,1
0.0174769987975585,0.0195519559623464,1
0.0176753245483745,0.0184141145177855,1
0.0177411491506349,0.0186572679523378,1
0.0173489509532895,0.023200565775321,1
0.0170419592493915,0.0188683624138351,1
0.0233433883109315,0.0220105007876853,1
0.0178360254995589,0.00964500139553446,1
0.0155741792120452,0.00758595364721397,1
0.0170556539115405,0.00703206693876333,1
0.0251030728168495,0.0130215760889673,1
0.0266033922968868,0.0134322657947412,1
0.0253711508586948,0.0130960673962636,1
0.0241696451762161,0.0112654569692032,1
0.0250248597358399,0.0116937365657666,1
0.026019717944392,0.0137859861781766,1
0.0127147668688998,0.00908290465640896,1
0.00843643741337573,0.0110771457450625,1
0.00844316599551394,0.0140048210881048,1
0.00710558631175946,0.0203005257399524,1
0.00493424314263832,0.0153511157120422,1
0.00595848944155447,0.025146309543654,1
0.00598555011466937,0.013074585808657,1
0.00940617369221754,0.0246685879553818,1
0.0100458157592489,0.0161895837346446,1
0.0107328209696376,0.0181177254580075,1
0.010872199539446,0.0195192584906909,1
0.0110466448190984,0.0205749488671333,1
0.0109402201035614,0.0222220115768869,1
0.0130430166408781,0.0240110689178914,1
0.017077434167953,0.024213045081663,1
0.016896404709272,0.0236009073392261,1
0.0161750173797636,0.0373803131611827,1
0.00796726772409314,0.00513890791360115,1
0.010619505493742,0.0106833013738709,1
0.0106000196669735,0.0110270892579083,1
0.0116168927040006,0.0125503444440792,1
0.011888631419551,0.0092219047585459,1
0.013116594984139,0.0104875529765922,1
0.0129055055666997,0.01277891934908,1
0.0116171359403337,0.0130288332579118,1
0.011867565463388,0.0137035440815956,1
0.0116374530073219,0.0143390577920802,1
0.0105464657924218,0.0364402591539092,1
0.00798100495879988,0.0452826133298389,1
0.00901304522190591,0.0332401175019148,1
0.00551978745534519,0.0189985853831376,1
0.00541196801370449,0.0266181407278565,1
0.0163449982562472,0.0491100783575543,1
0.0257574436244253,0.0623692488015947,1
0.0287211501200214,0.0629587128763073,1
0.0289661133975204,0.0668006340609406,1
0.0278206939792716,0.0614185474367784,1
0.0254317785640531,0.0600092362813849,1
0.0190460781562969,0.0506461650605111,1
0.0126833873526238,0.0429754297858891,1
0.0115403576050792,0.0421628581408291,1
0.0108812512004892,0.0487215625921632,1
0.00995135875891218,0.0592789393257522,1
0.00764817302122167,0.0462531602867283,1
0.0118388162609089,0.0403906342361366,1
0.0210867678566813,0.0302809926524547,1
0.0210384091950826,0.0293093813122325,1
0.0211774047042099,0.0257812893225086,1
0.0209922716613016,0.0191193487882471,1
0.0171897125859576,0.013927672361705,1
0.0161055445935534,0.0129702414428158,1
0.0171576898768775,0.00994155664857146,1
0.0214725131039797,0.0124106187687918,1
0.0214510340478416,0.00997735491262209,1
0.0259053066319523,0.0173449524648161,1
0.0253044897654981,0.0196376187579806,1
0.0241064624564526,0.0176069095879584,1
0.0220579270343478,0.0141876118905324,1
0.0224300759566671,0.00987689504341395,1
0.028828070468362,0.0154914247066246,1
0.0297733265023434,0.00976097162345419,1
0.0292913705243247,0.00862818353800716,1
0.0376287427893156,0.00930038804220495,1
0.046802335719591,0.0109711278411129,1
0.0712224142860808,0.018951764001844,1
0.079544176988298,0.021295678811251,1
0.134446987855513,0.03371781020857,1
0.156638005505535,0.0292600488642738,1
0.14185891715166,0.0174964418793912,1
0.162106923598897,0.0114720985264592,1
0.169414963236278,0.010988804600859,1
0.146475579885473,0.0069595789743704,1
0.15073563888193,0.00772956259279262,1
0.171463613150483,0.00942071233456933,1
0.203440041505263,0.0112545506176216,1
0.209934047443872,0.0124131944665731,1
0.160870615351007,0.0088418990924069,1
0.107653864647733,0.00438532871071116,1
0.105233934575499,0.00764227333810122,1
0.0983880063073932,0.0142888947783399,1
0.136817921508085,0.0128942874615301,1
0.21355879868991,0.015333069535357,1
0.213865473788518,0.0151528748447968,1
0.220431407502609,0.0186075130825701,1
0.20633107137719,0.0133811472381162,1
0.2085058174128,0.0134193569059794,1
0.213252856772862,0.0134906161805692,1
0.199698719816319,0.0128390607590238,1
0.190988347561027,0.0124579605350058,1
0.202005770910616,0.013634780066896,1
0.125362642721354,0.0170067137638008,1
0.0471444735788282,0.00984859819279444,1
0.0470527458771382,0.00568138892329449,1
0.0586138472414951,0.0102974876978555,1
0.0591100499413234,0.0159506104753423,1
0.0568059878498065,0.0154169205626184,1
0.0528522978176651,0.0152019226407521,1
0.0527288939980732,0.0150768949908984,1
0.0526164244475606,0.0140364520314189,1
0.0523627834726776,0.00922274826939429,1
0.0781733236479442,0.0184744218956069,1
0.106533679625533,0.0265407052221595,1
0.119705360804628,0.0495860434443598,1
0.0815305922174654,0.0462110353853833,1
0.0737354281477125,0.0546223711836584,1
0.0650412343725515,0.0485071881447937,1
0.0549194151397743,0.0420351593855804,1
0.0465797955986996,0.0348189133482587,1
0.0122241455713066,0.00789118212689074,1
0.0026317600809447,0.0319196551672402,1
0.00242476941156119,0.0413728734726744,1
0.00282562857715904,0.0393179540333846,1
0.00305024923433166,0.0206952361065277,1
0.00462599018492291,0.0305083943350503,1
0.00466596158113886,0.0254319316487258,1
0.00421653426465337,0.0232330110353778,1
0.0042617823892416,0.0178888619413999,1
0.00486060376789637,0.0186490665850554,1
0.00488494385677269,0.0189088044139479,1
0.00491562433225667,0.0191779993450115,1
0.0049148869754624,0.0205381552072909,1
0.00307794653167306,0.0135068037740762,1
0.00478936272812928,0.0139524726921399,1
0.01497002579958,0.0364089556650203,1
0.0164677099308725,0.0275686619689898,1
0.0175823755211133,0.0216343804949803,1
0.0371733203163111,0.0369334007585004,1
0.0431939812205895,0.0157878570868349,1
0.0403628505636342,0.0157340555082658,1
0.0383022809208,0.0141415590695202,1
0.0342131414168854,0.0110604430627045,1
0.0285996772431989,0.00836977192486573,1
0.0258500493977824,0.008183872279209,1
0.0280280046899998,0.0096693398546182,1
0.0283457596137738,0.00829793079884662,1
0.0292738320667646,0.0104565792041509,1
0.0184993338465535,0.00426036337718351,1
0.0299002608115177,0.0168591401292436,1
0.0424139010532248,0.0238684779517391,1
0.036852183842718,0.0155721963161189,1
0.0376442691114533,0.0150347175891848,1
0.0468977726509034,0.0176393819023743,1
0.0487137899419065,0.00921605934123634,1
0.171114538094565,0.022011712018479,1
0.243342736811809,0.0266351707683156,1
0.270524331138536,0.0307990925271069,1
0.228057345618363,0.0213254845558303,1
0.218736987566022,0.0198809424762208,1
0.222585908301702,0.0186480152159372,1
0.190089506418135,0.0154536829094898,1
0.149077728097194,0.0119564238128339,1
0.146661773855475,0.0105036047016576,1
0.111569906708391,0.00769944095264474,1
0.0899693062663277,0.0112438443919506,1
0.0834852900526533,0.00664646003432731,1
0.121888176635202,0.00904067847543737,1
0.145796469503488,0.0079594145726714,1
0.15754553284249,0.00339371123633857,1
0.182730257265551,0.00329508608916159,1
0.190924115297259,0.00371381750335114,1
0.188650240555019,0.00179699718154738,1
0.200693668683716,0.00269464816392384,1
0.255887750865037,0.00572002122609022,1
0.259248850880636,0.00552080191334726,1
0.260159975039976,0.00617348212420286,1
0.246204530429629,0.00585761195300877,1
0.212015324402623,0.00679400305133973,1
0.202244984263347,0.00971575000333962,1
0.210870634737816,0.0144281407466566,1
0.159524439533278,0.0103488575158309,1
0.148442363433949,0.0107145864168296,1
0.20528775940108,0.0162568020862436,1
0.182519927205481,0.0133909324157162,1
0.181881228834738,0.014704248981902,1
0.190865361508029,0.0149215068080006,1
0.202292196114025,0.0159556592793292,1
0.184317166234356,0.0132333757011776,1
0.191591286484459,0.0209472472932185,1
0.207849206211801,0.0230553285471039,1
0.224283620412767,0.0234569533876255,1
0.209308529092225,0.0284640016312934,1
0.100642716304306,0.0145876677641914,1
0.0852626146919759,0.0150141919178391,1
0.0746565141532751,0.0124736401079806,1
0.074987219971708,0.0162451363455658,1
0.0641351342379397,0.0201029471243436,1
0.0381013258171099,0.0199953297770993,1
0.0404248070920579,0.0141548450298127,1
0.0421905553030586,0.0103642950638033,1
0.0447105539102434,0.0123481208648871,1
0.0417981630827808,0.0100713887713218,1
0.0401916374003186,0.00907727876674188,1
0.0550433839899905,0.0113013850493128,1
0.0540377476849989,0.00854892120732143,1
0.0475212232908352,0.00671378677796549,1
0.050201405316754,0.00815388342036843,1
0.0644178029921563,0.0115851546301006,1
0.0682804424127752,0.00972130308111429,1
0.0640628546174822,0.0114660860067352,1
0.0629592265007531,0.0122712691023481,1
0.0594167946341946,0.0105948234892587,1
0.0559631981912853,0.010695008615826,1
0.0794440611189363,0.0177465989978786,1
0.0818390230554135,0.0227921265323767,1
0.0860455730335146,0.0145899439911856,1
0.103807003193005,0.0191182116838901,1
0.114950962344431,0.020984036985805,1
0.119544833859362,0.0176137535632533,1
0.113569906964225,0.0160911944067213,1
0.115688661093797,0.0143626134838273,1
0.187350459055836,0.0247444351432084,1
0.23636745580906,0.0317974044743283,1
0.209245250739917,0.0285929506754965,1
0.173967837365173,0.0221301345274229,1
0.145250259910113,0.0231749769771371,1
0.141591759324556,0.0221639003833903,1
0.144087211830992,0.0196533632500146,1
0.133125237411078,0.0175360238108319,1
0.0930013309865289,0.00927216211698315,1
0.0804156889958388,0.0101254302187303,1
0.0744277933729524,0.0135761759651135,1
0.0748828979133764,0.0130546615636146,1
0.0665827829632107,0.00765907318075652,1
0.0649388524673575,0.00762938362182103,1
0.0731919080714152,0.00796583684425447,1
0.0871737170152567,0.00780767693870393,1
0.0803173547306239,0.00753299629379302,1
0.100151600231476,0.0214539657796781,1
0.0723181562728487,0.00954733205417281,1
0.0668842848640066,0.00611707447977195,1
0.0817114481273488,0.00901481564362508,1
0.065846759051273,0.00628198722223778,1
0.0578471976988438,0.00577762576588088,1
0.0558609762641421,0.004945490051886,1
0.0589534212487692,0.00698852090758324,1
0.0626843458480891,0.0126093697356286,1
0.0471773206346367,0.00959574307503637,1
0.0505144268509658,0.0110323135928898,1
0.032612142033264,0.0216925644614106,1
0.00516354693223394,0.0202897594178043,1
0.00593087194421903,0.0382812241122022,1
0.00604967996397534,0.0402170005063772,1
0.00392993662910403,0.0351144276729556,1
0.00167031438308049,0.0211485286278207,1
0.00154729098676719,0.0164120014345974,1
0.00178910756445993,0.0169758057167594,1
0.00184433453936563,0.0137729790685787,1
0.0023052516718108,0.0153887253734611,1
0.0021610748786293,0.0149991504623134,1
0.00199416148931136,0.020842873225642,1
0.0015565964255373,0.0167557039429409,1
0.0016696892761092,0.0184349953413702,1
0.00190572203456497,0.016191753571211,1
0.00217570688351072,0.0168369620808423,1
0.00243807735336226,0.0212191661932605,1
0.00275061668238735,0.0275417018471479,1
0.00289636655536415,0.0410249633279884,1
0.00215292824074711,0.0441677534809731,1
0.00224661995170586,0.0441397794794925,1
0.00361353674846006,0.0346979374632893,1
0.00399020950261521,0.0254255193287961,1
0.00412543740400705,0.0248727075518422,1
0.00413660648967433,0.0322468485242862,1
0.00327867498904632,0.0223505357124277,1
0.00418147163443637,0.0267940490834119,1
0.00414138926937883,0.0190582204481976,1
0.00455855028136558,0.0208841628084321,1
0.00476247279564307,0.0222695566509951,1
0.00515625545325777,0.0283070982801152,1
0.00373787636408343,0.0364566593585319,1
0.00295955107606434,0.0452452963274975,1
0.00303497503407507,0.0520646108472487,1
0.00315082145509022,0.0531066231114967,1
0.00301030957284263,0.0918006185054614,1
0.000546203264001926,0.065315230750396,1
6.86157709081249e-05,0.676295938870552,0
5.86718005376994e-05,0.880247174840566,0
2.08827932825542e-05,0.671597928718961,0
1.08687504286885e-05,0.737661643374063,0
1.12820319071902e-05,0.846228823194059,0
1.03268686881052e-05,0.836797150267529,0
4.48841242007068e-06,0.58060900087704,0
3.17918967726917e-06,0.585064196715713,0
2.86469641979469e-06,0.631095088289029,0
8.57119965300738e-07,0.374107937959555,0
8.59930655096645e-07,0.414167955869276,0
9.54965283183891e-07,0.434065717665465,0
1.30897485609515e-06,0.519880038179842,0
1.10974975736998e-06,0.459367481655116,0
1.00002492424394e-06,0.4565098618422,0
1.21837389882701e-06,0.524840123394901,0
9.46995562184073e-07,0.436138936353231,0
8.53756548837553e-07,0.429051765772971,0
8.90367968193422e-07,0.444651421019394,0
8.85241895184365e-07,0.457638781600672,0
9.22762232463538e-07,0.455116957251431,0
9.68542939072803e-07,0.450076233735263,0
8.51746659147263e-07,0.402461706173967,0
8.31555329913187e-07,0.407158015081082,0
1.03865715711105e-06,0.4396340201663,0
1.1714833506816e-06,0.439639805505352,0
1.21087819696397e-06,0.453288247332904,0
1.09982448568669e-06,0.42703662259079,0
9.97626818762677e-07,0.395263124092151,0
1.10673805059525e-06,0.414151043975531,0
1.11116219808325e-06,0.417040201761681,0
1.06443214607654e-06,0.422886771212027,0
1.03151120425066e-06,0.441689961539772,0
1.0653026905775e-06,0.427977971116416,0
9.20428082686177e-07,0.393740443274896,0
4.87844025819639e-07,0.307234843763844,0
4.42548915730052e-07,0.309374444694315,0
3.9803714630575e-07,0.309111345671765,0
4.59551142806318e-07,0.33360429148381,0
1.13663010630403e-06,0.488334495533466,0
1.34847007081795e-06,0.468376407566093,0
1.30353488662404e-06,0.444612544682595,0
1.87673904989971e-06,0.512671209545374,0
1.9818828806727e-06,0.493385073051599,0
2.4870762683235e-06,0.559496223702217,0
3.13128480099651e-06,0.629004975243666,0
3.33939311357838e-06,0.625476767506053,0
3.30758285358256e-06,0.595480810910602,0
3.35020004031557e-06,0.604108646244362,0
2.83703917244875e-06,0.562084989470616,0
2.80538109901841e-06,0.590396519045123,0
2.73994050239638e-06,0.60377066510729,0
1.60202894786457e-06,0.479967811719573,0
1.09732227712536e-06,0.430942362381751,0
1.05689601673936e-06,0.43950496692112,0
1.13068455999114e-06,0.411247572540889,0
2.63352007842715e-06,0.610021564302667,0
2.68247961693521e-06,0.612771214246688,0
2.70925847703694e-06,0.628265581102202,0
2.69051067939117e-06,0.653470972840418,0
2.51668178380562e-06,0.631002016477988,0
2.57301182038265e-06,0.608032266191052,0
2.33889809156928e-06,0.56858636872743,0
1.91321900994012e-06,0.508092321714413,0
1.43742694634892e-06,0.450113598982936,0
1.35931779849325e-06,0.490958873533495,0
5.71104922331908e-07,0.318994069807282,0
1.26818698922565e-06,0.471715146761925,0
1.40961359106586e-06,0.428436553278719,0
1.62136252373847e-06,0.458935665466981,0
1.68705026013893e-06,0.481757377141258,0
1.79561847536729e-06,0.505547646296176,0
2.25437936842498e-06,0.617824358943504,0
2.4333993197494e-06,0.629032208813597,0
2.37156124989375e-06,0.60239421847132,0
2.35984083029968e-06,0.606500298687262,0
2.36347575506497e-06,0.633099873781934,0
8.74654098428268e-07,0.394783495843587,0
4.93476609330383e-07,0.370837894325173,0
4.92737150680914e-07,0.370573495450758,0
4.39963424704666e-07,0.335573223915251,0
