Activity,Complexity,Tag
3.58872343702913e-07,0.164737567574535,0
2.21094997734532e-07,0.1449161756777,0
2.45700643174556e-07,0.154644928186604,0
2.65498706713834e-07,0.163759757589629,0
2.65038359982422e-07,0.163620445454834,0
2.84807586140808e-07,0.171637402116901,0
3.00506686336862e-07,0.180272063562736,0
3.17869192748379e-07,0.183630416206437,0
4.65746530984483e-07,0.218920366462101,0
4.89271976198628e-07,0.234303518559549,0
3.62266142966534e-07,0.211824912287232,0
3.69995161824118e-07,0.224899834306795,0
3.79304228843027e-07,0.22783630722668,0
3.76974408778532e-07,0.230461378969212,0
3.79235589868719e-07,0.234639638402397,0
3.36594715991078e-07,0.211818390621258,0
2.80882097667006e-07,0.179872510779329,0
3.39638261232625e-07,0.21741254899117,0
2.17938506084494e-07,0.176964020984237,0
1.48734799733538e-07,0.139963884183494,0
1.39056253771962e-07,0.142942005813956,0
1.57942485335251e-07,0.139230804701833,0
9.05115269356369e-07,0.286088314924577,0
1.06428799941495e-06,0.276121343988816,0
1.07199238634302e-06,0.266019669006938,0
1.03870218341401e-06,0.263621118644422,0
1.00069556676239e-06,0.265485602159829,0
1.02973856418703e-06,0.26171035322199,0
1.14520163493869e-06,0.275169041177784,0
1.10850546697599e-06,0.273685372937907,0
1.06062640301524e-06,0.260383070726185,0
1.00671176535079e-06,0.258698902048235,0
4.36673194232029e-07,0.187397517102588,0
2.59799569120538e-07,0.162027255719147,0
2.73693329117055e-07,0.170111488551475,0
2.7315563211919e-07,0.16796529411358,0
3.00720563578471e-07,0.178674251133113,0
3.6522182431318e-07,0.20455266913378,0
3.48488483467043e-07,0.201179889054158,0
4.08163087575104e-07,0.217719479010608,0
3.0851867199444e-07,0.203614231897293,0
2.53841045293914e-07,0.184559317155337,0
3.59987389097369e-07,0.21575299987808,0
5.07396119893992e-07,0.238328419347762,0
4.74330608224426e-07,0.226591836100257,0
4.63681053578158e-07,0.234802065835665,0
6.44610385961536e-07,0.242687572684333,0
2.44671358949313e-06,0.437035000240477,0
3.86434496560389e-06,0.498371882943627,0
5.18547775396089e-06,0.387698247727481,0
1.83447881090228e-05,0.63441094467045,0
3.16690735154901e-05,0.668894132337638,0
3.10189343127162e-05,0.473047704083764,0
3.00598450787919e-05,0.36890947283299,0
7.93086790746714e-05,0.289849628039353,0
0.000132808529615037,0.340900989373913,0
0.00013069060722611,0.298164696347711,0
0.000120499707968826,0.278026696812437,0
0.000113015863322021,0.255453336113716,0
0.000122637027852048,0.265811134145301,0
0.000141283979895641,0.28708732077527,0
0.000147110063394487,0.30167127378425,0
0.000107052777181429,0.260988547281535,0
5.82726022920038e-05,0.167362763510912,0
0.000220219968264348,0.189299171019016,0
0.000382257195420611,0.139808098885633,0
0.000365385657434341,0.118185453446993,0
0.000462606885171115,0.0963200025163191,0
0.000462413698750295,0.0737971344011652,0
0.000482492368029007,0.0693485265251533,0
0.000564883666996334,0.0673365620293648,0
0.000547962907355749,0.0564159762556214,0
0.000547599847133446,0.055568233958756,0
0.000643888778116453,0.0612678869521105,0
0.000727357160469408,0.0821566491324024,0
0.000770017754309349,0.101484043594758,0
0.000884734497272327,0.123825820104765,0
0.000784785975439335,0.180950636461575,0
0.000715596218420411,0.231104699906302,0
0.000564694504591706,0.317015960740889,0
0.000127980072905003,0.215363398406618,0
4.03337272038731e-05,0.247524406342162,0
4.0724837937076e-05,0.215190307848392,0
7.09376439938489e-05,0.18256923936491,0
0.000149969740293916,0.199100456501775,0
0.000152799205080437,0.191916250009412,0
0.000204518531038885,0.201978354397456,0
0.000253833427419129,0.218888407572937,0
0.000224288766505603,0.14139080468837,0
0.000208071464582724,0.127455950942719,0
0.000162919514033972,0.103242595385478,0
0.000144779963216892,0.0948355526364073,0
0.000137246471564406,0.0961790620761642,0
0.000124091698290604,0.119041315911912,0
0.000113767561321922,0.135354710164707,0
0.000107156441557945,0.147328690774753,0
0.000107921533319712,0.151011846939023,0
0.000616728183234576,0.0805360195429373,0
0.00126523847605936,0.0641096709160095,1
0.00114530351274934,0.0576825786047275,1
0.00110916377872255,0.0577322265374627,1
0.00111042048775064,0.0560754314902924,1
0.00116453532127199,0.0558594441412844,1
0.00106962923161797,0.0517769679462163,1
0.00102146942734334,0.0483659928955335,1
0.000892534763235048,0.0426161209256465,1
0.000892359486630098,0.0386394718709519,1
0.000807667433275101,0.0484899564420428,1
0.000611114447094205,0.0653059904985261,1
0.00122593224321059,0.0360558374629567,1
0.00521134733459602,0.0676348450264766,1
0.0117202112250505,0.108627513269965,1
0.0395374540154602,0.0256543699848003,1
0.119343436777357,0.0626515994974164,1
0.20405089118365,0.0918209064530618,1
0.231731058348958,0.0669661377501268,1
0.268133626286179,0.0593698138200897,1
0.265005529264857,0.0329362677662776,1
0.206126163932887,0.0291942188166892,1
0.150921677745634,0.0239801838016341,1
0.103166287717834,0.0172377324898612,1
0.0624400031259102,0.0104242079958628,1
0.0433745788105565,0.00927733160859535,1
0.0472294962915909,0.00746073067563237,1
0.0506635812854494,0.00794357980831963,1
0.051507483200069,0.00837733397222985,1
0.0501067482630228,0.0128021151419717,1
0.0521387533114979,0.0217777397596115,1
0.0782436273179745,0.0283584276204834,1
0.0895935474993095,0.0309299747555342,1
0.0915546142501434,0.0320607201140424,1
0.0743114403992629,0.0243560654344153,1
0.0733975729254792,0.0205218108001847,1
0.0804465687513736,0.0176371451282066,1
0.080892144644664,0.0149507315203265,1
0.10546031735084,0.0204393993956538,1
0.112186066797276,0.0212120453511761,1
0.107920673763899,0.0195485377493999,1
0.0799068583119543,0.0133541746331111,1
0.0770640003343069,0.0100596630260495,1
0.0913248098118648,0.0122966544662791,1
0.115278530630739,0.0166019955026425,1
0.111272126988227,0.0171077708743681,1
0.10122141239218,0.0208567633959629,1
0.100373515424913,0.0211363958967748,1
0.114954478935579,0.0199635405162567,1
0.127457290363978,0.0202137290678246,1
0.21790747908007,0.0250666201971841,1
0.286110170766629,0.0250659617543155,1
0.281149162808235,0.0310698864430182,1
0.261778054090402,0.0296257467566768,1
0.213912570506765,0.0242309493756648,1
0.150358840767289,0.0181355220797198,1
0.133596309198235,0.0112357686240635,1
0.109351042829833,0.00182443583039826,1
0.175046548999248,0.0060854609151912,1
0.180358444019102,0.00400279963403151,1
0.167193168054178,0.00531850073551856,1
0.153465341298333,0.00433624935988513,1
0.178966300169933,0.00517074790818992,1
0.183428738380201,0.0047855095938758,1
0.183954220907674,0.00534714102264365,1
0.180592395934961,0.00515893717219152,1
0.144462582150886,0.00524362062406153,1
0.126836963331481,0.0129392155783432,1
0.0952467708679474,0.0103421067043141,1
0.0893953411717599,0.0190281632667538,1
0.0772309152967513,0.0149300831570049,1
0.0948492565881003,0.0240256785974255,1
0.139056719121979,0.0319859832849758,1
0.179315626618425,0.0594835461255556,1
0.177863642733355,0.0657279036955424,1
0.145538876965116,0.0538054176230519,1
0.122351035882382,0.0594257216688977,1
0.120843102262873,0.0590998614289839,1
0.0852120641216181,0.0775082563716325,1
0.0375066387004452,0.0553563166905817,1
0.0100507286778504,0.0454615951976567,1
0.00306338400139074,0.0158732940816579,1
0.00309343411130017,0.0209430696040338,1
0.00339178782401241,0.0143782849137538,1
0.00340563416078586,0.0136796604096399,1
0.00298271862627831,0.0132807808583529,1
0.00270977289124139,0.0134847884794721,1
0.00294845888522084,0.0112125097661297,1
0.00352731287545995,0.0126355732347921,1
0.00365265518232083,0.0112724188149545,1
0.00444284416233656,0.0146155643019751,1
0.00477050799087972,0.0163234846076635,1
0.00680011873890656,0.0154852186876465,1
0.00870093241002461,0.0229697595553395,1
0.0135336733643243,0.0235541304021599,1
0.0379918949255157,0.0402445672112615,1
0.0426672993204209,0.0285016674228158,1
0.0407758008525259,0.0266463598638783,1
0.0428577841714398,0.0152540460814814,1
0.0971378203222016,0.0242210282590853,1
0.0922609118594511,0.0115252202726687,1
0.0763629420633207,0.00764799543713011,1
0.0853190415947855,0.00851760190654132,1
0.0756272687876612,0.00635283507179506,1
0.0728005610319834,0.0044828873420432,1
0.11546913541988,0.00855037759063641,1
0.112466537917808,0.00799038868773291,1
0.103939128083847,0.00702034203584179,1
0.102386934658244,0.00762205662189443,1
0.126951255609825,0.00883937808467695,1
0.113564198086052,0.0103383933421744,1
0.0930518992436604,0.010641172781246,1
0.11030422885964,0.00997837169156496,1
0.114466353873084,0.00983408852869707,1
0.0892244738974214,0.00801645721527222,1
0.118225901494796,0.0116251639104067,1
0.170005914546206,0.0178886306062072,1
0.210269598134133,0.0125502887951577,1
0.208584911115557,0.0126779550348934,1
0.211373867279313,0.0136468720021656,1
0.163887562497983,0.0107451091314413,1
0.122831361109222,0.00568594050138871,1
0.127619455533281,0.00729513122444744,1
0.126606648940168,0.00800830582911318,1
0.109384164482026,0.00684360294218191,1
0.111006422305864,0.00736883447748029,1
0.0810406894668863,0.00492558592303234,1
0.0587175451887127,0.00262841866875262,1
0.119084626526105,0.00857583376613012,1
0.114331768644947,0.00794472907369793,1
0.140620409873765,0.0105905005352899,1
0.171411691656045,0.014262162036056,1
0.270797270647466,0.0227632089246595,1
0.327174873098066,0.0262665390235822,1
0.317053995854226,0.0262461960876684,1
0.325097328435728,0.0266563650272163,1
0.283272095830271,0.0270583353247117,1
0.194750420584531,0.0312127356828762,1
0.187403146214613,0.0439143904916464,1
0.0824739981293666,0.0332914683344363,1
0.0375901416361385,0.024897019599483,1
0.0104669588708829,0.00860000692752651,1
0.00861401764719885,0.0121624659105876,1
0.0156707175566281,0.0191364784778022,1
0.0172454013451036,0.0145571003056925,1
0.0186651988340208,0.0144571243941237,1
0.0188438816070677,0.0146454291475159,1
0.0199517663536254,0.0169044205643274,1
0.0204501644637632,0.0169718343527625,1
0.0212050546573432,0.0173862385107458,1
0.0179523103585531,0.0153518281601721,1
0.0199114349274042,0.019328312227273,1
0.0193510731195863,0.0236056890487995,1
0.00827439890752133,0.0137122156699421,1
0.00267998556857389,0.00940301474756051,1
0.00265932735009577,0.011279254748455,1
0.00309662955564322,0.0091429046783796,1
0.00715571246329961,0.0196313566535635,1
0.010676787910599,0.0275100853188194,1
0.0205893844280974,0.0421993615600353,1
0.0389477087081867,0.0734180674189612,1
0.0468292767409957,0.0907130233689493,1
0.0663839997436228,0.0646171255205813,1
0.146136350141957,0.0603320797415149,1
0.140487217841528,0.0308454922610461,1
0.133495756615429,0.0216588261255775,1
0.134343517878788,0.0179490266431681,1
0.116491417199697,0.014362775088449,1
0.115655811196528,0.0143071860946256,1
0.106657911677798,0.0124760026907315,1
0.0888611433209168,0.0100123009823439,1
0.0655770939305093,0.00724903020854999,1
0.0679182643573316,0.00753471798902438,1
0.0786062616842561,0.00876375941868024,1
0.0828627524485822,0.00634770408500168,1
0.171711312139779,0.014310324398606,1
0.186690892891321,0.0178896863917365,1
0.164803441349796,0.0106593959157471,1
0.200348667059189,0.0110723545466707,1
0.223958179285319,0.00934001905701389,1
0.225430454901202,0.00961731608619349,1
0.273088086462661,0.0119016063330804,1
0.361060748892987,0.0148844326526886,1
0.444407185282643,0.0159551147139962,1
0.404946393278624,0.0192337986952823,1
0.403682583736392,0.0193874890515705,1
0.448774024217654,0.0201838279889335,1
0.493873788343966,0.0261809030301233,1
0.457347112818457,0.0275372194103966,1
0.537619747253793,0.0411507085823715,1
0.601100645887748,0.0464468448340534,1
0.599443694596778,0.0450293315990075,1
0.502092567315755,0.0563948664782596,1
0.298703228268617,0.0507718787921033,1
0.237507233001257,0.0433264277909529,1
0.137924954253853,0.0364018580420971,1
0.162528548392596,0.0460502488479308,1
0.175775236542697,0.0500937620248337,1
0.18626531236693,0.0597101796918014,1
0.165429097655244,0.0549220428847236,1
0.118493522116825,0.0504681132782654,1
0.0758298755557985,0.0446901648629851,1
0.033362995806678,0.0534327420133216,1
0.0179378018540848,0.0321321827917218,1
0.00504123305338629,0.0259997787214925,1
0.00239626749998669,0.0201284562711987,1
0.00234117954213821,0.0190818978459085,1
0.00524523599728755,0.0256414904132664,1
0.00538608413381463,0.0148679372880273,1
0.0054128549198509,0.0143737293022496,1
0.00585971573353872,0.0121634491945808,1
0.00693857636169406,0.0146955235609435,1
0.00639923675957814,0.0128976991332922,1
0.00754260812139762,0.0149788467087216,1
0.00816254731380139,0.0152440575192992,1
0.00806904525073807,0.0152440326310452,1
0.00865414634362848,0.0183871650836668,1
0.00432454137616083,0.0114649691923642,1
0.00288197471931531,0.0123807481864163,1
0.00296935326863133,0.0128306061228972,1
0.00354039224273759,0.0206141105667283,1
0.0393026078986797,0.0228237837766088,1
0.0705021129486949,0.024590463456301,1
0.0715612128960189,0.0257256661946086,1
0.0740577881366814,0.0240924826356195,1
0.0841175495583125,0.0236695476802122,1
0.0732734190063339,0.020231139472915,1
0.0617865968405811,0.0165194641091249,1
0.0449156127410947,0.0122548931088488,1
0.0340337173247895,0.00783174844693114,1
0.029025214561737,0.00340133293723752,1
0.264711191575426,0.0203584965665477,1
0.404343589699218,0.0216501959042897,1
0.390487185367296,0.0182176115385555,1
0.370787495628795,0.0180574650766844,1
0.368572304525977,0.0164564764958339,1
0.412181310072785,0.016506933628675,1
0.509812907034874,0.0200148590940017,1
0.441009360601663,0.015238067657411,1
0.352229981380046,0.0114390135354483,1
0.316835439338437,0.0109185911961575,1
0.290398336944489,0.018349379143999,1
0.276118402058281,0.0119973535748785,1
0.344208329689528,0.0163170738026437,1
0.308057181993797,0.00874261826926687,1
0.320699927139043,0.00994036916808975,1
0.318491894573437,0.00995537698954881,1
0.244937978815096,0.00704476259874641,1
0.2562003927609,0.00754345142628598,1
0.25710620056882,0.00722674450166533,1
0.274650825584332,0.00623848918389767,1
0.266576587281221,0.00232459429329726,1
0.330799226708847,0.00637114172115886,1
0.26985380140334,0.00386041461911859,1
0.264109741556743,0.00471419996610885,1
0.259929122804861,0.00521258876205766,1
0.2976500264643,0.00747590115744499,1
0.400950830660153,0.0109771555563881,1
0.442690470159752,0.0129578950599218,1
0.533828311281825,0.0161889866842148,1
0.423257508334693,0.0173471167932402,1
0.346320797698732,0.0290551070761086,1
0.378451076866424,0.0330238511339608,1
0.246425906109755,0.040118064697601,1
0.109352719538492,0.0377339675261856,1
0.0519569622064286,0.0183146302027417,1
0.0116777407502052,0.0102444664074369,1
0.0204372180898302,0.0149894302336438,1
0.0210793211556401,0.010848190655536,1
0.0203664597201734,0.0099704313740129,1
0.0207953747878165,0.00928915092489133,1
0.0194445460268559,0.00864656373465679,1
0.0161587078471723,0.00719541954325302,1
0.0177502390229283,0.0081763833261914,1
0.023720707007197,0.0123234052640909,1
0.0254650585180235,0.012616560118545,1
0.0253081140776191,0.0174337484389863,1
0.0128521698996015,0.0109341550722624,1
0.0127871049365592,0.0164955809153645,1
0.0130591916534809,0.0151815446094766,1
0.0117702122215985,0.0163792971062255,1
0.00862810311795333,0.0142661210441016,1
0.00836691055148892,0.0139142989806368,1
0.0176348155163123,0.0298919717339099,1
0.0308164993030233,0.0458506588170242,1
0.041578466147103,0.0484370986314988,1
0.052781659977787,0.0304949592959955,1
0.0779537193898382,0.0262059765307002,1
0.0731973164632114,0.0181982214362294,1
0.110998066727469,0.0228809307685926,1
0.0985547261690341,0.0191451831985838,1
0.0798268924049379,0.0158020921541917,1
0.0559397345717404,0.00782876655119901,1
0.105886689321205,0.0112727050466017,1
0.121015133945293,0.0120492044462632,1
0.16280627616367,0.0166487799068677,1
0.155093227029482,0.0165033475593902,1
0.243052552595896,0.018417264180814,1
0.391322216427736,0.0239688066019396,1
0.398136530052278,0.020559494169059,1
0.371907222510249,0.0177552210129167,1
0.295994619845985,0.0141498640823862,1
0.189900595149214,0.00982790005943486,1
0.183658425794135,0.0110164715348955,1
0.158176125522027,0.00842206679638951,1
0.160881610677726,0.00695283214157908,1
0.202156501242039,0.00891376593295517,1
0.204982112114615,0.0134555216701622,1
0.166730207874293,0.0109904375007527,1
0.205812622182501,0.00938456998330861,1
0.265435330240873,0.0115233628944724,1
0.282699132954228,0.00789308313266033,1
0.298961141724034,0.00857345835872074,1
0.301497518476408,0.00905280571513774,1
0.243344816250428,0.00707697296615874,1
0.269353866029951,0.00936153113761857,1
0.271315755112795,0.00877510236244448,1
0.266959239400968,0.00886649365728668,1
0.267748570972956,0.00978749281836751,1
0.257816845961207,0.0145598482165595,1
0.094013429678428,0.00480931015656203,1
0.0849193261956543,0.012443260560605,1
0.123265693021582,0.0161902277949321,1
0.17494713255638,0.0217397995726363,1
0.208979840098223,0.0249586230827216,1
0.228997995333491,0.0260627581948756,1
0.242517202953776,0.0346028239549364,1
0.224483986024407,0.0320365589011273,1
0.211212154666894,0.0390030455899195,1
0.0790065300461737,0.0187524919006557,1
0.0410966712944889,0.0251749549662599,1
0.0308655044617515,0.0181942161328007,1
0.0238472558576082,0.0188454219670025,1
0.0226344146738814,0.0169409932926317,1
0.0214515849434049,0.0151416358966112,1
0.0129660237063203,0.00960387440854225,1
0.00830419141926525,0.0110962179456391,1
0.00819987468111579,0.0115727591044743,1
0.0081578017366252,0.0117437090715037,1
0.00770013226570198,0.0198076737521677,1
0.00291926930378445,0.0166448493502525,1
0.00266479221175534,0.0264663419042467,1
0.00412747894655619,0.0279177920786852,1
0.00777750855188314,0.0184048796715458,1
0.0225050814729638,0.0347595825228843,1
0.021140384791051,0.0282176654507557,1
0.0242530841090667,0.0281700596874992,1
0.0283125576595998,0.0227011199796854,1
0.04090015690534,0.0246078934049707,1
0.0699484347585674,0.0107903570066681,1
0.187064278703877,0.0225081640672803,1
0.173680162807432,0.0194004149635895,1
0.16213051650354,0.0185120671292644,1
0.141311063585433,0.0166201223441534,1
0.15261962363367,0.0155986150430488,1
0.187251576229327,0.0184939306624463,1
0.227191384777185,0.0215214985254276,1
0.203166723650914,0.0209829502842619,1
0.244264731911266,0.0258409844226434,1
0.212577257805081,0.0200596587706462,1
0.216240014505648,0.0199679132162071,1
0.191707317795519,0.0205565941669981,1
0.335076295793932,0.0166922985963977,1
0.367366806837617,0.00865440143234878,1
0.321124440601039,0.00745959048310071,1
0.387269183645697,0.00823324177839206,1
0.528645397727496,0.0118731290881887,1
0.69469615176668,0.014340637169436,1
0.722440379317231,0.0137248695612487,1
0.629805305202498,0.0144869226282648,1
0.430008356992762,0.0101631098522845,1
0.31518587535763,0.00563854010833849,1
0.321014850443139,0.00856392155774778,1
0.376871852865429,0.0113391059630702,1
0.386001495547077,0.0119191862982376,1
0.411874237264564,0.0156196884310513,1
0.43967410116142,0.0183061596917576,1
0.366464214998445,0.0159389729046109,1
0.391186733218577,0.0186529503062362,1
0.386190355115499,0.0200362551118162,1
0.467139414669425,0.0214505262047478,1
0.495835076225845,0.0295031328660698,1
0.282051460807413,0.0219194641478148,1
0.277938903158765,0.0464017261444655,1
0.310306721477173,0.0602946188588447,1
0.274321698109415,0.0659052561875194,1
0.242161648797573,0.0663465733427914,1
0.186215162636784,0.0604272664255606,1
0.132454971938301,0.0455729336203232,1
0.0707885574465573,0.0237194398735765,1
0.0437351738705564,0.0364575662197936,1
0.047121471401944,0.0373610675516896,1
0.0483155496436734,0.0443262123598054,1
0.0330060658986367,0.0353354006323446,1
0.0185891332535117,0.026197752336774,1
0.0176193915775984,0.0298303080872499,1
0.0184212535943145,0.0311831151308582,1
0.0148244646192598,0.0219035920958015,1
0.00538636388764977,0.00827502845564973,1
0.00499770080600226,0.0225858237617592,1
0.00451702431763472,0.0226732428120789,1
0.00473756155656597,0.0219404150221329,1
0.0050524398190758,0.0133291826855996,1
0.00798103671354074,0.0193368240590725,1
0.0251794886044543,0.0265069274809983,1
0.0435029258944049,0.0301089846337633,1
0.0484401315352344,0.0322594980016884,1
0.0579162319755916,0.0307152895383274,1
0.054075018900801,0.0273151793802235,1
0.0575438371651867,0.0220165724750415,1
0.057455925934925,0.0219866753309997,1
0.138014214961795,0.0234276344974067,1
0.164792262302988,0.0135310567907589,1
0.149074430286929,0.011725494682355,1
0.174066191647955,0.0136215856392128,1
0.170372167111784,0.0132793920060246,1
0.211872192578669,0.0134645289500615,1
0.21327961086711,0.0120259747525413,1
0.152007162262956,0.00862438042816116,1
0.1577448940045,0.00742663019066833,1
0.151562919820972,0.00476690733804988,1
0.143383112936992,0.00589557682649668,1
0.128936206559864,0.00775668377952849,1
0.101311323133589,0.00560644195931029,1
0.184577698942506,0.00986153371894766,1
0.197140000085348,0.00883350049593766,1
0.190914414277592,0.0103380927862377,1
0.181687393840406,0.011763071545043,1
0.19831556217884,0.00965617838044593,1
0.235076069215882,0.0135389900311754,1
0.25755393457735,0.0217510303108787,1
0.20874332690522,0.0145445002995806,1
0.165167553539178,0.0104147646584991,1
0.127679616392105,0.00712291809902227,1
0.118577488220807,0.00918386720001286,1
0.116353643167625,0.0115613105465113,1
0.12754002350231,0.0118096218338954,1
0.146286251354421,0.0123467141533842,1
0.153295635314185,0.0118255198172973,1
0.144345431362955,0.00798320821288148,1
0.146372431378631,0.00735553864353538,1
0.122018447087127,0.00663623284121417,1
0.113552122385943,0.00609407146256964,1
0.11221703062786,0.00683621519387071,1
0.120571082651888,0.00510953578056497,1
0.263901641437567,0.0110976376694828,1
0.442944927998323,0.0187118367699123,1
0.606241982468996,0.0256518831013683,1
0.665061102120442,0.0383881932979835,1
0.664941902150629,0.0456335672257087,1
0.70555748277431,0.0554538894598743,1
0.578735657829741,0.0573396737617788,1
0.465430453851269,0.0476508228539769,1
0.226778414430177,0.0251422241738485,1
0.0422285400572404,0.0120088700961918,1
0.0150774384704402,0.0304865600062822,1
0.0109519969000136,0.0192151466402319,1
0.00732590881809848,0.0113549125357352,1
0.00904864095047873,0.0189649743857735,1
0.00941813221707103,0.0139590624561258,1
0.00937257976501614,0.00946211948453571,1
0.0126417677872313,0.0129049864072559,1
0.0139441014724165,0.0139175750879875,1
0.0133739019798509,0.0156855140306639,1
0.00782605362191434,0.00859661952252696,1
0.00913658752455543,0.0131049638360978,1
0.012531271111244,0.012859968278522,1
0.0331164405456421,0.0332663091454198,1
0.0447616466722494,0.0408656059096024,1
0.0628565776021251,0.0556000768358872,1
0.0885141166583572,0.0559358489419,1
0.120491620771674,0.0523339751902483,1
0.110757931675977,0.0503478325244667,1
0.0907332110836164,0.024206140774322,1
0.0811322442213714,0.0150018720480084,1
0.0999526545578496,0.0124593071876075,1
0.0843662568443434,0.00796369629903585,1
0.167374667961778,0.00525363297989328,1
0.310725808655466,0.00998868873721711,1
0.328994337156619,0.0102194617205002,1
0.410206384282912,0.0131220956560601,1
0.429084216189269,0.0141702975774813,1
0.522619530296757,0.0114457697121048,1
0.78220427341384,0.016479812879427,1
0.556677781009672,0.010114400223413,1
0.495074785815152,0.0094004271285156,1
0.346310000458246,0.00613724763845495,1
0.297750296266097,0.0080113118077791,1
0.312361867269237,0.00888110671648728,1
0.269086399357482,0.00744492811495369,1
0.278833241970825,0.00860770011655132,1
0.33720122709627,0.00537317027722287,1
0.407829562626094,0.00766095916281365,1
0.307101919071036,0.00647207697115589,1
0.325078216896506,0.00791480420175993,1
0.373032054383576,0.00924964658097359,1
0.465930874257989,0.0116793121364031,1
0.458231802301779,0.0119850575071169,1
0.462630734027105,0.0119658062868057,1
0.49302818636286,0.0128230783624652,1
0.526248076661609,0.012438067450182,1
0.36533930511024,0.022529043394688,1
0.151228401260629,0.0167433738796663,1
0.18040576622738,0.0145497015720209,1
0.163540969877057,0.012795889679226,1
0.187833945120059,0.0127218695207115,1
0.198416461722049,0.00928504731800962,1
0.192496526768836,0.00958198360260728,1
0.197858335798479,0.00962957382589027,1
0.185957253316677,0.0094516592058762,1
0.224596860048517,0.00938203119740705,1
0.244145179656197,0.00987503453729372,1
0.279412403199327,0.0141124820350798,1
0.302220297272954,0.0161237822966937,1
0.34755003299898,0.0201016288692454,1
0.251248955468277,0.0198933931195151,1
0.140486672225666,0.0163796670743369,1
0.134918487818668,0.0187987205586726,1
0.11295046850455,0.0203282268278322,1
0.0360009607784177,0.00531602547097842,1
0.0314731600073923,0.0138386683757737,1
0.026730466159416,0.0151676090488262,1
0.0210150192633397,0.0170960344292956,1
0.0152023409551249,0.0160241805901235,1
0.0146282451548115,0.0223602649493923,1
0.0151805285993289,0.0208690844065627,1
0.0147707590773889,0.0215899660099116,1
0.0149534632850812,0.0146205796476732,1
0.0164076847352288,0.0183566374188372,1
0.0253601712154713,0.0521757096216757,1
0.0236492210252117,0.0246372574187868,1
0.0265008742574408,0.0128832524549562,1
0.0351159859178208,0.0118067675979384,1
0.0324105753770422,0.00998605329936541,1
0.0499441139514369,0.0114515718421566,1
0.0556423812729799,0.00868496499681563,1
0.0463891310034269,0.00367509312311586,1
0.106530531132089,0.0109711132607518,1
0.139852162828664,0.0138495321769647,1
0.16196808431556,0.0163029301814725,1
0.174220560166482,0.0189962896421103,1
0.151027231991922,0.015345382366698,1
0.151223986998976,0.0149627228057633,1
0.101153148265374,0.00892988978043017,1
0.102834117323537,0.00889393184899065,1
0.0950409963576764,0.00917916354454019,1
0.0549619964198743,0.00517400564491284,1
0.178945722545927,0.000766768101296848,1
0.538900979267217,0.00972532061916173,1
0.56593540524875,0.0108371026956065,1
0.620541925213693,0.0109973359119066,1
0.551282304139581,0.00932512230552649,1
0.642554912194129,0.0105412146501216,1
0.588913185344902,0.0092177192775978,1
0.578000265837951,0.00892584358423611,1
0.519084816322061,0.00768818125608377,1
0.308738055231679,0.00246808238680748,1
0.30658991274309,0.0107066461864368,1
0.242920272631741,0.00991549743538256,1
0.252516518506835,0.0105487969114067,1
0.271230865551167,0.0136314622375894,1
0.28203099886471,0.0188968546849846,1
0.209422397542003,0.0216392638810546,1
0.207179231522926,0.0135831073125458,1
0.32538192496288,0.0219390556756501,1
0.468571169539729,0.028990881317605,1
0.494436956170429,0.029714897114814,1
0.462765606700849,0.0240924561673401,1
0.524148937505982,0.0277735934525815,1
0.62351891163176,0.0313985964284296,1
0.628965138090373,0.0281677167830385,1
0.629424636170859,0.0215440918017428,1
0.843642655351337,0.0241790312939091,1
0.975231976240224,0.0433439526194571,1
0.802791689235301,0.0423515797655743,1
0.545935689761435,0.0323596406865083,1
0.375038019370227,0.0260982963982152,1
0.329523589169995,0.0262197820702366,1
0.329092431152645,0.0270246133719851,1
0.333237239643735,0.0267652562147808,1
0.212379620174113,0.0261956823725181,1
0.0386667303164971,0.0204951688902513,1
0.0279637135601602,0.0453732814920465,1
0.0145603692183523,0.0319826077297144,1
0.00468665510470787,0.0134312206451288,1
0.00574985739115096,0.0265112822734355,1
0.00785831704631615,0.0304981801963485,1
0.00822269064550469,0.0335868778171567,1
0.00803514222417716,0.0430063654150439,1
0.00785496287156641,0.0605163049332487,1
0.00671568596830075,0.0567623129494764,1
0.00787160927657064,0.0363385121816322,1
0.00674808431710036,0.0220855805785769,1
0.00815253730257295,0.012733333485192,1
0.020875092217991,0.0317363827493903,1
0.0290682690261376,0.0390073122357359,1
0.0852198074161807,0.0386194482007547,1
0.111942336132166,0.0310462591426647,1
0.132929337045646,0.0345319628396231,1
0.127735247157926,0.0276152696981292,1
0.124633678966051,0.0208637621304313,1
0.155972639781711,0.025731028838233,1
0.145145828124562,0.0214827852319696,1
0.103716059348225,0.0134088888244227,1
0.118845022603897,0.0140540740516123,1
0.11554169364778,0.0106936734609581,1
0.111834926313364,0.0136276798306673,1
0.110077536911524,0.0156554068851112,1
0.114977683431557,0.0172875752069048,1
0.111346708353049,0.0181708753350193,1
0.124848303210724,0.0207289042634151,1
0.140410680366719,0.0225531844613955,1
0.14609439950536,0.0269626444981418,1
0.151994314153149,0.0365517533458674,1
0.122581925600922,0.0245435518681025,1
0.191781168528498,0.0335310312960187,1
0.198952158529887,0.027282936861364,1
0.246538064907943,0.0207479977790118,1
0.4809018366867,0.0313078467441565,1
0.498614439415863,0.0289837443465573,1
0.551618140345192,0.0300444455313014,1
0.544229033261786,0.0337838432751626,1
0.451375696828121,0.026467057021566,1
0.356468482409757,0.0198357161408705,1
0.282132746005981,0.017995684181505,1
0.266364415095416,0.0183300587747371,1
0.147712843319881,0.0101206836829409,1
0.164238981240093,0.00896462881617956,1
0.518588481123253,0.0262801211331972,1
0.622069551702632,0.0220412237251484,1
0.630708585339786,0.0207326670433974,1
0.796308641373865,0.0228540793189822,1
0.856894378178914,0.0217619473863188,1
0.845181437488403,0.024276494609035,1
0.656358970170295,0.0166442574034824,1
0.471853056548998,0.0118331921918937,1
0.263763820261783,0.00575308490644951,1
0.255644771336826,0.00952609639898645,1
0.305407725255481,0.0105153756252186,1
0.251115130312545,0.015183410654146,1
0.188093568496537,0.0129305043635748,1
0.26125078859573,0.0189175223741838,1
0.247645332805651,0.0197621608018993,1
0.247254863970769,0.0216694695041717,1
0.171734835290018,0.0174772111614033,1
0.115603119744437,0.0116061988718777,1
0.092688543984911,0.00895766058375377,1
0.0919201572159411,0.00856810778614893,1
0.093241149512183,0.0162395820862608,1
0.0306351079237046,0.00692072116194665,1
0.0280680872706108,0.0130197654924073,1
0.0304250803112857,0.0138293759139989,1
0.0360476036980077,0.0184993996572215,1
0.0393427200954714,0.0209785346740739,1
0.0330930924363524,0.0233668538303908,1
0.0354476065732607,0.0302174188520584,1
0.0209471005604439,0.0330013670642391,1
0.00738836783909905,0.0201770208051196,1
0.00583801370430511,0.0214130910869721,1
0.00611911089879463,0.0220569280305154,1
0.00511877744347468,0.0206047934559114,1
0.00472196017709188,0.0270598967736342,1
0.00526612303016981,0.0252255300208604,1
0.00689108086659023,0.0297176169315102,1
0.00624600888322608,0.0307831280346031,1
0.00518490638706791,0.0270834047693882,1
0.00576105728618428,0.0277430026071139,1
0.00426642811271422,0.0140681224293696,1
0.0042694846027857,0.0174902019177538,1
0.00489618949142554,0.0205708011314819,1
0.00821184868304688,0.0268657327760899,1
0.0101411036838186,0.0206089244434849,1
0.0104126317835744,0.0178445416018877,1
0.0117130420035888,0.0154501785935503,1
0.0117571189212098,0.0110727554441746,1
0.0476314915360561,0.0175426443229601,1
0.0618937696420959,0.0067587258902667,1
0.0653055347886648,0.00791452960848636,1
0.064578727834759,0.00712196212325335,1
0.0649251516264881,0.00678516918500849,1
0.0877231765763141,0.00933909675791083,1
0.0884750321568811,0.00743899244177786,1
0.0782398132649506,0.0060152331522098,1
0.0751946989803065,0.00555045122311041,1
0.0718305336773548,0.005138673460546,1
0.0563520814215305,0.00559276830463865,1
0.0413685496841633,0.0105253380689872,1
0.0535663711604751,0.00995987405341017,1
0.0608269970516422,0.0052553894392809,1
0.0639119555797395,0.00404821964804715,1
0.107859206055052,0.00787920824443454,1
0.114193311765773,0.00618545531932907,1
0.1236498016494,0.00302822787196887,1
0.243111983777814,0.00980734391372097,1
0.231233809060448,0.00518037062679007,1
0.21654900255528,0.00473210233325417,1
0.206198580868435,0.00451917623361994,1
0.204703264527213,0.00475550783868544,1
0.1967042381507,0.00577622322389962,1
0.169647392730631,0.00504395432183483,1
0.163172310641147,0.00523560851522519,1
0.171315922744145,0.00812167214575568,1
0.181092826136628,0.0109219083096182,1
0.118247365774994,0.00762048308136894,1
0.142700877376178,0.0201850365191355,1
0.134243930302436,0.0118314750980486,1
0.121534659598528,0.00986274657784121,1
0.1209222068191,0.011124153574547,1
0.122430903758975,0.0107171861818554,1
0.12343383843782,0.0106258502212097,1
0.120215106948449,0.0098418519120287,1
0.0980684870616375,0.00623774690633786,1
0.0910283236091406,0.0107635725539041,1
0.10408892836713,0.0114201971269403,1
0.0658683245138073,0.00616430024968541,1
0.0764767885056934,0.0109938421935201,1
0.0880342471570589,0.0133559045164843,1
0.0910979740787653,0.0135310725866225,1
0.100104937297304,0.0161666198693125,1
0.113715496266556,0.0183248180324045,1
0.0891109083273837,0.0177885634421481,1
0.0471334943188318,0.0121958249296838,1
0.0341493188175227,0.00854799909300383,1
0.0347876210570541,0.0101081168543475,1
0.0279497623386783,0.0101516597990761,1
0.0282539726613598,0.0168791413252927,1
0.0248887777751452,0.0204639783368515,1
0.0135264092333347,0.0123498976032363,1
0.0112465078238527,0.0156400738213317,1
0.0115659387157772,0.0162787292315403,1
0.0096456343477986,0.0215785037086073,1
0.00631717185410331,0.0187156912988695,1
0.00557261094000809,0.0163492026074754,1
0.0039851656770283,0.0175276225707645,1
0.00436848926602772,0.0158552721046133,1
0.00436938833851403,0.0110989251710433,1
0.00544854788339469,0.0129796309101944,1
0.00747974266755233,0.0178489590465047,1
0.0092223401687173,0.0212575953429593,1
0.0111835657830303,0.0255777224666609,1
0.0117218913617531,0.0349694571291486,1
0.00887626427580725,0.0331676810079452,1
0.0090862301616622,0.0411796990584732,1
0.00951899550388196,0.0431421447424846,1
0.00603206716303575,0.0908435871661247,1
0.00088299538827599,0.0906683004802462,1
0.000228223106403196,0.291173108445637,1
0.000178740971237146,0.328524897983375,1
0.000193047773245618,0.429239568191686,0
0.000225890900045434,0.552149583253109,0
0.000222129292004122,0.646413934507833,0
0.000117874060834019,0.743768707447796,0
5.14365562138904e-05,0.745858729250283,0
3.57254742362712e-05,0.668114276450296,0
2.73924125790734e-05,0.50565187439829,0
2.13345860297937e-05,0.423009758522812,0
1.40237492971139e-05,0.335389020079742,0
1.61258393631528e-05,0.155592586130099,0
0.000105198045307187,0.236478799544805,0
0.000135157125217605,0.199550776048871,0
0.000136882798397563,0.192012704617807,0
0.000151446655767935,0.17915923992738,0
0.000148351232078164,0.173793336729119,0
0.000130482488298803,0.16604570625468,0
0.000127221947924031,0.161109611061342,0
0.000125695713769927,0.162540517829451,0
0.000115660299212036,0.147638558385347,0
0.000119843564583039,0.139101535704652,0
0.000259575651664149,0.184870215414575,0
0.000279466595601047,0.107469838023692,0
0.000317645666549163,0.121701834358517,0
0.000328933122534689,0.126515908661596,0
0.000332353747321301,0.130641135227313,0
0.000332347476993293,0.129353577279712,0
0.000332695703987801,0.131976668411749,0
0.000343381365287865,0.133138461067416,0
0.000356500357379769,0.139764189834925,0
0.000354919752897304,0.180378041146657,0
9.77280022008374e-05,0.127357694248539,0
3.25585505135007e-05,0.403133324055916,0
3.53942769167369e-05,0.445542595266301,0
3.96991163299303e-05,0.544497870605155,0
3.38599694975407e-05,0.507205198609468,0
1.82653555433583e-05,0.366291716766084,0
1.16390901466258e-05,0.303524023467911,0
1.19590578596127e-05,0.333774067577294,0
6.79471490195119e-06,0.299724706160839,0
5.02462164179279e-06,0.383931403417632,0
4.92843711114029e-06,0.448307674414891,0
2.3554260065832e-06,0.331752669046722,0
1.5613399104718e-06,0.28368635715386,0
1.50830991954406e-06,0.291910992670117,0
1.47956190449478e-06,0.28883918335171,0
8.81138188702956e-07,0.231812035977529,0
6.68524985623017e-07,0.209635512997845,0
6.43085759641611e-07,0.209446961325569,0
3.92475552370344e-07,0.167727916678128,0
4.24880507783874e-07,0.175233366656357,0
4.99752561816237e-07,0.197632674726307,0
4.31337677988406e-07,0.188321158312388,0
4.35480047597659e-07,0.191061932719105,0
4.54519177357547e-07,0.198012741271856,0
4.31587451761437e-07,0.199685533346752,0
3.81620681579919e-07,0.202864129667341,0
3.12692882878426e-07,0.190666431860264,0
3.19007518320117e-07,0.187823060896207,0
3.90965194546173e-07,0.200801488403899,0
3.93674856987091e-07,0.199588386152285,0
3.7013979931265e-07,0.19317141667511,0
3.78586748798668e-07,0.197464933556206,0
3.60055126903525e-07,0.192595966624744,0
2.79990091390381e-07,0.16641509375314,0
2.66380049167319e-07,0.165908790448611,0
2.67274458559019e-07,0.163349520986363,0
2.3691710738345e-07,0.150695449364355,0
2.93732905721296e-07,0.174072424615477,0
2.37724704243092e-07,0.164672756045013,0
2.36868594497888e-07,0.16647765674659,0
2.44919630775422e-07,0.159586916734646,0
2.91408492665719e-07,0.171554660575366,0
3.01779586352758e-07,0.176601284161032,0
3.08660906367897e-07,0.182591534612634,0
3.12831061995196e-07,0.181676679924869,0
2.63272070402842e-07,0.177995032070656,0
3.32991395131919e-07,0.190652699001707,0
5.15089692804231e-07,0.226605558642231,0
5.09099928481641e-07,0.212672372900532,0
5.51913976839321e-07,0.217322341692666,0
6.09288349237241e-07,0.214804689116544,0
7.75242670035377e-07,0.236731387044079,0
9.46106404735532e-07,0.237727400187914,0
9.33935377857873e-07,0.222407115822807,0
1.17663002446392e-06,0.236491121560283,0
1.5517420190599e-06,0.259872526481372,0
1.62680331840436e-06,0.265760292789892,0
1.65307357161738e-06,0.270202448718496,0
1.70265464182948e-06,0.270279262953225,0
1.67950708646077e-06,0.274471502361731,0
1.54953235474912e-06,0.282567896670615,0
1.04028823936302e-06,0.231088530881654,0
1.18337752100836e-06,0.256351123940305,0
1.41604396840952e-06,0.301747958932983,0
1.33584000280615e-06,0.315351119537153,0
7.61556929687476e-07,0.244543908137863,0
7.20466065032731e-07,0.253549035157999,0
6.66230761700561e-07,0.244870171840176,0
5.54212406213157e-07,0.236989006089031,0
5.30695071512389e-07,0.243179190930345,0
5.46356623035407e-07,0.249553162751671,0
3.75931306641613e-07,0.217794835226886,0
3.92048999444664e-07,0.22565373478146,0
4.05423536390449e-07,0.225803918548365,0
3.78619341046863e-07,0.224261068647197,0
4.00067143084619e-07,0.210498906960297,0
9.44904396614325e-07,0.300339083616165,0
9.99137296831421e-07,0.305437520980189,0
9.93636416231752e-07,0.311507799082266,0
8.73474804925838e-07,0.28255959235171,0
7.01526514353733e-07,0.250457417768423,0
5.2792788450438e-07,0.212593417947707,0
5.34450539594686e-07,0.208310074774095,0
6.34611024137546e-07,0.215574471819843,0
5.27212206796327e-07,0.193282814204703,0
4.57621749113108e-07,0.190563677749709,0
3.72759194743591e-07,0.173459391229118,0
5.08357365923696e-07,0.192694862223327,0
5.22265394415966e-07,0.19056759410296,0
5.16897586313534e-07,0.189641265876175,0
5.2201667200578e-07,0.182699005453672,0
1.43518718309106e-06,0.291587944721551,0
1.97468546589923e-06,0.305827712978693,0
2.05352791661834e-06,0.318497791838546,0
1.99728300830532e-06,0.313983950210031,0
2.06806556126007e-06,0.325377527815277,0
2.04613488328708e-06,0.327570243663288,0
2.07121964979504e-06,0.330854938393039,0
2.40462558227726e-06,0.351976144458744,0
2.40657435840779e-06,0.343730979429968,0
2.37670438900822e-06,0.348400122956363,0
1.38760745715174e-06,0.294058155900603,0
4.70355255112833e-07,0.197631160343762,0
4.92812816065855e-07,0.199764747014081,0
5.48394614813071e-07,0.207035845308071,0
5.72864334056706e-07,0.209812186377816,0
5.77556416239196e-07,0.205503748395997,0
4.7979874638121e-07,0.197770447768164,0
2.96868370114435e-07,0.160764131961439,0
2.45699291422327e-07,0.148644163055037,0
6.24548129958782e-07,0.217013645684717,0
7.11050509977095e-07,0.21041236300988,0
7.59675290584331e-07,0.222448714132029,0
8.04183985653441e-07,0.241199300732351,0
7.82166044564317e-07,0.239738355487808,0
7.56582481483762e-07,0.235707938795998,0
7.34637084430941e-07,0.240115085279454,0
8.28314264892837e-07,0.253921784738547,0
8.69365478148855e-07,0.251017369312943,0
8.7665412616908e-07,0.259511837604479,0
3.3506288032593e-07,0.176427090535916,0
2.57728083926528e-07,0.175789994083507,0
2.48911054719073e-07,0.168595524198557,0
2.57701799855402e-07,0.16649510189968,0
2.25489844621275e-07,0.160513472823433,0
2.20323597795695e-07,0.165083441386467,0
3.47506210180439e-07,0.198839389603723,0
4.97312198458328e-07,0.230223127756925,0
4.70288418474832e-07,0.229167260089797,0
4.58754217091852e-07,0.225026615932566,0
4.44237599707025e-07,0.222997837779157,0
4.07832659252392e-07,0.223150554102288,0
3.9694008959424e-07,0.217409896107578,0
3.22212222466331e-07,0.198989340038705,0
2.8214148016061e-07,0.186124097168804,0
2.59583288763855e-07,0.175242993515622,0
2.1494918112681e-07,0.178427180700703,0
7.45988498873587e-08,0.120961781166124,0
5.83093343564977e-08,0.122324703241052,0
1.14729519875245e-07,0.145795486001631,0
2.21818335371884e-07,0.182715257946534,0
6.73074232653282e-07,0.280869197988081,0
7.48128172457828e-07,0.26120481305078,0
7.70811175643752e-07,0.264938059488657,0
8.11628836153492e-07,0.274859139064032,0
8.48429539621917e-07,0.283810631685503,0
8.6948788682295e-07,0.266472074856244,0
9.08724748197904e-07,0.256853865973381,0
8.70612544677704e-07,0.245426537964087,0
8.6504888269672e-07,0.255274548422815,0
8.52595189408451e-07,0.259741150475795,0
3.5632789542335e-07,0.174598598669207,0
2.95161407438251e-07,0.172547191602858,0
3.09041349523091e-07,0.17855500901264,0
3.09705210062354e-07,0.176693687163001,0
3.41475442706895e-07,0.178365334707393,0
4.02130067181178e-07,0.205751079322659,0
6.84910625756849e-07,0.249581536821666,0
1.88545284676717e-06,0.4020998328975,0
1.95130420758954e-06,0.383260710997673,0
1.73667974738714e-06,0.35121572038433,0
1.81514130436698e-06,0.350043398573865,0
1.85989571795244e-06,0.349134974177315,0
1.60467483402182e-06,0.324327904713949,0
1.32361415486586e-06,0.290387414439885,0
1.28734228690846e-06,0.279385922357626,0
1.50510656715007e-06,0.300639967065552,0
1.4117785893474e-06,0.300407073143921,0
1.16608034928792e-06,0.266379794242559,0
1.32320802841831e-06,0.277691739242573,0
1.38094286807736e-06,0.28222904058004,0
1.24982725748421e-06,0.272612778479865,0
1.10868930527918e-06,0.251366915724204,0
4.95395319174566e-05,0.0966294592584004,0
0.000455748430795908,0.214883779815906,0
0.000594981857981587,0.142145342302147,0
0.000581656863656173,0.130825592859676,0
0.000579360615710046,0.125297570295076,0
0.000584308436647764,0.12279113629695,0
0.000573567874832076,0.114779049471075,0
0.000701067401772105,0.0665651147227506,0
0.0015014977487146,0.0687424477209376,0
0.001443013566559,0.0477643206979868,0
0.00146061129002418,0.0538405714043635,0
0.00138623504293907,0.0566484198014266,0
0.00138354978413173,0.0628547975647281,0
0.00140334585203413,0.0629737317380248,0
0.00140104379620945,0.0634017540288197,0
0.00139929749709281,0.0618995803043816,0
0.0014296398250443,0.0630139180535823,0
0.00132613779096732,0.108001248035914,0
0.000193874471115234,0.0796594374439954,0
8.97946852187202e-06,0.482059682021424,0
2.95449060312639e-06,0.400459240586601,0
1.64998256485312e-06,0.211137376725294,0
9.65860851736211e-06,0.468649119740101,0
1.22590830217666e-05,0.481451467534158,0
1.28925893639434e-05,0.441350178836647,0
1.28405767918603e-05,0.431725403574515,0
1.67063143626497e-05,0.358894901397351,0
2.87645004186862e-05,0.361634003339126,0
2.89452382528371e-05,0.304418985002905,0
2.91054868274755e-05,0.301294220826895,0
2.67344497347858e-05,0.287637763848548,0
2.71680738265727e-05,0.316812650700229,0
2.63136534712653e-05,0.318263296203746,0
2.61623593539778e-05,0.317989789311132,0
2.5987577340149e-05,0.321746000155931,0
2.55985580680343e-05,0.30784572339113,0
2.10960388594164e-05,0.426988824563272,0
2.05696211825415e-06,0.197411931802996,0
1.59340422432355e-06,0.415768554635789,0
1.47382762134352e-06,0.374134429703598,0
1.39998950757186e-06,0.348904767057029,0
1.28340847764872e-05,0.15395058286958,0
0.000113493225309717,0.250775640108219,0
0.000123352896607749,0.176104705166882,0
0.000599524729547558,0.0372047942064387,0
0.00438888461645916,0.0762738466106399,0
0.00546514396431558,0.0457381162398516,0
0.00571227996769751,0.0360529129630671,0
0.0148769494455095,0.0306955561380478,0
0.0230801386271468,0.0308724152618294,0
0.0245924192293483,0.0329210856824969,0
0.0251188043285438,0.0279779685333621,0
0.0219172724029671,0.0216495643592984,0
0.0173444918854651,0.017261794074015,0
0.013591684208959,0.0149801655941561,0
0.0134524905715014,0.0149830192078623,0
0.0118430632554028,0.011536346659992,0
0.0121208407807209,0.0117078546309376,0
0.0141597736090854,0.023825809423918,0
0.0121184027676096,0.0241341492210571,0
0.0127353687901469,0.0281180443362764,0
0.0104168187976547,0.0273141880065944,0
0.010438989540215,0.030501534799726,0
0.0105231865517145,0.0348185002439221,0
0.00927918626327709,0.0318314863461799,0
0.00646900976013532,0.0269130909687227,0
0.0015121257743035,0.016243156376959,0
0.00147584257806164,0.025259126842855,0
0.00141081651199008,0.0266997543698626,0
0.00134389551143103,0.0283614306335391,0
0.00134465659945289,0.0316479808478121,0
0.00122465917137196,0.0216787974032312,0
0.00184361077314645,0.0384193895945205,0
0.00198963293252891,0.0319574935288634,0
0.00207124672764511,0.030987013166326,0
0.00176377847527299,0.0314619331864965,0
0.0017377535192802,0.0317595043782792,0
0.00201584504237271,0.0257024464042966,0
0.00321043908676914,0.0260082519344064,0
0.00320801710784233,0.0229362458335795,0
0.00307268650835608,0.0228015954126069,0
0.00307484095388868,0.0265899434878446,0
0.00269744911801396,0.0240200834829463,0
0.00263661818674934,0.02844104068503,0
0.00350582722435978,0.024462502055436,0
0.00413080851701225,0.0194738715929964,0
0.00391387176626827,0.0192569972243257,0
0.00383222294094363,0.022763263643793,0
0.00268221302675024,0.0220800373895863,0
0.002659493857884,0.0245552847640214,0
0.00273254700913613,0.025275526789814,0
0.00294798073335926,0.0245204444093889,0
0.00269325122443092,0.0212578452023896,0
0.00279506172983828,0.022892816716889,0
0.00258428880059113,0.0381495878964325,0
0.00191960514199637,0.0594020495892264,0
0.00196426596220999,0.0614116372975491,0
0.00208383807136483,0.0691417095606205,0
0.00214667790169525,0.0730146650540324,0
0.0023524613707792,0.0824615800217176,0
0.00179963053044171,0.0768824224308062,0
0.000473891571115934,0.0405362826981823,0
0.000363284078480839,0.03387508739381,0
0.000454355342133661,0.0405587688229219,0
0.000487367696146811,0.0454031576067549,0
0.000519519126674874,0.0637447532019992,0
0.000473028735201832,0.0603117121977987,0
0.000500937333143988,0.0511613007231395,0
0.000586947364147445,0.0571992864751294,0
0.000662986886328052,0.0676872040874816,0
0.000690949005247584,0.076411635766002,0
0.000508632531010601,0.0786376592019429,0
0.000246638196892743,0.0981746989543937,0
0.000298446676768304,0.112872357520628,0
0.00036199836866004,0.129313282434812,0
0.000387823443754195,0.152414167269846,0
0.000183718082092363,0.126316331248072,0
0.000110966348607577,0.155285210532873,0
0.000116399221050645,0.155923210791738,0
0.00011890195801128,0.152215026126868,0
0.00011412954615023,0.162285656661101,0
9.76627073113495e-05,0.148897225198878,0
9.4526350010766e-05,0.140011394218597,0
8.94786909063138e-05,0.148974036158002,0
7.03037360310653e-05,0.126709899064718,0
8.02241758011486e-05,0.104234473940826,0
8.0176875287142e-05,0.110263137767998,0
5.94442542635914e-05,0.130090068096191,0
6.61274847521857e-05,0.117703570663352,0
0.000127618622319215,0.141046487125763,0
0.000144944141785845,0.0980106586458195,0
0.00017605172250781,0.109487233210623,0
0.000179422218764557,0.111418527162675,0
0.000182738902816418,0.112473795188411,0
0.000208372531795652,0.122988829555121,0
0.000225277467073667,0.161072333102716,0
0.000221255506596572,0.18378128556996,0
0.000239997545998592,0.192300647250335,0
0.00022366365454477,0.229751574028435,0
6.78185976828976e-05,0.15173328497893,0
3.96386509507681e-05,0.421736156767775,0
4.01223613677114e-05,0.532113019025737,0
2.4852001532835e-05,0.557004007821342,0
2.52284742913417e-06,0.233518574319466,0
1.97323758906699e-06,0.372394658404524,0
2.93150841211372e-06,0.419312407117274,0
3.10154442386549e-06,0.397916243851185,0
3.3777880588551e-06,0.360412214599274,0
4.04283032995675e-06,0.356548704287157,0
3.8157346036871e-06,0.328896826028155,0
4.30797502778121e-06,0.344713813567398,0
4.80804404981378e-06,0.364949027231175,0
4.96560729355138e-06,0.378033263347192,0
5.16864994065339e-06,0.39344703078744,0
4.28303970499193e-06,0.379806554126972,0
3.05445192950747e-06,0.33287423482919,0
3.14089318028608e-06,0.348598877938472,0
2.96995585018678e-06,0.407985407484707,0
7.68976547479249e-07,0.243663513580061,0
3.59463960595257e-07,0.170329276914713,0
5.67225274340267e-07,0.22793713328398,0
5.54848030150299e-07,0.22320504465069,0
5.51455582638907e-07,0.221459930815196,0
5.59559337253382e-07,0.223203118000487,0
5.84059245630139e-07,0.23021937840091,0
5.89104435533853e-07,0.215534909582761,0
6.12012880952681e-07,0.215117873495376,0
6.6476245839019e-07,0.223588508327117,0
5.69770323398598e-07,0.217033772622391,0
5.26355045688278e-07,0.225892408796483,0
3.53237639632545e-07,0.188866246011383,0
3.03491805843167e-07,0.180062660072951,0
3.16477038146923e-07,0.191837965326971,0
3.34066789127649e-07,0.194534326201811,0
5.02193525952915e-07,0.213364850894141,0
6.68523333481404e-07,0.233610599903616,0
5.65323358953683e-07,0.219943340408792,0
5.24588756108697e-07,0.218141530746006,0
5.20327282108576e-07,0.218249003312928,0
6.31222782077534e-07,0.233134021407832,0
6.5057807166438e-07,0.223786641909315,0
6.54704670830958e-07,0.226455153208777,0
6.13923808020792e-07,0.217317736435218,0
6.70708215667982e-07,0.223612940132368,0
6.1034331675484e-07,0.237522475424861,0
3.76380689160499e-07,0.207670674429794,0
4.71641372261639e-07,0.232510098728313,0
4.77445646139433e-07,0.224188199235733,0
4.85401759371535e-07,0.223746948818687,0
2.9477210279622e-07,0.17443956514941,0
2.53180338843186e-07,0.165679760854469,0
2.47973990034805e-07,0.162065815989794,0
2.37894123855828e-07,0.157913971410622,0
2.14111545328738e-07,0.153770310647252,0
1.93709098348284e-07,0.147466306726902,0
2.7364526681557e-07,0.176782301574847,0
1.72672228988226e-07,0.1431278463065,0
1.66440501016598e-07,0.143478671943401,0
1.62763134174214e-07,0.147020215974926,0
1.40935489760032e-07,0.148589319606212,0
1.27974288607019e-07,0.149757234150505,0
1.31587372121167e-07,0.144020845254224,0
1.46340245756732e-07,0.146549972420987,0
1.227476635152e-07,0.132263983413934,0
1.57193314210851e-07,0.147809161634872,0
1.58123770328666e-07,0.145316732362771,0
1.69927420989346e-07,0.142286889463291,0
1.8024204147214e-07,0.14417894959711,0
1.5060998046492e-07,0.125553740327227,0
1.94963524417047e-07,0.139427895159842,0
1.95458115538268e-07,0.138031192073257,0
1.90845786737305e-07,0.138005423282728,0
1.90980361181464e-07,0.138002648725883,0
1.89134918999125e-07,0.14058301313169,0
1.64802027120029e-07,0.13480018820552,0
1.332226919292e-07,0.122066946822799,0
2.18515403897009e-07,0.162637302206054,0
2.3605078439918e-07,0.175442325231093,0
2.40109645759602e-07,0.184929996620571,0
1.34853355701777e-07,0.146779209126815,0
1.9243424580139e-07,0.174555435842218,0
1.99295139338398e-07,0.174522359831801,0
2.10812068331781e-07,0.177096264203417,0
2.61046785844078e-07,0.185547728645943,0
2.98989119167468e-07,0.186664393328336,0
3.78134963164707e-07,0.218139681740239,0
3.29629437143031e-07,0.198228789557611,0
3.5528208978197e-07,0.195821264249719,0
3.54207897343777e-07,0.19428852531389,0
4.33113580028283e-07,0.204575705831922,0
4.82304744819584e-07,0.198573998207862,0
4.98802580388445e-07,0.200813583540184,0
4.83631714924651e-07,0.199535856225783,0
4.23686009397275e-07,0.188383998435483,0
4.11575661175243e-07,0.191584313154702,0
3.98983187991435e-07,0.186487308153562,0
4.05176766511261e-07,0.188109861464188,0
3.65146877161802e-07,0.180010806008214,0
3.60190452321143e-07,0.178757441052444,0
2.63435031643814e-07,0.165372926597013,0
1.44841302729163e-07,0.143548699133116,0
1.75709916636781e-07,0.164555711079575,0
1.77896601159663e-07,0.171382906231129,0
1.53807775655297e-07,0.159922548897243,0
1.58914395188096e-07,0.168302624188747,0
7.61595229333971e-08,0.121038893118255,0
7.0930344531811e-08,0.120991196359038,0
9.21716288678731e-08,0.137391454664089,0
1.05174884534685e-07,0.139831810589758,0
1.40339667416308e-07,0.143544363855131,0
1.64466942761863e-07,0.145832603906324,0
1.79753007554528e-07,0.150066455897294,0
2.12555077734079e-07,0.154094431782747,0
2.03794972314946e-07,0.154871494011053,0
2.07009138726767e-07,0.15403481789863,0
2.07843169852227e-07,0.158570876698263,0
1.86804948739939e-07,0.152528424458139,0
1.84051129059532e-07,0.151589605601916,0
3.08517470436902e-07,0.189564355685971,0
2.87180662276638e-07,0.178494174142417,0
2.90452503450241e-07,0.186277645974937,0
2.69995986380617e-07,0.180196898096979,0
2.29141828560687e-07,0.165981297882857,0
2.46326053872632e-07,0.161661669512964,0
4.05758770943308e-07,0.204778973721536,0
3.8467143616669e-07,0.186598459262462,0
4.72949868419572e-07,0.209215721189167,0
5.24839881633957e-07,0.218124200680035,0
4.47893338513741e-07,0.207761905383102,0
4.74722165786838e-07,0.229263809495163,0
4.35084735167943e-07,0.216768625020116,0
4.51511829036805e-07,0.223244049882294,0
4.79313467330901e-07,0.230148670395415,0
4.86274090143491e-07,0.238165215755897,0
3.82081028311332e-07,0.213332413910929,0
3.61804744872277e-07,0.225842633717716,0
2.77272168241395e-07,0.192465853369865,0
2.20442551991871e-07,0.160283901289022,0
2.5600264730321e-07,0.168634464495113,0
3.14162988525104e-07,0.178202301254362,0
3.71684551721322e-07,0.185295441750177,0
3.61554670709862e-07,0.183888435226213,0
3.95501074248836e-07,0.195485005741345,0
4.41130221721317e-07,0.210669934473126,0
4.42936162699622e-07,0.215964528652647,0
4.43356257253541e-07,0.212450671404339,0
4.1544692936518e-07,0.209471503918895,0
3.79550397943446e-07,0.210511406274854,0
3.36454133759232e-07,0.208495011008108,0
2.36844563347145e-07,0.186910986771746,0
1.5467424883426e-07,0.150571218251656,0
1.76421238698761e-07,0.159621603953529,0
1.62657397110946e-07,0.158736702619808,0
1.91491023134743e-07,0.161228906121905,0
3.30136344229008e-07,0.193400556561939,0
3.29084981384019e-07,0.186561181976598,0
2.74929131043993e-07,0.175131248198281,0
2.89647459900365e-07,0.181409406653963,0
2.9445849627903e-07,0.172313462235528,0
2.33204444788413e-07,0.150359797487376,0
2.9216472294065e-07,0.171928581958422,0
3.02506678857413e-07,0.17661663778512,0
3.03573061171616e-07,0.174956531974763,0
2.76447899770924e-07,0.177665793585815,0
1.8327732600562e-07,0.160081935753064,0
1.814219709736e-07,0.172771692513306,0
1.4207591805746e-07,0.151605370385017,0
5.01507586793907e-08,0.103766161772756,0
4.62216655329784e-08,0.114764294274225,0
5.77132116233897e-08,0.121328672303602,0
3.47095427697433e-08,0.0983302775929667,0
7.38905317192207e-08,0.117170704729798,0
9.0945889985309e-08,0.122380783017886,0
9.14392795489928e-08,0.116810874110646,0
1.32577605726454e-07,0.131864448723029,0
2.21704187405857e-07,0.168053877511266,0
2.36911099595764e-07,0.166526422364337,0
2.51748082258928e-07,0.167361086014266,0
2.39047619091472e-07,0.161171798967073,0
2.03796324067176e-07,0.156884607457764,0
2.10575511691659e-07,0.170946866932717,0
1.14182811195851e-07,0.135140674450069,0
1.12343376801198e-07,0.142565373180495,0
1.0275374609737e-07,0.142473499248508,0
9.11020924651359e-08,0.142594267349129,0
1.05103391861226e-07,0.142531431877,0
1.21697502227749e-07,0.146379556618523,0
1.18241672556273e-07,0.143233469787175,0
1.17258798490901e-07,0.144021075151649,0
1.26788351317873e-07,0.139246685560362,0
1.31903531948124e-07,0.141761821164959,0
1.74098477784798e-07,0.164019903416741,0
2.051967393767e-07,0.167579243762236,0
2.29183883074486e-07,0.178193793386475,0
2.50368544011611e-07,0.171052051537388,0
2.94983126338679e-07,0.176589330494084,0
2.71341730822202e-07,0.166452042186402,0
2.97863259755178e-07,0.171448937506098,0
3.78151935164919e-07,0.188858642206006,0
3.87296839385317e-07,0.183729248512349,0
4.74287352153089e-07,0.205345635076744,0
5.30016792282679e-07,0.210967776384081,0
5.34705870571326e-07,0.208179703575386,0
5.72294645589415e-07,0.213633583759742,0
5.59955851240634e-07,0.216848287088987,0
4.90619973560595e-07,0.206790962844362,0
4.79096586195449e-07,0.20853091438201,0
4.84555262086628e-07,0.211782295709815,0
4.3004299974215e-07,0.203847842673351,0
4.17361010521828e-07,0.202283367155208,0
4.34675004047782e-07,0.197534836381556,0
3.18451197180426e-07,0.160318117909782,0
4.56229143927575e-07,0.203923951453841,0
5.140984078361e-07,0.219379327688044,0
5.06119615205485e-07,0.216368956430293,0
4.95530739214842e-07,0.223359395856,0
4.82917989747596e-07,0.228119907259894,0
4.96375434163444e-07,0.232668020208025,0
4.99577134415817e-07,0.238230201222254,0
5.14000030312747e-07,0.238897510001014,0
3.84897328983671e-07,0.207626254375992,0
3.52416825639994e-07,0.216363547866713,0
3.30290143593759e-07,0.198507323084245,0
2.54958493803445e-07,0.168265637714343,0
2.89367647188906e-07,0.191482863332055,0
2.80924903154267e-07,0.188235164692642,0
2.81511713816463e-07,0.185106370599875,0
2.02216125711159e-07,0.156374396769354,0
1.41056847071282e-07,0.127617678256993,0
1.034067926188e-07,0.114625469654506,0
2.2645754902274e-07,0.157154411438757,0
3.44645151489842e-07,0.184216629189097,0
3.29383718626688e-07,0.182162630072741,0
3.44202978316179e-07,0.184099154426207,0
3.4653475091167e-07,0.17896400841801,0
3.44754042641645e-07,0.17844744852994,0
3.46778066312939e-07,0.180938715264512,0
3.39497228416705e-07,0.182860387417593,0
2.79025240688066e-07,0.166978805576041,0
2.45306382107687e-07,0.161243943159524,0
1.94806270574375e-07,0.156451080406326,0
8.12188311381717e-08,0.1186084300569,0
1.08242310732284e-07,0.131914873678222,0
1.00937591879999e-07,0.132496507293712,0
9.64850702314748e-08,0.132374145604619,0
1.63870820028755e-07,0.164952231192617,0
1.37332769679643e-07,0.149236055687955,0
1.51437853608002e-07,0.158783986737787,0
1.56184606658431e-07,0.163925244153181,0
1.62008405846204e-07,0.166911790219002,0
1.49876429588503e-07,0.160848152186181,0
1.49537590363032e-07,0.160681326970595,0
1.14742737008153e-07,0.139308885430099,0
1.13980498945537e-07,0.147680473927073,0
1.44339652457412e-07,0.159530243654219,0
1.23899356414538e-07,0.140535225271594,0
1.37034783410434e-07,0.144281602500355,0
1.81116925553862e-07,0.148500567738013,0
3.88690646128387e-07,0.218632943251078,0
4.22465377134244e-07,0.213364383802794,0
4.57140975903564e-07,0.219726876686395,0
5.09752524418995e-07,0.229560266186215,0
5.33189955543545e-07,0.24063990485443,0
4.40568643767401e-07,0.210685144075351,0
2.86835815263482e-07,0.172237600595218,0
2.44949669713851e-07,0.173749361091404,0
2.03195545298611e-07,0.168225409987876,0
2.42562174887575e-07,0.189835151396738,0
2.90212942916277e-07,0.207051907550402,0
3.36434908838639e-07,0.245126600119835,0
3.48033693939239e-07,0.254929667662853,0
3.24990073297483e-07,0.23793947800525,0
2.29171867499115e-07,0.189666341628129,0
1.58015630150324e-07,0.157845975323674,0
1.66211003527006e-07,0.165763182097821,0
1.63077942248941e-07,0.160127224381304,0
1.94604258713445e-07,0.169846723010479,0
2.06047892697064e-07,0.169183542666106,0
2.32362002760193e-07,0.179205932373671,0
2.31692885406704e-07,0.169245178369649,0
2.56400362848e-07,0.173151501440849,0
2.00010066072989e-07,0.151699068615147,0
2.31184476373806e-07,0.171248723875725,0
2.40581857871695e-07,0.168817124587001,0
2.53927557436588e-07,0.174450987195327,0
2.72251309877808e-07,0.178292277164602,0
2.76112665218065e-07,0.1824850920087,0
3.20620158729636e-07,0.206533661939961,0
2.58072930939684e-07,0.183180570144311,0
2.4394021118797e-07,0.192308705778668,0
2.2100503111394e-07,0.183608673888803,0
2.78687002241364e-07,0.216599496082491,0
1.64331767538936e-07,0.168599017034564,0
9.16904050742526e-08,0.137086977506308,0
6.8221147694438e-07,0.268552731365887,0
2.52066600142551e-06,0.483484012590104,0
2.6660917117018e-06,0.428292757092136,0
2.57723232637971e-06,0.420948587945624,0
2.5471242983931e-06,0.418431834446049,0
2.54569204180884e-06,0.415365984894372,0
2.56736198179628e-06,0.417361461931815,0
2.36507256107536e-06,0.400049301828151,0
2.25639168184201e-06,0.390553139358423,0
2.16090826001243e-06,0.380516223790668,0
1.90232046166808e-06,0.418295370820916,0
3.0878106212161e-07,0.177446555176526,0
4.19631954267003e-08,0.093751675297907,0
2.94953838373711e-08,0.0886147633064302,0
2.77944289488727e-08,0.088886228235748,0
2.41478520183776e-08,0.0863556649019959,0
0,0.0680035353917505,0
1.13535171683337e-08,0.0793779484878465,0
5.53264677705747e-08,0.11468191882432,0
1.78758268108477e-07,0.177850921650713,0
1.85749530638264e-07,0.180962718247178,0
2.19797465789125e-07,0.199855220553203,0
2.51951145482703e-07,0.20720396511119,0
2.54456392947617e-07,0.202916694311165,0
3.48721585629245e-07,0.213400203248394,0
4.70932453314733e-07,0.225351993626295,0
4.50355780491395e-07,0.21550060131487,0
4.4060994730774e-07,0.211790959222818,0
4.9198614448031e-07,0.224233478532595,0
4.39156062687814e-07,0.212647641347391,0
4.33272185623184e-07,0.211217807461216,0
3.56424020026319e-07,0.191768227963529,0
2.6366332757587e-07,0.167028169650581,0
2.58793865461961e-07,0.165512064019869,0
2.08553140161978e-07,0.15930297705952,0
1.4551943176418e-07,0.135936583587055,0
3.29835954844725e-07,0.204180513888014,0
5.7011276729668e-07,0.261452990003543,0
4.52307860905153e-07,0.220848188477524,0
4.84430750686841e-07,0.232681019960842,0
4.76567758163869e-07,0.238135807062222,0
4.54638131553724e-07,0.232794743331275,0
4.17505197426283e-07,0.217290464333601,0
4.1696765062311e-07,0.214674312809993,0
3.888528563959e-07,0.203589192582362,0
3.87301795810159e-07,0.215220059280387,0
3.50475108659994e-07,0.202363383762347,0
1.84805556998157e-07,0.152581958561715,0
2.15065582013218e-07,0.173972055313922,0
2.2968988899231e-07,0.193188385568643,0
2.74716905943997e-07,0.204196062857229,0
3.54276986902162e-07,0.224497413752958,0
3.14366051748879e-07,0.20454798585039,0
2.7780851348703e-07,0.201886296251876,0
1.69251544874711e-07,0.164314734949711,0
1.86616454401302e-07,0.175075257863226,0
1.92201143639187e-07,0.171645937178755,0
1.91678466110535e-07,0.174372740361239,0
1.85247279587744e-07,0.168601559983883,0
2.54632871710883e-07,0.184837928881835,0
3.76508054259434e-07,0.223539640070717,0
3.46687799302962e-07,0.217753182615308,0
3.58292441996556e-07,0.228337206993589,0
3.40623688607763e-07,0.209971325592198,0
2.94119657053559e-07,0.207932210353144,0
1.98899977103374e-07,0.174632074126535,0
1.83196220871864e-07,0.167808800723021,0
2.22446749963803e-07,0.186935360491453,0
2.0101456817403e-07,0.175234271974661,0
1.83917155394142e-07,0.180445740745501,0
1.34189495162513e-07,0.155893945630736,0
1.39347781669408e-07,0.146595887683835,0
2.36537415201717e-07,0.17836969324141,0
2.56931451279411e-07,0.177785326547106,0
2.23369546152318e-07,0.15607629576531,0
1.9633930779706e-07,0.144781704840376,0
2.59175960758768e-07,0.162305474504626,0
2.90061546666598e-07,0.172382412550487,0
3.03886066910038e-07,0.179061277753898,0
3.09739905036239e-07,0.180788329191791,0
2.98268635229267e-07,0.179536734263808,0
2.90533157999922e-07,0.188720749438809,0
1.40588239631802e-07,0.141813369334343,0
1.37931595917209e-07,0.154790636616768,0
1.34250023623445e-07,0.158816180627778,0
8.50109467253515e-08,0.128878234330155,0
7.66101070098206e-08,0.131642263713294,0
1.23440812019431e-07,0.153780305234345,0
2.93903526891568e-07,0.234901372798639,0
3.99895921135578e-07,0.257501763323158,0
3.88592118410343e-07,0.243492139803939,0
4.12773463845068e-07,0.248626118865794,0
4.35255957116985e-07,0.26506338445011,0
3.23999539302812e-07,0.217609682526154,0
2.63897631295609e-07,0.181324991277379,0
2.67173077141824e-07,0.176660463746139,0
2.18541687968133e-07,0.160158295722624,0
2.17257373155634e-07,0.157849104363537,0
3.4665535724946e-07,0.18764699005679,0
3.14316187111088e-07,0.17412635675827,0
3.44687356198334e-07,0.173327929530323,0
9.0887869775735e-07,0.271286462768457,0
4.04281110503615e-06,0.407666517231908,0
8.5540690914268e-06,0.406614275833429,0
8.44219732595892e-06,0.375462484690954,0
8.43371913597694e-06,0.374609637904602,0
8.45928001965898e-06,0.372233445356279,0
8.35239066271351e-06,0.367517309223014,0
7.60864757448744e-06,0.352378705363935,0
7.10539622731776e-06,0.337403871318049,0
7.2784619663994e-06,0.342752977884407,0
7.51740535037452e-06,0.3487321392328,0
5.47348884269037e-06,0.369358376771361,0
1.04691422840152e-06,0.217891942771156,0
9.76007314241684e-07,0.238437165415051,0
8.84616697772945e-07,0.243853740649847,0
3.98813768378701e-07,0.171822041709453,0
4.71293070770564e-07,0.19703720656035,0
5.12178469086458e-07,0.196526711656927,0
3.7611634650233e-07,0.171238928311757,0
3.7588204278259e-07,0.166522577616079,0
1.72386934170504e-06,0.328624789810633,0
6.35551017618312e-06,0.611685788676243,0
8.85578784892924e-06,0.584516946575426,0
1.18978888183179e-05,0.376178555820802,0
3.6577861406031e-05,0.579535503782065,0
7.21442277963506e-05,0.690082304811914,0
0.000120740518873603,0.703275993794023,0
0.000123751072198881,0.455899488389724,0
0.000194403905001916,0.349340620305843,0
0.000176332953808136,0.219943699486375,0
0.000196113233544891,0.151080457199033,0
0.00021396559814249,0.116887736861534,0
0.000180007660402133,0.0895642897614104,0
0.000178590388892505,0.0727525333547172,0
0.000173534911253158,0.0615283126546538,0
0.000202532293949018,0.0669730385165335,0
0.000206856378709284,0.0692659079685968,0
0.000196163118158576,0.0668091822359454,0
0.000220585695944385,0.0680482615988557,0
0.000297781301064986,0.0858049647554825,0
0.000333251988930571,0.116247228157059,0
0.000325873240916866,0.127736217040131,0
0.000317843575541687,0.166206709964404,0
0.000160274958588981,0.157622818946925,0
0.000154575918922625,0.225756560084127,0
0.000163958562566346,0.258120137715204,0
0.000138841409276536,0.223379989226192,0
4.98535259369531e-05,0.169140670513314,0
4.59456649130004e-05,0.655695661118819,0
5.34510214949767e-05,0.6589645709702,0
6.06852509743459e-05,0.586841751136491,0
8.88215784643732e-05,0.584923299408256,0
8.45801830914765e-05,0.486379875333688,0
8.19317868678187e-05,0.491195399556344,0
6.30139873841356e-05,0.428313409096204,0
3.49608120313236e-05,0.299497859363468,0
2.55840677347205e-05,0.28416777572295,0
4.01941688492453e-05,0.319560322263153,0
4.88222200911536e-05,0.33059478250541,0
7.40432372160305e-05,0.417972517278965,0
0.000134845362490455,0.565796307144503,0
0.000186841454461033,0.747383627349883,0
0.00020387107296156,0.941832394886015,0
0.000256870950003717,0.892928939401041,0
0.000281101420367375,0.931372822994473,0
0.000309464933400097,1,0
0.000316172242801346,0.922995652943901,0
0.000337397010527503,0.514850185936197,0
0.00045617690020586,0.510260129045654,0
0.00143279987690932,0.164125852416163,0
0.00379936779271085,0.238072036841442,0
0.00605349572378169,0.219909917926653,0
0.0147753437865875,0.0419652621755532,1
0.031547162931602,0.0594182362847493,1
0.0533938639521975,0.0415862618406784,1
0.135195790652009,0.04098969258977,1
0.313985939145919,0.0651177291552823,1
0.445481301772637,0.0847162701043754,1
0.503069730886562,0.0587356040393615,1
0.467044051974239,0.0589603349220553,1
0.392734080893603,0.0443059341171136,1
0.301144858054352,0.0362731033524191,1
0.218865099069414,0.0295036786386146,1
0.155278126742932,0.0237772822107404,1
0.0927747079041945,0.016551214093659,1
0.0903540263058135,0.0189612500665396,1
0.111092238084515,0.0281622135654119,1
0.108701374893696,0.0241532590663115,1
0.0693340787381348,0.0195675408818209,1
0.109170080918419,0.0152304557725764,1
0.137109576110002,0.00895127882960109,1
0.148110409529092,0.00988446127138804,1
0.184341082917355,0.013501332051369,1
0.190405749842826,0.0121094759947795,1
0.189869256223608,0.0122691257291403,1
0.200880322730894,0.0139182990130307,1
0.207440298416836,0.0148329008377435,1
0.208137466186301,0.0141893986958599,1
0.205033307983835,0.0141563486141137,1
0.115985494762487,0.0088759152445116,1
0.0847837969285421,0.013748942903294,1
0.090598244529179,0.0141852337232889,1
0.0891446170628419,0.01491865801477,1
0.0886593669660152,0.0154447838579619,1
0.08481437834061,0.0146146761893175,1
0.132490869144998,0.00864236078125158,1
0.219674853478213,0.014819931384016,1
0.322949249749094,0.0186864324380751,1
0.464767884273684,0.0217454541953094,1
0.436857518697404,0.0128921334342695,1
0.481824716584124,0.0150693291964497,1
0.486840163847641,0.0155023740629359,1
0.48739297749414,0.0142302852481537,1
0.465114017747183,0.0136635209073152,1
0.396358631909323,0.011324648964192,1
0.39040285325492,0.0184984298403197,1
0.364982670823652,0.0171256980239389,1
0.28790579182333,0.009939491216188,1
0.177911556476519,0.00428937212460779,1
0.160256604655818,0.00888678451569696,1
0.135294182318745,0.00641036121131204,1
0.113246786615382,0.004865044225582,1
0.100410066323819,0.00489670330926036,1
0.104879771393813,0.00599537801554556,1
0.11002146523897,0.00676695884237636,1
0.119038787772928,0.00505617163053433,1
0.144289163601018,0.00674908817006759,1
0.129461361129416,0.0116591206877707,1
0.0572875116413499,0.00812953287527251,1
0.0600152219962999,0.0123367001925047,1
0.0593263949454178,0.0111436586280944,1
0.083307552131498,0.0134419137140286,1
0.115164943930261,0.0207607784133288,1
0.127102214311275,0.0104427235288674,1
0.150461274240628,0.0129070667889493,1
0.180531950703515,0.021214906315855,1
0.228883865580673,0.024901190108738,1
0.322845064758274,0.0338611617319413,1
0.353252354927469,0.0321773105063533,1
0.408634846802136,0.0321850988924473,1
0.455103646229913,0.0391356886454675,1
0.351282765819351,0.038876229012877,1
0.148806542651931,0.0160471057954203,1
0.0625903495692111,0.0261454591486377,1
0.044218966793199,0.0189852341586761,1
0.0274130527729869,0.0119571916264453,1
0.0179361964134081,0.00941470153355512,1
0.0188732578396534,0.0111708619101842,1
0.00632837798341791,0.00508852820749796,1
0.00294546419050252,0.0382412161231625,1
0.0028292876296285,0.0492901004228536,1
0.00224083001820017,0.0335423328370311,1
0.0023001667384712,0.0343182314739685,1
0.00249872185053806,0.0251273352056875,1
0.00288858306948917,0.0261245434167171,1
0.00338511802318221,0.0327150049334451,1
0.00904369726890672,0.0282055583787795,1
0.0157174995230095,0.0216540225735804,1
0.0203845004678154,0.0108830136618988,1
0.0601594741469818,0.0235043528034302,1
0.0684066419926274,0.0228125366948811,1
0.108658049476719,0.028115828386168,1
0.106884107254235,0.01785396247487,1
0.0903699211798343,0.0158039903317666,1
0.0756908848729739,0.0136700368141573,1
0.0829189220467232,0.0102255470191316,1
0.0942902383134075,0.00813515521997122,1
0.0837706116270222,0.00662989834402912,1
0.0784875925496457,0.00719714144167754,1
0.0816242651966016,0.00784478369248016,1
0.0915392348675862,0.00330252276456244,1
0.259360768903921,0.0117480415921474,1
0.245546655909035,0.0100423196644091,1
0.230695352334123,0.00864578620872344,1
0.200975918146897,0.00738403948331906,1
0.20619959635923,0.00897942367877679,1
0.193775317379254,0.00951130807195572,1
0.150541019323748,0.00622880246248916,1
0.194832915268963,0.00751895884987587,1
0.159395985915761,0.00475491685652233,1
0.137651646991931,0.00626949032918347,1
0.114144887359304,0.00624287507761864,1
0.176193119193803,0.0116502960395744,1
0.170356711735969,0.00952105170998929,1
0.167345282835714,0.00891781997667622,1
0.163365764794819,0.00870499687636306,1
0.141263188714758,0.00752741926627805,1
0.0897127890443656,0.00452371676786911,1
0.0953685048993266,0.00735844534874732,1
0.091684712662528,0.00778201350938031,1
0.17684523376678,0.0160097409058407,1
0.266015529220825,0.0282033584861181,1
0.194281306047968,0.0138658449123579,1
0.193119636808648,0.0125207596201636,1
0.188676625954385,0.0123277821156107,1
0.215637556320715,0.013095705566433,1
0.241161792963477,0.0140603504347536,1
0.231638478018705,0.0132166154659873,1
0.212493203014588,0.012041631225657,1
0.210964612608406,0.0112046247099494,1
0.272199319222135,0.0157537716818281,1
0.350999720762365,0.0185875902302424,1
0.385486472787787,0.0414411809940127,1
0.224522032609067,0.0448967063553791,1
0.205323681685988,0.0444569354131309,1
0.180161906343768,0.0539822670701169,1
0.181352178972664,0.0589139821775733,1
0.130169049133344,0.0493360079765932,1
0.0473811714371922,0.0203250553225638,1
0.0123591120078526,0.0296323702647155,1
0.00444284431253125,0.0125495242502949,1
0.0024310888296619,0.0143313285356359,1
0.00247074547333601,0.0137299286543429,1
0.00244049828561148,0.0139312698429306,1
0.00300081786754352,0.0158797327172178,1
0.00420508248977272,0.0247284492421424,1
0.00924553649125119,0.0382003873713752,1
0.021072167478578,0.0552934908104417,1
0.0464898355472148,0.0611261480326426,1
0.058400296270004,0.0456020455818689,1
0.0989486218951261,0.0588827777693719,1
0.116859877491923,0.0599990500552836,1
0.108284387358497,0.0501726093373854,1
0.112056235446675,0.0476570427297373,1
0.107753860949616,0.0394949709931415,1
0.0761522069583539,0.0281211051159662,1
0.0511356515201805,0.0226624116607498,1
0.0324258619987568,0.0181187614964291,1
0.0281626420386589,0.0190266312552998,1
0.0130830347792432,0.00888754465315424,1
0.0240857638127521,0.0175690260683028,1
0.0292586964846106,0.00660620082704337,1
0.0551619113538308,0.0104173637629495,1
0.0585520826023328,0.00817226471279195,1
0.0905364330545702,0.00948676214581953,1
0.0907877345599471,0.00641774036137153,1
0.194440654140693,0.0118334584976464,1
0.221926184922295,0.0114139651166344,1
0.253737840686932,0.0125724028743439,1
0.243850554628098,0.0121347259847377,1
0.171657055745357,0.00834047951307637,1
0.117513881946238,0.00594735060297038,1
0.116141857415941,0.00657957514854861,1
0.0960877655893237,0.00598725674255398,1
0.0990798313383512,0.00741968814314086,1
0.0511591759703548,0.00414241153621177,1
0.033431294386495,0.00603836437449289,1
0.039490192597132,0.0115033882777275,1
0.0540268470844055,0.0160087020225044,1
0.0549098555744649,0.0157341434532214,1
0.0591927612503696,0.0145748285271643,1
0.0629143840139106,0.012502584393552,1
0.0671946150539781,0.0145212030747786,1
0.0588637260435065,0.0112858888943975,1
0.0398885742698001,0.00811976972758601,1
0.0917754658904222,0.00865173767308422,1
0.176931063286143,0.0147387841596225,1
0.184400769956832,0.0124747336976518,1
0.186208430140484,0.0123837210585698,1
0.18312020498387,0.0119751717221058,1
0.171039439041564,0.0113171801214463,1
0.154399284808783,0.00917633231616726,1
0.164075577368302,0.00969615356247522,1
0.159238234530492,0.00971405273031674,1
0.126465521386693,0.00712624243229097,1
0.105768243750342,0.0150464787073216,1
0.103230248406695,0.0110477805555527,1
0.118543627518359,0.00321013882744079,1
0.164615141853927,0.0063727977920516,1
0.167741167181584,0.0062148258181567,1
0.158725110451694,0.00539726051706613,1
0.159124916788305,0.00627568689548028,1
0.150972434363267,0.00594731553619888,1
0.153784109525719,0.00598515485860123,1
0.16227014665769,0.00662441178579756,1
0.176919290794723,0.00807433169562929,1
0.098403848337363,0.00537375511599511,1
0.0779539047451078,0.0212673216271905,1
0.0973346578960836,0.0296119510140011,1
0.0976886228318849,0.0286363770401751,1
0.0953699181184332,0.0233634448401785,1
0.110414498602412,0.0257177574647353,1
0.099770079695423,0.026156556210589,1
0.0593159309160615,0.021911148800367,1
0.0592020498399943,0.0213327426053469,1
0.0554237487393016,0.020367504722886,1
0.0560852456562844,0.0211776168580084,1
0.0627125451868785,0.0236461690042479,1
0.0654406879898959,0.0230212270088803,1
0.0446421610992684,0.0251057939908961,1
0.0205708664703146,0.0402802889867932,1
0.0153778426350818,0.0447003520099771,1
0.00333496457301394,0.0184168910106065,1
0.00199024828543942,0.0370253232013624,1
0.00210097987974318,0.037353924959484,1
0.00582083990731103,0.0459328596107325,1
0.0168300593761449,0.0351393532352815,1
0.0617985203405983,0.0670102885581578,1
0.0933384198454736,0.0541585237765337,1
0.0916460113617816,0.0379500740873743,1
0.126622003660006,0.0349313723160776,1
0.122542070138826,0.0263923477376473,1
0.104647207913435,0.0243191923297816,1
0.0829509769067203,0.0202804181996878,1
0.0540126557786608,0.0130930556899807,1
0.0401418387739939,0.00827021528015681,1
0.0359492258356658,0.00656645044309463,1
0.0386190759196145,0.00776146414105493,1
0.0589371749368954,0.0135259486699161,1
0.072635074940134,0.0203210128298872,1
0.103219085330388,0.024114992418032,1
0.255006806075758,0.0344504229620293,1
0.262047594518258,0.0259387917031498,1
0.334596759780873,0.0285262422045977,1
0.468066066188821,0.0314780166117877,1
0.686241837490992,0.0387623226661836,1
0.642218063615915,0.0190415970175297,1
0.531771687286668,0.0163598868882276,1
0.466563876367597,0.0138468846978455,1
0.416273339346417,0.0088474291530883,1
0.384866946126583,0.00541719133286729,1
0.45489597056424,0.00714642531398898,1
0.408017439228381,0.00611496172371809,1
0.459148355297211,0.0075483744414288,1
0.447091262779741,0.00897414176049647,1
0.237817262779045,0.00308691907509629,1
0.231463905530076,0.00546524115998156,1
0.355793587430534,0.00497826890477105,1
0.446500512580461,0.00476564769167922,1
0.423281939888864,0.00642897108805222,1
0.40097448233965,0.00678858507029797,1
0.515683312425192,0.0107624206920793,1
0.660840496788901,0.0141641525449633,1
0.62587071910171,0.0110556405484954,1
0.716305029415784,0.0111692502302183,1
0.748454012036059,0.0119013906703722,1
0.737682565243502,0.0120252693442622,1
0.76296986175779,0.0211003559273803,1
0.710727280018122,0.0272691862335051,1
0.786236654051425,0.027036417074418,1
0.833465149994099,0.0434423363607467,1
0.610886872340739,0.0279849455861926,1
0.240713449487716,0.0138103322812695,1
0.0755526958433544,0.00592042875162606,1
0.098039596727505,0.0171222587088208,1
0.117742934503279,0.0241231457379845,1
0.12873009546509,0.0255847384803705,1
0.145356463115605,0.0285094556384268,1
0.121253700549662,0.0292324187122456,1
0.116823187725859,0.0332228604967057,1
0.118428379616524,0.0327862112984264,1
0.0959617911850971,0.0433594915295951,1
0.0511209058857789,0.0544503445420908,1
0.0359484425030591,0.0332057013410095,1
0.0280700070136568,0.0252386312884505,1
0.0236467937385547,0.0184488478165388,1
0.0147183665792709,0.0103529751117698,1
0.0117238976241511,0.0153496012298708,1
0.0112960239426705,0.0143944714517671,1
0.0114235067762215,0.0146687164519729,1
0.0117743107511794,0.0180267056383268,1
0.00967653556957466,0.0195907799889161,1
0.0192065281714112,0.00728055894658859,1
0.0652300376608211,0.0261367875355084,1
0.0844634342219888,0.0159972342612912,1
0.0841888389432559,0.0161238361066972,1
0.097192642634453,0.0176856976288745,1
0.0936278217026577,0.0146410140788842,1
0.123967666329098,0.014622130945592,1
0.109551391940748,0.00878230630687498,1
0.0953995653370888,0.00681806691455445,1
0.0710902936628409,0.00360002704023339,1
0.0784429699236419,0.00405826865953346,1
0.0896929899632573,0.00444020800993041,1
0.0969641288990676,0.00585746247268022,1
0.0969343478220961,0.0056967221513735,1
0.0959286958503188,0.00557214504973914,1
0.0993771830439967,0.00576058530836837,1
0.105654187821369,0.00781379756465063,1
0.0896900409804437,0.00956583671951156,1
0.123707775844126,0.013070682101032,1
0.171729002428533,0.0190561962093933,1
0.269302983650097,0.0224545672701312,1
0.263583772881644,0.0187082649685334,1
0.352366111385675,0.0243728339589082,1
0.439251542399384,0.0324969527128483,1
0.350953971330722,0.0268363482502565,1
0.303864693453171,0.0239344724806844,1
0.237839578261076,0.0158607312069273,1
0.182136831360588,0.00844507961777452,1
0.235261744001381,0.00714266528395407,1
0.323719511460887,0.0106883343346452,1
0.346569137800195,0.00908544081183764,1
0.353148304190127,0.00628403654865606,1
0.380109521752138,0.00700475754944,1
0.336565374354937,0.00580017437194268,1
0.322892083148824,0.00500043308474279,1
0.345696821711272,0.00568963653797573,1
0.334921219464445,0.00692888340306858,1
0.238651098033804,0.00465272755231645,1
0.233330556662837,0.00743875718745495,1
0.238458336733053,0.00720775613122376,1
0.178774761431747,0.00797417445985412,1
0.0963311165554939,0.010017061426272,1
0.11591275998388,0.0147801697045907,1
0.129156721613687,0.0154796209738617,1
0.0946739919819039,0.0134375306106378,1
0.0920235749992066,0.013048764371499,1
0.0712941438058718,0.00987101559691862,1
0.0676523710688853,0.0100979289210311,1
0.0730296392915417,0.0125724484507729,1
0.0617705129499947,0.013796123323924,1
0.081180942278965,0.0291584908491669,1
0.0659971650504515,0.0285475122700701,1
0.0916203602140934,0.0354577866512523,1
0.130348068392967,0.0458990289213984,1
0.157851624714547,0.0566090209272632,1
0.149733705622403,0.0516008729198926,1
0.110681836160765,0.0421574796322317,1
0.0788850698383424,0.0353667992578197,1
0.0659602499723732,0.0369200082939637,1
0.027154869406143,0.0210625680477744,1
0.01752406502271,0.0232408816515344,1
0.00899271972374285,0.0108457892580235,1
0.00488262197457663,0.00911493729276051,1
0.0061970148579799,0.00960686313055087,1
0.00618508548775333,0.00981654678386873,1
0.0053686065734627,0.0134221858217555,1
0.00800481104893254,0.00993729627478742,1
0.0234177072038695,0.024186112947465,1
0.0238271313278822,0.0138961339253076,1
0.0241755639725674,0.0124380492893973,1
0.027487309472757,0.0121080342909428,1
0.0365001819596739,0.0135361984903333,1
0.052838535098222,0.0176870437723343,1
0.0426113692838651,0.0127750882832645,1
0.0403021524191309,0.0115578253238855,1
0.0356518197663006,0.010561461421276,1
0.144610265245481,0.0097054006354803,1
0.288891139869086,0.014728308158772,1
0.28994002388165,0.0177975550474396,1
0.252503438859745,0.0124828579713158,1
0.243754519478834,0.0121480290994278,1
0.239173863029836,0.0101404471856112,1
0.275699665080391,0.0125857636842927,1
0.26869220140137,0.0115806035246944,1
0.564993640162714,0.0188430985259285,1
0.555333650563103,0.00969733995474909,1
0.569069462893319,0.0117816418934027,1
0.614567587586942,0.0124398534522402,1
0.622882956384503,0.00989075111755621,1
0.614961859631692,0.0105431007765459,1
0.512847685576855,0.00802926810717806,1
0.513463447949493,0.00459614286996756,1
0.666973954072464,0.00651320799383396,1
0.676976471022533,0.00651719593884272,1
0.50879911791855,0.00474184903165613,1
0.4738518252075,0.00694526415459003,1
0.438544742515595,0.00798627245452197,1
0.347016753703879,0.00600881997039799,1
0.342668124020235,0.00714072101207748,1
0.347219392755014,0.00733451718203536,1
0.335698415113059,0.00760742521293249,1
0.287893211992784,0.0167291809766605,1
0.0617917514250892,0.00293922691605321,1
0.225928590660864,0.0105829145648688,1
0.412747391887298,0.0163161193300654,1
0.385870278807394,0.00781367404572901,1
0.432078196604011,0.00936480244314426,1
0.475577854420971,0.0105715191430278,1
0.521991047869857,0.0101225959211625,1
0.527232551126523,0.00987605987518242,1
0.560776301304989,0.0107532739872959,1
0.566923979143812,0.011239150236253,1
0.537106799063344,0.0100088742132647,1
0.453358373686634,0.0169369348738246,1
0.278995324365731,0.00994165320536552,1
0.266335927265786,0.0197619123991409,1
0.221553811819229,0.0168953916957487,1
0.184046250080631,0.0155376203291066,1
0.158553819303303,0.018185032147995,1
0.21354727423635,0.030789323818064,1
0.19176199981992,0.026267590890125,1
0.168955605651167,0.0244665893168515,1
0.156411523376208,0.0275523233285534,1
0.223406120244588,0.0346194940152949,1
0.274156038235548,0.0717928420916569,1
0.229661276942057,0.0650557966942062,1
0.202772873061331,0.0598164065316318,1
0.152811998522529,0.045648623890772,1
0.113607205833445,0.0505437930540122,1
0.104918318211509,0.0471780191468886,1
0.0732485928762873,0.056063544872634,1
0.0341389198631709,0.0352241138789166,1
0.00526499368368735,0.0146220449139103,1
0.00242331492061473,0.0224954502740846,1
0.00288797562763347,0.0177358101478474,1
0.00325825790448479,0.0136543820520923,1
0.00329784140559675,0.0132816980747899,1
0.00497233817630995,0.013865493380821,1
0.00802630057550635,0.0234629665344589,1
0.0199520357649039,0.0258425030766162,1
0.058896027116611,0.0472374353557261,1
0.100731315339314,0.0521531959987789,1
0.0974542136550443,0.0349529516513641,1
0.0934593140259835,0.0274437413402527,1
0.119811555711605,0.0330780191791242,1
0.108301182347055,0.024831670024647,1
0.0789039735675873,0.0183346822685029,1
0.0643764670337868,0.0148613606105884,1
0.0502741003929522,0.00918512216586732,1
0.0442401223932655,0.0068400674228845,1
0.0526202804971947,0.00980320412931398,1
0.0546348561691267,0.00162915455495965,1
0.28252350090678,0.0158122342156316,1
0.348717207813235,0.00790324745338405,1
0.362325946630689,0.00568303567028732,1
0.651237724132418,0.00997996821442162,1
0.983297598152457,0.0152908072344323,1
1,0.0118182759767357,1
0.918087556482492,0.0108791184904909,1
0.856396283440876,0.00909402166677853,1
0.683116749316183,0.00599873242528829,1
0.500096317947471,0.00310957991998054,1
0.548877874637676,0.00398102527340342,1
0.561821321533114,0.00742412765205319,1
0.504780574960066,0.00529768815261558,1
0.495576469575664,0.00893170627375195,1
0.379024521668121,0.00632767098343161,1
0.344419828196866,0.00757370975609922,1
0.350690609960563,0.00853415438295945,1
0.389527107860558,0.0158092752311011,1
0.312713020518947,0.00427973659070849,1
0.428525498538264,0.0102588801116645,1
0.508769148358655,0.0135335818024991,1
0.467498519353052,0.0114757134032546,1
0.422952143285029,0.0131645730937943,1
0.398336494867694,0.0134831275330365,1
0.394929626409332,0.0137861400695948,1
0.405051827932539,0.0146183097933794,1
0.401663109875508,0.0132652529378631,1
0.288574851113804,0.0101432479314245,1
0.241687786778765,0.0230175141150186,1
0.203397893084539,0.0183541461610604,1
0.161085792318466,0.0158700708982044,1
0.194809379787289,0.0211228198941211,1
0.154913857705683,0.0194304142296186,1
0.198872343740359,0.0167553504772075,1
0.241313213322257,0.0185221187638702,1
0.26305008663057,0.0192335396364756,1
0.248313890818486,0.021806922243175,1
0.195039196957121,0.0173411601992405,1
0.113836218590695,0.00956344504103796,1
0.0806149302090093,0.00641713944843724,1
0.0801929906849701,0.00677212939426078,1
0.089009820727804,0.00859528845516636,1
0.0436499018976219,0.00334573862884869,1
0.0345856658932687,0.00982952851746024,1
0.0447532672516488,0.011785573157282,1
0.0478112097694841,0.00867857281443971,1
0.0549839230505509,0.0117785088087454,1
0.0757702512224547,0.0170946688181763,1
0.0897571520212954,0.0215960428041491,1
0.101732609600893,0.0254768002917262,1
0.11116487831346,0.0283926225781212,1
0.130015526719944,0.0310376646884425,1
0.140764891056633,0.0384290269162264,1
0.124732219487893,0.0383862604963579,1
0.0511900736176474,0.0215052277976521,1
0.0178193438717337,0.0356432015483075,1
0.0146298812575844,0.0384390599747917,1
0.01201158225916,0.0341114520571057,1
0.00642754629248831,0.0185750496311991,1
0.00836558712357547,0.030491477900504,1
0.00710681800872341,0.0396051829556707,1
0.0101414620483541,0.0888817118898111,1
0.0107895894364829,0.0455427303381612,1
0.0102969428438867,0.0289703422048005,1
0.019434077985499,0.0269797793685377,1
0.025223283328027,0.0328867400889166,1
0.0268364117501402,0.0358710779953154,1
0.0282079560764657,0.0386731565688773,1
0.0279301542989102,0.0309509462158479,1
0.0420715238177654,0.0271886335922956,1
0.0382630775100421,0.0220153199834907,1
0.0396703701400469,0.0210324095245045,1
0.0335327152820647,0.0144897292319863,1
0.0321610826517739,0.0111025547624569,1
0.0292371185708636,0.00930894724277383,1
0.0265625141628505,0.00810647550856446,1
0.0250119141196941,0.00739693771430756,1
0.0261749473874064,0.0062023970816727,1
0.0253762357561752,0.00563531342227584,1
0.0240058559824186,0.00675643220815545,1
0.0283320589983551,0.00768183620639749,1
0.0315443654255425,0.00523384862592877,1
0.0415147163656848,0.0119891492547553,1
0.0364504370908854,0.0116764680635256,1
0.0393039271297029,0.0081814324506475,1
0.0892303788220192,0.0102532222885794,1
0.157216115789743,0.0149722239666599,1
0.176958586181562,0.0173741603044471,1
0.274889729254577,0.0219550499235939,1
0.358002722451614,0.022769702316618,1
0.397886651207847,0.0262961188589844,1
0.40952504296117,0.0347744170148255,1
0.331208629974421,0.0282309763849864,1
0.204620115399148,0.0217341287854918,1
0.0765690664784111,0.0082901640438613,1
0.257925928947678,0.0145152504951084,1
0.359268320500976,0.0089215902580244,1
0.302426255562051,0.00728137723084819,1
0.298195484483306,0.00764723302649411,1
0.299527929886161,0.00790361801376759,1
0.294707965672304,0.00657719058118877,1
0.306612838865974,0.00538423253798753,1
0.316300270666203,0.00532846491186968,1
0.294547263348686,0.00376221929804912,1
0.331245970719127,0.00422608355822528,1
0.255455944571526,0.00428413903599624,1
0.212439673728291,0.0050579553419619,1
0.290235598098148,0.00867940878007789,1
0.369716683600909,0.0118560800171458,1
0.398274002923567,0.0120929381824345,1
0.428396815065166,0.0130826969876951,1
0.449763164977373,0.0156374149464132,1
0.388892321261229,0.014466001039447,1
0.37627140212027,0.0176465117222951,1
0.150726064571499,0.00816448594603331,1
0.113723232355829,0.00585219394451025,1
0.079537719546597,0.00459186573308029,1
0.0876577118167795,0.005339787298909,1
0.0953172601645641,0.00604108012515658,1
0.102480300475347,0.00889843020882011,1
0.100941414118183,0.0114924890358051,1
0.0937232969216042,0.0163569395989203,1
0.113456330900531,0.0205722100228379,1
0.129847661303109,0.0122221733432122,1
0.178376135305202,0.0144415845580384,1
0.144103552736728,0.00951567342048538,1
0.1590480596292,0.0106695570927454,1
0.185749659228501,0.0116951288551139,1
0.178703456248575,0.0114641234930066,1
0.166974290760375,0.0107269760637904,1
0.144282052550411,0.0100202440490506,1
0.159657614905045,0.0108505025717506,1
0.162538285563601,0.00923927212590115,1
0.156579129989265,0.0141999374813163,1
0.0556316625787604,0.00684099591580544,1
0.0493483844281828,0.000510360359330908,1
0.104189775541054,0.00626143877582685,1
0.103697690101211,0.00529009862768617,1
0.106991796766794,0.00461227583018905,1
0.113236107392478,0.00293083793069198,1
0.1343616426138,0.00327286484770634,1
0.135214195502375,0.00292472827282815,1
0.156951729477787,0.00354569640797224,1
0.216125907915104,0.006131273319652,1
0.239887266415815,0.00744371215743297,1
0.261316099290506,0.0126558665722724,1
0.172394971010379,0.00810093766568658,1
0.169677467023538,0.00869035534594257,1
0.149928119170655,0.00900981171050755,1
0.111194394681749,0.00856935885026314,1
0.116720789637188,0.0119743919149476,1
0.0518612826256751,0.00534031594677887,1
0.0548031163567897,0.0159251994128113,1
0.072410938729231,0.0208983570950229,1
0.0902286420001611,0.0264039869851366,1
0.102231845065815,0.0331854781352214,1
0.085809146001635,0.0456691520985463,1
0.0685946566130225,0.0433553461017203,1
0.0568935181404659,0.0400546128229981,1
0.0167495507430116,0.0252961678203034,1
0.00582820143264959,0.0490158232720777,1
0.0031424045894731,0.0350155605176889,1
0.00126887413083185,0.00862168559176809,1
0.00854620602560882,0.0187623429729692,1
0.0131508024085075,0.0205164735790946,1
0.0141886628768356,0.0203028343947978,1
0.0140029843830299,0.0195486487069245,1
0.0162300784453896,0.0132634594079786,1
0.0238765564245112,0.0168931200628017,1
0.0247583332523097,0.0152857528690634,1
0.0464577107669325,0.0193055048701151,1
0.0787624190173608,0.0334816304857493,1
0.0744181346809391,0.0139495962981189,1
0.0759884852980256,0.0166484662580761,1
0.0785182367258225,0.0135010665398303,1
0.0774229378661109,0.0105806130059861,1
0.0955164860279525,0,1
0.311731128623679,0.0101956279999687,1
0.309921981913895,0.00733589312532842,1
0.291470664358867,0.00554735555478035,1
0.355248732845287,0.00738720467973969,1
0.359440867811687,0.00659873995496284,1
0.386508008340896,0.00560128511605943,1
0.452877818082765,0.00635981246326857,1
0.424519559307352,0.00407313326797121,1
0.385595254668144,0.00238944742198437,1
0.355353747454062,0.00436663532968725,1
0.342132464557406,0.00401933774017943,1
0.311712297206569,0.0039057639739286,1
0.256517345317095,0.00328500576290516,1
0.259181700491133,0.003716146781195,1
0.227410075486374,0.00377747881521147,1
0.227168037837161,0.00659175690770669,1
0.18665686373306,0.00457899536405381,1
0.127003944106085,0.00476832017211913,1
0.0952619585966704,0.00607217512029666,1
0.131839620469053,0.0085380947814177,1
0.109763177695886,0.00599354133052941,1
0.103664743932892,0.00656343206138068,1
0.111434146656272,0.00792741018377728,1
0.185396886691965,0.0122532114510269,1
0.244780355549805,0.0161521866501559,1
0.270595390693522,0.0171085583568721,1
0.26046023735573,0.0225298474261474,1
0.273197023323965,0.0230837348930536,1
0.26801896084792,0.022969200647769,1
0.205652809488479,0.0189220748611468,1
0.214415905439684,0.0142726788310565,1
0.23504001662016,0.0158651127231698,1
0.271062178792405,0.0175589869959514,1
0.262108766760052,0.015688570012436,1
0.271537678674569,0.011999096331275,1
0.291197411315127,0.0143849037116645,1
0.292149529434238,0.0115724142215455,1
0.239981854450335,0.01024563472872,1
0.378861800405223,0.01209834080996,1
0.525331765988641,0.0145971140734692,1
0.529968934695358,0.0192449561521539,1
0.47163258118322,0.0159219747292115,1
0.417731161220018,0.0131948943632707,1
0.404477965562112,0.0134984999046465,1
0.320408516275705,0.0151824647523083,1
0.165110327511224,0.00778204311908935,1
0.137089402142943,0.00644959019947548,1
0.171583914084373,0.00654914776762305,1
0.258144258666478,0.017112852278453,1
0.304118915910076,0.0259654766640389,1
0.359908036687157,0.0303494975296804,1
0.311939676299007,0.029483927592362,1
0.305393733335443,0.0358453490515422,1
0.259421830443065,0.0348913311074732,1
0.211339612906214,0.0225068432435225,1
0.140565533641619,0.0165391477001084,1
0.0285399418708224,0.000219873979242063,1
0.0146629321150583,0.00759633581471424,1
0.0148568932465583,0.00740874582116919,1
0.0143499827806006,0.00717401181095664,1
0.0151689233198098,0.0105013409798408,1
0.0320387164102327,0.016154399696787,1
0.0354441730233197,0.0144613465631233,1
0.033932046677225,0.014660017332196,1
0.0324885238664004,0.014099348949942,1
0.0716600679452214,0.0122343374290724,1
0.267797041483788,0.0307338431558833,1
0.266034718654168,0.0153745251362768,1
0.247088310784232,0.0135234849820717,1
0.244417703982026,0.0133787237001551,1
0.218553621079409,0.011542862291228,1
0.252857456460414,0.00664893930191935,1
0.499458598299333,0.014507938580296,1
0.465466109741956,0.00819721609962631,1
0.404101468934515,0.006206666890825,1
0.400248251100774,0.00700503460749791,1
0.390936962596631,0.00572447043239675,1
0.376432154013393,0.00750789380216155,1
0.349457475174748,0.00702885434201805,1
0.340674580078752,0.00677543164261887,1
0.359495399939532,0.00532889996797632,1
0.503828452845625,0.0163335848307312,1
0.329473624998933,0.00831496078861108,1
0.280664156791601,0.0111405607589191,1
0.276554465055786,0.0109646069201199,1
0.282493253022303,0.0121732595132367,1
0.256349392948046,0.0104944070785787,1
0.502491567611072,0.0122050804725903,1
0.793584882068873,0.0161307483004859,1
0.829411773084178,0.0148148964028521,1
0.828886143516702,0.0180476588951218,1
0.741876230197121,0.0177253927126781,1
0.621405223789929,0.0105580901047228,1
0.599748781774396,0.00980020997507727,1
0.635528180970762,0.010988092145483,1
0.526772282430264,0.00830029286811318,1
0.491617005859591,0.00852084060394359,1
0.465049800795839,0.0140720538468108,1
0.43055009335206,0.0139068756800729,1
0.480526450785048,0.0157920601821123,1
0.462515297331743,0.0164634431893713,1
0.288848678286367,0.00650316175250036,1
0.210608332067717,0.00913746484459171,1
0.215662377035792,0.00807780435485424,1
0.223484459234138,0.00919816472504964,1
0.229430206311457,0.00753472374343005,1
0.230796169920444,0.00643722245178649,1
0.229949847265703,0.0101958085307913,1
0.189299609061659,0.00740719887336359,1
0.197745448910494,0.00845320493999319,1
0.216274079692612,0.0094294833542021,1
0.202918467762414,0.0132229425684521,1
0.167249197125959,0.00937254787108892,1
0.198041379175375,0.0151167954489683,1
0.231007376716497,0.0160470389995982,1
0.176344565797904,0.0174493358738235,1
0.104900325822202,0.0155874129991889,1
0.0978484833941563,0.00920588534784745,1
0.100387346683492,0.010551032038013,1
0.11657435085305,0.0123767187793885,1
0.113475123915261,0.0134624715700913,1
0.0892440758714267,0.0111377265626209,1
0.0858567340747945,0.0172023491894302,1
0.0787302706423935,0.0146464188293468,1
0.0906596991668825,0.0197977032543802,1
0.0866399634208795,0.027789732478615,1
0.0478945050565097,0.0103182587565733,1
0.0225559309337464,0.010966987393084,1
0.0277082749690233,0.0133896867248777,1
0.0286879653665174,0.00946857461593567,1
0.0298781289180204,0.00939248485228933,1
0.0262281104207925,0.00792649204973788,1
0.0230192677254699,0.00611976635501997,1
0.0183143196409603,0.0039831827284852,1
0.0183145192333349,0.00355698380106238,1
0.0292784945998169,0.00595167902416553,1
0.0327476098342545,0.00408576500488889,1
0.0353861509689041,0.0059334645637519,1
0.0313364000909324,0.00301447270396073,1
0.0320429989505403,0.00420365378552544,1
0.032466772159972,0.00496048686283052,1
0.0340883401844975,0.00564629882210371,1
0.0347114437144216,0.00517661693663593,1
0.0343948635103943,0.00498447725592737,1
0.038440854954393,0.00725500860242215,1
0.0298532642474151,0.00778591575674305,1
0.0257742088958262,0.0138019054528979,1
0.0293896244739469,0.0161634970809755,1
0.0285810459098046,0.031335306331196,1
0.0186382198829475,0.0299858623274278,1
0.0179119482505602,0.0288457410051628,1
0.0177305568081598,0.0281877869586124,1
0.0108533810873751,0.0450769506327404,1
0.00081428364749284,0.0275087452634934,1
0.000134667200945859,0.293147514476231,1
0.000201713186318365,0.558686133386687,1
0.000473537974510988,0.122585873930977,1
0.00353553967076779,0.105583327332835,1
0.0102726115849243,0.0579133419191464,1
0.0372922954306902,0.0702252984907573,1
0.0627764000479579,0.0892953956233987,1
0.10355043019518,0.0422021443425879,1
0.174132302752474,0.0450942042129014,1
0.178039043354062,0.0407046219247584,1
0.225936584280865,0.040017348022397,1
0.252159408118844,0.0395044218626674,1
0.219973698870672,0.0352307762983928,1
0.164763560378484,0.019422451228792,1
0.115570220630312,0.0145521396343401,1
0.0964059842948833,0.0125293120689976,1
0.0928114526571362,0.0120432519987024,1
0.0881809094642426,0.0166592114773762,1
0.0907125540818654,0.0188033815753938,1
0.0892971903356041,0.0193472178956856,1
0.0754897516744235,0.0205536565438498,1
0.0625708563734112,0.0129976931937709,1
0.0561215601718744,0.00763082219181842,1
0.0596963784070754,0.0107480126681984,1
0.060763212844399,0.0112373395336613,1
0.0612581144860866,0.0109495757294546,1
0.0600314945210562,0.0079779919124764,1
0.0750490377682074,0.0104067844282565,1
0.0776713442029818,0.0102933497981434,1
0.0768326751106373,0.00958532461294269,1
0.0730101628818011,0.0105909444502483,1
0.0527574361610482,0.0102406225890459,1
0.0528157274209755,0.00943858260382123,1
0.0553583221963559,0.00937447243378826,1
0.0587075667380451,0.00800889524290358,1
0.0584260683784893,0.00815989122662874,1
0.056066824851788,0.0110424253313336,1
0.0569698745498663,0.00878538571331475,1
0.0633430698506597,0.00812881290253998,1
0.0566259176481306,0.00770143251678254,1
0.0556419554980627,0.00763319496190051,1
0.0754238191327692,0.00822483056002186,1
0.095737166618105,0.014367266494941,1
0.107302439683773,0.017183656692758,1
0.120225842593491,0.0209311029068885,1
0.120104227747158,0.0173357531791597,1
0.12216704774002,0.0151691126608314,1
0.104547123572194,0.0165017244310055,1
0.083170749398887,0.0140586447452824,1
0.0875505415956095,0.0144139637095719,1
0.0795296217858021,0.0106024541627419,1
0.0770557069320087,0.0147683120182378,1
0.0820193149382036,0.0126703882159966,1
0.0930653855772743,0.0146021230392275,1
0.101295054687369,0.0185701621184361,1
0.0771045255200919,0.0241494213451703,1
0.0321735881389508,0.0118937370923718,1
0.0203792402868262,0.0127018143799003,1
0.0199662165519135,0.0127857612633707,1
0.0198593753676626,0.0135132096485419,1
0.0199881842132267,0.0179400693491993,1
0.00591007405001805,0.0127118361487069,1
0.00130349417618921,0.0339491121009389,1
0.00120918355922567,0.0293545231600364,1
0.00141839141532308,0.0301605634683371,1
0.00179691646414222,0.0396086046778985,1
0.00203208812070865,0.0430561390701353,1
0.00233161838639548,0.0507468337521628,1
0.00264861733307423,0.0614634138020187,1
0.00166405509333098,0.0689655551525003,0
0.0013167619413805,0.138593120174985,0
0.0013449146845496,0.167359367706355,0
0.000925277758087313,0.17004662908999,0
0.000172540096108983,0.106776838557919,0
8.73928422935043e-05,0.436401553478705,0
6.92688579547078e-05,0.377904626738347,0
2.22464100454639e-05,0.245854921532279,0
1.15543635184526e-05,0.250218220160476,0
1.26708087274393e-05,0.276461790266086,0
1.22121886342075e-05,0.278699681555388,0
1.62857065934678e-05,0.371499095491325,0
1.9196454494455e-05,0.417093359865283,0
1.6272459421621e-05,0.439610569668907,0
1.20180170864021e-05,0.371636887456293,0
1.20845365132151e-05,0.369091766155403,0
1.87412932347886e-05,0.541819081439927,0
2.09835323711795e-05,0.344438923983786,0
2.35091941484551e-05,0.299612947193123,0
2.79944277503437e-05,0.308862103619308,0
3.39218437029152e-05,0.387083058171415,0
2.8118972192961e-05,0.318034271562307,0
2.24058567306409e-05,0.269937416707306,0
2.16825000185633e-05,0.257445875289371,0
2.31956260811055e-05,0.24949906071189,0
2.36956518470668e-05,0.234920648435212,0
2.25207508638988e-05,0.228533882976748,0
1.93962326599234e-05,0.285813622492401,0
1.06471395156186e-05,0.257683203401837,0
1.2820877256039e-05,0.317935966808216,0
1.31536277388848e-05,0.30326248051772,0
1.34866598367783e-05,0.296173377765214,0
1.39383762309858e-05,0.292419868802672,0
1.49584288896713e-05,0.31134202448786,0
1.1844449546854e-05,0.308836059051176,0
1.01179677186739e-05,0.305473925901653,0
1.07471379400887e-05,0.331030678813504,0
8.15126900572397e-06,0.306099295352881,0
7.37171244374093e-06,0.292849742669041,0
7.47281930503897e-06,0.297885981660395,0
7.59268052696061e-06,0.34579102485648,0
2.06332316385572e-06,0.241870486463054,0
1.01076236600315e-06,0.23485382408899,0
9.05389374669526e-07,0.22838560590123,0
5.00592901118767e-07,0.169748902639966,0
5.42151171655454e-07,0.175836202214686,0
5.99283580404335e-07,0.183729837179057,0
6.19636012552305e-07,0.184573313222253,0
6.26245780564053e-07,0.180514833068489,0
6.69993288933391e-07,0.191193509551964,0
6.43242562900206e-07,0.191936919569729,0
6.32390545808932e-07,0.197961096804853,0
4.98526222154904e-07,0.188061282403144,0
4.89183661719649e-07,0.193888303820669,0
4.8444396781975e-07,0.20214751831949,0
4.55640380734381e-07,0.203528658849106,0
4.75985753731821e-07,0.207647869097087,0
4.8146410512767e-07,0.202841673335152,0
4.98478310048112e-07,0.212599904092036,0
7.28600008780327e-07,0.243976966108497,0
1.54433561840103e-06,0.327060905496252,0
1.59201206972209e-06,0.311369200790498,0
1.71988617846945e-06,0.295868087566795,0
1.74828904611619e-06,0.293729895566747,0
1.42345232159938e-06,0.260322716047259,0
1.38225016267776e-06,0.253296189591695,0
1.42642903020293e-06,0.248927979563278,0
1.30674864269064e-06,0.238757520733425,0
1.32141966021898e-06,0.232453756483347,0
1.55058071370026e-06,0.253612945755478,0
1.30523032454778e-06,0.241606445194972,0
1.52095556164888e-06,0.250830869692598,0
1.88020324188746e-06,0.288041856882468,0
1.66094782874227e-06,0.258569692302442,0
1.7711042206312e-06,0.267913463961943,0
1.65425109800377e-06,0.262270606634069,0
1.63308566198724e-06,0.260319475655742,0
1.84652073042257e-06,0.272583226931723,0
1.95672518461299e-06,0.289240834781135,0
1.88930744334628e-06,0.279825532872016,0
2.17991254460374e-06,0.297997025467642,0
1.99313418032431e-06,0.290691602252984,0
1.68126211143844e-06,0.269247007774341,0
1.63143652426753e-06,0.278676528708441,0
1.66771019456123e-06,0.281875057380359,0
1.66221141668725e-06,0.280059843997812,0
1.9119123452923e-06,0.290424541531647,0
2.70879731949175e-06,0.318079832456062,0
2.42990860577884e-06,0.281972245517143,0
2.63079776138493e-06,0.301399788901715,0
3.16551174246963e-06,0.331033886590559,0
3.27346042257878e-06,0.334583550999482,0
3.43454963690908e-06,0.354651279834239,0
3.48751474372981e-06,0.364014747276705,0
3.6320308749505e-06,0.372075119630003,0
3.82581807453869e-06,0.389815954717395,0
3.19638290968702e-06,0.363309397191636,0
1.26933754799335e-06,0.246922892874619,0
1.30581983871444e-06,0.257315093473041,0
1.35010609544448e-06,0.256322440065613,0
1.2984338645337e-06,0.25584603372286,0
1.42047486202238e-06,0.279211471192829,0
1.41343418543888e-06,0.28021086585249,0
1.4141102117482e-06,0.282035868931784,0
1.39585314575029e-06,0.276714067498142,0
1.36620936955709e-06,0.266579442837653,0
1.27679381329001e-06,0.280175227319784,0
5.158394647074e-07,0.185055190166092,0
5.89213326685654e-07,0.20758665689669,0
5.33610500681541e-07,0.211816301289292,0
4.95773453837342e-07,0.223123650367891,0
4.2901326493283e-07,0.210177141243429,0
4.2283410510345e-07,0.209902219748529,0
4.24698922401075e-07,0.204887942647115,0
3.95841115031843e-07,0.197461348397654,0
3.74506259402578e-07,0.198734511296124,0
3.66024464747982e-07,0.201046193034763,0
3.25720620280058e-07,0.187576935856614,0
3.7266021644147e-07,0.203004790408189,0
3.79844929734735e-07,0.204939492555367,0
3.09683582026686e-07,0.17665588428598,0
5.29739232491602e-07,0.214872060724924,0
5.77897508385048e-07,0.214539113933345,0
6.48114878713265e-07,0.233727775905591,0
7.29776784193253e-07,0.22577229162472,0
1.11895886735433e-06,0.26543054882688,0
1.13795984766241e-06,0.260468404228662,0
1.14385874419626e-06,0.264657802385462,0
9.36742817043376e-07,0.24394707527141,0
8.9228338583329e-07,0.242952908407775,0
9.02939999630088e-07,0.248973164895855,0
7.93691384460461e-07,0.243014129726649,0
7.53893245520975e-07,0.243702165446215,0
7.44974083922864e-07,0.232952339924156,0
8.10010788735056e-07,0.262740671024412,0
5.88805247707107e-07,0.238376070124918,0
6.01387958235924e-07,0.238677171391136,0
6.39345311028528e-07,0.232326182380393,0
6.75463980399939e-07,0.226184332715952,0
6.54698663043273e-07,0.222619854570484,0
6.19437755558679e-07,0.220358271845493,0
4.48508535972751e-07,0.186134287791176,0
5.89975564748271e-07,0.218688928122346,0
5.37197149929871e-07,0.206891550939711,0
3.3992062725385e-07,0.165580125641887,0
3.39026217862149e-07,0.163956841292358,0
3.14516096246328e-07,0.165493001878358,0
2.63722654479265e-07,0.167298175019984,0
2.68518821583409e-07,0.177531323622672,0
3.21212376400749e-07,0.180887597684561,0
3.35804091131646e-07,0.185976646547804,0
3.11245606824955e-07,0.187937138348304,0
2.02378335978671e-07,0.152433444509904,0
2.33677708263349e-07,0.168684107173259,0
2.45564867172861e-07,0.175095276541977,0
2.31848937691839e-07,0.179058314849463,0
3.98278023911833e-07,0.211134925182331,0
5.1680191229464e-07,0.212285801695312,0
6.52484192502344e-07,0.237404156249715,0
6.79185955065889e-07,0.253561694274091,0
6.85180976202703e-07,0.257346130726809,0
6.85996383186337e-07,0.246111322604567,0
7.37829172223016e-07,0.244981614409761,0
8.30971959970274e-07,0.251355699373446,0
8.48341825921706e-07,0.248154634216182,0
9.01957576148792e-07,0.247013016813136,0
1.01459233065274e-06,0.259441733471465,0
9.66526875079042e-07,0.253077292262899,0
9.17784492027859e-07,0.248277981846021,0
9.95288557845303e-07,0.258911861705099,0
1.12577530326246e-06,0.262375542682495,0
1.11031606398976e-06,0.262398785382451,0
1.22569097045713e-06,0.262790269955071,0
2.23240754203807e-06,0.351893110230484,0
2.25163952178267e-06,0.348123367434133,0
2.11563041792487e-06,0.340508629131743,0
1.93317991369948e-06,0.344323188270853,0
1.88122531676748e-06,0.350861221586069,0
1.87131411922777e-06,0.349914611170104,0
1.66677658435489e-06,0.32820444542736,0
1.3546006716068e-06,0.307583026406845,0
1.33218441419412e-06,0.298818823018761,0
1.29961619715024e-06,0.313364677683563,0
4.5533863959787e-07,0.195374456060338,0
3.80245048394598e-07,0.181875420246862,0
3.66265527228869e-07,0.178498087842435,0
3.59686248739626e-07,0.177220791505514,0
4.01818413194985e-07,0.194676274482287,0
3.81265771522389e-07,0.184175992242023,0
4.40074202840873e-07,0.186840831817228,0
5.03252098143125e-07,0.193171868243844,0
4.81169272946996e-07,0.192460761182224,0
2.97724329664947e-07,0.154132503373867,0
3.89553364440046e-07,0.186888172698332,0
3.96705034901039e-07,0.185778524649682,0
4.65771763692762e-07,0.199481929986358,0
4.86948013727128e-07,0.208252570174674,0
5.92816196960736e-07,0.226148752593976,0
6.58262032114321e-07,0.234480907123171,0
5.74068895487678e-07,0.237881045649007,0
5.36842690456418e-07,0.243414437276591,0
5.77375581829859e-07,0.244398377148542,0
6.43341090618251e-07,0.27283387983447,0
4.11642347618553e-07,0.199673059374172,0
2.94339542082854e-07,0.17343889121608,0
5.55791252816945e-07,0.226001012967482,0
9.96028867482867e-07,0.266855347605387,0
1.03771690623356e-06,0.272848950235111,0
1.0561397871716e-06,0.29394460298246,0
1.19594401051042e-06,0.297859511983026,0
1.11883871160061e-06,0.270286504391942,0
1.08710918171764e-06,0.277010614087313,0
1.07408069334255e-06,0.270240121933751,0
1.07339895963492e-06,0.281716751971329,0
1.0657298684595e-06,0.280834631311924,0
1.02346342994937e-06,0.283078373178561,0
4.5233850062235e-07,0.196653213632233,0
1.02019819734222e-06,0.270828901861,0
1.52025280068435e-06,0.299332066536484,0
1.36022035620796e-06,0.29358514081298,0
1.3415017419211e-06,0.301601586563901,0
1.42526231783438e-06,0.306616801051987,0
1.52968127248352e-06,0.303527631930288,0
1.64365260955283e-06,0.304618153252171,0
1.65285308580932e-06,0.299251797976727,0
2.69032577547347e-06,0.352774646186191,0
2.60840117947692e-06,0.287714849523797,0
2.60338182306026e-06,0.304006189039517,0
2.50450625410866e-06,0.306813806819465,0
2.54817686279563e-06,0.297480502687402,0
2.57534107481627e-06,0.29483542825301,0
2.60526766761478e-06,0.291577302533156,0
2.46949587137056e-06,0.286359889722562,0
2.35027057377546e-06,0.279912061740474,0
2.35937117056167e-06,0.289604281478993,0
1.03256327576212e-06,0.219840186858891,0
3.63945770208749e-07,0.166815163582439,0
3.60658308787164e-07,0.164679626268054,0
4.49538270782071e-07,0.181673773045461,0
4.09889725755957e-07,0.177197096531125,0
3.15995363769226e-07,0.158918008726358,0
3.07009966311881e-07,0.160063412892345,0
2.34255807633401e-07,0.150663644349684,0
2.63388170899867e-07,0.157863730853321,0
3.11396402295864e-07,0.158039359647015,0
4.62876761001742e-07,0.194495747876454,0
5.0419231691593e-07,0.205709927073026,0
5.49237507425366e-07,0.198087015107691,0
8.84147639749388e-07,0.240491997539728,0
9.20909743181932e-07,0.250579292572138,0
1.01412657691241e-06,0.267680981522914,0
1.57513018632543e-06,0.324438602947965,0
1.57117946514335e-06,0.295859656285873,0
1.59102078475396e-06,0.293187472931218,0
1.4958273888749e-06,0.291097713792115,0
1.62959453656311e-06,0.292756301939277,0
1.9585960096983e-06,0.320673994352078,0
2.03072911332478e-06,0.340908898124158,0
1.76752958695824e-06,0.34234496508186,0
1.68178959519724e-06,0.352423358823033,0
1.70868090346227e-06,0.316716402658944,0
2.29200179198584e-06,0.367828181262802,0
2.80644504683509e-06,0.438382882836943,0
3.22572013851356e-06,0.46573312881135,0
3.47464245783455e-06,0.493877864012917,0
2.93921715468787e-06,0.451807897662929,0
2.21345522481024e-06,0.373607686349758,0
1.87998696153077e-06,0.345938565884052,0
1.91957708082164e-06,0.34045950806323,0
1.89401289285638e-06,0.325588414281468,0
2.19019622497996e-06,0.385733641464207,0
1.92626870494061e-06,0.396677796598387,0
1.83795722985545e-06,0.400196145783379,0
1.34612368318236e-06,0.343040830867912,0
9.42248203483811e-07,0.26255948024249,0
1.25751662494307e-06,0.290643315497133,0
1.26883830083667e-06,0.284783491638143,0
1.33026717894894e-06,0.282103259492311,0
1.48865048570563e-06,0.283170879638496,0
1.72659387342048e-06,0.305182577121723,0
1.69378399311693e-06,0.303913993788986,0
1.75416225935768e-06,0.292658227062312,0
1.96505438146037e-06,0.293718686542897,0
1.93974657583459e-06,0.28390234629842,0
1.85637290144826e-06,0.289080131382975,0
1.28706292478108e-06,0.247321145295149,0
1.52118025290833e-06,0.284593340149413,0
1.75988903277433e-06,0.312640727098234,0
1.50645651704304e-06,0.299087795383995,0
1.52676884720821e-06,0.297150107094352,0
1.75674996370858e-06,0.31919552449111,0
1.90901674182251e-06,0.364981103494173,0
1.57536464023986e-06,0.34144379018487,0
1.59041159508264e-06,0.356066145008044,0
1.59143006529004e-06,0.356039105956389,0
1.53621534237042e-06,0.353624705556585,0
1.25009760793007e-06,0.304668940020734,0
1.17494018398264e-06,0.297661512589969,0
1.79933841963866e-06,0.393227455334853,0
1.75022715842358e-06,0.400447388796736,0
1.43671075804814e-06,0.339700499347908,0
1.03421917224298e-06,0.280928703656935,0
7.94914419838564e-07,0.24119985373169,0
9.83367454935369e-07,0.263520470003708,0
8.76620332363349e-07,0.238933416119775,0
8.61655684211866e-07,0.24038454430622,0
8.56398869986926e-07,0.233632070075359,0
1.17211712454915e-06,0.262956315085249,0
1.23202302848311e-06,0.263525825610454,0
1.58540590638296e-06,0.278478151019125,0
2.23199525760814e-06,0.324885556831667,0
2.24346893053019e-06,0.315358365274612,0
2.24127608802493e-06,0.315445931206202,0
1.92364555464236e-06,0.292842813060228,0
2.17544049764524e-06,0.315077819856285,0
2.24408172487413e-06,0.323289364625153,0
2.33141468153998e-06,0.355309755048288,0
1.51711057753007e-06,0.299026183115871,0
7.31820633563911e-07,0.213792554486802,0
7.77666812366534e-07,0.239328728700666,0
6.09517846726832e-07,0.213726814805301,0
3.7824385431651e-07,0.178904174907996,0
4.20853938282262e-07,0.198393634565576,0
4.04939458897677e-07,0.206619799180179,0
4.49880714680152e-07,0.231385348200636,0
4.61049792766537e-07,0.231162605251775,0
4.67499753625847e-07,0.221836377007285,0
4.9017419571432e-07,0.222143807098024,0
5.73677187730574e-07,0.233061147418033,0
4.22353031504523e-07,0.198707038254973,0
3.60612199016676e-07,0.188429068673262,0
3.54495069595151e-07,0.193385591838945,0
3.50482318005216e-07,0.190035126949015,0
3.11662397095646e-07,0.178403612988361,0
2.12488992069537e-07,0.150479859343354,0
2.08198680688525e-07,0.152566178819905,0
2.31631005193541e-07,0.167968621184249,0
2.6493998245907e-07,0.194410713204722,0
2.31899403108398e-07,0.185778661350954,0
1.69496512417594e-07,0.167840307243518,0
5.04328543501702e-07,0.271854847706799,0
6.60923482059062e-07,0.270297892288396,0
6.95539603730294e-07,0.274364723666426,0
7.49594222847817e-07,0.267072009003929,0
8.90695377353281e-07,0.283020870969324,0
9.58735525424219e-07,0.282491172753237,0
8.97820613548457e-07,0.263438381273919,0
8.27160619462501e-07,0.233714000825173,0
8.74992972873999e-07,0.234582227989727,0
8.97069640087752e-07,0.244688783877773,0
7.31486600568588e-07,0.22044562969955,0
7.1415428329019e-07,0.246033243570333,0
6.03625258370058e-07,0.219363314260424,0
5.87394168574441e-07,0.228603374581578,0
5.55406754405064e-07,0.216342437903171,0
5.64838981071528e-07,0.224264619031607,0
5.66350690647928e-07,0.229288666388125,0
5.18369494296517e-07,0.238147167216872,0
3.17944290094449e-07,0.200088185380147,0
2.7041427859823e-07,0.182306723668216,0
3.08163461547526e-07,0.199404998531851,0
2.5486912796162e-07,0.172824972642012,0
1.95655621558434e-07,0.155924265586724,0
1.45340399691148e-07,0.14191466406432,0
1.62537842136002e-07,0.151607129170253,0
2.16773145468171e-07,0.163799035840088,0
2.16659598280912e-07,0.160557701363449,0
2.23597391500296e-07,0.159861197939523,0
2.55138727434014e-07,0.166303860765442,0
2.80115654153011e-07,0.158254362658289,0
1.01307521406743e-06,0.281318592499596,0
1.2990646822407e-06,0.317178254624801,0
1.52800645147145e-06,0.322285047877555,0
1.51066662445845e-06,0.316944438770335,0
1.31489925804906e-06,0.301079995451992,0
1.07194207112115e-06,0.275028588419449,0
9.96099609182866e-07,0.262842520218135,0
9.58252949878371e-07,0.247791460965696,0
1.09634690625778e-06,0.259402170592748,0
1.0686540089208e-06,0.265449406637911,0
9.18350425627847e-07,0.220280860836003,0
2.98450070417373e-06,0.365543410868192,0
3.19841474348231e-06,0.325696864924596,0
3.20196234211068e-06,0.314061619681247,0
3.28136907428817e-06,0.314693087140525,0
3.0931179008576e-06,0.301249715504741,0
2.98159173337634e-06,0.294580251664028,0
3.01676853183334e-06,0.303098107313171,0
3.09230684952004e-06,0.30889485636224,0
2.87203131402583e-06,0.304282736002297,0
2.77670409467607e-06,0.329185972881708,0
1.08594622421639e-06,0.221368337618272,0
1.01299591126998e-06,0.280158381777331,0
1.10372071466845e-06,0.311937554042766,0
1.0154418318315e-06,0.281696256537504,0
1.28232938886356e-06,0.314864304890712,0
1.7318434783002e-06,0.354096109012423,0
1.61386915229593e-06,0.324946939431274,0
1.5999928148837e-06,0.323258681287747,0
1.68279334632482e-06,0.329301177876715,0
2.15110039642092e-06,0.35467336550799,0
2.91000368628765e-06,0.415548475371904,0
3.8509438441976e-06,0.478218707759591,0
4.02901241827976e-06,0.440276181797376,0
4.0837031119185e-06,0.433486497138144,0
3.515863240898e-06,0.41594584457209,0
2.16276106173468e-06,0.31386576976628,0
2.40023208714275e-06,0.343418908729826,0
2.64523567675108e-06,0.343715073517857,0
2.71764994484124e-06,0.34160618983129,0
2.64613609393046e-06,0.341740702095553,0
2.36637519964029e-06,0.315941805124305,0
1.5478471703033e-06,0.25043479620865,0
1.5231359379947e-06,0.266221111053469,0
1.57361697480211e-06,0.278447011279774,0
1.8666522261784e-06,0.30786397672484,0
2.21229572178691e-06,0.350896369048614,0
2.51105339093379e-06,0.373993711120181,0
2.47935870621939e-06,0.379767643697724,0
1.97097145155196e-06,0.354504892240213,0
1.92764088364801e-06,0.35401269919733,0
2.00814989467112e-06,0.372430714993467,0
1.73481252697444e-06,0.345602674261698,0
9.81648026099736e-07,0.264908182581057,0
9.66833272251009e-07,0.279529793171566,0
1.05575333622872e-06,0.280473892035257,0
8.96462853531502e-07,0.239489170608959,0
7.77656448932778e-07,0.212018926664049,0
7.54208203790394e-07,0.216662693441624,0
7.83710646778295e-07,0.222549922737613,0
7.34079561733713e-07,0.220686107457578,0
7.47507718184592e-07,0.216400658643653,0
7.47711231992443e-07,0.211636621475738,0
6.18339531969743e-07,0.187903455925841,0
7.74871238561712e-07,0.215543491993295,0
7.25018616346221e-07,0.20336558517421,0
1.16588810008198e-06,0.254661847638432,0
1.21149396737718e-06,0.251972393270447,0
1.2771282968694e-06,0.251757768253219,0
1.30120645855063e-06,0.246771910455288,0
1.29388521828221e-06,0.244141384337477,0
1.13022061556576e-06,0.230005092661362,0
1.11952720406939e-06,0.234786949964895,0
1.23819257585219e-06,0.254108318178674,0
1.33506139352209e-06,0.267249992777313,0
1.42090742273574e-06,0.285064404727161,0
9.28999980274115e-07,0.235371158553379,0
1.01878862015648e-06,0.262555776294437,0
1.0136988224292e-06,0.269539161397912,0
1.21853794824391e-06,0.308476065185365,0
1.4034900952616e-06,0.331531132111625,0
1.40998526472324e-06,0.34366060132832,0
1.5848928413146e-06,0.352735294110478,0
1.64443001727935e-06,0.337539153567331,0
1.34436219983293e-06,0.290819822313616,0
1.10764980781487e-06,0.251570382328888,0
1.17137681491159e-06,0.271460797138334,0
1.26951718084515e-06,0.291541493904866,0
1.31495407911169e-06,0.281923640988983,0
1.26738126212821e-06,0.266868096130583,0
1.17483264458306e-06,0.244957072948989,0
1.28620681503587e-06,0.234161661597577,0
1.34485168433462e-06,0.241130511562654,0
1.05674957762169e-06,0.207552223918838,0
1.45907910335403e-06,0.243368765676407,0
1.42411678291742e-06,0.245962184772773,0
1.4381029126496e-06,0.239991285093913,0
1.44134111021216e-06,0.23363217458771,0
1.73131178909001e-06,0.267192974664253,0
1.73546737583218e-06,0.264496567393203,0
1.84332158347997e-06,0.279211126264382,0
2.022142032191e-06,0.327160976780916,0
1.38358824719005e-06,0.274046251819093,0
1.42028081048013e-06,0.275229408940692,0
1.55942417717354e-06,0.29028462695095,0
1.44437068734734e-06,0.269073067880031,0
1.34493293966306e-06,0.259276967465755,0
1.54302291679172e-06,0.290286130735542,0
1.47957632318523e-06,0.28567154356921,0
1.47448847798895e-06,0.293583766530642,0
1.38765476847977e-06,0.294458559803014,0
1.31314498404485e-06,0.252705586913409,0
2.89395973907844e-06,0.353612364812567,0
3.0289643408352e-06,0.361192407002092,0
2.35832581550437e-06,0.314285238582222,0
2.36254403343315e-06,0.321189415392755,0
2.33424059467262e-06,0.319123409543521,0
2.64661146013109e-06,0.33326714563073,0
3.11970671701265e-06,0.345784194722314,0
3.10593085984947e-06,0.331277233318206,0
3.46234466663672e-06,0.350411464826632,0
