Activity,Complexity,Tag
1.26248437953822e-06,0.338564260138996,0
6.7123744647647e-07,0.376472445114388,0
5.74060342650373e-07,0.33832268935076,0
1.77839884830205e-06,0.553930151468396,0
5.4986112033421e-06,0.892370812516003,0
6.73403905467971e-06,0.583492507978139,0
6.46713233272867e-06,0.565680559404633,0
6.42407162450285e-06,0.556729814178901,0
5.97332409634717e-06,0.538136367929823,0
5.45836664203312e-06,0.511511033478688,0
5.51189854423043e-06,0.517039859850117,0
5.84776353339912e-06,0.532607555150193,0
6.1198548293743e-06,0.568209801352265,0
5.61605223664668e-06,0.571653135550285,0
2.15464811086827e-06,0.396830324390161,0
3.3086707637186e-07,0.284373116332513,0
1.07392401617013e-06,0.460917371798648,0
1.04361457381599e-06,0.426955594628706,0
1.19617984059527e-06,0.453751798485832,0
1.2321369370988e-06,0.44223085449962,0
1.37771900367378e-06,0.450305623371351,0
1.69670333984873e-06,0.497881120721597,0
1.79304998486931e-06,0.523725074401552,0
1.81086768390249e-06,0.52492171061694,0
1.8731440134548e-06,0.535760289043083,0
1.59677580454322e-06,0.543859915739905,0
3.33698383252442e-07,0.308141552104627,0
1.02108700129664e-07,0.255610290387554,0
1.15202033552767e-07,0.261819614125287,0
5.25191899072349e-08,0.241381229800523,0
5.60144230579579e-07,0.365848825838115,0
1.0337094408687e-06,0.382965163473545,0
9.61799054548557e-07,0.34963476118468,0
1.42691909650217e-06,0.382263160696885,0
1.72058101733088e-06,0.409457397933036,0
1.79421042332566e-06,0.378253696667405,0
2.0687328565664e-06,0.397799941221587,0
1.96720925089553e-06,0.389098540263743,0
2.14882822083151e-06,0.406940027557456,0
2.1727149809351e-06,0.399738209798859,0
2.33824361951018e-06,0.450241323084124,0
2.40111813318159e-06,0.438946113333558,0
2.40390028705205e-06,0.419418437104329,0
4.18288109096579e-06,0.450874251124556,0
1.45265884494656e-05,0.642639937537458,0
5.63882115979549e-05,0.845283367470934,0
0.000185500392143104,0.237188210802679,0
0.000647458205577245,0.194492573979288,1
0.000738012577941139,0.176413752867683,1
0.000798127862478949,0.1701498766268,1
0.000781569409670411,0.154097680797424,1
0.000790910218978799,0.139703358813888,1
0.000621728218279533,0.093801101594378,1
0.000521412050492101,0.0849666917755998,1
0.000471165339881057,0.0781296779687543,1
0.000513554151569303,0.0834919177482493,1
0.000593748097004666,0.124770061965534,1
0.000509357843225008,0.192302954823261,1
0.000510779162284339,0.236399591421567,1
0.000422297715141428,0.192051810380517,1
0.000383294159147981,0.177084331045013,1
0.000280432026185289,0.169329952018367,1
0.000290592363631435,0.311498482063372,1
0.000338709843046291,0.34624917777591,1
0.000356855852130775,0.313879438348874,1
0.000377930185185248,0.303149200733874,1
0.00041094270162959,0.224537833633614,1
0.000465353017871827,0.159012442989334,1
0.000319095965599427,0.116507741953616,1
0.000219436960601229,0.0731188704231957,1
0.000294875455221434,0.0925175282465741,1
0.000411277308942826,0.118870822507559,1
0.000471763167974756,0.102823543022684,1
0.000476887408482138,0.0869272485356194,1
0.000528583773326817,0.0869933146269358,1
0.000546207696167704,0.0836625888002216,1
0.00049751342360969,0.0904262654705576,1
0.000303541909874242,0.0693824362993158,1
0.000267844927560721,0.0616618562703554,1
0.0003169518784402,0.0862565478598295,1
0.000662548935679266,0.109112998293819,1
0.000717288765420145,0.0499883645861903,1
0.000721186206432984,0.0545322711369019,1
0.000769355149784061,0.0478644003520994,1
0.000729310963125076,0.0444048521418847,1
0.000714306855519717,0.0451964817106927,1
0.00074715246770904,0.0431264973406549,1
0.000973360929438467,0.0381962679285143,1
0.00104376316416699,0.0285479551103815,1
0.00104984355767759,0.0271942302303491,1
0.00271935020150328,0.00947174142384197,1
0.024889019886101,0.0302839904164203,1
0.0499287269211641,0.0589783080039532,1
0.0811642852052873,0.0736977163485391,1
0.0927080414752929,0.0659806499322709,1
0.0878529590830516,0.0611936807597203,1
0.0757520582552362,0.0477346093833545,1
0.0670315641980736,0.0359226700553461,1
0.0536270212183741,0.0301259145805404,1
0.0324795791925816,0.0201895530757664,1
0.019868254598246,0.013698462730291,1
0.0248290400353364,0.0244763908995946,1
0.027179986632761,0.0137644638940432,1
0.0238886354250246,0.00832667984326566,1
0.0230213841716006,0.00841533179064738,1
0.0236249263619643,0.00857965275264448,1
0.0235070636859244,0.00631756525320424,1
0.0282712895247828,0.0103068563630109,1
0.0277764189986889,0.00817932758862916,1
0.0304293179335702,0.00839062921633284,1
0.0295742343643499,0.00873272030717813,1
0.0270810620469293,0.00720291191647531,1
0.0263532502204266,0.0136810952885373,1
0.0213005241061533,0.016471383076295,1
0.0234100017371159,0.0180324130467992,1
0.0256997522176513,0.0200875155947901,1
0.0254588549077093,0.039774644831465,1
0.00904355810352921,0.0181539437935116,1
0.00795823360818107,0.0210504949134372,1
0.0104255204854983,0.033529100530393,1
0.00689157677907393,0.0284202881361167,1
0.0052837339280025,0.0279429047706578,1
0.0054215589715893,0.0212774771326587,1
0.00701224218713234,0.0246231408020046,1
0.00912159591798219,0.0229362992831119,1
0.00918164458770268,0.0213436042069148,1
0.00926095401971211,0.0217302986732952,1
0.00846042576878175,0.0238902783323583,1
0.00856469532926821,0.0341808766794931,1
0.0085047612732144,0.0256085664225082,1
0.00807959068050157,0.0252993882177714,1
0.00710323967274715,0.0232027066788232,1
0.00689993345863443,0.0302932526560125,1
0.00966999653175262,0.0239428006696188,1
0.0138014985432254,0.0391302678168429,1
0.0146513539006997,0.0339884676820406,1
0.0144128080050466,0.022792784673173,1
0.0171066938845934,0.0202838686458448,1
0.0145091226471834,0.0146941125219899,1
0.0121824387460416,0.0115054390483348,1
0.0121131927427793,0.010167944816799,1
0.0115508723604483,0.00931017011915199,1
0.0116347627636441,0.00902897919835937,1
0.0117152840440847,0.0122850087413047,1
0.011543970168345,0.00730044603536866,1
0.0154037910556945,0.013212771519833,1
0.0239500073389235,0.0198470686179118,1
0.0316918431272036,0.0221292576539129,1
0.0299542453063133,0.0248454637638132,1
0.0271169052530366,0.0252395093996313,1
0.0292237274449861,0.0199898257422222,1
0.0294826057901485,0.0109482472150802,1
0.0310265740062428,0.0126831700609022,1
0.0213981765599915,0.00754871432011855,1
0.0196486516593497,0.00810323246432546,1
0.0197987258483036,0.00749932815815024,1
0.0185741125808117,0.00904389543669438,1
0.016886619108322,0.0106604703562029,1
0.017722885306192,0.011370375165681,1
0.0201078706130984,0.0130300465396361,1
0.0111499187786329,0.00921704393868004,1
0.00549126246789576,0.0115354380353065,1
0.0103094625196593,0.0174604350901476,1
0.0100464954018526,0.0124458554117929,1
0.011143691530153,0.0124388870815166,1
0.0109392450720581,0.0101436235809132,1
0.0103461374968774,0.0092673822876406,1
0.0135141254759603,0.00676381744690137,1
0.0235998109294094,0.0136821807125898,1
0.0248994843129185,0.0144038331925309,1
0.0299382185249192,0.0181270526021088,1
0.0310767645308227,0.0195884372882301,1
0.0229987575290523,0.0153710249544875,1
0.022145314121516,0.0131596059057876,1
0.0230468452555357,0.0144910455311899,1
0.0261438653428423,0.0176780040652464,1
0.0241704305880648,0.0167950126391451,1
0.0227341689810659,0.0251043911405537,1
0.0216853959008836,0.0207326149886878,1
0.0234258978195207,0.0136531654212422,1
0.0256060928914447,0.0132567788543091,1
0.0273063132648727,0.00947906191552011,1
0.033166265470744,0.0129518526759659,1
0.0385341453251343,0.0180887408018135,1
0.0348009086007486,0.0139306239016487,1
0.0279392305370685,0.0103321588103253,1
0.0313822618810075,0.0100745671077492,1
0.0349419002663059,0.0106662798465399,1
0.037859094250406,0.0127618830226981,1
0.0440145508505761,0.0259054331657156,1
0.0248520590386491,0.0177551661483912,1
0.0243430618738011,0.0348508698683072,1
0.0248398651826047,0.0304820089906429,1
0.0246486979303078,0.0302426387362756,1
0.0209092346112574,0.0446284936722239,1
0.00635196560973669,0.024429441587672,1
0.00505678243404335,0.0407314202673821,1
0.00537552113232438,0.0442633461014734,1
0.00368945425816772,0.0222142092297042,1
0.00387978793064333,0.0193045249226929,1
0.00411630629755348,0.0205435992144492,1
0.00411691968030422,0.0194267086066645,1
0.00404438208988773,0.02285074559614,1
0.00436849058562788,0.0246567298771048,1
0.00442682181825373,0.0253209692736553,1
0.00439089382140073,0.0259820688480572,1
0.0038678109454265,0.0183877706469909,1
0.00320752379265387,0.0155253711898663,1
0.00299988165193979,0.0195035380914897,1
0.00286513401420408,0.024028820322489,1
0.00240253105802877,0.0196218783722512,1
0.00203574624763186,0.0148332992019574,1
0.00210408301510693,0.0140428551791142,1
0.00183108933778523,0.011348632275427,1
0.0018943915627187,0.010836704843307,1
0.00209748243903012,0.0107918294786865,1
0.00384894210239312,0.0188104086804422,1
0.00378863352544617,0.0171551970124149,1
0.00358896800213218,0.0182145596873303,1
0.00365654685423341,0.020370851526191,1
0.00393686256496261,0.0209367573566476,1
0.00376287238843005,0.0233247408966713,1
0.00347126306311062,0.0261435392449529,1
0.00347829291165861,0.0286012724791879,1
0.0031153221194652,0.0257314459140515,1
0.00392222498921664,0.0326298295175249,1
0.00292550307626742,0.0285123398472609,1
0.0031341853517092,0.0308920502624999,1
0.0036863668453381,0.0321968238070784,1
0.00327593383284169,0.0235930275155293,1
0.00334340456328026,0.0259762197209648,1
0.00446137833065483,0.0314078321505396,1
0.00553637435100203,0.0369836100251873,1
0.00582493864413879,0.0388270630088708,1
0.0059060337630656,0.0375085478166978,1
0.00462827680598742,0.039495575517212,1
0.00370727013900701,0.0268800181185051,1
0.00991464522500531,0.0215642144590029,1
0.0162209029986359,0.0306021290355098,1
0.0261309830168803,0.0352551456815802,1
0.039015101597622,0.0498696174499891,1
0.065354650330259,0.0599438322261752,1
0.0702607435433006,0.0458871014694041,1
0.0638285881671361,0.0441398542910271,1
0.0772850288438122,0.0308714608058361,1
0.0929899023588462,0.0324616732550569,1
0.0700053473327463,0.0257247369228199,1
0.0572002404224918,0.0204749460118191,1
0.0573061783387219,0.0183368557122035,1
0.0489631719565529,0.0139190225511085,1
0.0722998469394534,0.019772453777489,1
0.0905703843765448,0.0235863090118612,1
0.0871188092529804,0.0231921539760861,1
0.114436183029702,0.0243397889110369,1
0.164906933079581,0.0270420742478563,1
0.183864628967198,0.0124494489464845,1
0.213746035090576,0.0111869732935801,1
0.182657207340656,0.00935037523966004,1
0.211119051323486,0.00874553697278429,1
0.266813592925097,0.0116593019487481,1
0.270518014007177,0.00998557952590639,1
0.268775437601175,0.00968856482304795,1
0.290680737190392,0.0116472807557211,1
0.236382641416747,0.0114156041582924,1
0.117315719720756,0.00365792176675581,1
0.104751752651346,0.00886125221657696,1
0.0990896001935865,0.0135927699970755,1
0.0574433069151431,0.00744028331816846,1
0.0555487602671308,0.0152043006831164,1
0.0565249496197176,0.0152647124369419,1
0.0436943968463986,0.0198933993689963,1
0.0186622428554759,0.0201036750389323,1
0.0207177168668102,0.0150762804607631,1
0.022074335324984,0.0177427743171621,1
0.0213515755418319,0.0166939685008904,1
0.023070422214902,0.0226389165154452,1
0.0255898142930357,0.0254879083624638,1
0.0341669742030437,0.033176896479833,1
0.038511326288555,0.0357905888540313,1
0.0414990521500507,0.0507806066880448,1
0.0306016316152617,0.042843096477856,1
0.022419246609577,0.0291028184468868,1
0.0150848203674939,0.0269758427384477,1
0.012029416839851,0.0193975282503329,1
0.00839578025933313,0.0153521491032756,1
0.00863528814490945,0.0133896563718082,1
0.0107933887912579,0.0203151690172317,1
0.0119217681918382,0.0213370654771053,1
0.0129624777439509,0.0223843484726814,1
0.0138043707302505,0.0233486232750855,1
0.00923542322679108,0.0171349583336639,1
0.00803564811651833,0.0292632432842699,1
0.0086199696119764,0.0450929815620324,1
0.00401227209042818,0.0395534810469472,1
0.00142878103122509,0.0164581809600367,1
0.000974095493459384,0.0234244474576078,1
0.00116518486835484,0.0263236946472488,1
0.000922670180017309,0.0179796180851863,1
0.00200910350229298,0.0358631462466996,1
0.00204192509836163,0.0307830751526659,1
0.00204356386506181,0.0313455492362079,1
0.00203125842554027,0.0311240916170604,1
0.00202705288811727,0.0191052645106142,1
0.0036612846092303,0.0270227159904845,1
0.00304723715217555,0.0218632775386361,1
0.00284723170220423,0.0191681188917524,1
0.0040269623185981,0.0266369058007962,1
0.00377845778514297,0.0244061825970293,1
0.00412719249112402,0.0271550551367723,1
0.00393232575495091,0.0216302362435673,1
0.00341797874195395,0.0137816170555574,1
0.00383420511735554,0.0125419055022783,1
0.00313706796144304,0.0125955092008442,1
0.00330431876121122,0.0131789360296393,1
0.00331299729742014,0.0097186100445925,1
0.00445683965229447,0.0148735689807546,1
0.005487703542929,0.00869668026493118,1
0.00751980765408928,0.0118257336377788,1
0.00787745842038694,0.00857567534904981,1
0.00942866403227876,0.0118294510087408,1
0.008961770779724,0.00947652731342481,1
0.00993686558159451,0.011885907730833,1
0.0119095190214939,0.0142207244880239,1
0.0122150575675779,0.011699315082162,1
0.0119083179477232,0.0139796578506756,1
0.00937442990907513,0.0105703232614167,1
0.00910337351316564,0.0183488728382856,1
0.0088794552343644,0.0171929254344621,1
0.00861817333412136,0.0221008916999534,1
0.00651289823530254,0.0186208005492254,1
0.0063955296150673,0.021457212351261,1
0.00615906383853879,0.0217765543440474,1
0.00417163360554058,0.0147676890840436,1
0.0088006240718289,0.0238831514225377,1
0.0117167426067671,0.0285375082638853,1
0.0488336991330263,0.023121249539324,1
0.0805358901295661,0.0222879494114629,1
0.0826097920262026,0.0235706237767671,1
0.0798859549581529,0.0233152143593573,1
0.073060537726259,0.0220308757986242,1
0.0617347690278869,0.018782831633205,1
0.0572562521204961,0.0125545858854372,1
0.134759561390979,0.0149026961974464,1
0.39293191053975,0.0364594028089604,1
0.454985613751179,0.0154381402929256,1
0.450195249709273,0.0137560740787464,1
0.467637634053853,0.0144277088175655,1
0.448175264134382,0.0138800181066372,1
0.427841277910526,0.0134351760461037,1
0.411487260923465,0.0131007364693422,1
0.384812431945702,0.012508988442993,1
0.372766281691768,0.0123556193214235,1
0.367854614007265,0.0163696831470151,1
0.214854996750783,0.0102909444440511,1
0.137955721096916,0.0165870353911426,1
0.134389747124293,0.0201403791970938,1
0.105114324752522,0.0138696392699169,1
0.0968515644281304,0.00961347148189893,1
0.133083877155902,0.0151182830739541,1
0.144296615483721,0.0145109248193686,1
0.143477216646762,0.0148774010646096,1
0.109479091593189,0.0112703607668582,1
0.0766823498381412,0.0092380947419449,1
0.0889653384524947,0.0104980098536214,1
0.0781963680643048,0.00997892190540275,1
0.08398228485778,0.0133749902285953,1
0.052571472152586,0.00863457016861088,1
0.0724414684484767,0.0165263833160668,1
0.0709602193473432,0.013139005206937,1
0.0657608889804964,0.0166225753517205,1
0.0738399763994222,0.0163392799556553,1
0.0800838049803104,0.0186245622820282,1
0.0624133939864592,0.0126162101417274,1
0.0679976741087173,0.01702363672123,1
0.0716357809301766,0.0142749123324654,1
0.0746229239876369,0.0136941837514127,1
0.0723540772281212,0.0144383484775377,1
0.0523404683100995,0.0089727106076304,1
0.070687746167207,0.0155330042144188,1
0.0967584246078348,0.0210852146663023,1
0.0846647531929941,0.0228701545230984,1
0.0690775281264823,0.0192177817800024,1
0.0682966965112408,0.0260269969599227,1
0.0704299370797305,0.0282214298826033,1
0.055472366218493,0.0499633034401386,1
0.027371555815299,0.0325225066040519,1
0.0149503797041307,0.0187582210228254,1
0.00679878568382449,0.0123829629388533,1
0.00737955675818726,0.0163211051835828,1
0.00811290236206713,0.0193414277270224,1
0.00660172716016718,0.0181354800615325,1
0.00738909588987389,0.0255188649874732,1
0.00798270365369897,0.0261072912883599,1
0.00595944581927165,0.0183897783355282,1
0.00638423243394534,0.0215820739876155,1
0.0024332855277963,0.0117330555343296,1
0.00212486987330894,0.0135351907984633,1
0.00363504085917691,0.0097863518824158,1
0.00789842034398003,0.0164735282921001,1
0.00814000142498533,0.0141062283629494,1
0.00818553003505835,0.0135679336962441,1
0.0085004958347677,0.0142411094174552,1
0.0083842878031192,0.0135797242973991,1
0.0082352916096001,0.015045003682231,1
0.00716705000363275,0.0127123315755884,1
0.00662093958040388,0.0107418427987845,1
0.00585009360746779,0.00876531065677181,1
0.00645901743542251,0.0158669274636346,1
0.00516595642023813,0.0162216726803836,1
0.00481671607283421,0.0179512781362138,1
0.00635923623450511,0.0243347164768237,1
0.00721625700913744,0.0262014605439462,1
0.00813407317793917,0.0320702962012452,1
0.00585315533410971,0.0213785331447859,1
0.00573377885020897,0.0216699336984705,1
0.00549540389697104,0.0164848026039001,1
0.00529024157336814,0.0170644047395828,1
0.00561998319921102,0.0197090935967796,1
0.00540244427000774,0.0203457736171094,1
0.00604573571801702,0.0253488273988456,1
0.00591991917747875,0.0259891063311908,1
0.00653668086208282,0.0306356379515544,1
0.00463600000502624,0.0173109772386559,1
0.00464808334453445,0.0179304063535665,1
0.00346268725976492,0.013979870832671,1
0.0034432098171163,0.0213972432630082,1
0.00407965664475422,0.0256861452436232,1
0.00424438832149877,0.0180394783668942,1
0.00316990128531304,0.0120564966533671,1
0.0030429816809709,0.0136933337980629,1
0.00352113865400312,0.0134871470311276,1
0.00506179977303141,0.0206109646938188,1
0.00793901736209045,0.0357699071278651,1
0.0240629259450817,0.0130400082650927,1
0.146321780968176,0.0385405548193478,1
0.242179578408322,0.0577195344049659,1
0.259932513528264,0.0406931155692587,1
0.25207448784179,0.0403374400241014,1
0.254499986883308,0.0430254325618022,1
0.223949249871697,0.0380410186990668,1
0.179733734936787,0.0297152744187415,1
0.133828048836283,0.0182963080339489,1
0.138328982998206,0.0168362467829947,1
0.18149594010712,0.0283764023483078,1
0.176170220454637,0.0329129504872017,1
0.153593217140132,0.0183408989536653,1
0.180943678496356,0.0268728571075126,1
0.198479307802258,0.0272363536023594,1
0.211310598600878,0.0260718122299387,1
0.233458266015984,0.0186925937196439,1
0.229380568013431,0.0185223690572318,1
0.245889132298492,0.0224857270076274,1
0.199839474772841,0.0166002093039569,1
0.122315432052041,0.0073407304122815,1
0.0946473573589079,0.00431194415820572,1
0.126567487607402,0.00617252057832232,1
0.140871699046231,0.0057622072299026,1
0.14358055849574,0.0057783130913355,1
0.149509062391491,0.00703498429146881,1
0.123099282980219,0.007207719859705,1
0.128323923332577,0.00802469698174305,1
0.10980172916707,0.00611071026468993,1
0.105156157227668,0.00738805790054027,1
0.103884942381633,0.00842898253099941,1
0.0902310712791395,0.00651291899463031,1
0.0804816413804034,0.0115526831452152,1
0.0797012178840074,0.0164640705465739,1
0.0935871444888934,0.013334020846047,1
0.096417467789894,0.0103744211707297,1
0.0991501547388077,0.0100500960744191,1
0.120691722381502,0.0133776612862168,1
0.11851610955567,0.0131902699467043,1
0.124689346933684,0.0135842337714049,1
0.116200490989316,0.0163960823230567,1
0.080805733098004,0.0114489704302156,1
0.0806790178835652,0.0106485869137468,1
0.0815470083116425,0.0101719704174004,1
0.0595838148162848,0.013889043040071,1
0.032450759058652,0.00955399360554307,1
0.0398628530144596,0.0135657598231427,1
0.0351770734908373,0.0104531743624036,1
0.0344305472610607,0.00979659978087554,1
0.0487203326277435,0.0138809022237679,1
0.0494186887957377,0.0130883281335393,1
0.0467267770920127,0.0156832778903364,1
0.0480970061017685,0.0174686165857698,1
0.0325718012674751,0.0120811969386838,1
0.0262529249905871,0.0107397168874121,1
0.0223255384879886,0.00887077822470561,1
0.0240984367896875,0.0105701024479732,1
0.0234566708719978,0.0179733099086136,1
0.0147956001359854,0.0133107006369104,1
0.0144554470678658,0.0202421198106866,1
0.0145396795017483,0.0367345255596059,1
0.00764705270344994,0.0265313772166507,1
0.00457421884470106,0.0300155290479118,1
0.00504126698560339,0.0277720996237054,1
0.0044092736166267,0.0271454371254155,1
0.00380792973360023,0.0237493373202871,1
0.00312527229480179,0.0204628026534473,1
0.00304064622344552,0.0274307982855885,1
0.00390702188518232,0.0320105109617814,1
0.00385805750935388,0.0221121436442643,1
0.00396281175645344,0.019323876080435,1
0.00442042614077379,0.0216775948502828,1
0.00518893712233668,0.0240041195441772,1
0.0062003213848836,0.0402677667547621,1
0.00405150316101301,0.0242561022837366,1
0.00373217637989037,0.0225168787716667,1
0.00378990818855251,0.0205582978676217,1
0.00687518914786839,0.0268820165239607,1
0.00976335708539413,0.0315533280591286,1
0.0095510432082531,0.0193097475244976,1
0.0117113588442433,0.0246675457466959,1
0.0125128668070276,0.0237325481009377,1
0.013044243077394,0.0251818882277864,1
0.0131464204902262,0.0247966490575524,1
0.0131957851703729,0.0252679813177289,1
0.0133339667805806,0.0247721317452232,1
0.0137213813470097,0.0243345176243242,1
0.0102274179066932,0.0235650122081176,1
0.00581673879473689,0.0152973149635571,1
0.00722169476256977,0.0350263721660094,1
0.00577870875985593,0.00690782570928886,1
0.00907485893224507,0.0130741330607955,1
0.0112378170083476,0.00725336435821965,1
0.0131009199083215,0.00567332326038957,1
0.0137411288135226,0.00633949754505118,1
0.0147624890377698,0.00767492077124824,1
0.0146232428507655,0.00707859548063886,1
0.0146411263833102,0.00706188959258503,1
0.0150550690265152,0.00693820593681423,1
0.0131191808810207,0.00582977694388985,1
0.0140006377429858,0.0116519721974956,1
0.0146645522960106,0.0111981224634572,1
0.0129740802734558,0.0159676684237462,1
0.0115349127945267,0.0233205621509781,1
0.0117908822905291,0.0240733420094058,1
0.0124659953176846,0.0248011199589584,1
0.0147485138869901,0.0321272419426006,1
0.0154703245076854,0.0259579575799013,1
0.0152573572569446,0.0279466998934112,1
0.015020907025523,0.0318306743820895,1
0.0134913121580933,0.0301386515106724,1
0.0074878666344641,0.0205933732757279,1
0.014672091418429,0.0199917990432843,1
0.0469962563040667,0.0389407145080581,1
0.124270995751992,0.0426551101217291,1
0.267127269837514,0.0837910411832465,1
0.272861638545883,0.0278246493477453,1
0.264964118623807,0.0199837558940566,1
0.330863024021396,0.0255496945075771,1
0.305393254728327,0.0191647031225048,1
0.250628514240249,0.015840793573034,1
0.203895490198949,0.0131924709662885,1
0.185070796783331,0.0111062230733321,1
0.210275671601481,0.00920391937662287,1
0.209089165488407,0.00840518745138859,1
0.21027428360469,0.0068492167813871,1
0.176842473805076,0.00806745314465075,1
0.136745422182722,0.00835092043371452,1
0.136697190849976,0.00749794687776945,1
0.161959684788437,0.0108025484831909,1
0.163700622237271,0.0117538372444713,1
0.19126563815094,0.014319108470569,1
0.160373830614447,0.0148886110478415,1
0.0896253302539121,0.0102353764413983,1
0.0925043841388562,0.0161218103567692,1
0.0910461427134704,0.0218624562375778,1
0.0691108116581991,0.0180073881876136,1
0.0651036342635794,0.0193224056653989,1
0.0309802401619411,0.0131329564120541,1
0.0376223941950706,0.0196343853087528,1
0.0324392626611815,0.0165417250483948,1
0.053525873059957,0.0122670725800246,1
0.0754721259303726,0.0129158431725208,1
0.0755143840164248,0.0123200567227474,1
0.0757424634584334,0.012399711059899,1
0.0757172759744445,0.0113218352524394,1
0.0793382024542024,0.0133505419349324,1
0.0785653453560047,0.0108566264155547,1
0.0813911445808289,0.0118424763921536,1
0.0815085892370308,0.0105040806982629,1
0.0833370771712563,0.00963826464378763,1
0.0694813027204277,0.0150345370209689,1
0.0466779654458732,0.0126850913237264,1
0.0498981739603724,0.0144837108900297,1
0.0552911798821324,0.0153665493644902,1
0.0576163648291724,0.0149622877629,1
0.0509115211061043,0.0119522657369029,1
0.0558214136421353,0.0147630549899265,1
0.0558468842858634,0.0148029651704862,1
0.0630182625112963,0.019368260465416,1
0.0388098583654931,0.0197676897954393,1
0.0192118743217271,0.0084313870460821,1
0.0135945636440034,0.00732614314237862,1
0.0179009284107366,0.0117369627242683,1
0.0253975481176085,0.0183533876834648,1
0.0218957030198344,0.0113991030929153,1
0.0221468899573368,0.011856933502929,1
0.0268685913594645,0.0107235748394075,1
0.0305275170417424,0.0122387916150288,1
0.0350366234424989,0.0136522985157478,1
0.0460494738644275,0.0181633208910904,1
0.0503775797410259,0.0200812046577713,1
0.0442261674209433,0.0178382276082044,1
0.0459471968112311,0.0187881900563182,1
0.050412174890164,0.0201093094180096,1
0.0471898701733546,0.0367552002909965,1
0.0129608203658241,0.0179999744308192,1
0.00842328571620016,0.0347994683566992,1
0.00567336292575928,0.0314913316259408,1
0.00178356582842027,0.0364031822392047,1
0.00174653475360519,0.0476086995382305,1
0.00242014244645137,0.0440359588209935,1
0.00235133326565611,0.031069417235719,1
0.00239818393856574,0.016263906954331,1
0.0118363457343961,0.0332765704562828,1
0.0151775586857005,0.0179483207868917,1
0.0138793444550439,0.0150223923176711,1
0.0185059501332181,0.0155389376765134,1
0.0189639353550279,0.0113300745536031,1
0.0181108624268185,0.0104619926333247,1
0.0159304820179268,0.00840173665678755,1
0.0155835070331177,0.00795067731057491,1
0.0144233087186063,0.00752156556725692,1
0.0128771595803808,0.00643768364120814,1
0.0115341224888553,0.00657493266522693,1
0.0104524356593254,0.00917600387135325,1
0.00910394283451699,0.00814736118370606,1
0.00621743776796696,0.00824358887591037,1
0.00521464523487528,0.0114889576675005,1
0.00482578116594569,0.00926471826676162,1
0.00612985021385978,0.0140921011140747,1
0.00646408113792058,0.00918587844965656,1
0.0118081894209508,0.0155892711653957,1
0.0122480916900426,0.0114649580674375,1
0.0108962891662643,0.00954220487312063,1
0.0139166613398536,0.0120222700863416,1
0.0152351166354242,0.0123976866988121,1
0.0135700251507819,0.0104095219631352,1
0.0135260401592025,0.0108140870933801,1
0.0133996137369302,0.0111128215955673,1
0.00977889380800485,0.00757347091420859,1
0.0108489197452416,0.0149779094079299,1
0.00857560795199824,0.0119448538127717,1
0.00944251777238534,0.0191085067559954,1
0.00938141887113418,0.0183588348357384,1
0.0123798529915024,0.013544211215454,1
0.0162267374847792,0.0145207638152411,1
0.0161685574685173,0.0151016550771158,1
0.0171523100188137,0.0134567682719885,1
0.0198897328992545,0.016086215667057,1
0.0202085281337151,0.0152945756073616,1
0.0183374684603329,0.0143410600264809,1
0.0167344844422137,0.0126308111416889,1
0.0169138195523288,0.0153958776125745,1
0.0169870507200345,0.012619118678272,1
0.0142680640640781,0.0194847067726419,1
0.00924025176238887,0.0194654806361663,1
0.0121109519245665,0.0202326897629554,1
0.0511977176228769,0.0381870448051156,1
0.0653524545446183,0.0239218696677842,1
0.0667597683109546,0.0208819961706053,1
0.101617381030766,0.0286448247754727,1
0.197792795777393,0.0380979767323313,1
0.301451219126072,0.0524809630135082,1
0.378703708996144,0.0574917068032514,1
0.365742166456664,0.0518545870567397,1
0.417279136465566,0.0458362716581537,1
0.348421546907222,0.0202018785008852,1
0.319980848584074,0.015200197779899,1
0.289044151831351,0.0115977369411289,1
0.213576086027302,0.00690446263563975,1
0.174283103324709,0.00415036449275795,1
0.166608066814978,0.00463664287019974,1
0.176789917232502,0.00466097161640602,1
0.176459089721298,0.00373237450147717,1
0.189334225752192,0.00202084256142236,1
0.222672543210729,0.00429892605467017,1
0.20754876949604,0.00578537521907679,1
0.213960478678423,0.00916594216295787,1
0.156431542680006,0.0065708191435931,1
0.163471500785909,0.00655673430394657,1
0.202010870510158,0.00918656919918239,1
0.201542345722607,0.00526724832829276,1
0.258001884842407,0.00824779272623875,1
0.249452836844715,0.00782899953143802,1
0.218429473710506,0.0119142670441289,1
0.18948964516564,0.00894634678816827,1
0.188745066696617,0.00972825584157034,1
0.196079304404316,0.00849776794807437,1
0.22350618966676,0.0123053828488467,1
0.183310382809326,0.0143247654171152,1
0.0805079713283409,0.00458381805773219,1
0.075102209212519,0.0174930216432681,1
0.0579197470638237,0.006967318111601,1
0.0616359283127179,0.0112563682473751,1
0.0585375715204541,0.0104131524098901,1
0.0538032815987391,0.00937662370140518,1
0.0417679735501711,0.00543804654550351,1
0.0370857123380395,0.00948114194651753,1
0.0365525337063317,0.00670083461986324,1
0.0457848684179568,0.0028162644169995,1
0.0668634488252405,0.00639470478958031,1
0.0667194437600672,0.00498585275785058,1
0.107486376356483,0.0126778809892464,1
0.128794114037256,0.0128145518738341,1
0.121952851684878,0.0116396933349773,1
0.135714242487738,0.0116837472170263,1
0.143765308412712,0.0122915332995351,1
0.142454096416176,0.0116587652561567,1
0.144555050469667,0.0124200654298892,1
0.131566145093384,0.0215466783085084,1
0.0548157448715701,0.00725101399858713,1
0.0468938885184875,0.0104573672595021,1
0.0475371680199778,0.011468345310577,1
0.0500555602870842,0.0231688638071394,1
0.0225923113345707,0.0119757795841597,1
0.0195338418143923,0.0208389205531014,1
0.0150702302767614,0.0217792368186502,1
0.0115529842435704,0.0217033338818853,1
0.00792403355280832,0.0222704094726884,1
0.00163714159908029,0.0139304273617396,1
0.00170272225810363,0.0232450398719253,1
0.00162329048117995,0.0300342800889488,1
0.00100010318558061,0.021039944235581,1
0.00166984164082345,0.039454405420919,1
0.00164855858351853,0.0421513873406472,1
0.00165223440983724,0.0518066429261726,1
0.00123360078019029,0.0171583056568499,1
0.0131373926396692,0.0244238929051275,1
0.0215108847258181,0.0198364620550725,1
0.0212697587696302,0.0192399264038542,1
0.020829479029463,0.0192212788937301,1
0.0213374920549462,0.0194250945844034,1
0.0205322382368284,0.0163840589651594,1
0.0184173240890056,0.0144273272804179,1
0.0162174199623772,0.0130258121163346,1
0.0164290989049757,0.0120426272181433,1
0.0158622528648233,0.0114716197403488,1
0.0168737872946245,0.0130648465097558,1
0.0268140943319697,0.021110128141116,1
0.028322861164866,0.0144020105136375,1
0.0284152653789099,0.0110976773992521,1
0.0286254223547153,0.010140002895866,1
0.0309587937929586,0.0113400766962596,1
0.0324608381746224,0.0123383114144758,1
0.0355268571858998,0.0127946772645432,1
0.0368185344531566,0.010218178440465,1
0.048106596009316,0.014257598362547,1
0.0503902953357033,0.0116740055468418,1
0.0414441285372717,0.0104620048935214,1
0.0399982977989547,0.0101953559694787,1
0.0451917681353864,0.0142630365167668,1
0.0451978303743396,0.0126815446604929,1
0.0407167681210614,0.0107087214780436,1
0.0363722034561944,0.00948940520864246,1
0.0304420570554428,0.00855285376115202,1
0.0325690791674301,0.00805745529967588,1
0.0345937286680945,0.0088901523366771,1
0.0339774166237402,0.0147349682493231,1
0.031750589520044,0.013370433594597,1
0.0313440499313036,0.0186134689406813,1
0.0266898899014391,0.0169485767956221,1
0.0282133840228064,0.022274383999581,1
0.0289498690285078,0.0293828487317202,1
0.0205500927528686,0.0250117664389794,1
0.00690702974655822,0.0049242478001408,1
0.0031171213445641,0.0181147085296782,1
0.00237334369107476,0.0123261652037197,1
0.00305529990421532,0.0147662291955335,1
0.00270049232533457,0.0163959344434275,1
0.00247713543481591,0.0149274582474977,1
0.00394168711135285,0.0220394681050955,1
0.00425773888838486,0.0151127367672564,1
0.00952019904906814,0.0169031076240552,1
0.0132234280960546,0.0132363790045155,1
0.014733268511367,0.00825331815728068,1
0.0419392920425538,0.0190641339332962,1
0.124766173198564,0.0170061492540972,1
0.379927496350482,0.0467676231513017,1
0.428353716118132,0.0202579200600478,1
0.399537359178162,0.0209988578521621,1
0.368988062416999,0.0181210084723244,1
0.36937160859939,0.0183002827392712,1
0.369541802635457,0.0183348699539463,1
0.343658279568823,0.0183149872284588,1
0.228498704309263,0.0119011684008147,1
0.171272902054125,0.00796284778951531,1
0.156815235906032,0.0099238660564993,1
0.173136467706983,0.0108939044833645,1
0.17082866085696,0.0272801963598537,1
0.128470502287312,0.0219965883869925,1
0.150989416239801,0.0202347210846199,1
0.200715893207974,0.026643913461951,1
0.24000976406913,0.0236504455302727,1
0.27851245989913,0.0128212168901249,1
0.347368109568615,0.0156260213753971,1
0.364728839069775,0.0184281332249077,1
0.386813120939651,0.0112266098195443,1
0.464779365230622,0.015183918345252,1
0.451113114138785,0.00994746269100834,1
0.449669905912641,0.00990323368113068,1
0.439122281652211,0.0116013493093729,1
0.431333129343435,0.0112745816316117,1
0.397376983762295,0.0101677201478884,1
0.38561438803087,0.0163845539221417,1
0.349779702448676,0.0144544753250227,1
0.353757004147739,0.0122095936311169,1
0.366563574258089,0.0355963862258003,1
0.155673276107105,0.0175054773865268,1
0.0675025409547511,0.0194198112793613,1
0.0523570302779493,0.0147502950943347,1
0.0347793225201451,0.011787960167844,1
0.039936072419703,0.0152832835331452,1
0.0410377932142832,0.0134931160650841,1
0.0380705550786592,0.0183098227230539,1
0.0371978753882351,0.0170229860806302,1
0.040516511524052,0.0178068168966101,1
0.0373450740985819,0.00876966539854369,1
0.0499511262462006,0.0118955646636168,1
0.0480133259668688,0.0120471016668797,1
0.0387642022933837,0.00926895654058628,1
0.0324475876877395,0.00830109215829798,1
0.0366214895121589,0.0114301126958576,1
0.0368719380446266,0.0140872195234114,1
0.0363692487517504,0.0130181356344382,1
0.0486219167906597,0.0137242658505906,1
0.0342610263556326,0.0089943272543092,1
0.0182306846213328,0.00592291663939985,1
0.0177224021981519,0.00754788688464546,1
0.0247713973226492,0.0100299415901964,1
0.0357478348933503,0.0152187633691736,1
0.0485026719395887,0.0204865390953222,1
0.0564613970429429,0.0233763968036901,1
0.064680141200659,0.0262094683548119,1
0.0479081768441872,0.0208417980044386,1
0.0476061321024107,0.029168792714164,1
0.0384556110539926,0.0591294645135345,1
0.0222353539609045,0.0441831393086608,1
0.0101109820177847,0.0214589568251175,1
0.00539015804871211,0.0290212243341949,1
0.00490493916781567,0.0267293219665553,1
0.00505282351597164,0.0285973392856777,1
0.00461027800268845,0.0307017196770111,1
0.0046096604600303,0.0349132319552567,1
0.00391291246900161,0.0473789385489881,1
0.00287727634827701,0.0376620135970231,1
0.00328448840722938,0.0516727587744419,1
0.00864430740624498,0.0530300574209199,1
0.0104551146760224,0.0438997304030515,1
0.0132120960673184,0.0330727498319284,1
0.0123555428209584,0.0308468115485535,1
0.0108818944198787,0.0291261489482727,1
0.007781963235864,0.0211978484685399,1
0.0066670360891291,0.0152369581420698,1
0.00672854614722906,0.0144665427273289,1
0.00980869039245949,0.0138532445467081,1
0.00979949496987453,0.00845360638190347,1
0.010841207505454,0.00876605750268033,1
0.0121544669941352,0.00722079796212815,1
0.0134742698846595,0.00586832214479016,1
0.0173263412883312,0.00695521069210508,1
0.0192099742185565,0.00560289582537412,1
0.0203162241946145,0.00534568861402229,1
0.0193455667495203,0.00543875436729171,1
0.0184755311567869,0.00428156527680845,1
0.0161134920375501,0.00260912869444201,1
0.019132347938215,0.00503435969663212,1
0.0179238875188359,0.00463321602214415,1
0.017051632593966,0.00733622757665528,1
0.0139343239141239,0.00835887306086165,1
0.011621347268637,0.00593794601169105,1
0.0118376414045373,0.00667317181340512,1
0.0137336592437489,0.00924929507381704,1
0.0147856730550838,0.0079372607028471,1
0.014545964434825,0.00721368359530768,1
0.0168880538344659,0.0119643460864286,1
0.013824789436948,0.00888336773629893,1
0.0139403575022817,0.00884471737639326,1
0.0134515350346311,0.00718530529759578,1
0.0134910473763708,0.00664588421005031,1
0.0130222345018916,0.00856858959891415,1
0.0080184959812985,0.00266501954933623,1
0.0187943011521786,0.011468559213062,1
0.0205448374532728,0.00584641025183727,1
0.022704686235776,0.00757924021059432,1
0.0217542934876417,0.00602666456449855,1
0.0218988613548477,0.00530806420693059,1
0.0226308227660855,0.00586198375888627,1
0.0228513966758812,0.00501525886257821,1
0.0267209212857753,0.00729143896303415,1
0.0251220785228926,0.00541575361487662,1
0.0241688519980726,0.00681377301731603,1
0.0172662110019074,0.00372773852672517,1
0.0156030792306819,0.0113105854761248,1
0.0117898457998693,0.00691312540304516,1
0.0109697740089821,0.00984799153126934,1
0.0109573215731764,0.0141298557406915,1
0.00968301144148128,0.00669209759648536,1
0.0198429642503637,0.0125762400340796,1
0.0288334045559886,0.0123291668968731,1
0.0286718402333005,0.012860640822767,1
0.0266624179065522,0.0124573582210739,1
0.0255022927681171,0.0119052983620505,1
0.033742305932857,0.00308051089342066,1
0.0856935942499331,0.0190019071451399,1
0.236013315372019,0.0267072136281051,1
0.406427432031,0.0463476852461901,1
0.63074333204186,0.0524099404224833,1
0.774992101211369,0.0259839565404658,1
0.747121149163068,0.0265658597818375,1
0.659910960505852,0.0241031182550279,1
0.547243476835945,0.0201666748122677,1
0.379384571723973,0.0139720125365023,1
0.265332779944932,0.0100458677069044,1
0.226960236213357,0.0068262446809422,1
0.221869812302621,0.00901865380211578,1
0.2177296139904,0.0070377316921615,1
0.168430931030432,0.00654384060128781,1
0.0953092158754456,0.0167492762819478,1
0.0813721545227326,0.00976624700520412,1
0.18597802094093,0.0242611107666469,1
0.252756001085866,0.0265594021629979,1
0.257958325752644,0.0282647153008847,1
0.192131661222976,0.0248018043531331,1
0.139377954194938,0.014831575232733,1
0.185105620562086,0.0190273259672635,1
0.175881852658605,0.015280724166075,1
0.17589017963993,0.0149825785203283,1
0.191352560940238,0.0155495696936766,1
0.195894023949186,0.0146656348964822,1
0.161967284230147,0.0133032624552407,1
0.151419378527195,0.0134076665872716,1
0.149707000537716,0.0137589475108719,1
0.163227178629058,0.0130680514722554,1
0.176266415924165,0.0204418642834504,1
0.110705481935203,0.0138479320967129,1
0.0836001499026532,0.012475161494625,1
0.0729588526045982,0.0107449007467445,1
0.0735625077058374,0.0130802811856903,1
0.0750024389273097,0.0240130806600923,1
0.0532560095157084,0.0203301877462598,1
0.0525915808457056,0.0198129681017528,1
0.0238930619054952,0.0120281509114353,1
0.0173806461103262,0.0247792998057129,1
0.0201599121671781,0.029605772660398,1
0.0200491346849071,0.0299793756231063,1
0.0230338173570573,0.0255316422485364,1
0.0249008078512135,0.0216499852467543,1
0.0282813923092632,0.0213656524880235,1
0.0232263722322888,0.0195751340543006,1
0.016808665704547,0.0103025637904733,1
0.0213937275156179,0.0152166603163683,1
0.0240131071873572,0.00962844544440299,1
0.0270008571751003,0.00638951706507315,1
0.0374365608263455,0.00982140464268579,1
0.0378566259775738,0.0103945092587769,1
0.0347341647701345,0.0101794360039281,1
0.032582330600375,0.0108441502934084,1
0.0276951769427821,0.0084219840921341,1
0.0286006588344721,0.00708817220080549,1
0.0332051378333464,0.00821216418805384,1
0.0401797049112027,0.0103073622995895,1
0.0354350237038185,0.0159249943209195,1
0.0287667402614229,0.0195895061289897,1
0.0364334245257162,0.02607923416007,1
0.0418131625472043,0.0333562081119508,1
0.0430413825179916,0.0337215128500866,1
0.0402852087783042,0.0310533021919218,1
0.0285340415643107,0.0301747730718989,1
0.00978414359952508,0.0125987331601679,1
0.00749645094341764,0.0181699760656136,1
0.00942012547689714,0.029759285428803,1
0.00456500385561174,0.0189919933094852,1
0.00402347606121444,0.0344379354410794,1
0.00476309094019924,0.0407369279488287,1
0.00466005264819099,0.0197235082023468,1
0.00740736219019842,0.0259227221610962,1
0.00720711905717354,0.0207880275038909,1
0.0072022523463161,0.0233180337265939,1
0.0071973283395445,0.0245834830577456,1
0.00684218397385529,0.0269058361436669,1
0.00730938746852275,0.0247691069159359,1
0.00910846785829135,0.0269575788785173,1
0.00757980119710611,0.0172370955504533,1
0.00569119542579228,0.0110670477766754,1
0.00502609635514633,0.0162345940274917,1
0.0044791856074467,0.0117050052682113,1
0.00531198356304559,0.0173811294378504,1
0.00565117983837147,0.0090027807976068,1
0.0107972224283912,0.0171706498534407,1
0.0101039100111808,0.00841218298553613,1
0.0106297619536358,0.00940381758683044,1
0.0121587152300301,0.00716241034336378,1
0.0190532464657795,0.0149067335118926,1
0.0194720654243801,0.0149326117933691,1
0.0194370883063989,0.0142721389213079,1
0.0187529560825548,0.0159146181783027,1
0.0146926758709466,0.00870402944597693,1
0.0171403319571058,0.0153684249375502,1
0.0170379065213234,0.0145218834357278,1
0.0167649675996536,0.0179738530695435,1
0.0166794977936378,0.0202354883431816,1
0.0202447659486693,0.0338966917326987,1
0.017855087001793,0.0181639389680749,1
0.0184506380308082,0.0128630226943379,1
0.0214428650189666,0.0151175872351244,1
0.0216096624071269,0.0136765295124828,1
0.0237805702639541,0.0162130423974016,1
0.0242327733057028,0.0158519330903378,1
0.0218040385087052,0.0122408803849922,1
0.0215737106076616,0.0147143238141691,1
0.0226425867165466,0.012141940535628,1
0.0263411316948429,0.0133994402481411,1
0.0337606622126418,0.0304949559789444,1
0.0340817068842556,0.0172306377830133,1
0.0384765977916414,0.0193845718627976,1
0.0392457314344539,0.0161789055911465,1
0.0352790830663754,0.0158905617641897,1
0.0267643481113323,0.0116986426680995,1
0.0251753105634118,0.013314998793819,1
0.027473855834438,0.0120381950180315,1
0.032862087873605,0.0179816831840396,1
0.0287114190747888,0.00959383431650093,1
0.0196477308027491,0.0039469500530027,1
0.0170887034045153,0.00895866446176189,1
0.015040255301207,0.00737006144712849,1
0.0144701502371684,0.00916408084615411,1
0.0135919688326237,0.00927288018838114,1
0.021963230680478,0.00140058796268937,1
0.112575757543276,0.0173303350588404,1
0.196782090646226,0.0306306879521477,1
0.225816901550173,0.0350408677993955,1
0.355744736917114,0.0291498958006392,1
0.517674501636647,0.0341523048549476,1
0.470355790357324,0.0275289836216617,1
0.419002210970155,0.026664554502414,1
0.384566820391396,0.0250625733708555,1
0.269124992848607,0.00654981090897586,1
0.230125728507588,0.0063290999460697,1
0.223632934929115,0.00635009664373338,1
0.244661600801295,0.00619497876804513,1
0.263719733049033,0.00553427717786393,1
0.249283807657451,0.00697918798613621,1
0.187676561298599,0.00467536744309401,1
0.23738103164911,0.00831588388037341,1
0.245806171946849,0.00534383640602899,1
0.225669618788914,0.00427948604111694,1
0.253939650749293,0.0117204529471911,1
0.206993051563411,0.00475505239107819,1
0.251157814778063,0.00627035222719021,1
0.236132945718594,0.00591712824198954,1
0.216667295642115,0.0055665382984369,1
0.29285405639165,0.00887662175121335,1
0.340485139987569,0.0111577676998642,1
0.324969576916915,0.0105117744135662,1
0.34191868653883,0.0148491640287901,1
0.365868434584339,0.0196781454222138,1
0.272590212602416,0.0218800591050825,1
0.118372856470912,0.0131162683009369,1
0.119020834519659,0.0175860585099333,1
0.091127060349426,0.0246186422724148,1
0.0327640062805964,0.0177008993178673,1
0.0286328781448167,0.0160156599816482,1
0.0239207330934231,0.0125856249744479,1
0.0241499916122287,0.0109991316046414,1
0.0232012381314741,0.00982187723557599,1
0.0222409506876602,0.00867041211664801,1
0.0217797818975783,0.00913219584471701,1
0.0232772652576331,0.00916515172276389,1
0.0307560553845348,0.0150340905007981,1
0.0271066574488107,0.0118788906286343,1
0.0264829275190061,0.0106168948019063,1
0.0263518924917384,0.0118244675138927,1
0.0249535511735042,0.0121660200447941,1
0.0242243611303236,0.0061645137371606,1
0.0455085220343841,0.0146232773766822,1
0.0577232329794092,0.0173803378181769,1
0.0584020219599065,0.0186102435738855,1
0.0549574016743915,0.0208681355659494,1
0.0437681233586395,0.018418765057187,1
0.0434081023288754,0.0139882413805001,1
0.0485568883706471,0.0169530886319424,1
0.0451172506365447,0.0157797859168602,1
0.0410768295032429,0.0112242194284955,1
0.0413145548233851,0.0112913990312496,1
0.0570609627778281,0.0032433988985806,1
0.125227968674632,0.0110345486063455,1
0.124135948011622,0.0109047336128499,1
0.116384791765116,0.0106806348405851,1
0.0911095246090889,0.00707221740235403,1
0.098612390305495,0.00751293549123433,1
0.143751985803537,0.0124250214667568,1
0.182952444473877,0.0162336866250499,1
0.204327513881645,0.0199093027163164,1
0.209404154804158,0.0204294205025955,1
0.1853570336978,0.041328553869565,1
0.0852108652681248,0.0391170106384162,1
0.170747279396505,0.00394104160982577,1
0.502163322208747,0.0229660906228063,1
0.600516067658341,0.0271129355626985,1
0.728180371896675,0.0336285411580502,1
0.668534324589979,0.0285047689960185,1
0.568899223818902,0.0251140677578687,1
0.455228960409042,0.0201137804300591,1
0.355921946473693,0.0158710990880644,1
0.285969780555201,0.0118268110415448,1
0.246600239317763,0.00839624763145463,1
0.219178188416818,0.0125668756844136,1
0.160651217366759,0.00947263257514746,1
0.160327888469148,0.0101751819745019,1
0.153223524717548,0.010331724022783,1
0.19570720812265,0.014971871263195,1
0.199130391199007,0.0131219129752845,1
0.185981619145296,0.0129225524818584,1
0.18889674823181,0.0144553346147089,1
0.188744213497532,0.0169190795301291,1
0.152399645678549,0.0114971162386258,1
0.190534020742921,0.0161023599354803,1
0.190169735679177,0.0135404295526396,1
0.235441244315467,0.0117008156097495,1
0.309509722531385,0.0153088091380335,1
0.331787624856518,0.016879511893035,1
0.32407330428111,0.0189879378742697,1
0.296460601549537,0.0167925278202028,1
0.216843114361847,0.010927281525674,1
0.110657348434645,0.00287108694122968,1
0.0978028448342144,0.00640104359586129,1
0.103570329271266,0.00725763753366344,1
0.0681162520508121,0.00271678949238086,1
0.0726559814040428,0.0150276043803463,1
0.0768758282054028,0.0177577879394578,1
0.0827433589520691,0.0181251745258159,1
0.0880979100610389,0.0192882286856289,1
0.091207307882595,0.0200529050767824,1
0.0996066196019159,0.020531456236823,1
0.110077177104743,0.0205507360465403,1
0.085592312450826,0.0331978323968079,1
0.0244529470094195,0.0149238510258085,1
0.0173634223554975,0.0322999425497368,1
0.0173044417090277,0.0314767811738422,1
0.0170715129029,0.0308832277007678,1
0.0132498999051891,0.0310291940683044,1
0.0096544702476785,0.0264303452602857,1
0.0034827101019432,0.0217704553356115,1
0.00335122839055191,0.0670069379351395,1
0.00329205096548242,0.0762174148777925,1
0.00345944750706447,0.0800694052072663,1
0.0035955645204143,0.0971257917737822,1
0.00358152614510606,0.0475635370913614,1
0.00310693256134938,0.0312117639004884,1
0.00202039815610874,0.0227228734496888,1
0.0018332508290503,0.0213436528603281,1
0.00185017897032988,0.0202324558030245,1
0.00154600255860653,0.0161863669634173,1
0.00150541761430529,0.0171189013198034,1
0.00159040483499921,0.0168840765483863,1
0.00168921574160573,0.0179507754021933,1
0.00173989570461252,0.018097185593865,1
0.00118050055128151,0.0220112544818028,1
0.000850696155241536,0.030848305141571,1
0.000925086571646978,0.0329911604078282,1
0.000935566452277653,0.0384820402931505,1
0.000994413845204108,0.0326156339906087,1
0.00249575045370854,0.0466847799731674,1
0.00275518579383609,0.0297834669555003,1
0.00257838514922894,0.0294375643434903,1
0.00224348877655715,0.0260614475616486,1
0.00184550292960856,0.0220479770465476,1
0.00413554357051378,0.0168713743174462,1
0.00656080313863406,0.0111508023252953,1
0.00667590585338751,0.0110427915689761,1
0.00699201742104929,0.0108956955265478,1
0.00687948549153734,0.00837686761221316,1
0.00759722112967905,0.00431264976285895,1
0.0138279986204164,0.0123308928972096,1
0.0149914266749731,0.013163427258532,1
0.0153632650578735,0.0136628726800553,1
0.0132849453952077,0.0108067784669521,1
0.0127333066356929,0.0136942961663161,1
0.0119789436028511,0.01945120034933,1
0.00939452215537048,0.0134258266646214,1
0.0121893689459442,0.0156543695573584,1
0.0108191532454344,0.00950597111656728,1
0.0106121441217612,0.018227396808072,1
0.0116014558478502,0.0223431886455019,1
0.0116633708422051,0.0120846806299262,1
0.0191852679452748,0.0152692692960984,1
0.0230459080102797,0.0159926135196956,1
0.0227677194799442,0.0164515600289634,1
0.027940036285801,0.0131550397824706,1
0.0348658420674972,0.0155054629795377,1
0.0346669245723222,0.0164263214410549,1
0.0346151473342802,0.0197495996553049,1
0.029041170694053,0.0153478945810881,1
0.0205051309926721,0.00949423531035775,1
0.0194041800070918,0.0106897240740946,1
0.0197526029960359,0.00510821166741656,1
0.0282221442055712,0.0108983537286157,1
0.0285291333399295,0.00820546458134786,1
0.0284148220642385,0.0125984399304496,1
0.0264201993090021,0.0122978784496148,1
0.0269595578671961,0.0119847224869099,1
0.028507184958499,0.0118045332424153,1
0.0326149562132411,0.0161082318453817,1
0.0334686729857775,0.0170262159192322,1
0.034728366550431,0.0115501835951414,1
0.0449736488293448,0.0297537217246465,1
0.075051660235539,0.0281559501743929,1
0.168050742405747,0.0583656407241979,1
0.234453081768589,0.0563679207826125,1
0.294245756301213,0.0419905317447448,1
0.405268037352109,0.0446324850349956,1
0.383991454515345,0.0474605477005026,1
0.299753750662254,0.0339722422706363,1
0.255360209054597,0.00936919846088731,1
0.614208242172669,0.0211889320507359,1
0.697146482596262,0.00900379719941739,1
0.685762334399747,0.00783409640948354,1
0.749402449087671,0.00861865478857571,1
0.747712295295394,0.0086006360498906,1
0.743254958669703,0.00893237225861847,1
0.787050325322889,0.00571518355721523,1
0.936995565088692,0.00759943036936885,1
0.902147332454917,0.00448831758305304,1
1,0.00897813294877556,1
0.837798068882165,0.00811964998799143,1
0.718344765211155,0.010622704583942,1
0.735865084115007,0.0123811769946638,1
0.732327237683287,0.0131437278594374,1
0.683673059997033,0.0128573397288084,1
0.693536506596936,0.0112365788344347,1
0.601390366240084,0.027083981231183,1
0.119849626536722,0.001412176601083,1
0.0419772802817487,0.00647694511795608,1
0.0495723732899142,0.00855587714484792,1
0.0517847030807873,0.00874253662058749,1
0.0663255650504895,0.0112664697054849,1
0.0699690223302362,0.0110616345378951,1
0.0740252841726727,0.0113477306318524,1
0.0756524560522846,0.0118500871302973,1
0.0807016791114002,0.0121220765932237,1
0.0805503821663879,0.0140969747352093,1
0.0369079421973236,0.008242222748155,1
0.0257329272680069,0.00887655218315614,1
0.0282856268637918,0.00672872488645472,1
0.0274698379766312,0.00650087769181062,1
0.0262999793725374,0.00725804734113947,1
0.0234180186673973,0.00789901690290336,1
0.0384082344200996,0.0145110670208431,1
0.0414189359825754,0.0109880845164828,1
0.0392931289236485,0.0126482531957142,1
0.0431318831308535,0.0147387140823043,1
0.0517900727790054,0.0183619745498115,1
0.0532412836083301,0.0107671136508405,1
0.0590425393462604,0.014688904783657,1
0.0617054649686816,0.0157057876990969,1
0.067691130473334,0.0162503447472187,1
0.0725859379452828,0.0127983095253501,1
0.0697704886618346,0.0146710349595156,1
0.0647637114573438,0.0158607799180353,1
0.0607196841421291,0.017099979020666,1
0.0505834753920108,0.0147097394365316,1
0.0328342717031972,0.00303905580476315,1
0.0450650373300936,0.0135814851388029,1
0.0436985622327579,0.00889206703043768,1
0.0453076198210683,0.00583711423158438,1
0.0435167092743918,0.00215762015274501,1
0.0684811841937652,0.00807819245877175,1
0.0686245515042421,0.00805855090818702,1
0.0714090815396689,0.00880512539329294,1
0.0739633442596784,0.00873168618271215,1
0.103310370965217,0.011415615224234,1
0.147499645664513,0.0219654231322774,1
0.106484632595892,0.0136736895597798,1
0.0999870286180133,0.0145654085809814,1
0.0800479882326807,0.0153207045856485,1
0.0462507596118693,0.0128664477885144,1
0.0464753296569134,0.015737244110179,1
0.04946302478008,0.0141445600803406,1
0.0484498333950949,0.0089362155458093,1
0.0708277151627155,0.00847117866655314,1
0.116288466888467,0.0195354727406473,1
0.0940160771214365,0.0112343684218114,1
0.0939018178255212,0.0129080204333636,1
0.0986720854168123,0.0101079837185325,1
0.118541003344547,0.0137598357235154,1
0.128692225828714,0.0140791244651965,1
0.135389064808709,0.0140434084843271,1
0.140677452235568,0.0133776019228189,1
0.135453999172767,0.0156840560675989,1
0.124554791257219,0.0194545403980079,1
0.088690293078309,0.0118937297930319,1
0.0946720845326372,0.0103845491854979,1
0.151036015464343,0.0176938606457704,1
0.177245603302695,0.024197538606697,1
0.179661379527061,0.0241232522654467,1
0.182037746027615,0.0245998743675574,1
0.171174387123905,0.0265245073081323,1
0.121538463637398,0.025455132404795,1
0.128129509936086,0.0267405778886139,1
0.120846262971719,0.0221539357441778,1
0.0716923140252139,0.0190848821742118,1
0.0260185134488475,0.0245074009876122,1
0.0295258364786328,0.0273038714647585,1
0.0188124701171213,0.0282539292001358,1
0.00940421596877504,0.0351422051715818,1
0.007494194995561,0.0245065698356074,1
0.00810127302533867,0.0166594240789064,1
0.00952024981016975,0.013117892431739,1
0.0103893488612163,0.0136986622799034,1
0.0107146283398688,0.0177501390262922,1
0.0081760295712968,0.0137106166423898,1
0.00828936142424171,0.0163005527579849,1
0.00800999573360916,0.0160550163496711,1
0.0078358117609159,0.0159710586239183,1
0.00787210736030907,0.0160948241623105,1
0.00867063580252346,0.0162157964336782,1
0.00568124996219913,0.0128795701216878,1
0.00315033244083894,0.0142913407890849,1
0.00299175514684307,0.0162934231768307,1
0.00293841030817977,0.0174223277922311,1
0.00315809815429301,0.0195242429896831,1
0.00301592446322569,0.0185984921440608,1
0.00298842046959569,0.0193642528475886,1
0.00298894744970264,0.0189019985582746,1
0.00304303929384184,0.0192218222866473,1
0.00130025594197977,0.0145919563369893,1
0.00153204903982614,0.0315347382516763,1
0.00217166949607589,0.0294090487594575,1
0.00223806521472081,0.0313121395800896,1
0.00226671936133944,0.0307300476380194,1
0.00204143100428981,0.0188962676042722,1
0.00439178227321161,0.0312253423562539,1
0.00660834784857383,0.0423118836880022,1
0.00691093043788063,0.0320677358603684,1
0.00649255844723555,0.0271700131492587,1
0.00977776209627729,0.0165432456959959,1
0.0192121760079436,0.0262964484616017,1
0.0191234338138325,0.0168293388003965,1
0.0176106073198299,0.0133076760809199,1
0.0159259810882768,0.0125522094966765,1
0.0127581675406046,0.00987015050478545,1
0.0124316442428939,0.0100598261655249,1
0.0128560149585219,0.0093685276727778,1
0.0142577185207612,0.011671634143173,1
0.0116492756929663,0.00936922489781293,1
0.0126271169780473,0.0186943608376615,1
0.0102085913244963,0.0165638174897656,1
0.0105479896911544,0.0254160279977627,1
0.00989282894309085,0.0389118532889303,1
0.00802865117517599,0.0314145294284185,1
0.00696154065757452,0.0139233964620096,1
0.00731895557711096,0.0104876769411198,1
0.00730812197485702,0.0107706620240884,1
0.0082419349680295,0.00983740483386468,1
0.0107236920887523,0.0095227079131325,1
0.0133325011812707,0.014270820279559,1
0.0114832396839311,0.010363661396969,1
0.0110829762280755,0.0113926532802039,1
0.0112228487963975,0.0107879300113916,1
0.0105059409739516,0.0100992719135078,1
0.00953303044770312,0.0145606898049233,1
0.00871223422773161,0.0184650033591047,1
0.00798900411111288,0.0173550877452946,1
0.0062432883334087,0.00954489844131451,1
0.00611853417367617,0.0167179171594784,1
0.00666944288223107,0.00951806128966821,1
0.00819400757065103,0.00899360348815591,1
0.00851660393975021,0.00776359321967754,1
0.00918559305114284,0.00551856370192114,1
0.0126018579764953,0.00843723866888996,1
0.0174269485557385,0.0127502713809749,1
0.0202581938658309,0.014607066656761,1
0.0203303531223228,0.0166290138915772,1
0.021247626025677,0.0198933639920312,1
0.0237493308370316,0.0220975921395888,1
0.0192031355378188,0.0282039515504322,1
0.0145245477652801,0.0294575595277702,1
0.00934649465027352,0.0330828488847812,1
0.00121188807108118,0.023642410245319,1
0.000944527220729729,0.041908587130783,1
0.0011160093295921,0.0466668060883676,1
0.00101419819110028,0.0614891499411945,1
0.000393352721613551,0.0353803831911893,1
0.000300039511069478,0.068835336229139,1
0.000332306350972361,0.0968969413751631,1
0.000178663725343194,0.0796546665070206,1
0.000177262346311032,0.082340141474571,1
0.000189554504034748,0.0982937621579017,1
0.000149001059333183,0.0895910132936788,1
0.000178741034145846,0.114132237047392,1
0.00021241755439653,0.135232141045896,1
0.000221858655680408,0.174328414548129,1
0.000221947467689892,0.184068355309618,1
0.000223739433703964,0.189698786890226,1
0.000225233644874138,0.240296044089594,1
0.000111916323121767,0.28256079412299,1
2.1348555026583e-05,0.318439421679313,1
1.50469771778301e-05,0.290094573614912,1
9.62049127165949e-06,0.281895118552961,1
1.0025144028542e-05,0.236281024785361,1
2.54778336246834e-05,0.277904611847695,1
2.50830067281626e-05,0.201489161862546,1
2.33638621006982e-05,0.191328592948484,1
2.48694196021328e-05,0.204230875511206,1
2.55830183949846e-05,0.209697107584817,0
2.69007769372202e-05,0.209839545513903,0
2.68031898465338e-05,0.218268022681245,0
2.11687308093563e-05,0.196703319747076,0
1.54066974050633e-05,0.150411298009918,0
1.29966859830327e-05,0.163488800650171,0
7.7902047427759e-06,0.204203448881966,0
7.60648040783436e-06,0.353565910890768,0
1.08725952834406e-05,0.417471845392362,0
1.44606469482441e-05,0.658684380176076,0
1.56043488714325e-05,0.663534912944794,0
1.35023577926086e-05,0.689398200609609,0
1.26408304780043e-05,0.63254333533333,0
1.00210979878284e-05,0.57775807892282,0
5.30392501251964e-06,0.452828482403111,0
4.15479034603319e-06,0.410101018192575,0
4.04938492145836e-06,0.385108470896499,0
3.63793716163041e-06,0.355106959155385,0
4.25208124976315e-06,0.429085986504528,0
4.91977253362488e-06,0.420387572117064,0
5.40936917180354e-06,0.349977865928363,0
7.53594850966901e-06,0.412660759059199,0
7.879200474992e-06,0.425538408129099,0
6.68927188216769e-06,0.419951751096803,0
7.0829613139217e-06,0.392307335750015,0
7.44121810377609e-06,0.359337016153496,0
7.26937777792711e-06,0.354075456827385,0
7.94503565611547e-06,0.319358044441416,0
7.53664459910447e-06,0.271606979637186,0
5.97383906762576e-06,0.259290902907629,0
6.23097135288061e-06,0.301238946418821,0
5.73021751567618e-06,0.261311017341837,0
6.30975080558127e-06,0.257668941758659,0
6.91589390563709e-06,0.254318011510005,0
6.86761369536498e-06,0.252837844100924,0
8.35279326706533e-06,0.284276284301033,0
1.12103165333652e-05,0.238755572317325,0
1.14947522471989e-05,0.225311078165785,0
1.06726397697219e-05,0.235750844119707,0
1.00477100686345e-05,0.222097752750944,0
8.97358857223212e-06,0.224392465501057,0
8.93871497903866e-06,0.245798918423845,0
8.35829326183242e-06,0.23635208399338,0
8.78884190810724e-06,0.254941417819001,0
8.71309257819902e-06,0.260845347531269,0
7.16953572611746e-06,0.250604960263196,0
6.671179767756e-06,0.447935397928012,0
7.44821733213586e-06,0.668284196440533,0
7.99838637337193e-06,0.672565721812193,0
8.37991257220821e-06,0.686794222123686,0
8.48091806775336e-06,0.699225960735913,0
9.22382808279312e-06,0.729048847878625,0
8.15987912239854e-06,0.758864893277321,0
3.0506844449129e-06,0.459841675682343,0
1.4000660590921e-06,0.37875601306376,0
1.38231514404007e-06,0.374381883517652,0
1.35772688499855e-06,0.373571594681012,0
1.39819877897933e-06,0.360933308809426,0
1.50473893017778e-06,0.375031637187587,0
1.50725321349987e-06,0.373788556075884,0
1.66998119904171e-06,0.383039847104717,0
1.33623760303403e-06,0.37199600250457,0
5.43781086655704e-07,0.278965953335935,0
7.67181250522787e-07,0.311199650046187,0
1.17488249579256e-06,0.371875121008791,0
1.65565957463741e-06,0.43341399918133,0
1.90350928721718e-06,0.476822691230038,0
1.57900592284053e-06,0.495833428424103,0
1.56152568326407e-06,0.501849668142039,0
1.63253996212522e-06,0.481873270221696,0
9.60881509431625e-07,0.383751134560006,0
4.67713597861318e-07,0.288459744254629,0
3.11271320624711e-07,0.259666978047947,0
7.02348096252394e-07,0.305731530886467,0
1.42429528745099e-06,0.408182067204174,0
1.40413721058262e-06,0.397697668823489,0
1.46155994752134e-06,0.392177332469487,0
1.49978816687162e-06,0.379447544690386,0
1.61310295190126e-06,0.396639262538881,0
1.55602401889746e-06,0.398944785583734,0
1.60681617505232e-06,0.385721494149148,0
1.88141126926455e-06,0.406889700595422,0
1.80884646671318e-06,0.392918838770776,0
1.47023458561606e-06,0.391630835965904,0
2.09203245190777e-06,0.292756295202186,0
6.95148335632443e-06,0.479026970242566,0
7.43921318187818e-06,0.488349704129113,0
7.36672190849005e-06,0.492818226847987,0
6.65027638165806e-06,0.467709202687244,0
7.21011100170105e-06,0.432751356957426,0
9.14941095974075e-06,0.51143154836224,0
9.92054188169236e-06,0.478824398137676,0
8.69029359558029e-06,0.412943820607298,0
8.10505054242336e-06,0.371765148780495,0
8.63126644027858e-06,0.575251642498856,0
7.74245947219275e-06,0.598525524820322,0
7.92641674966052e-06,0.601577245652978,0
8.014125487776e-06,0.597645464760866,0
8.48826290321555e-06,0.614434030063113,0
9.22755569748464e-06,0.825699567622543,0
7.13662331131426e-06,0.596969381439882,0
3.22937306732426e-06,0.437676485599223,0
2.51275924485978e-06,0.427653349296972,0
2.39820494914013e-06,0.460688582919605,0
2.88630375618969e-06,0.47372104565047,0
4.58142351427755e-06,0.53061393720926,0
1.01718446600172e-05,0.604130616066542,0
1.04262827459047e-05,0.529949959176449,0
9.29280952405225e-06,0.500119870133375,0
7.58247076520547e-06,0.452502150238699,0
7.55051429630837e-06,0.500545417002724,0
8.68244113507744e-06,0.563452076370986,0
1.01270895086217e-05,0.607750919148665,0
1.03418002751343e-05,0.510416092641153,0
1.05416913423111e-05,0.457913021550496,0
1.00800521482387e-05,0.49336993602332,0
3.54474111770426e-06,0.354656141170198,0
2.37110968623046e-06,0.338980121516046,0
2.49107475331839e-06,0.349880998443871,0
2.55164014405778e-06,0.351556938517092,0
2.4126747004146e-06,0.342698085227812,0
2.56232130686596e-06,0.351606276494254,0
3.19356910648949e-06,0.394835273042315,0
3.27983844945939e-06,0.429844076979885,0
3.03443189526179e-06,0.499668093427811,0
2.19395315513051e-06,0.424397726934576,0
2.03936767292164e-06,0.363691188750822,0
2.65437394225095e-06,0.401271953145795,0
2.67395867864121e-06,0.399139429524384,0
4.26944508486049e-06,0.369324767460576,0
5.08950856301201e-06,0.323225301740929,0
5.17421369157556e-06,0.309129404939589,0
5.69462920031652e-06,0.297413208782692,0
7.43853472341374e-06,0.361847686943099,0
7.76550508805383e-06,0.33543473732518,0
8.2750273280625e-06,0.312325486861389,0
8.89535113832241e-06,0.327478997264855,0
8.73574563781894e-06,0.316146273311369,0
8.70045431082343e-06,0.298754293320668,0
7.33602498547731e-06,0.340910090844918,0
5.06307920317832e-06,0.32318956087582,0
3.99519960478955e-06,0.308069078912594,0
4.34476779869716e-06,0.365404830867765,0
4.57543866780736e-06,0.374975767902575,0
3.78754897362759e-06,0.416429046434498,0
1.57932788841362e-06,0.338329098966997,0
1.6155047709991e-06,0.355047518632587,0
1.57929389536722e-06,0.371842760529455,0
7.0516324140954e-07,0.301081820632707,0
7.47125419929541e-07,0.331287975726655,0
8.6957945921071e-07,0.35300684071668,0
9.86801441057146e-07,0.380234421838701,0
8.56099847240671e-07,0.361225192966606,0
4.55427215282372e-07,0.283135925188206,0
8.10009817630165e-07,0.353793995758102,0
8.48865004995424e-07,0.372640388447183,0
1.18880855867655e-06,0.455640985789848,0
1.34870537090577e-06,0.414613879509145,0
1.44261680483792e-06,0.398632539003644,0
1.42402948720604e-06,0.410506573081723,0
1.32750980489032e-06,0.3976318222042,0
1.18170514730619e-06,0.376881556285433,0
9.49867762397351e-07,0.32365887790838,0
9.58989919949714e-07,0.33325475244589,0
1.36094927887271e-06,0.384637973090964,0
1.96229101138819e-06,0.46167042304176,0
1.76077161718309e-06,0.406832911798891,0
1.8263442036927e-06,0.469116697258676,0
2.07786569955574e-06,0.500909676195983,0
2.04753461919171e-06,0.485984625488648,0
1.95068395546544e-06,0.449481780137129,0
2.09680029388957e-06,0.444304568702781,0
2.11941902654318e-06,0.434049760806258,0
2.25992905010225e-06,0.419504463379231,0
3.7948246876693e-06,0.425863652923888,0
3.87529243941327e-06,0.349687104044735,0
3.72737446952983e-06,0.340085848656965,0
3.77927877932268e-06,0.318493454367817,0
3.88524679215467e-06,0.305674980206297,0
4.11245097158769e-06,0.314628133141315,0
4.20024225470387e-06,0.294931267106476,0
4.68526759615723e-06,0.296563608631577,0
4.41971812505498e-06,0.301139812258751,0
4.38568767962345e-06,0.305144211157443,0
3.04697372656861e-06,0.298663305744277,0
2.64637636015707e-06,0.333150522769981,0
4.18055667450208e-06,0.361859211100565,0
5.14087459391684e-06,0.339893159235308,0
4.34532430961203e-06,0.319529168246591,0
4.0184100435161e-06,0.294312173961245,0
4.9289118546604e-06,0.364412427249177,0
4.54741397223212e-06,0.336228362647804,0
4.6901014207124e-06,0.323930189335213,0
4.77162783212546e-06,0.33819187222074,0
4.79113489874565e-06,0.310736360741942,0
6.00176812854001e-06,0.34176724367738,0
6.70837076509514e-06,0.412046330436175,0
6.02153224670362e-06,0.411197150892751,0
6.07889935258605e-06,0.416803846106405,0
1.30913157454661e-05,0.289675065085192,0
3.56102153631069e-05,0.31641918837751,0
3.50334075274723e-05,0.252425583138533,0
3.57190986970678e-05,0.258592770770451,0
3.33407728013228e-05,0.240737045116074,0
3.33437928397341e-05,0.238126052093504,0
3.3388170795204e-05,0.230435855225539,0
3.36098187477578e-05,0.228849578347904,0
3.42929719257179e-05,0.210738376207965,0
3.32966066846411e-05,0.176966461465111,0
3.37703471360967e-05,0.252230181924269,0
1.18283381662271e-05,0.19596152439004,0
1.11719654982736e-05,0.22548033685974,0
2.73524947698379e-05,0.287089396459185,0
3.24569909938981e-05,0.196112901477922,0
3.30905936634808e-05,0.204399154959039,0
3.41954047366579e-05,0.216674850116121,0
3.38501342255049e-05,0.217773090804988,0
3.18544229739209e-05,0.242356323832004,0
3.00532258776239e-05,0.289996610931461,0
2.64508340892533e-05,0.275100571795969,0
2.41508092057681e-05,0.25894948427918,0
2.39688805585115e-05,0.286281105110574,0
9.81814467476415e-06,0.249778909267469,0
3.58799897224242e-06,0.637417537041381,0
2.8572107172681e-06,0.553330835800323,0
5.20775307439373e-06,0.786668489202311,0
6.15264008747739e-06,0.914552114331446,0
6.94725973700496e-06,0.972684161389186,0
7.84099396043559e-06,1,0
6.95817190560392e-06,0.890595435625383,0
5.65631656601407e-06,0.798664912690542,0
4.54022314063044e-06,0.703765635940857,0
2.43420899478241e-06,0.514218665505715,0
1.63254637338741e-06,0.424986754924843,0
1.70842239250786e-06,0.463788192088818,0
2.06635167371872e-06,0.514989386738874,0
2.37143525813854e-06,0.544865158120473,0
2.126439358641e-06,0.53899506465416,0
1.31649953062307e-06,0.435328142510192,0
1.25174518145043e-06,0.45807935551115,0
9.45140792212008e-07,0.444087444319648,0
6.53760345747119e-07,0.393876300369185,0
6.98086543631641e-07,0.416450172754242,0
7.25196766153085e-07,0.42874006727191,0
5.4213926926327e-07,0.360020647070254,0
3.5879880864535e-07,0.304398219902275,0
1.22854476032105e-07,0.229694584951977,0
1.10775925202477e-07,0.215599132914401,0
4.5747748350348e-07,0.299213611113302,0
4.47197558854011e-07,0.289205944594175,0
4.39676547249565e-07,0.286280718241613,0
4.39417225050783e-07,0.283196104884765,0
5.51517343031377e-07,0.275971279872156,0
8.85608683228867e-07,0.288911104444913,0
9.58877722861393e-07,0.302765531720838,0
8.57433122640221e-07,0.285585329071053,0
8.81681785137624e-07,0.289058430189691,0
8.845407405864e-07,0.294023891819709,0
5.68293946582511e-07,0.259527449664941,0
6.43241134093215e-07,0.265293864023474,0
1.14605605852369e-06,0.28929722430621,0
4.8037757706965e-06,0.474018134223533,0
4.98984388945627e-06,0.446440664377568,0
4.93733992629674e-06,0.483747007545792,0
4.38475704484622e-06,0.434130049884248,0
4.79905915202824e-06,0.443446881955354,0
4.6458406711294e-06,0.43379378354924,0
4.09276145113101e-06,0.409035242128871,0
3.67884602319981e-06,0.333685585745059,0
2.05446596163465e-05,0.370101983495902,0
3.00387460419683e-05,0.26585480901605,0
3.05829149432025e-05,0.27737997176344,0
3.17425183326531e-05,0.286895701563609,0
3.05914766495851e-05,0.286386705369387,0
2.94188766299161e-05,0.275698880869158,0
2.96960877862377e-05,0.262330129785454,0
3.20012943052518e-05,0.268611993694793,0
3.47666589499886e-05,0.279937490574242,0
3.54558172767492e-05,0.29767644964548,0
2.03260906056753e-05,0.379292554099051,0
6.96101055872243e-06,0.463007119723887,0
7.01820696474905e-06,0.470606531176601,0
7.37698814242338e-06,0.456311815407574,0
7.52867272884333e-06,0.447628162280201,0
5.55639270382752e-06,0.457144603856978,0
2.96517563792026e-06,0.358826152883982,0
4.95765594728052e-06,0.42522535582744,0
4.6491964326139e-06,0.37151713859184,0
4.72810517910206e-06,0.365732203269786,0
4.43615853804504e-06,0.372439997160187,0
3.56772742939009e-06,0.333916590358576,0
3.50611753718561e-06,0.346906419505414,0
3.13994691234968e-06,0.3502185877906,0
3.16336939021636e-06,0.370278625817276,0
3.09000952436948e-06,0.364034820339009,0
2.96023121909231e-06,0.423738926696018,0
1.08283573739792e-06,0.330834485366359,0
1.06962827015104e-06,0.373890065093204,0
7.75154990735406e-07,0.347238533588267,0
8.45728495321016e-07,0.341224235313656,0
2.91673080513463e-06,0.562772340836422,0
3.71164817765014e-06,0.565985113236388,0
3.72365360002042e-06,0.552664688461002,0
3.68257577497872e-06,0.559978750821205,0
3.55605859828477e-06,0.559396261217814,0
3.37018168206302e-06,0.573467777782452,0
2.55892460680101e-06,0.515730337749557,0
2.598634361989e-06,0.546732646177865,0
3.07012125478492e-06,0.593525938229893,0
3.13234555961592e-06,0.569648858184513,0
1.550851198854e-06,0.408104882447268,0
8.32153716177848e-07,0.342614181042381,0
1.02707111314303e-06,0.380437994554337,0
1.0373761485694e-06,0.377406299228938,0
9.70959212186191e-07,0.365803124058567,0
1.02687182974329e-06,0.363627826181852,0
1.08913847561834e-06,0.353137374271121,0
1.1082280755724e-06,0.353661060152199,0
1.02588609818161e-06,0.345417473384992,0
8.17146620991095e-07,0.36393745569631,0
3.93652834132335e-07,0.296740939702069,0
4.88933740381822e-07,0.3153504177375,0
3.36155833406582e-07,0.274460248300772,0
5.90113608901742e-07,0.331096675062365,0
6.2383203957336e-07,0.318020255746659,0
5.0501265168195e-07,0.291670600723323,0
5.59179803107885e-07,0.310410869683832,0
1.00212535945045e-06,0.398940256531342,0
1.20794216927418e-06,0.393877636904315,0
1.25640990896534e-06,0.394694884020552,0
1.43702050757004e-06,0.431558623200977,0
2.26981247825567e-06,0.548319249339638,0
2.50877898636761e-06,0.471237361686807,0
2.51932684834942e-06,0.455210329856308,0
2.43228060732688e-06,0.458733757602909,0
2.39192705456069e-06,0.451202728227576,0
2.38113743456713e-06,0.453171951482012,0
1.97720140337025e-06,0.41143769446464,0
1.73050678652834e-06,0.389729959201071,0
2.04232413298288e-06,0.363191410741444,0
3.32189051921801e-06,0.367233364743564,0
3.35551465090825e-06,0.338068514089064,0
3.56419161829242e-06,0.389861396007693,0
3.29844980932448e-06,0.380660450371464,0
4.31989697663142e-06,0.411587236404565,0
4.34082547350627e-06,0.391825915992983,0
4.34150339769886e-06,0.391447496928003,0
4.18167330266681e-06,0.383234358404067,0
4.04298334294584e-06,0.348653245748392,0
4.10628006494604e-06,0.366483353250035,0
3.37796635682503e-06,0.411388282401091,0
3.08222625207108e-06,0.43130537348409,0
3.16757891811581e-06,0.448754915245977,0
3.39911998250031e-06,0.438910757135473,0
2.44766897226199e-06,0.409267833144368,0
2.72750019773179e-06,0.465275772986642,0
3.331410642514e-06,0.504583544107681,0
3.92939013549882e-06,0.529869751380795,0
3.61269468670961e-06,0.556791145324453,0
3.95877829283308e-06,0.663225313170691,0
3.78227524298862e-06,0.65835373919894,0
3.08614673890014e-06,0.566365841423425,0
2.2106194315448e-06,0.46939311536046,0
1.12301558502916e-06,0.307364722458815,0
1.10727306464205e-06,0.263017942326975,0
1.47129671805217e-06,0.280132660103994,0
2.14168801148755e-06,0.282083476968129,0
3.50756915379974e-06,0.266631216329644,0
4.49986317660206e-06,0.266097732503517,0
5.02873387127571e-06,0.227488642801826,0
1.07634515587373e-05,0.316924159440263,0
2.33711740784416e-05,0.360365534639116,0
2.49914191764223e-05,0.254998761716906,0
2.67566223782421e-05,0.24810608751406,0
2.92781510276659e-05,0.22275106755424,0
3.72509946653378e-05,0.257028511954594,0
3.13170729175134e-05,0.213094850216809,0
3.00414678231198e-05,0.225939418200926,0
3.04980255576349e-05,0.235066792187447,0
2.84433511965872e-05,0.236373838894392,0
3.01845832901352e-05,0.23732293767686,0
2.3544542956051e-05,0.226648365984603,0
2.18314950382252e-05,0.298266746202164,0
1.72538303935423e-05,0.290461655373401,0
1.87442869682967e-05,0.435650752868252,0
1.03697728124202e-05,0.329024710801085,0
7.90078292061021e-06,0.363127391653806,0
7.56085546186855e-06,0.357234798106802,0
8.61537265417419e-06,0.38274403541511,0
7.32195313316249e-06,0.416230547115911,0
6.35475813328947e-06,0.484449085367792,0
5.52008365574336e-06,0.501537518224698,0
4.52075748007856e-06,0.457016483008367,0
2.77904841533718e-06,0.380277961784015,0
2.65362596166214e-06,0.432442060632417,0
2.63916963396788e-06,0.448513474657791,0
2.98131705902674e-06,0.320355338328474,0
1.41436025531535e-05,0.524999220095086,0
1.55834983782477e-05,0.392554512430635,0
1.47874191648122e-05,0.378701818231281,0
1.48857478916091e-05,0.39290475556421,0
1.48403608969681e-05,0.399877584364738,0
1.42899987164586e-05,0.389819732941769,0
1.43810928681462e-05,0.382326158593041,0
1.4230560105049e-05,0.383002225837157,0
1.35597292394498e-05,0.377097935896346,0
1.30548129570526e-05,0.495748739827773,0
3.26460422195276e-06,0.363923284807303,0
8.60911967001971e-07,0.370483276319327,0
1.10269722660603e-06,0.411543917484351,0
1.18498878209106e-06,0.425906560044151,0
1.15401670907601e-06,0.416050887564265,0
1.26069590452319e-06,0.43543707526147,0
1.27646280106342e-06,0.428737855916068,0
1.22477680810493e-06,0.478253025542415,0
3.04749858187642e-06,0.282659714278784,0
1.04205104728465e-05,0.371196205833163,0
1.03633405132764e-05,0.326601313820414,0
1.06304387049014e-05,0.323494853834567,0
1.07809751411175e-05,0.320525232790346,0
1.09340163105464e-05,0.313946650089855,0
1.08883272519587e-05,0.312913345273209,0
1.04381478551306e-05,0.317109629955679,0
9.94856283736466e-06,0.310467333890279,0
9.25857338395881e-06,0.295695008142918,0
8.28447131761999e-06,0.364714011308427,0
5.47655325577815e-06,0.344104763965933,0
5.5241040514082e-06,0.345715514803329,0
4.76360707599012e-06,0.306284106705608,0
3.73822285942679e-06,0.266570707524282,0
3.88424843842055e-06,0.291175201924421,0
4.30497843700366e-06,0.309985420354293,0
5.01352548916979e-06,0.333595964741722,0
5.27238928270374e-06,0.345203595299004,0
5.41671801430459e-06,0.357855887787301,0
4.64236256139144e-06,0.439003593236132,0
8.43214813054754e-07,0.256878149430008,0
7.6692553465899e-07,0.322334941870478,0
3.4255507447976e-07,0.273776090784212,0
2.74558296238613e-07,0.274837680694914,0
2.7443194094629e-07,0.270310525769402,0
3.31238395307018e-07,0.275039942812462,0
3.14235995115636e-07,0.278557818753868,0
3.0198934900547e-07,0.280965269597431,0
2.81432705337628e-07,0.288347801541079,0
2.37442965150107e-07,0.282165095829789,0
2.50042431032654e-07,0.2714144181606,0
2.58804155438787e-07,0.277238387298902,0
1.89718531169075e-07,0.257768736280079,0
2.02222162038682e-07,0.259196199143873,0
2.26741967499528e-07,0.267518654888415,0
2.48531777379187e-07,0.282508883109678,0
1.87356047836121e-07,0.254086446759303,0
1.99937882747647e-07,0.26615803871808,0
3.0037751762057e-07,0.296123854652686,0
3.88092065942415e-07,0.316931088770894,0
3.54868371003107e-07,0.315281036952523,0
3.54091339382501e-07,0.316255624825363,0
3.31643573720616e-07,0.315335638243696,0
2.81795275571256e-07,0.296899981130638,0
2.56194237455695e-07,0.298913150294356,0
1.74585882097772e-07,0.271763135053501,0
1.3017393358146e-07,0.266347126712358,0
1.39578787726005e-07,0.260933650358646,0
1.48278336245691e-07,0.273642616941712,0
1.49208436751078e-07,0.280032350568232,0
1.50681223887238e-07,0.274643761175186,0
1.20414389713062e-07,0.255496469577487,0
1.6573780600402e-07,0.270540339407727,0
1.46553439580715e-07,0.265516758003028,0
2.41725154021033e-07,0.289766677472447,0
2.97708228678243e-07,0.29348865629967,0
3.71260365606836e-07,0.3042132884192,0
4.29407909092909e-07,0.327529264832767,0
2.97594963046222e-07,0.280184172654132,0
2.44490010840378e-07,0.258925607052206,0
2.37047603981737e-07,0.259016013972942,0
1.37213566249824e-07,0.232474279653631,0
2.34573391048329e-07,0.237573533296235,0
1.58471461754868e-06,0.448977515914383,0
1.71047686811978e-06,0.450809329297581,0
1.66975840768062e-06,0.457055927452656,0
1.63127086613155e-06,0.452690521859568,0
1.68301028627495e-06,0.456330361028153,0
1.7036593589727e-06,0.445602669671211,0
1.50117533694396e-06,0.426078122175716,0
1.3705894797668e-06,0.407389537962676,0
1.26075353909892e-06,0.385691496756339,0
1.24464156972813e-06,0.426987986266269,0
5.08261024524774e-07,0.333694654692943,0
3.9430197442905e-07,0.326001271152522,0
3.89481707022051e-07,0.329583840079406,0
5.12206956050643e-07,0.362638096300108,0
4.30617767695306e-07,0.330267240296083,0
4.11806256238726e-07,0.347059189130142,0
3.58892306218951e-07,0.331070997018917,0
3.68127996539259e-07,0.332731268810026,0
4.50374806756916e-07,0.362893005692535,0
4.74243935889481e-07,0.374892951084626,0
4.20036179803011e-07,0.360421652588983,0
5.68029014529315e-07,0.387003267674156,0
5.91893268431255e-07,0.368705774805734,0
4.31211076583785e-07,0.348486252043723,0
3.00797722429926e-07,0.326934211457387,0
3.02568833609853e-07,0.325363031844708,0
3.16282256297875e-07,0.342128585154955,0
3.38455539797262e-07,0.342657919901129,0
4.44714797571017e-07,0.378672996488836,0
5.86683583630207e-07,0.327467168857756,0
1.10628967051971e-06,0.401160350791234,0
8.96720469147459e-07,0.374046729870355,0
8.89139752663871e-07,0.382394226677279,0
9.65585505927454e-07,0.395933101053367,0
1.01796117705921e-06,0.404635282512441,0
1.22376703431004e-06,0.42033333103233,0
1.19808345119379e-06,0.395837510527403,0
1.20168925190369e-06,0.389363034491735,0
1.46638889684589e-06,0.413600615951286,0
1.2619230601767e-06,0.444474693941067,0
6.09624749344781e-07,0.326989950244841,0
5.92589491434677e-07,0.298792231558919,0
1.09179120213334e-06,0.389425058096116,0
1.29362307858622e-06,0.399532093481328,0
1.51491467181666e-06,0.399493911027715,0
2.86988898824839e-06,0.54047162696713,0
3.24665515882867e-06,0.558828024670609,0
3.12801334954312e-06,0.553112902081045,0
2.98905351575435e-06,0.56482138757336,0
3.1913154810458e-06,0.581177888755775,0
3.43134458908171e-06,0.592010701890683,0
3.205308060775e-06,0.61716126379877,0
2.24394998085394e-06,0.513582161473648,0
2.12583316044415e-06,0.516552058706443,0
2.57373675954682e-06,0.617237772881788,0
1.58741375893058e-06,0.499153491580774,0
1.14323350034464e-06,0.452967541752426,0
1.27346600347756e-06,0.485558226071944,0
1.34615903127272e-06,0.470780608824058,0
1.46160135358965e-06,0.52910170442616,0
1.01922399535866e-06,0.449346353697297,0
1.32588768877233e-06,0.477862699157022,0
1.42335363331687e-06,0.480973164189201,0
1.24225604592168e-06,0.457305250271271,0
1.07674797681279e-06,0.402330487880879,0
1.45523383490751e-06,0.425650534621501,0
1.44894759233043e-06,0.424282291335899,0
1.30111190031176e-06,0.399762879387564,0
1.24605739012837e-06,0.410956700426589,0
6.93981399094727e-07,0.32262116418504,0
5.35019028329664e-07,0.265075501667655,0
1.39895771214105e-06,0.375388709493215,0
1.43499808826907e-06,0.364986567740721,0
1.37522562373779e-06,0.353607902847667,0
1.66573059899386e-06,0.397081973055287,0
2.36120341795549e-06,0.46719020625685,0
2.36610302473209e-06,0.421299945785926,0
2.31087801504484e-06,0.412832895678035,0
2.25498810404133e-06,0.408093024720722,0
2.17299280229666e-06,0.383638416366507,0
2.81339401437572e-06,0.480355774911605,0
2.87959196608476e-06,0.511644967365836,0
2.86191925507465e-06,0.528055993557415,0
3.07787868168261e-06,0.550065811423107,0
2.84751855843667e-06,0.566638322383129,0
1.2216683477026e-06,0.395861669741814,0
1.19805086061099e-06,0.436643739978641,0
2.78659119851948e-06,0.575548242709147,0
3.87486695866941e-06,0.591355116770273,0
3.89158859900406e-06,0.63404552840049,0
3.77887239879742e-06,0.627391337674934,0
3.2920711377175e-06,0.583279157171406,0
3.37393440753144e-06,0.586772369155726,0
3.06743019426475e-06,0.576648366136424,0
2.12955149216229e-06,0.458318873604323,0
1.23725198899857e-06,0.357700253872134,0
1.0646154645264e-06,0.338595270223866,0
6.43023418314685e-07,0.311815061387914,0
2.44213191238537e-07,0.254702305442404,0
4.2510161120479e-07,0.278180588854956,0
8.48035013677772e-07,0.355107092481748,0
7.4128461314989e-06,0.507843152107696,0
1.73949373991088e-05,0.631792995841456,0
1.90389586629203e-05,0.647691937995901,0
2.04224102031835e-05,0.681756448708142,0
1.87263621477578e-05,0.532174343555129,0
1.89350730414044e-05,0.437321203310358,0
1.74781635964099e-05,0.37599441930987,0
1.63667793098887e-05,0.315721237076338,0
1.82577533774132e-05,0.245715487367247,0
1.89558152777558e-05,0.187545122287133,0
2.07694229748366e-05,0.207122305823898,0
1.66511463697898e-05,0.18033836295859,0
1.80378796748864e-05,0.182357972381884,0
2.07139062527198e-05,0.199991251278233,0
1.92371992307872e-05,0.200989093096262,0
1.79415418453514e-05,0.213051817273691,0
1.7612794292189e-05,0.21898699821449,0
1.74582489471529e-05,0.241815902035805,0
8.83550120437301e-06,0.238204989376916,0
6.62096389057442e-06,0.345167973204052,0
6.43168606689691e-06,0.479944774663257,0
3.69082526624948e-06,0.432915127132804,0
3.8009288103298e-06,0.455498145232926,0
2.44647621035876e-06,0.374823438896089,0
2.81546304889553e-06,0.391960737832812,0
2.9949145447235e-06,0.333282256638299,0
3.4070325485862e-06,0.353353240596836,0
3.31663802588504e-06,0.325508649712683,0
3.81810084183329e-06,0.242183636788759,0
2.76284610727509e-05,0.368596751112127,0
8.65612586231874e-05,0.561470742128568,0
0.000134815516974144,0.385911862254254,0
0.00013169801101549,0.319312111178334,0
0.000129749388080466,0.311407559459568,0
0.000135722014684914,0.319039990149614,0
0.000139384294273752,0.332479418512514,0
0.000141700366479714,0.33166576481482,0
0.000148274154767064,0.332621205387439,0
0.000152449188740246,0.366803908206297,0
0.000146140568988169,0.489647722313679,0
8.71342892904166e-05,0.509919923436697,0
1.00156302497242e-05,0.382580665088847,0
9.4446994712142e-07,0.353051198950573,0
6.07506361462907e-07,0.320377260704903,0
5.80803921930327e-07,0.305837906225579,0
9.0634697932542e-07,0.340120409055416,0
1.35733953790792e-06,0.325250980149311,0
1.84740379752254e-06,0.367092117375928,0
1.87383689725916e-06,0.367841569472735,0
2.16472120552814e-06,0.381216551113819,0
2.30470316814831e-06,0.371352110459971,0
2.42311009817217e-06,0.39619566472937,0
2.46691264286055e-06,0.403873695721452,0
2.47467260754953e-06,0.403978853648587,0
2.50762596093317e-06,0.386895335996681,0
2.37024062628384e-06,0.390115690733408,0
2.2784874502703e-06,0.411701910993119,0
2.62954198846224e-06,0.44053970874381,0
3.20328049910748e-06,0.488836823418824,0
3.05399425901837e-06,0.502844430088179,0
2.84297591203929e-06,0.522264435598681,0
2.89920715597043e-06,0.526107465838377,0
2.89068338288911e-06,0.526717075613802,0
2.85995473748532e-06,0.533056046988721,0
2.76509777594814e-06,0.576356112418643,0
1.03945813918155e-06,0.415442754971175,0
5.18265264900082e-07,0.341094876646326,0
8.9101551434225e-07,0.378866147621935,0
8.51618642105936e-07,0.351893944837277,0
8.2171678238871e-07,0.35242857907544,0
8.02971053153557e-07,0.353830571105333,0
8.07973974748985e-07,0.352735252060936,0
7.87374789685154e-07,0.341211545763614,0
1.68128859524107e-06,0.447848798203367,0
1.97365817925068e-06,0.431244608898877,0
1.52965523213467e-06,0.383514408162675,0
1.0456800687848e-06,0.341763142240511,0
1.03184322929962e-06,0.371794592961459,0
9.77208523221702e-07,0.375490369963473,0
1.00523114849353e-06,0.372800283580913,0
1.02387610070114e-06,0.358015357111257,0
9.00747609994398e-07,0.338183565351678,0
7.91642553216153e-07,0.328698553267033,0
5.77162859278378e-07,0.305773164905363,0
5.41908931312306e-07,0.306794151021817,0
7.18729472203122e-07,0.309637699167246,0
7.31228695329973e-07,0.290157092069413,0
9.5773004014544e-07,0.326331499365245,0
1.10336272897813e-06,0.346249953450195,0
1.00294847201804e-06,0.329127304202927,0
1.21794667678541e-06,0.350968120630251,0
1.63937169626029e-06,0.393117024775194,0
1.685255563721e-06,0.393791415810056,0
1.48881549198575e-06,0.36956934628647,0
1.4188109201355e-06,0.384817069459958,0
9.41718246746361e-07,0.365001716620421,0
4.55557243693658e-07,0.29846027659841,0
5.03315804289053e-07,0.302927397944391,0
8.30164154595599e-07,0.347119126730968,0
7.80830493804931e-07,0.333532257621334,0
8.59686147028082e-07,0.376776002143036,0
7.44364102661197e-07,0.350183110048014,0
9.04359821966493e-07,0.373091280634953,0
9.3408483770165e-07,0.347726946342828,0
9.97367668633777e-07,0.341976345285121,0
1.02088952106439e-06,0.338349730513256,0
9.73414124549049e-07,0.331218652291995,0
9.5458104186656e-07,0.336208524870083,0
6.56718942895762e-07,0.306230595333976,0
8.0191132494077e-07,0.348990716125412,0
8.51219808170547e-07,0.347424708711474,0
8.34050381242326e-07,0.351117045618398,0
7.83563361097308e-07,0.361983501221093,0
6.34688777467967e-07,0.37055507423488,0
6.02014514341527e-07,0.388123425920437,0
5.72856160686372e-07,0.386124711953052,0
5.44898716580142e-07,0.366965069053173,0
5.36226950196611e-07,0.36264378549052,0
7.16804423946659e-07,0.381931233536096,0
5.58853363008054e-07,0.317244673150609,0
4.0351382286809e-07,0.288046476649613,0
3.99439532530463e-07,0.286170886736754,0
3.26109051635285e-07,0.267839680352899,0
2.70942878635423e-07,0.261239791392197,0
4.1810779234749e-07,0.296381640859218,0
4.55314684274144e-07,0.292569423210575,0
3.25032493859251e-07,0.267054685601512,0
2.82307842626533e-07,0.246360206107783,0
4.8818843115226e-07,0.310880052864435,0
6.25997977649809e-07,0.336548662942877,0
8.00528562611192e-07,0.365763013881771,0
9.81430873645523e-07,0.401262384766473,0
9.8519515274268e-07,0.395692083107434,0
1.02082253673131e-06,0.381443135422837,0
9.01936565210698e-07,0.369905860873832,0
8.51347432358512e-07,0.380390809937131,0
8.6967295678431e-07,0.386812641977572,0
8.7456154420402e-07,0.398928360904793,0
5.94980825447485e-07,0.358113633015511,0
3.75603795388471e-07,0.315192172459333,0
2.95412462542451e-07,0.307129209310835,0
1.66955945820079e-07,0.251768209647414,0
2.91397209244155e-07,0.28612417703164,0
3.11693862873406e-07,0.301323071146915,0
3.0776088743988e-07,0.290018098155464,0
3.43181508222886e-07,0.298853250877681,0
3.11758309415209e-07,0.281976853101029,0
4.49414787027977e-07,0.318821124380772,0
5.91229769578594e-07,0.360492989454328,0
6.03004520077999e-07,0.366788985517863,0
1.30514117824609e-06,0.467697790107174,0
1.47589926968064e-06,0.489345928701594,0
1.09495242188077e-06,0.449389123880609,0
1.51330330791963e-06,0.493266224001579,0
1.3548008784327e-06,0.392936971925834,0
1.56400570640383e-06,0.418391122146326,0
1.54180624358384e-06,0.412930043898067,0
2.18300772810895e-06,0.475610515307475,0
2.23891660576311e-06,0.445045705489535,0
2.25057074439257e-06,0.448773158365566,0
1.81928941106062e-06,0.423984109829208,0
1.76051142679255e-06,0.41753112025454,0
1.94350594638815e-06,0.443210119614246,0
1.46205895742844e-06,0.415833089792537,0
1.3192509638622e-06,0.439357934120028,0
1.3222957791305e-06,0.443003645209478,0
1.35538410294003e-06,0.439786969290871,0
1.23042833572522e-06,0.422226487386311,0
1.10528684225886e-06,0.438171889806239,0
1.13859495215033e-06,0.424247089567824,0
9.28384691343083e-07,0.382207408166906,0
1.00042590748228e-06,0.382870935221819,0
1.21005361162202e-06,0.395111375855696,0
9.73176440360158e-07,0.354782825198977,0
7.79262205575738e-07,0.3426116301989,0
8.07819303048656e-07,0.331151038532691,0
8.08291866499228e-07,0.339834735418963,0
8.14778461019741e-07,0.337124131400193,0
9.68757745031774e-07,0.374457451435949,0
7.31283257842567e-07,0.341040811761786,0
7.85545776793574e-07,0.351444122261941,0
7.90451193776532e-07,0.329528242692533,0
8.11888050315848e-07,0.337533287264683,0
8.1250780566086e-07,0.341928941300115,0
9.42661236560108e-07,0.353513109635941,0
8.87641587614877e-07,0.355803003763142,0
8.53092163865888e-07,0.35258662347357,0
8.23805718534901e-07,0.368379170993458,0
6.78546285372823e-07,0.322502154589122,0
1.01296339783033e-06,0.377700672525422,0
7.46256159630976e-07,0.335879398210781,0
5.63050602654966e-07,0.345811895634894,0
5.55653074631655e-07,0.348433649545922,0
7.87423408423426e-07,0.396424370929526,0
7.62595261321639e-07,0.415147434839435,0
6.80031895033362e-07,0.381518107921011,0
7.06635961761717e-07,0.384654525818704,0
7.52066365990467e-07,0.386805246978103,0
7.48384164406135e-07,0.390034989911734,0
1.00564841480771e-06,0.433070394928473,0
1.09206735389537e-06,0.409350695116531,0
1.69095564329559e-06,0.490462308429914,0
1.86775047235366e-06,0.507722793293797,0
1.58474780918731e-06,0.483174883130761,0
1.51761114183931e-06,0.461552402401136,0
2.3918519225819e-06,0.538610241048888,0
2.61461657008442e-06,0.480138440586939,0
2.4909142714117e-06,0.461957348758164,0
2.43702948265804e-06,0.470687054638443,0
2.05623730655851e-06,0.442357682477256,0
2.04166343905743e-06,0.467747619396671,0
1.85941155733215e-06,0.409107869959597,0
1.65521693041039e-06,0.365488983713766,0
1.54124258678299e-06,0.351619040810821,0
1.82960192629288e-06,0.385548702942288,0
1.30812475260368e-06,0.356724099601873,0
1.11863936431278e-06,0.376992161768485,0
1.03399554344391e-06,0.370996995537486,0
1.08242428129009e-06,0.373619803984484,0
1.01168515243124e-06,0.361099831932055,0
8.93463347603107e-07,0.355926408233619,0
3.10187550178713e-07,0.275912824619065,0
2.45096876877029e-07,0.28912729326356,0
2.52384344899416e-07,0.289796867956766,0
3.57999204039118e-07,0.315260079061423,0
3.59055993756734e-07,0.302795422889629,0
5.26283082540256e-07,0.350200695672711,0
7.13794870620404e-07,0.386942040922094,0
7.16512177245174e-07,0.379851748996402,0
7.76769827399459e-07,0.369839211315426,0
8.98865637405773e-07,0.38141670723927,0
9.01597302586489e-07,0.366945865601624,0
1.05592439757232e-06,0.370892680114624,0
1.14745264513737e-06,0.382838434112917,0
8.07854297854776e-07,0.331882336605274,0
7.61606390912847e-07,0.304766920835032,0
2.34802880842734e-06,0.466177344102836,0
2.49799657904402e-06,0.436951009357629,0
2.53845878934753e-06,0.44396502652286,0
2.60154727889453e-06,0.460458147286331,0
2.32671136164631e-06,0.431482101300443,0
2.76680444058626e-06,0.475904731673494,0
3.03765602551946e-06,0.506422110459657,0
3.0502314491688e-06,0.49982671396978,0
3.03121724832945e-06,0.500401803134986,0
3.38850186377033e-06,0.582364145072452,0
2.34694156521432e-06,0.554744823812651,0
1.7457511652001e-06,0.500478093675883,0
1.74000907850138e-06,0.49121209436582,0
1.31755364898144e-06,0.437541080184355,0
1.56487122679945e-06,0.502597756989223,0
1.5297033166011e-06,0.513161133766179,0
1.13658822708493e-06,0.47164372736602,0
1.1325603516142e-06,0.479203190354391,0
1.18670292653507e-06,0.512264723617035,0
9.4895389039938e-07,0.496143848519124,0
6.17260495828832e-07,0.420912610715272,0
8.5842813717528e-07,0.529759246686757,0
8.88459557815924e-07,0.604129024308686,0
8.26369488787022e-07,0.50623395364743,0
5.93429299997558e-07,0.409953662564845,0
5.06909316746428e-07,0.37917406246578,0
4.8373260393036e-07,0.317236710940874,0
6.72670964631716e-07,0.36554213406523,0
7.01997680703334e-07,0.353347478362686,0
1.23402131391075e-06,0.360822665878923,0
2.16571288086414e-06,0.451324174922638,0
5.13966546993823e-06,0.457799609892329,0
1.41355895439599e-05,0.762244658619213,0
2.30626858466631e-05,0.903996585676566,0
2.46332566855493e-05,0.86841842622916,0
2.71729879768735e-05,0.67693569278691,0
5.8316293516762e-05,0.682847295362991,0
0.000156127783655677,0.73212822545437,0
0.000191145179122614,0.36948897922224,0
0.000177883935811303,0.354159385769255,0
0.000153853943836222,0.311386600731915,0
0.000127581630207316,0.284319454970746,0
0.000115417005043943,0.261231697160634,1
0.00011000028823175,0.229541725965538,1
0.00011157411686002,0.206137019238379,1
0.000124729970774912,0.110301544100135,1
0.000227968823960806,0.113034001031988,1
0.000209202518581062,0.102708244689777,1
0.000200630143323899,0.106775303798764,1
0.000227424848933469,0.113979279067126,1
0.000240938649960894,0.110938841833239,1
0.000241923090254298,0.10799339537281,1
0.000245449958108697,0.109358153495116,1
0.000236860118640113,0.108110541473364,1
0.000203642335352033,0.099733021129608,1
0.00018184925713112,0.161261727576073,1
6.62443532191427e-05,0.100174159452905,1
0.000267331518025522,0.130096367701862,1
0.000334771005782387,0.0709309193446917,1
0.000301034397045373,0.0679248337423432,1
0.000290413150153716,0.0687602310992268,1
0.000305504237683604,0.0709677851030261,1
0.000352922932795793,0.0759002022658753,1
0.000417391826596779,0.084826746080718,1
0.000449942762683736,0.0917979001035652,1
0.000485002498860798,0.0997209691777566,1
0.000495734329339792,0.115169908171143,1
0.00020975420495435,0.125574234279735,1
5.51278659086288e-05,0.277815428997675,1
7.21792158864774e-05,0.273806897710056,1
0.000118009543965189,0.123620735310735,1
0.000406919650633656,0.171145184936211,1
0.000456606178212628,0.163473973341057,1
0.000408581141585175,0.143409507444206,1
0.000370400997017639,0.125164914954968,1
0.000355987083362311,0.110564878394695,1
0.00030779724490635,0.0684230964271623,1
0.000348975980476772,0.072494604167464,1
0.000367974685095058,0.075939091864556,1
0.000376192338238136,0.0566430842871681,1
0.000688809423200791,0.066734907591989,1
0.000694305555449537,0.0539798661002596,1
0.000727691796989094,0.0543933213576971,1
0.000736501891363169,0.0492224664770491,1
0.000740048148009757,0.0485722421539951,1
0.000737396126199322,0.0510090556123049,1
0.000756287420471135,0.060092699735657,1
0.00069140245552209,0.0575505773121654,1
0.000669613631574345,0.057331455549085,1
0.000687352608388698,0.0749992587512509,1
0.00030249135083493,0.081506501777396,1
0.000112138720457373,0.0700628116032816,1
0.000136181453480376,0.0953440139210026,1
0.000157715998688813,0.152537817437638,1
0.000218376253936335,0.211557161325814,1
0.000308230614441204,0.194883742310795,1
0.000356240708353228,0.136207880476174,1
0.000374782576814582,0.0960857536396148,1
0.000653716820957009,0.114495818134649,1
0.00114316074607593,0.117449890064722,1
0.00192629944232927,0.142656599442858,1
0.00187481936842688,0.101408560630392,1
0.00168601991727098,0.0689620672122184,1
0.00284902943080768,0.0367901238733506,1
0.00519140856453628,0.0377240174086719,1
0.00474393700970715,0.0271851574385293,1
0.00429235011376286,0.0241506295916419,1
0.00332773075986985,0.0184522718163601,1
0.00301634046064424,0.0148898493304097,1
0.00314458631564609,0.00836979419188599,1
0.0117475131175127,0.0155220837973513,1
0.0253983087171641,0.0279234043611851,1
0.0238276815835892,0.0121385841695305,1
0.0243343891379146,0.0139799182834833,1
0.0256414575041759,0.0140407140941337,1
0.0242586748476913,0.0133113419326151,1
0.0230656918093486,0.012405455665081,1
0.0227439117830584,0.0125115736484718,1
0.0204440250302171,0.00877227533565129,1
0.0172928117630958,0.00746076969820279,1
0.019405584479558,0.0163495486858408,1
0.0134374152223352,0.0061868192800526,1
0.0287273430213405,0.0129705709964581,1
0.044981512748977,0.0166454443165685,1
0.0476483015827491,0.0166218104848359,1
0.0475176756508423,0.0169281077926359,1
0.0464458164888487,0.0163755299616833,1
0.0472472591469838,0.0164057159797237,1
0.0479314016179617,0.018582318252775,1
0.0444644791228056,0.0189231357878888,1
0.035777576440859,0.0157789118097735,1
0.0288532425560017,0.012818217542958,1
0.0258031828308878,0.024239660052884,1
0.01380002521761,0.0130068434591021,1
0.0117951712058158,0.00870891051229267,1
0.0128712730434036,0.00787511680856823,1
0.0132747096533041,0.00828619741323358,1
0.0125504086139413,0.00824428419740456,1
0.0124588536529842,0.00856796951090016,1
0.016041740378254,0.0118895473643051,1
0.0185093747929978,0.0137584292324134,1
0.0201008189922379,0.021547465077906,1
0.0130915200854149,0.0198031182416393,1
0.0130143692103828,0.0205895203433524,1
0.0122831743237754,0.0206724572524642,1
0.00736679816511108,0.0160533715493639,1
0.00668344465177,0.0161252739565012,1
0.00429194709915025,0.00949154911486003,1
0.00370380420004856,0.00948826510591912,1
0.00418815119977588,0.00978928163851627,1
0.00461830377770676,0.00763280308827519,1
0.00487340094301701,0.00876942447056634,1
0.00468936029883845,0.00869810814282729,1
0.00411710992148683,0.0101716901603614,1
0.00286196293206545,0.0147160357217384,1
0.00280484995732973,0.0145983076604087,1
0.00368297136508258,0.0192934900311509,1
0.00395776904022039,0.0186364353992208,1
0.00471903955739536,0.0173900215576799,1
0.00554397722781302,0.0228964180741833,1
0.0051246970295869,0.0223859333723898,1
0.00533252278110315,0.0127880667736795,1
0.00723055873264998,0.0120248064519683,1
0.00861690253413441,0.0114216154543031,1
0.00894951851040262,0.0110200988601363,1
0.00888004952577881,0.0119977815153994,1
0.00810834897086181,0.0102213212347795,1
0.00782222518431568,0.0105075706815457,1
0.00716919084315375,0.0111996353012621,1
0.00560934822206711,0.0045038988172201,1
0.0227929208162665,0.0132052992122879,1
0.0419333365377593,0.0188683428560377,1
0.0461930091285361,0.0199665457319913,1
0.0619472031670166,0.0278339405820251,1
0.0635889939991272,0.0276790122355641,1
0.0914131708414854,0.0286719469533967,1
0.111920831032146,0.0220659183589077,1
0.0953227097164107,0.0206504059099697,1
0.073287093843222,0.0144495040886936,1
0.0470081219024852,0.00872777244368611,1
0.0436410753401216,0.0110783345821592,1
0.0447971711536732,0.0133341414044864,1
0.0423786681367531,0.0138157072311818,1
0.0435402340186356,0.0129970742788825,1
0.0454695540702456,0.0128728643355043,1
0.0339728588816921,0.0146601886316737,1
0.0134892406266539,0.00796690283775901,1
0.0150239450979467,0.00990704242295927,1
0.0140849299803873,0.0101213398149365,1
0.0247885638463442,0.0178920768303974,1
0.0274377975616055,0.0110738963011499,1
0.0317405960574679,0.00593371934828908,1
0.0442073987938185,0.0101649562811435,1
0.0332284578848883,0.0070512200263691,1
0.0329157357875916,0.00763169368392744,1
0.031084586341552,0.00670179218772573,1
0.0280582711802894,0.00515496726859346,1
0.0304572784037922,0.00615457083691425,1
0.0346309430858412,0.00801648956208984,1
0.0388765182010928,0.00959187595176748,1
0.0275752776071598,0.0127229763700599,1
0.0151145438124031,0.0228771962289918,1
0.0151495252500389,0.0258331078803175,1
0.0130981547969884,0.0325559157177083,1
0.0119347285984253,0.0217088804832781,1
0.00873445958423712,0.0208595789629323,1
0.0110773665523066,0.0414722382135575,1
0.0132439564890298,0.0213385421003453,1
0.0143715671408728,0.011481714408532,1
0.0258064810271852,0.017685914482527,1
0.0252002921272761,0.0135217729496742,1
0.022084340098763,0.0127114708204337,1
0.0312817034067783,0.00993848812804312,1
0.0362614299918481,0.0063225192370245,1
0.0351860862144885,0.00316848259986835,1
0.129036400282771,0.0124356786145643,1
0.203285383387268,0.0156493653055217,1
0.197768333023417,0.01376495468769,1
0.176363574711015,0.0129182302797054,1
0.175249510538336,0.0128056030081446,1
0.157033145927907,0.0119006856396725,1
0.127075617588399,0.00921328566839572,1
0.144195805456875,0.00743563598452519,1
0.178586261288355,0.0097164058085402,1
0.141416715966517,0.008900518204504,1
0.119798682999982,0.0120262635822143,1
0.108707608352679,0.0108184771163078,1
0.113256449512947,0.01145376039614,1
0.123335899382407,0.00908378223362819,1
0.135273889069145,0.0101359760624746,1
0.137905693653675,0.0103176311994692,1
0.145184166725432,0.010515187087209,1
0.124497968402048,0.0150566916681038,1
0.0545984220975373,0.00786250350210838,1
0.0558841479469122,0.00801821679172231,1
0.0454685246322414,0.00628669069653703,1
0.0452969887932619,0.00815184042434688,1
0.026370938224768,0,1
0.0405534134600184,0.0052406299701414,1
0.0500282685168514,0.00669836566614948,1
0.0527195381398139,0.00571266306092696,1
0.0582710467219998,0.0070896373688068,1
0.0623172058379911,0.00478471685449974,1
0.0744783360577216,0.00708000303058375,1
0.0762333562817914,0.00692362909117919,1
0.0752985282969915,0.00675430944278532,1
0.0747054867570768,0.00653276874308063,1
0.065200677818677,0.00991382851792361,1
0.0734201587843557,0.015331294317235,1
0.100592203946924,0.0244631825539822,1
0.129777103696772,0.0277550635774947,1
0.14569057151912,0.033053728381944,1
0.146763975319599,0.0413720950938204,1
0.12706405293623,0.0350938615283016,1
0.0932108186964261,0.0198626150297514,1
0.0852870144821465,0.0186275073963053,1
0.0979648150149098,0.0205949584289088,1
0.100803415964443,0.0211999927245664,1
0.110757231244385,0.0286591521568797,1
0.107957443517901,0.0222331712638325,1
0.104507745421906,0.0221965863521409,1
0.102897779494183,0.0117833801577853,1
0.108103288846863,0.0115067103051758,1
0.0971808443757106,0.00641377836555258,1
0.109606025398077,0.0104779294324412,1
0.113848467820225,0.0120412824837151,1
0.100849513480337,0.00945535394659252,1
0.0888363513311651,0.00836934848606934,1
0.0779327804947965,0.00567647920671089,1
0.0924630970715207,0.00909481694871415,1
0.102546259361582,0.00712669117808712,1
0.109166804604683,0.0113761888168194,1
0.0851607586228228,0.00528043072679912,1
0.0948980159413548,0.00944924854437502,1
0.0971140379578207,0.00567157536756333,1
0.112955607113636,0.00705794712736027,1
0.147962839248,0.0106476354111896,1
0.17700158932273,0.0115781216939227,1
0.178545469732314,0.0131431924145898,1
0.134838559242992,0.0103512616517225,1
0.102134161903143,0.0111352180146747,1
0.0999092446156131,0.0121014610683498,1
0.0960424570116816,0.0180526621079842,1
0.0548039660256767,0.0105754760908714,1
0.0360975239153076,0.0135866538169148,1
0.0386090905213471,0.0139365316544585,1
0.0313728743469546,0.0151166641522891,1
0.0202014765590023,0.0100109321093897,1
0.0199984583343127,0.0118450049276186,1
0.0181346795263546,0.00673017958197221,1
0.0495280796251783,0.0195851413476281,1
0.0625696999076358,0.0196672926206611,1
0.0636608934115035,0.0250470032067903,1
0.0578001365950991,0.0189824442902256,1
0.0641274554473678,0.017053160168086,1
0.0668780096815525,0.0120133984683526,1
0.101750423233824,0.0184770538070174,1
0.124181057139221,0.0224376066254129,1
0.130659294524974,0.0212443583222204,1
0.131025743613366,0.0225323956382759,1
0.127180864823627,0.0261710175962137,1
0.120619033775006,0.025789612888143,1
0.132658132301693,0.0244679902597485,1
0.0953187810065368,0.024302140986993,1
0.0404370609882426,0.0112950746231759,1
0.029232646960372,0.0127245731268621,1
0.0300192317602071,0.0125393246864678,1
0.0370819923584266,0.0160981678633102,1
0.032501115052366,0.0147123003498719,1
0.0180797819393598,0.00700876811399179,1
0.0186953738047624,0.00775118466014696,1
0.0167723955197311,0.00730554156988933,1
0.0202347097281844,0.0124721891845185,1
0.0200316873946102,0.0150276100250371,1
0.0252892455595203,0.0165647886839935,1
0.0270064358333831,0.0147906142666569,1
0.0256527467709954,0.0113285119686968,1
0.0270188905388424,0.0116211997951492,1
0.0257854231257282,0.015973204555611,1
0.014488654998246,0.00936742454625284,1
0.0148498539350188,0.00922754743995914,1
0.0168121792389796,0.0107109958950349,1
0.0202131243114136,0.0138331399386701,1
0.022674820544393,0.0166150797034679,1
0.0246388773229069,0.0235113311798358,1
0.0149722300870813,0.025008667888747,1
0.0111522315637981,0.0513917756613169,1
0.010513621512719,0.0482743669008503,1
0.00642979705581094,0.0380675404100233,1
0.0026879979296878,0.0211215011258221,1
0.00177214401476557,0.0179744252306686,1
0.00165926998845081,0.0219698217410696,1
0.00276182058147649,0.0140256696183419,1
0.0139101108538997,0.0360928560019274,1
0.0157841224290025,0.0303699916110232,1
0.0183032349355001,0.0357595357426678,1
0.0174587439496872,0.0336229314784592,1
0.0156001394669499,0.0323229235610084,1
0.0140985669563203,0.0287157515391957,1
0.0145120491223056,0.011636201422296,1
0.0251119464045502,0.0158328946825286,1
0.019653680858505,0.00897017027465493,1
0.018153543219408,0.00946431409273034,1
0.0171221285356359,0.00799188369152101,1
0.0264058277638391,0.0122415934534144,1
0.0299914702148885,0.00980929101355708,1
0.0293343372941217,0.00961059054824183,1
0.0280149386012215,0.00880311300679889,1
0.0256890137194596,0.00786164931066435,1
0.0245136238272947,0.0105143611165063,1
0.0217826772601809,0.0100913156431539,1
0.0220726418122489,0.00923422098361161,1
0.0204892511763741,0.0077737581287145,1
0.0195543790490324,0.00747122701211411,1
0.0148767149469705,0.00489427722473592,1
0.0132830370878253,0.00676339341011383,1
0.0142838293795076,0.00629768133735824,1
0.0160442619734203,0.00717439127543523,1
0.0157083057049747,0.0069758977884336,1
0.0152111081372056,0.00700584259884917,1
0.0165730354688178,0.00833458787397041,1
0.0154549920462184,0.00786812000594445,1
0.0140369216557165,0.00677036625971411,1
0.0149891993897326,0.00789376642902171,1
0.014870185609166,0.00897087616462403,1
0.0107730675891729,0.00547676379584765,1
0.0104598325475582,0.00732990889964603,1
0.0104161424932734,0.00809794057842464,1
0.010121514737367,0.00802304884778884,1
0.0102192830397078,0.0107958379094811,1
0.00864436481722794,0.00860584247445225,1
0.00819989417574786,0.0150313750398695,1
0.00468843452994208,0.00805368657806773,1
0.00653237222174657,0.016361313045513,1
0.00630340014818477,0.0134028971348343,1
0.00631505168657993,0.0140821670130933,1
0.00707966601725126,0.0124395488192338,1
0.008378507674662,0.0133483371286395,1
0.00835600386555274,0.0119847699374663,1
0.00814017185770521,0.00915683284852751,1
0.0106244986140501,0.0133657620712905,1
0.010858564313808,0.0142995129890578,1
0.0116483077606713,0.0179535716152486,1
0.0112891343537301,0.0170668971488587,1
0.0116833959438858,0.0292359454276418,1
0.00841263841360505,0.0183964870119545,1
0.00436271495680819,0.0155656486594205,1
0.009146734236606,0.0145153997183183,1
0.0140510382292565,0.0149540070217943,1
0.0133111413957831,0.0159721967932371,1
0.0142355244337178,0.0126521505527375,1
0.0385351070453838,0.0127333984069174,1
0.0914845737346633,0.0299990606667837,1
0.112425832926264,0.034119009812288,1
0.140487762120983,0.0240197970383582,1
0.254242097646039,0.0397080883354981,1
0.330143394257583,0.0505338794320397,1
0.382046390685739,0.0341445963207088,1
0.35213912816788,0.0368823634038077,1
0.263489128946874,0.0264821225116438,1
0.169416300043583,0.0183251529073542,1
0.133498311144684,0.01416119969661,1
0.133284227220299,0.0108356211924704,1
0.133262226279541,0.00862788321109551,1
0.166784051760373,0.0155541892277061,1
0.165443368630344,0.0148197192776292,1
0.150479122459952,0.0146965291074611,1
0.121577118028372,0.0156961687821148,1
0.118472825973605,0.0119893762026674,1
0.109672296010757,0.0105378132682351,1
0.124881176339871,0.0117438492010631,1
0.105033831770591,0.015048114812665,1
0.0398820320425053,0.00580331448900459,1
0.0448598194171744,0.0101399039731245,1
0.0556701042347647,0.00552269906294445,1
0.0795723673003902,0.00934555522738803,1
0.0809944097973976,0.00771361838428798,1
0.0847237930874739,0.0081779828681913,1
0.0827978425032912,0.00819335111040936,1
0.0808645786098928,0.00923994169608613,1
0.0764062996385197,0.00977824112344807,1
0.0673706398822325,0.00745147156824378,1
0.0716127901802945,0.00660643756295052,1
0.0618553580014118,0.00402945123603806,1
0.0682900743045672,0.0146755823583696,1
0.0896203438503995,0.0197493816179459,1
0.114533227339726,0.030185021206295,1
0.13442978852606,0.0354520190611201,1
0.146907312135442,0.0467323139093711,1
0.125176373896904,0.0428794322894447,1
0.102314571701551,0.0384113764090347,1
0.0526399819055318,0.0245869225133679,1
0.037136402120295,0.0143396068466989,1
0.0436686254343331,0.0132825894515131,1
0.0798990344636188,0.0385654364370969,1
0.0804395368345306,0.0313291001170183,1
0.0778654214602994,0.030803042599996,1
0.0747119957218935,0.0294226435378369,1
0.0707152750665203,0.0244219770248539,1
0.0676026226424448,0.0234995357267883,1
0.0520644370019966,0.0181214588412164,1
0.0347363515766022,0.0110904680322597,1
0.028123466392961,0.012548297098014,1
0.0264177583578973,0.0152952459982846,1
0.0127509992990853,0.00685848988171,1
0.0136629427595349,0.0122258809919695,1
0.0148183066524423,0.0140230304613263,1
0.011995387906342,0.0106594813883748,1
0.0106412168916777,0.0183681206278421,1
0.0105760869782458,0.0194401440114909,1
0.0131162279647846,0.024191599158855,1
0.0132102076192882,0.0333986318628535,1
0.0152214775978029,0.0139445332038779,1
0.0168984475553461,0.00474775570205596,1
0.0206993338483221,0.00660967795726331,1
0.020706251939955,0.00670546548017807,1
0.0207214673637639,0.00720058889906772,1
0.0211370609308246,0.00821255128932328,1
0.0200165993882261,0.00783694949148256,1
0.0219309256816775,0.00886042276127259,1
0.0260618002441571,0.0110868564967344,1
0.0352540432622046,0.0146552134605312,1
0.0301167150963689,0.0197320502868367,1
0.0181389141468657,0.0226367932880755,1
0.0330659766397771,0.026891965624015,1
0.0324866849803932,0.0175018489717025,1
0.031862631024596,0.0155676270021701,1
0.0316610821683037,0.0147143599469003,1
0.0315947020530681,0.0144772603272374,1
0.0317431610720391,0.0147437506165436,1
0.0309782632935894,0.0143709251970175,1
0.0260098234573827,0.0126936985287914,1
0.0214329466262603,0.0099443466452383,1
0.0229050307448139,0.0116203114095518,1
0.0121332679815321,0.00283623914168661,1
0.0185149683524564,0.00964771985722054,1
0.0247626047515904,0.0148019474795897,1
0.0326426869508421,0.0207733097830042,1
0.0395707097795273,0.0244723939435336,1
0.045154532281451,0.0271485363431558,1
0.0474949780060362,0.0282620924954927,1
0.0461967992444856,0.027160786830575,1
0.045792106014173,0.0261572719340643,1
0.0230597898514159,0.0270343635231633,1
0.0017397371952375,0.0235459715646731,1
0.000484930243735567,0.296485022015343,1
0.000285005314609255,0.268011914842806,1
0.000207057856812462,0.217142608941881,1
0.00016014332846605,0.228134731651755,1
0.000158424329828368,0.256071021495743,1
0.00014718661603493,0.252317203626864,1
9.85798479228332e-05,0.251811108178097,1
6.26266048550119e-05,0.409637774450148,1
4.71364830377915e-05,0.363863371444097,1
2.22123059138394e-05,0.244311606895757,1
8.02133338268485e-05,0.11773403115532,1
0.00031236599522523,0.132165922680379,1
0.000315126720052877,0.101020976509941,1
0.000326230697321259,0.103547857083273,1
0.000336059733595156,0.104470148521856,1
0.000346089975912818,0.105532086294776,1
0.000347671435011638,0.106500068609398,1
0.000363921562274175,0.108521394410823,1
0.000380312982335315,0.112692831251935,1
0.000385189182328282,0.105840129390502,1
0.000357456368346499,0.165082422948871,1
9.51473812293003e-05,0.124038456834396,1
7.72742622439898e-05,0.185860687459335,1
7.91434373522292e-05,0.190687291102956,1
8.18834548047627e-05,0.192181022451934,1
8.17294931517217e-05,0.198667947065726,1
8.32208751521029e-05,0.207993205621204,1
8.41888496546038e-05,0.211894970332487,1
8.43415405420516e-05,0.216698249933911,1
7.97013660242343e-05,0.30134000386039,1
1.1571872719024e-05,0.178933412403588,1
9.95003368776536e-06,0.611546394908758,1
1.14782632822546e-05,0.41002737543117,1
3.7919474000177e-05,0.322760562296898,1
4.67576286656888e-05,0.227865687063593,1
4.72588680892201e-05,0.22142609769508,1
4.85905470844852e-05,0.221948412126122,0
4.48057551539512e-05,0.205294100851888,0
4.16823870310005e-05,0.19679855155178,0
4.05517211405795e-05,0.196398903464575,0
4.04964878496785e-05,0.199011761405084,0
3.84152729334684e-05,0.203336611697976,0
3.85462192905758e-05,0.217545139288507,0
2.01852892036065e-05,0.295591826424633,0
6.88820633559866e-06,0.37253743059511,0
7.68366425765755e-06,0.412297567675175,0
8.55923537530451e-06,0.428668987515142,0
1.03818639186383e-05,0.432484406374037,0
1.02871707114229e-05,0.363896654066303,0
1.03081026810648e-05,0.348977218881209,0
1.00723896213782e-05,0.348213242333811,0
7.72912438075791e-06,0.299680952142832,0
4.97787119123676e-06,0.292413531951782,0
4.61955716751053e-06,0.301462675880063,0
4.95746594685416e-06,0.313067724495699,0
5.25481394273812e-06,0.29529610523448,0
4.69906249530224e-06,0.279636310676595,0
2.8311628275347e-06,0.267534879074706,0
3.20619495204459e-06,0.302830707471964,0
3.5742455459497e-06,0.289636702176069,0
3.61987630212188e-06,0.295312976012209,0
3.73782783217833e-06,0.307207258789373,0
3.68610898150112e-06,0.319009795131389,0
3.7134645015853e-06,0.31882789387892,0
3.67006613355081e-06,0.328426643908724,0
3.42805347449096e-06,0.351382920115865,0
3.158840835239e-06,0.321411422640506,0
5.50022984669307e-06,0.381685164350209,0
5.24511203344545e-06,0.359568472017881,0
4.38565462155278e-06,0.358136064209488,0
4.6323626619749e-06,0.360279482681636,0
5.59156281789726e-06,0.348739436132756,0
7.59400676297229e-06,0.390606703872523,0
7.55756648436518e-06,0.376814079296599,0
7.57749609323407e-06,0.376732115203344,0
7.67093115702873e-06,0.385138573648042,0
7.63286061465793e-06,0.405433159814292,0
6.1872206325616e-06,0.38932610457023,0
7.23872025746324e-06,0.400797734215911,0
8.77372648930306e-06,0.302959168832189,0
8.80529614538139e-06,0.251836990729508,0
8.97794689484154e-06,0.269341979754582,0
7.63262419936468e-06,0.246457356019684,0
7.80219106492756e-06,0.252311743922915,0
7.891908130924e-06,0.255854710405434,0
7.65467359857905e-06,0.252455745799879,0
7.89310810549719e-06,0.258991331327236,0
7.88194983792772e-06,0.26629754034526,0
7.69661841326395e-06,0.278126904631561,0
7.39761350680782e-06,0.34965470330218,0
6.84931027643694e-06,0.435875042857144,0
6.42107375837329e-06,0.420470751703999,0
6.84919006527088e-06,0.448388624584565,0
7.55193125203629e-06,0.500166444993317,0
8.39801083074618e-06,0.503575749443432,0
8.42204204460097e-06,0.512974984549975,0
8.73993806901921e-06,0.523468724119995,0
9.37274627636215e-06,0.58642645461062,0
5.83746190395578e-06,0.564474719744402,0
3.67358671790078e-06,0.522894434088758,0
3.02080529174926e-06,0.481967280230292,0
4.02608799747623e-06,0.61497239044118,0
4.61538183300943e-06,0.670679596193993,0
4.89326997854787e-06,0.581918669024043,0
5.35753939293365e-06,0.569542497878235,0
6.36077617139829e-06,0.557634403431872,0
5.68398730648925e-06,0.525170588690504,0
5.06292533288577e-06,0.496704717299387,0
4.99531676992701e-06,0.47821668766353,0
4.96399742021001e-06,0.481738672351705,0
5.44111159804108e-06,0.499442942245249,0
4.8808076201786e-06,0.478078176348384,0
4.03176196451419e-06,0.405755884392146,0
4.05984896954384e-06,0.405567113735471,0
7.16069833546069e-06,0.5169817908492,0
6.40232402209927e-06,0.456252031946474,0
6.85552526050615e-06,0.448429186978166,0
7.41692068897245e-06,0.467780250901103,0
7.25778942151908e-06,0.459133093119738,0
8.07205444729179e-06,0.468341630384945,0
7.93690617565883e-06,0.477129133174654,0
6.61504950120434e-06,0.415128206512107,0
5.64284056037902e-06,0.384122044423985,0
6.801893649825e-06,0.473476069803841,0
4.91157633597107e-06,0.455511453595371,0
4.89301546479573e-06,0.500798959037903,0
4.20431233765068e-06,0.505925740862279,0
3.23644008142489e-06,0.41772683642382,0
3.32814764397931e-06,0.444073217741801,0
3.26783603236826e-06,0.403287352616733,0
3.50007599111544e-06,0.418085877520789,0
3.259404154045e-06,0.410657652417816,0
3.13604185262028e-06,0.396983446847793,0
2.81135469872752e-06,0.392835310318139,0
3.15588290593017e-06,0.410911094382851,0
3.18107990095981e-06,0.42886730465683,0
3.24879091054564e-06,0.435972608823128,0
2.91622858959643e-06,0.402831375050286,0
4.13256470389259e-06,0.461894440170414,0
4.329305236759e-06,0.443073747513605,0
4.12465848228491e-06,0.435486049300865,0
3.84401169083737e-06,0.441122491497629,0
4.22937469617434e-06,0.495305696429641,0
4.23874776114386e-06,0.491162349008954,0
3.96074287720639e-06,0.472112113880274,0
4.04198311926025e-06,0.444730868480374,0
4.11734650454144e-06,0.453300030707771,0
4.1876294320251e-06,0.475024964013558,0
3.02478775411281e-06,0.375039766281154,0
6.17262619559433e-06,0.277343466106378,0
1.56037221037695e-05,0.355362206085567,0
1.58540081627654e-05,0.318182368086883,0
1.49132371800075e-05,0.306401890070631,0
1.43268150556635e-05,0.294649174137943,0
1.40116251181612e-05,0.286807397041736,0
1.63084411649204e-05,0.325289388455441,0
1.96689399711254e-05,0.362888158711341,0
2.0955280123e-05,0.347627426534812,0
2.03939485400196e-05,0.354473761755883,0
1.69379725494446e-05,0.59508607259155,0
6.08766141091209e-06,0.466986239444823,0
7.47271743632227e-06,0.672645231632239,0
7.78107777677689e-06,0.647422768679997,0
8.35812229484069e-06,0.615659881111487,0
8.60609769487296e-06,0.598037765111105,0
7.57246699231804e-06,0.565690038529921,0
5.33192052349512e-06,0.469402379221864,0
3.72354540997096e-06,0.455836307569177,0
3.97854902261083e-06,0.502473596534822,0
4.59413437584064e-06,0.533794229325924,0
4.11552136512077e-06,0.500753033778262,0
2.28887055617063e-06,0.368631058951513,0
2.32971396943852e-06,0.312570125572652,0
2.54766222300495e-06,0.328666895072937,0
2.22614837676021e-06,0.328472194844847,0
2.51588640477683e-06,0.347379565423585,0
2.60693407481357e-06,0.36955938527424,0
2.50583915551767e-06,0.363649116099394,0
2.49996136376926e-06,0.358220554605129,0
3.04884334412073e-06,0.357035893511364,0
3.20782615078402e-06,0.329833235538714,0
3.40819886403289e-06,0.3549790640232,0
3.45248926570352e-06,0.467540923660268,0
3.77615081799786e-06,0.528992419001959,0
4.2073910791814e-06,0.52487462246411,0
4.1756555984779e-06,0.53004918597334,0
4.11752114465213e-06,0.527891263069475,0
4.07649173799676e-06,0.531722326052561,0
3.7857274405419e-06,0.507204301552815,0
2.24176748035016e-06,0.448287689531835,0
1.65614175498127e-06,0.46406850127323,0
1.65180346756618e-06,0.465091099941817,0
1.61521252429762e-06,0.465924530587846,0
8.59133376016155e-07,0.341775783418807,0
6.7680355738488e-07,0.327164758540558,0
6.82192690743261e-07,0.325149710514533,0
8.00485820863261e-07,0.335880481717129,0
7.99162429492919e-07,0.328871109253528,0
7.70565528767239e-07,0.341311457906051,0
9.05981003108753e-07,0.386674380748427,0
9.52008856832813e-07,0.383069529437127,0
1.01389436652747e-06,0.384503983474935,0
1.07081221656875e-06,0.392148438607275,0
1.16245393011776e-06,0.374779624640145,0
1.84665955683667e-06,0.44152568165817,0
1.92499269219135e-06,0.419377993185496,0
1.99183190368734e-06,0.437372316885058,0
1.93428815417478e-06,0.440682659524799,0
1.98631340975748e-06,0.443822474378477,0
1.88753723028688e-06,0.38383870503336,0
2.64185995986427e-06,0.401048441163444,0
3.38200992653133e-06,0.363713971581633,0
4.13852317069022e-06,0.257808992531381,0
8.97566041167913e-06,0.344428568859333,0
9.10571393374259e-06,0.328931950846994,0
9.1232463983923e-06,0.327822242552382,0
9.15131831024221e-06,0.327793064569139,0
9.1380727093421e-06,0.324938467386371,0
9.33318017351762e-06,0.324899280698545,0
9.30205776976101e-06,0.331890280841874,0
8.87049601049225e-06,0.349419663415057,0
7.57024175006633e-06,0.364369145345911,0
6.54965890104334e-06,0.554197347877019,0
2.49686465734761e-06,0.424879605143255,0
1.78330613523648e-06,0.389507664925363,0
2.30363883184082e-06,0.446785210379806,0
2.42267573515882e-06,0.442951347515713,0
2.44301172455296e-06,0.440871538471632,0
2.29342896358757e-06,0.425283688854389,0
2.34038718495294e-06,0.441244742824378,0
2.57110340038634e-06,0.416627383060071,0
2.71871843813132e-06,0.421067518887458,0
2.64266744498027e-06,0.434389144782771,0
1.71209304046345e-06,0.381012830550085,0
1.58591672920927e-06,0.417957401918386,0
1.34308463070078e-06,0.379676514732455,0
1.36783637692814e-06,0.388250693717911,0
1.80633164911923e-06,0.428563034307795,0
2.06132197174686e-06,0.446837119383829,0
1.97135653612455e-06,0.469385712333628,0
1.41425364804625e-06,0.472896864256528,0
9.95756839008594e-07,0.39819976906253,0
8.96454936038433e-07,0.322456048993846,0
1.87224670388415e-06,0.409824421358183,0
1.97007989354101e-06,0.361288963318527,0
1.91974046599432e-06,0.352808950638224,0
1.91757613073341e-06,0.350755214882456,0
1.79982829181945e-06,0.350697875020116,0
1.90798060832271e-06,0.366856179435913,0
2.03189194085641e-06,0.380632829014976,0
2.2810194313474e-06,0.374538822847168,0
2.33885783178476e-06,0.360406975388504,0
2.21114869459536e-06,0.393523114362842,0
1.19119915806556e-06,0.317676248543166,0
1.07561638903629e-06,0.354171612961207,0
1.12838615244078e-06,0.368582837876477,0
1.10276568018671e-06,0.376653789094354,0
1.05626740009947e-06,0.353308656195091,0
9.11192824997198e-07,0.303923097438823,0
1.25737159829381e-06,0.328012540122466,0
1.26667868068996e-06,0.32190608466188,0
1.21672426279456e-06,0.33994757519381,0
1.18899314960043e-06,0.341009352796251,0
1.20407263862274e-06,0.343086909845969,0
1.17736846270665e-06,0.346823735978731,0
