Activity,Complexity,Tag
0.00100959204672839,0.0516244518354528,1
0.00101183586065911,0.0668567082408375,1
0.000991170526337191,0.074393570387118,1
0.000936535207725879,0.0719811852935264,1
0.000877827481462665,0.104853406135908,1
0.000453636488750412,0.0874407003165395,1
0.000483066969298557,0.148492622335532,1
0.000391946224133996,0.111645043026758,1
0.000480601628615458,0.0940437322936619,1
0.000497570229927747,0.091687131093303,1
0.000499682384427149,0.102880601111348,1
0.000294641451612996,0.0689928861250502,1
0.000287525726646172,0.0524207916418789,1
0.000504771199204228,0.0555609366006628,1
0.000523459840216259,0.0430228561887128,1
0.000620552792114882,0.054428296087593,1
0.000883274749149238,0.0751190340888996,1
0.00105380844791948,0.0902888831900735,1
0.00107321192590194,0.108656632067285,1
0.00110964484577573,0.114296288419403,1
0.000979818985179428,0.102731061154282,1
0.000929281026127027,0.104531267754765,1
0.00117520841190894,0.122065934457721,1
0.000983441962866419,0.121558747635671,1
0.000917533592996103,0.144994729634445,1
0.000961474473070256,0.151290021354083,1
0.000920750689233567,0.151469806102824,1
0.000841108070875449,0.14184706392222,1
0.000884248543688946,0.121446856399736,1
0.00118879046574512,0.14212514686625,1
0.00161448174834897,0.158909363322267,1
0.00167511173414504,0.145088137158026,1
0.0025942078970611,0.0434454262470928,1
0.00792723914098774,0.0704135272155363,1
0.00833149697011278,0.0632162203053324,1
0.0108873594200379,0.0501012666817435,1
0.0149220314709765,0.0511944906747437,1
0.0128810806452342,0.0350760910461747,1
0.0187941393130244,0.0359620340320154,1
0.0219981674670368,0.040071491346349,1
0.0199038465043358,0.0257539692700681,1
0.0157366159116352,0.0212049161005136,1
0.0124310507420936,0.0193017834180858,1
0.0141715626128269,0.0198257949738536,1
0.0137702086795134,0.0131042983113836,1
0.0180111393897711,0.0213279067363668,1
0.0179118917923106,0.0196027155938703,1
0.0175633319498448,0.0213949649897437,1
0.0142034160218846,0.0195786912357607,1
0.0106665439316003,0.0121497881621386,1
0.0121138339142845,0.0136579081976751,1
0.0152752772734878,0.0134065614911207,1
0.0153985123551668,0.0114643902306512,1
0.0241293498208149,0.0158251217593376,1
0.0235061586099137,0.0148260928793732,1
0.0250503374458015,0.0050981476856254,1
0.0767000387277445,0.0174899155804758,1
0.0777167752990067,0.00847229940417267,1
0.0816897646627045,0.00883662171293332,1
0.073670929133859,0.00750244724783583,1
0.0718870963069261,0.00762389517682851,1
0.0746117553082433,0.00815987279243983,1
0.0685229747594683,0.00710478766355291,1
0.0737922576852292,0.00765591279309893,1
0.0817313494071446,0.00958820179399391,1
0.0805633690934092,0.0143309259074971,1
0.0289665722265889,0.00314580347681095,1
0.0266575289601891,0.0144306565611041,1
0.0267949853275873,0.00956108816556557,1
0.0388486378375575,0.0161993097661526,1
0.0394858848838646,0.0117439343047078,1
0.0398916666743615,0.0123171693648951,1
0.0397478730217451,0.0150792931007747,1
0.0376791463561377,0.0154092434874395,1
0.0387119223930446,0.0150521295885306,1
0.0386417364291882,0.0144378595633428,1
0.0411206570353468,0.0152160325572856,1
0.0351319969391144,0.0125415595916478,1
0.0347132493479124,0.0178360669832572,1
0.0251052919554126,0.0119671910579524,1
0.0209774861491183,0.0157526806736291,1
0.026107360390983,0.0239266813174689,1
0.0241498413239329,0.0146848055473005,1
0.0225547630778399,0.0149761369579769,1
0.0238250646388821,0.0160310853021762,1
0.0242060949848622,0.0183415504976155,1
0.0146776215107725,0.0117490747654266,1
0.0147245501836333,0.0121180139116029,1
0.0135363688900054,0.0102743953931466,1
0.0158126992552904,0.0101046213939618,1
0.0170144826991848,0.0123755700850973,1
0.0203428531317152,0.0159524754034139,1
0.0211745235136233,0.013405877274978,1
0.0218926256117714,0.0155188037315626,1
0.021394546610188,0.013071655468324,1
0.0219644510733849,0.0150862542968618,1
0.0215178175768046,0.0167199315108057,1
0.0162609583651894,0.0131436263733391,1
0.0128569032873663,0.00990344103898665,1
0.0130990544514477,0.00978743079655798,1
0.0138070625504753,0.00526833374681571,1
0.0744229164028414,0.0133176708221513,1
0.138392309609432,0.0153842502330961,1
0.128624920695071,0.0116626280493169,1
0.128281749027405,0.0086198647788641,1
0.159888734130699,0.0122149299105659,1
0.156551941831428,0.00697614285211301,1
0.157307233658404,0.00722118396872417,1
0.161238027406244,0.00733391923572768,1
0.154868790097883,0.00447588368453225,1
0.158301727888919,0.0052043593676095,1
0.135126078360962,0.00527649046696865,1
0.103562283946895,0.00504370229162172,1
0.10748494615641,0.00531875661689082,1
0.110484018380895,0.0058728221966544,1
0.0907108819553446,0.0039546745070327,1
0.0921595464127995,0.00572760558814559,1
0.092247132461263,0.00387074468393494,1
0.103765951644131,0.00492541904833794,1
0.10450259674684,0.00473346093440711,1
0.0994306621346433,0.00268403847401883,1
0.115219122545283,0.00558597653497155,1
0.108950444686806,0.00475533585137768,1
0.0958603608411508,0.0046387625683176,1
0.0869745719318238,0.00572897983404508,1
0.0838667621684812,0.00525919628741604,1
0.0729126144169586,0.00485402983100382,1
0.0628867161398004,0.0049629777852185,1
0.0513158650181632,0.00326750459906242,1
0.0572149779445353,0.00741139008376059,1
0.0718307044319442,0.0179314757979507,1
0.052952138187275,0.010008461477908,1
0.0510958696593557,0.009761349819361,1
0.0556641470324671,0.00911449258177914,1
0.0655089886521049,0.0099361022578121,1
0.0594403793944053,0.00708161397202045,1
0.0580536997330307,0.00761761121111086,1
0.0695530658815556,0.010734967946024,1
0.0597678342891898,0.00815682833664191,1
0.0566012771689039,0.0102606143136397,1
0.0450411699999972,0.00704502669106942,1
0.0449488104757396,0.00899482828556622,1
0.0440289055294959,0.0101717507435848,1
0.0396150572024196,0.00961819456410718,1
0.0342624401275986,0.0102092921966515,1
0.038460426526772,0.0109637007000664,1
0.0598950252725959,0.0124232403348929,1
0.0577149993081502,0.0115988343909115,1
0.0707027613737263,0.0169690033453078,1
0.0542086410333194,0.0111438288984853,1
0.0530118036468049,0.0111016271113618,1
0.0820270369856641,0.0157286533461057,1
0.133909968792572,0.0260421750586293,1
0.161896412563582,0.0315278685693504,1
0.149663535094642,0.0301696156194765,1
0.144501197202635,0.0301734258727038,1
0.143335487834684,0.0371762770520671,1
0.109732590580939,0.0364940589355109,1
0.108599147215583,0.0421091812129964,1
0.0857539796033414,0.0250915343988047,1
0.103798466243404,0.024841805384841,1
0.106336361914752,0.0288225476000056,1
0.0996488586196666,0.0269884871070432,1
0.100118712682069,0.0214552663129402,1
0.110401554363462,0.0249030172095908,1
0.11226151129796,0.0299401632754247,1
0.101711690988987,0.0293035887924551,1
0.0829515772173004,0.0232472024021415,1
0.0591945739785738,0.0172485907226072,1
0.0405197326443887,0.0175501033522822,1
0.0371316715536409,0.0147438779012429,1
0.0610868283453293,0.0254035612424066,1
0.0680894301470122,0.0143271055716324,1
0.0808338462876835,0.0174463734718307,1
0.0822785023580487,0.015618998267518,1
0.101492569548783,0.0178258778079468,1
0.112862788507109,0.0196242168395677,1
0.111082993727297,0.0191519055637646,1
0.120911756663571,0.0172431460133471,1
0.115819704661304,0.0125086595500725,1
0.108045318348348,0.0155679770824911,1
0.125015727863068,0.0159886156741418,1
0.121044481142361,0.0355101925446437,1
0.0459599372284397,0.0192167295598321,1
0.0489321051209624,0.0118642819189242,1
0.0690913860078747,0.0118968189077116,1
0.0693599970311919,0.0118066424763332,1
0.0667144776191257,0.0114732777880985,1
0.087224491553019,0.011075941890934,1
0.103193820739356,0.0108317743771896,1
0.105196470945038,0.0121361597461068,1
0.0948573164088434,0.0115780664450032,1
0.0817010791357474,0.00933398575625688,1
0.0741391982825898,0.00407245443849254,1
0.161225134815019,0.0171837195916719,1
0.219361999100386,0.0241006562304482,1
0.253743227074919,0.0274756195936498,1
0.276580279132619,0.0284677869456122,1
0.241273570459885,0.0380556342377728,1
0.187556373818926,0.0396789149010749,1
0.167421730187635,0.0352353511240725,1
0.131811525155081,0.026648719920371,1
0.0955355252581784,0.0158508609174888,1
0.0502002530666659,0.0121275683228659,1
0.0431543482123525,0.0177145093458809,1
0.036574677970035,0.0122960667899215,1
0.0437641119008597,0.0129522526313486,1
0.0449659610531022,0.0115932769472023,1
0.047125664918522,0.00735140110924735,1
0.0576953965175524,0.00727600125241632,1
0.0920866356523061,0.00894565071909887,1
0.092252110904463,0.00346664878990934,1
0.101087862599491,0.00596594305428094,1
0.10027502442402,0.00531848331041013,1
0.0973280212764388,0.0047534410895055,1
0.0944093845579247,0.0045768506755308,1
0.119461870309549,0.00700934016364832,1
0.122465710580034,0.0051492514988525,1
0.123055952120403,0.00585305189670025,1
0.118102817729332,0.00571054054502519,1
0.0948007133017158,0.00477233806449219,1
0.0900109889166741,0.0104300060911801,1
0.0740300801888725,0.00664600427090755,1
0.0698732139688727,0.00745504950839948,1
0.0692800885433871,0.00743787574547947,1
0.0687610476834129,0.00920634025535937,1
0.0495703159762228,0.00828387981435409,1
0.045242530353034,0.0155887869205239,1
0.0384982911981487,0.0168261501156787,1
0.0339890241269381,0.0233783056581499,1
0.0394561892868149,0.0289853398983642,1
0.0567758570297663,0.043882397771977,1
0.0652235229456278,0.0563310527048021,1
0.0845851312210701,0.0661859453442885,1
0.0768735817472453,0.0444875189370095,1
0.0815107743506212,0.0389917630685836,1
0.0775726940383182,0.0351011320926269,1
0.0565008057105909,0.0249636689142342,1
0.0561864551679035,0.0278708309703091,1
0.0621871159720378,0.0241964208309168,1
0.0505987635095357,0.0141176130894103,1
0.067075570712524,0.0137317642698813,1
0.0940672268129288,0.0201177213319593,1
0.131317473943666,0.026142944563569,1
0.108723146625552,0.0225923525972284,1
0.11349721263896,0.018891206951969,1
0.159803551612022,0.0223990399269809,1
0.154221969904997,0.0190671979670493,1
0.155064658703611,0.0179773125470856,1
0.155795334864526,0.0188477893775224,1
0.148550478768622,0.0217907961066438,1
0.150762875129425,0.0289981520101205,1
0.134555920004954,0.0265659150436878,1
0.0769752058728756,0.0157572272095903,1
0.0578047607402974,0.0116182441171285,1
0.0530510223744316,0.01915717966606,1
0.0374042841676249,0.0159673411399169,1
0.0594168025623115,0.0307616353184678,1
0.0599228089560672,0.0247386884396807,1
0.0723547902298655,0.0277758107157986,1
0.0743968770801773,0.0217098479214882,1
0.0856369547488325,0.0254313683263469,1
0.0913265702359491,0.0265109672626369,1
0.0941358778087842,0.0285932780984459,1
0.0907360594745239,0.0285373941253852,1
0.0923753816975864,0.0250739140670566,1
0.0921568581295658,0.0309566001036941,1
0.0887130576246177,0.0209405474844721,1
0.133463783018098,0.0212772938068526,1
0.143158810944043,0.0140861716313918,1
0.189289699646714,0.02095173929157,1
0.196388359820726,0.0180000865547856,1
0.196617437480275,0.0161553697509807,1
0.231034841886163,0.0185922377389863,1
0.246558968292376,0.019680479609753,1
0.291759650053692,0.0212460399498775,1
0.330826814399631,0.0207612153240165,1
0.241465126934024,0.0174128216844297,1
0.0858253108441697,0.00534452588249864,1
0.0809985371015823,0.0104377050684633,1
0.0871928369334518,0.0113826611986119,1
0.0765980417288821,0.0144201813363181,1
0.0524618647533988,0.010620051798661,1
0.0616903358659672,0.0128082239058288,1
0.0553585818863239,0.00940555834967514,1
0.050281346395993,0.0174543213232636,1
0.0513901652956804,0.022200224078188,1
0.0445230927775059,0.00860893374891693,1
0.0681581163525043,0.019506716981829,1
0.0714195143033103,0.0146950095132825,1
0.084367199947464,0.0111457966584101,1
0.10257976413173,0.0108371281499758,1
0.104555877283953,0.0108282134205971,1
0.0957372882927647,0.00898174343044948,1
0.0883847414093286,0.00748553819554687,1
0.0847016777066302,0.00685127650268956,1
0.0657299166047748,0.00339735315284842,1
0.0707147998846386,0.00907925881100992,1
0.0603102063569943,0.00686308591196632,1
0.0580773265444043,0.00791781477059872,1
0.0475560683074588,0.0125015967617274,1
0.0332376649735121,0.00979913711229904,1
0.118528712418681,0.0278422365956099,1
0.137697584385648,0.0166180037197864,1
0.137216468108702,0.0161806388534974,1
0.154451203186585,0.017329131208345,1
0.158198843541987,0.0149192380240898,1
0.273573019334138,0.02053021724082,1
0.340504937882841,0.0241644562474713,1
0.354863438568497,0.0221105829930039,1
0.30992112208563,0.0176765098449084,1
0.269789591032671,0.014861173558578,1
0.267638054426046,0.0154070697960297,1
0.244434721926433,0.0196926884910055,1
0.181540310098342,0.014605293618828,1
0.170876554091579,0.0128083868205725,1
0.12372302915147,0.00923572770171085,1
0.130442945975978,0.0223255529048404,1
0.123034787011645,0.0147202956457421,1
0.123605611234406,0.0125397657496805,1
0.130058812342215,0.017530082215899,1
0.146008080688099,0.0231977043944984,1
0.144484269034739,0.0252306927469853,1
0.153812108038136,0.0257710309642078,1
0.164245669968317,0.0257859488655908,1
0.160019824546971,0.0258991270620158,1
0.158046436806003,0.020945713942269,1
0.144386485893892,0.0160415514707229,1
0.0844578967510772,0.00759108903060534,1
0.115580416763873,0.0131878792609886,1
0.124505770515021,0.0104221898244862,1
0.152169819171502,0.0131617949230348,1
0.180158100535165,0.0154715442245859,1
0.184452822625529,0.0164535480925075,1
0.168992891510378,0.0148353594095304,1
0.187447830325957,0.0156784377600522,1
0.187861646867956,0.0153116790575319,1
0.17503709695267,0.0140128127220482,1
0.199468537655058,0.016126413247156,1
0.141600587005679,0.0124195880866201,1
0.136103918584605,0.013261396178316,1
0.136413313528407,0.0135186394030373,1
0.143695250279416,0.0131535358411861,1
0.159222534818438,0.0155314575611112,1
0.152111930389358,0.016107442553555,1
0.0828817992560234,0.00890210455484903,1
0.0940326727528254,0.0137332798168618,1
0.0728068004360646,0.0102368157468031,1
0.116687859852503,0.0095711858229021,1
0.166484351001882,0.00723489298230038,1
0.186035159619097,0.008781889232612,1
0.183945363298068,0.00797903731584249,1
0.212633511187522,0.00915892706033728,1
0.269671197109223,0.0124387094812847,1
0.300958192643408,0.0141934881199906,1
0.325681709835817,0.0153368966504176,1
0.310674046957684,0.0150985454876917,1
0.321100318957945,0.0153992242758304,1
0.238399326304643,0.0285732496918316,1
0.0591774258536121,0.0129749573774667,1
0.0590126903578123,0.012508047302818,1
0.0368987173039829,0.00732110732357927,1
0.0406589286395739,0.0102142161572201,1
0.0684145612330106,0.0156433084780465,1
0.0692869772551695,0.0134755506781651,1
0.0690366609325735,0.0134380651765243,1
0.0693935334902565,0.0129572399625129,1
0.072086727692441,0.00740219951969649,1
0.104914225104155,0.0134294704764682,1
0.108168832246893,0.00914971396179472,1
0.113861107817512,0.0073072637707857,1
0.141253300495936,0.008973927818544,1
0.149411502768592,0.00721205951409801,1
0.147984470637352,0.00481681971823587,1
0.149889007026712,0.00517422910651261,1
0.154179195679063,0.00496644658124703,1
0.148352150823053,0.00312704288386928,1
0.148964121984648,0.00506507653374558,1
0.122896994642452,0.00242102540216732,1
0.116022853497047,0.00340895501885926,1
0.131339970057724,0.00635293325941837,1
0.116186289925707,0.00309207821672977,1
0.114348372068363,0.00486290741006419,1
0.111931696867696,0.00687632797454904,1
0.104794432928026,0.00641680280923891,1
0.10084948663669,0.00489433626683349,1
0.18092700717259,0.0120619116445402,1
0.348603425456563,0.023337076337453,1
0.338974407447562,0.0200515921908278,1
0.331170155176995,0.0219605902004561,1
0.340698886987191,0.0247435870018599,1
0.310664396951732,0.0335578418920133,1
0.25874264490768,0.0240800682400744,1
0.243859432456906,0.0188969558313297,1
0.178085156765118,0.0117764383508054,1
0.132912060890974,0.0106188550458947,1
0.128569264841596,0.0141853191683632,1
0.0935221823532492,0.00989495113226755,1
0.157246179186303,0.0200701104249034,1
0.170991312404387,0.0182788753510342,1
0.168001282737466,0.0169140138719115,1
0.168938987488033,0.0175211768271557,1
0.153651635763458,0.020116431359921,1
0.130909181221419,0.0198962292957524,1
0.156889115524802,0.0320414171321632,1
0.166804966700167,0.0203488101225265,1
0.188196208645621,0.0236193852525391,1
0.186994657970996,0.0255454386070468,1
0.144232077799617,0.0216067872161537,1
0.139168982905554,0.0197828510140006,1
0.165429264791483,0.0234727628981184,1
0.166313412540577,0.0214700762759485,1
0.170883449624835,0.0173023781098777,1
0.208479703919613,0.0203624919993094,1
0.187332930166319,0.0162014846164937,1
0.228583212605214,0.0283022419114383,1
0.185411959989339,0.0209098248184559,1
0.157722704801097,0.0174163088147076,1
0.135646726145532,0.0123487735212679,1
0.176591328025755,0.0170052873913938,1
0.18659982433073,0.0154674291346844,1
0.173116670733487,0.0175984334602093,1
0.118084568112425,0.0135767073144547,1
0.1445913538555,0.0193148270169322,1
0.133935253423211,0.0199007551044942,1
0.140738674568443,0.0222962221770675,1
0.122193779764928,0.0162468283312253,1
0.0913896269719296,0.0123927169021549,1
0.0657761793473988,0.0171236942998873,1
0.0524331865532415,0.0172674707540015,1
0.0456640969066253,0.0187350952708443,1
0.0709350039618848,0.0222643157666732,1
0.120370983230652,0.0420084294005656,1
0.136874212303458,0.0473319848231232,1
0.127910613509058,0.031797963487598,1
0.130791622076032,0.0230805603600593,1
0.13071751287059,0.0244857552549354,1
0.13076559156698,0.0237425188848462,1
0.141979450074855,0.021387286383376,1
0.141612078301789,0.0185533013302205,1
0.139382283752979,0.0202813317236796,1
0.139022569230348,0.0246098659711352,1
0.105242904610247,0.0190215129922544,1
0.0715637007867945,0.0122082818370556,1
0.0366494652118076,0.00447644613027283,1
0.0538619818987913,0.0100104801059993,1
0.0713221376717556,0.0152328370861784,1
0.073342673165382,0.0158605306623896,1
0.0718627682044366,0.0215976722491847,1
0.0725237346181946,0.0239433776681875,1
0.072668260514833,0.0257500303697133,1
0.0770124821485344,0.0229659024674103,1
0.0792428532191229,0.0256817762385368,1
0.0659478241208543,0.0201113407017693,1
0.053492993032403,0.00872693245988655,1
0.0818710418562765,0.0109256206397122,1
0.0924161823593129,0.011775982768416,1
0.0957601681359082,0.0119428870859865,1
0.0990502332796199,0.0127927753058438,1
0.09920289870632,0.0143057216509035,1
0.0957971231425383,0.0145240919811294,1
0.0995917498944146,0.0123886323506406,1
0.105611253099542,0.012807752640238,1
0.130807255404266,0.0154827336828473,1
0.142303829430507,0.0217752790073032,1
0.155383286730743,0.0312601222184437,1
0.18155979525352,0.0255310092558425,1
0.258655655707245,0.0269230959155358,1
0.243563686469358,0.0267010103266384,1
0.215695255827624,0.0189151376559951,1
0.151529076313854,0.0136297791578862,1
0.114614255363396,0.0116238679655473,1
0.10708330413749,0.0100775023590825,1
0.10931530604191,0.0105158020506206,1
0.138937637206193,0.0156147991178928,1
0.241498499327765,0.0242324932177469,1
0.428003568854638,0.0365480880383235,1
0.425682510148193,0.0304389401293685,1
0.436586221123634,0.0293565982592787,1
0.464885874156928,0.034322557626051,1
0.472464490557225,0.0333862204392144,1
0.445392991174,0.0221549279391785,1
0.479570447728323,0.0246914285642313,1
0.479989854524292,0.0261248121595585,1
0.489365614395176,0.0263184901400281,1
0.44900403497444,0.0316683689524368,1
0.304705010363253,0.0247687222567915,1
0.314018668495675,0.0397759458106698,1
0.354373153826596,0.0417014185296845,1
0.275795094459693,0.0227413072974019,1
0.154347789192014,0.0109887202465936,1
0.24806692877923,0.0277292175273868,1
0.278471024540578,0.0295948241665919,1
0.345561528968048,0.0343948895802052,1
0.368582878531432,0.0236456926412168,1
0.375018441084516,0.0243362446043642,1
0.38536907682496,0.0250658954565879,1
0.424057221036345,0.0264249477372734,1
0.302983882327177,0.023073906915263,1
0.193115428006503,0.019395566662657,1
0.190150475896001,0.0203183612734579,1
0.230282597346463,0.0241538928642178,1
0.321202484157027,0.0319642567272641,1
0.350554213414492,0.0300690768545881,1
0.331813597216832,0.0590557847768634,1
0.160566574332257,0.0357167538903997,1
0.0993860464109808,0.0316910592835439,1
0.0865693497303203,0.0285630653481714,1
0.0530378981779751,0.0167050435662396,1
0.0395205929398373,0.0128770724441318,1
0.0292798099503226,0.00818573781157938,1
0.0250406188101245,0.00725595850415717,1
0.0609820537322631,0.021519405290665,1
0.0853413410666086,0.0185305438472565,1
0.0865007468327043,0.0189196074921037,1
0.0995769593467146,0.021060677619412,1
0.0950116695499513,0.0207407052372449,1
0.0890996406344176,0.0181944658731834,1
0.0903463276572939,0.0150011495916622,1
0.0921524563432042,0.00898253948993195,1
0.0865748157086695,0.0067742871114029,1
0.0972568403694499,0.00681202083122801,1
0.118933159254456,0.00953322494538864,1
0.111022308969607,0.0108944607575823,1
0.12384615245013,0.0141600229956168,1
0.116024844353785,0.0131093015064932,1
0.1167025898313,0.0107045014328288,1
0.108242689372567,0.00829499309513835,1
0.108271705445445,0.00949609997654062,1
0.118310107245196,0.0152884601838717,1
0.0773468682100647,0.00707202973146185,1
0.0768188159158141,0.00724987233816936,1
0.108529346361133,0.0109239184327757,1
0.113961295198301,0.00935212529530838,1
0.100738242843863,0.00728608288531234,1
0.114559274847848,0.00810213125886485,1
0.115379343153776,0.007364943909016,1
0.120493035574045,0.00812217803093565,1
0.116197791664555,0.00755779099908129,1
0.114822849002755,0.00738770925968442,1
0.124225464737657,0.0105939990106292,1
0.104606191310065,0.00858894481012858,1
0.105760698652712,0.00938418585559332,1
0.135439608210127,0.00696800625894171,1
0.190299539733697,0.009348011239434,1
0.189537014547423,0.00979518460320498,1
0.157195609346972,0.00920053995884904,1
0.144951169061939,0.00817681800757712,1
0.171247242832462,0.0115574371960373,1
0.168420906567102,0.012429263003183,1
0.195294729698902,0.016406255595981,1
0.218252565577626,0.0168125187064263,1
0.171979407953148,0.0120509629896087,1
0.150360645256895,0.0208509394509724,1
0.137209089661596,0.0262915163773497,1
0.126414657179276,0.0198255127770235,1
0.133254443553698,0.020844242689979,1
0.13172401836082,0.0162837460408699,1
0.186657576135214,0.0211462131280622,1
0.230762653219954,0.0248026680904338,1
0.200840213330344,0.0207085265600797,1
0.157557042361868,0.0200251478578984,1
0.160114006857517,0.0200561393429655,1
0.18353261558305,0.0221134714004238,1
0.186268297670764,0.0236242208362738,1
0.16646447539744,0.0222769238915078,1
0.0911539172661889,0.011176131942141,1
0.0648018238484899,0.0126643878498835,1
0.0873786113802591,0.0107971761930522,1
0.187947333521429,0.0244787452956296,1
0.359154396240148,0.0427013702050783,1
0.459750315034922,0.0371375276248193,1
0.430116244940233,0.0371560054990546,1
0.351019948461644,0.0341186842645792,1
0.30810560132905,0.0324589107235913,1
0.265770219956198,0.033689534473011,1
0.298035614967548,0.0246072751451964,1
0.292189232441331,0.015744375665505,1
0.276196789569723,0.0150748623268407,1
0.448688735698973,0.0195620733697478,1
0.521508880272534,0.0201406604799279,1
0.403441276863969,0.0151169318720329,1
0.444722318042695,0.015591726957161,1
0.508427741028447,0.0177490456328186,1
0.49945380421816,0.0167367129031801,1
0.408259032855726,0.0125723750146193,1
0.366445285547895,0.0133118240012369,1
0.314538287383318,0.0196345025213018,1
0.0903787621686626,0.00199755572266564,1
0.0934806580862194,0.0140994512787879,1
0.0898350160200648,0.0143883994021165,1
0.0557337888255112,0.010464554060308,1
0.0466670462814406,0.0215330577067151,1
0.0508491161469903,0.0210184187100095,1
0.0497394700985874,0.0198172573894831,1
0.049537570132398,0.0122083105908181,1
0.118168647083223,0.0193962853469238,1
0.14225574162611,0.0108310442398103,1
0.15154519609411,0.0130409357679311,1
0.144467119367477,0.0113796131635083,1
0.14918098963965,0.0101183225475577,1
0.151525714924609,0.00804141675358013,1
0.172129504569352,0.00905017373823681,1
0.157761105912956,0.00624161644155435,1
0.162912362887744,0.00686489300971591,1
0.21755372726039,0.00824932599207222,1
0.215521772146702,0.00500260813919971,1
0.212700114347725,0.00728355085220995,1
0.195601230875942,0.0063570710498549,1
0.196081506123779,0.0067000969289146,1
0.197317328319861,0.00874078932371407,1
0.196877065868572,0.00901061380673308,1
0.19792401353432,0.00677461146680511,1
0.20382303576605,0.00711891350182612,1
0.198654956430904,0.00647106968469128,1
0.132324436771418,0.00532693592938954,1
0.104402570753199,0.00863069173616287,1
0.129338068073314,0.0137186665939462,1
0.123570493243154,0.0105999444041649,1
0.123835598382408,0.00861626300923924,1
0.112286136067825,0.00627103422702554,1
0.103350413185438,0.00728364622238444,1
0.095071612483992,0.00898987008017813,1
0.171434456203901,0.0183652248969462,1
0.201441792869751,0.0147020085650036,1
0.179936923675241,0.0122208482970129,1
0.174029149664201,0.0107091759742947,1
0.194292171011108,0.0112984812231776,1
0.241850635534718,0.0171660046662024,1
0.259632414620175,0.0214886859812872,1
0.279480353567195,0.02539235189413,1
0.234321652062007,0.0194559734246278,1
0.285571890928256,0.0188450508257743,1
0.352185594608969,0.0242508407954452,1
0.366052851479592,0.0311097320266936,1
0.33716178959547,0.0276087240962335,1
0.383650595200963,0.0291916256410296,1
0.550254284288499,0.0287173326714248,1
0.864926209743769,0.0362500838479338,1
0.881888696676204,0.0276551705778022,1
0.890976035006212,0.0274198370804714,1
0.888100360599289,0.0278083910700472,1
0.813379103027586,0.031686915861654,1
0.678304527263663,0.0278451494252023,1
0.631424654961684,0.0265561641625668,1
0.607256950703359,0.0272401977286624,1
0.591211121451002,0.0313507903946911,1
0.489690463832712,0.0424494666678739,1
0.109801976923622,0.0123510998076736,1
0.0664826800893692,0.0159822112338261,1
0.0699071552867881,0.0165254472921832,1
0.0646897192547051,0.0180045164108663,1
0.0517909246976836,0.0216950109991773,1
0.0555224435528341,0.0246974965342261,1
0.0824927468991692,0.0317698747597912,1
0.145358118841618,0.0431377955252187,1
0.130494245273013,0.039105110374346,1
0.135900284413888,0.0377363424287759,1
0.141906150656357,0.0351066544767439,1
0.189128689124889,0.0408258338177646,1
0.227038187795583,0.0400468596814673,1
0.198408170772808,0.0344222342715883,1
0.199580781109411,0.0312385885976004,1
0.203195937450302,0.0284010519534172,1
0.207957955140704,0.0282946966707119,1
0.23044996079824,0.0373560575456738,1
0.182498328916987,0.0242694491892382,1
0.120144065163478,0.0154731602621725,1
0.0481652177169235,0.00658507533688424,1
0.0583989654071814,0.0156764181814006,1
0.0769390418511893,0.0187496795942407,1
0.0721095155994148,0.0202967513746916,1
0.0698625536647809,0.02782449022634,1
0.0607456451909193,0.0242132008833757,1
0.0543984594275737,0.0181738032195023,1
0.0646183291669919,0.0167727530989241,1
0.0473750918240441,0.00842182735303833,1
0.0516110280947137,0.00976875784514046,1
0.0542678090595604,0.00829511151498153,1
0.0591426690900729,0.0123563181336215,1
0.067204373228755,0.0183729806420742,1
0.0640124143154315,0.0160178425709389,1
0.0569444186162263,0.0148226347608994,1
0.0720674007319803,0.0194764615775681,1
0.0705325535824005,0.0129732648927409,1
0.0722716031374119,0.0176373420440442,1
0.0682971503154264,0.014933071511039,1
0.0641911024284276,0.00731374327489227,1
0.0841193044604111,0.0114224831667257,1
0.10735209634299,0.00406694089936044,1
0.151146984914324,0.00640652136782919,1
0.158566305785321,0.00736841535050206,1
0.15887898452332,0.0070361921347391,1
0.154876453200253,0.00639733902574633,1
0.153394465754642,0.00729598049922465,1
0.147109902853976,0.00416509496472066,1
0.193989794861054,0.00905078488253534,1
0.212882162003468,0.0100193174906581,1
0.168158477421381,0.00713731474448949,1
0.149660568179549,0.0140281067042818,1
0.124571731220412,0.0152312526034409,1
0.109265825426919,0.00886783695546628,1
0.124021533375505,0.00963829677244646,1
0.12746673774778,0.0099191614709641,1
0.108814396527333,0.0100777977161175,1
0.12187021512265,0.0126039374293572,1
0.165491568458495,0.0157141228461856,1
0.158793530293531,0.0156765285676766,1
0.150931451394502,0.0144922483026598,1
0.151328453189152,0.0145039294913795,1
0.141103454969578,0.0144086395515321,1
0.132317469525547,0.0169604937800723,1
0.125448060910597,0.0156108291150737,1
0.160634804649789,0.0179435359358907,1
0.177580754173235,0.0149636176171928,1
0.173295992030221,0.02020914265455,1
0.149942933998556,0.0173673164506894,1
0.142493239456212,0.0213050942582624,1
0.113618538718791,0.0188356745399765,1
0.1244382168216,0.0178308187611434,1
0.122708931479485,0.00988005490936224,1
0.115208446411605,0.00623062454976164,1
0.110346066578259,0.00693502551403396,1
0.110296622813699,0.00910333754861376,1
0.188741076223727,0.0174969819986202,1
0.246612068262079,0.0190827326685212,1
0.240296627615488,0.0203491500583478,1
0.253985689301336,0.0163283104879999,1
0.275643539692694,0.01377016625763,1
0.282276493428201,0.0112851346823073,1
0.353212215546767,0.0167877176042292,1
0.402067066954378,0.0211692375626335,1
0.440576444749743,0.0220740421003942,1
0.582707870095959,0.0265548585233321,1
0.529125481575647,0.0153296977016038,1
0.482430372141442,0.0122973767449777,1
0.564444635166825,0.0121014002746164,1
0.501379760091291,0.0120887189078309,1
0.28992936512832,0.00578666790734088,1
0.27104004067211,0.00659958680057171,1
0.295587261288803,0.00673943532359523,1
0.320365485217889,0.00793983589725979,1
0.351580724520487,0.00483929824266453,1
0.458326369712874,0.00795138846314948,1
0.416916632561751,0.0130971147553325,1
0.283485429745933,0.00937866203908133,1
0.311652926936286,0.0138571060358019,1
0.317596840597803,0.0166423312153063,1
0.306255901664818,0.0149665218872633,1
0.283922829746223,0.0136619462289309,1
0.27273620188309,0.0155260566254474,1
0.0868590473651837,0.000473920612647304,1
0.04078904987825,0.0147723655494928,1
0.0373099362844652,0.00888323725446669,1
0.0749121821005202,0.01790230922207,1
0.0823127945812174,0.0208003117141943,1
0.0742279586447256,0.016788451109633,1
0.0896656371494195,0.00600732529514555,1
0.156241152391269,0.0122151599170408,1
0.156901549711871,0.0120723768883738,1
0.162096389871905,0.0117478530342274,1
0.150413537245545,0.00885109696431806,1
0.148758005028229,0.00819617630209096,1
0.14426684056929,0.00700005263589141,1
0.141399061352171,0.00690317202928042,1
0.14691914468853,0.0071027544202677,1
0.144815009674159,0.00599435671104225,1
0.152392858746211,0.0126094302998557,1
0.105804864033042,0.00571723411991654,1
0.115626990308671,0.00145201248120816,1
0.231797565780859,0.00947007721893764,1
0.238914814530738,0.00723279177261698,1
0.220761773423599,0.00595699350470931,1
0.203523231086774,0.00504183749132201,1
0.205712739216541,0.00545424000989282,1
0.188536964181356,0.00485317796372163,1
0.181801833947145,0.00475383549306662,1
0.184645617202216,0.0048333175579113,1
0.167966029735174,0.004590707697656,1
0.183310308942602,0.0106206853958671,1
0.244493042200897,0.0173522691812192,1
0.236917630196976,0.0201130101996213,1
0.225383331825361,0.024275395218748,1
0.215175531361486,0.0284866130817132,1
0.195997278623783,0.021263116454201,1
0.243248012340346,0.0259159818386559,1
0.251794323054277,0.0326191095267491,1
0.156005577266648,0.0198617250350232,1
0.13993551240237,0.0178070841675778,1
0.158531382707115,0.0186559573522317,1
0.124221064668178,0.0163700413981352,1
0.131094267617367,0.0203209316943414,1
0.161391380803513,0.0174899047106229,1
0.138374630493699,0.0146734643468976,1
0.129417037153251,0.0170836407253221,1
0.146774286921414,0.0125219728278757,1
0.194230598844352,0.015108204698644,1
0.207873652823109,0.0119486497574632,1
0.252396841249073,0.0166569882033902,1
0.241300178613364,0.0152088011361662,1
0.239614981405385,0.0143791113099442,1
0.271982930127092,0.0168061389783028,1
0.286164325205834,0.0178972536683665,1
0.300125416450739,0.0155291733896579,1
0.302640560445638,0.0146186469201625,1
0.246089605150031,0.0182454273691691,1
0.136112140153164,0.010979347690203,1
0.134402470870534,0.0148109726384725,1
0.159056265562243,0.0170866862166148,1
0.158985838156633,0.0162899697012676,1
0.225154969098164,0.0203158306722225,1
0.221733743936114,0.0211292971514305,1
0.190061813334417,0.0178468268654018,1
0.18006035616889,0.0170839512553744,1
0.183084501891141,0.0132148006857296,1
0.238516591992046,0.019281819121561,1
0.259973073584125,0.0175792218310612,1
0.263926035980252,0.0199600510644085,1
0.336267388795497,0.0247297832052284,1
0.390873231360556,0.0330218573422492,1
0.328333016582085,0.0330201569570611,1
0.295435180961605,0.0315974897228756,1
0.238607416660957,0.0261470149933389,1
0.182664940949927,0.0214088340968715,1
0.0849905433606412,0.0127633024554435,1
0.0798374451703812,0.0125164151542909,1
0.0815088188406028,0.0135333636674439,1
0.0966180406939966,0.0255784771313232,1
0.0980814892288649,0.0172006918221953,1
0.0992627503608202,0.0164332662542187,1
0.0934669637122358,0.0147647728531544,1
0.0989528421801292,0.0167507792374175,1
0.0999994412458281,0.0163929660825656,1
0.0882306874603512,0.0113233449247052,1
0.0953688102941105,0.011989161950661,1
0.098277091156497,0.00854810113619842,1
0.10449420634306,0.0112290729571494,1
0.0691916413784097,0.00438304337469339,1
0.066927131918543,0.00707572403567981,1
0.118941483223705,0.0160459772265542,1
0.148355339359814,0.0220303600837507,1
0.148018349165341,0.0235820919228101,1
0.161710275259627,0.0290671994450636,1
0.167264971024817,0.0219308031417783,1
0.133934500179816,0.0153446116515306,1
0.122100781810902,0.0145983015442928,1
0.127927354229098,0.0111610773462296,1
0.129173885456287,0.00670163068422012,1
0.178311911874214,0.00869256220703025,1
0.178649784665687,0.00668283011050651,1
0.194863656229739,0.00536235326182989,1
0.219441515866746,0.00506825069270896,1
0.234504976996006,0.00503088519994979,1
0.216989609708166,0.00568145009061233,1
0.175108347756897,0.00423214569324569,1
0.171027595704311,0.0049441138973162,1
0.173713756581949,0.00665011213226058,1
0.152224436361392,0.00809747298595695,1
0.120920492843428,0.00849770318657345,1
0.10816042404613,0.0117900015480272,1
0.099675093443852,0.0179915658021298,1
0.087827751651132,0.0258548106218988,1
0.0431151731776373,0.021791423554607,1
0.0224615744145959,0.0143493698413524,1
0.0595000313626961,0.019305682069272,1
0.142604192247812,0.0473698753543673,1
0.229704775720349,0.0620522812405535,1
0.227771499048415,0.0429261070736437,1
0.220448010271613,0.0360026859663196,1
0.230457826825775,0.0356652129464192,1
0.223835389864257,0.0307932083700365,1
0.230605610337491,0.0252784193464292,1
0.209451827183203,0.0221430965251651,1
0.22771859241149,0.0226587803602776,1
0.236989153377501,0.0214593074933289,1
0.247366990602442,0.0184489583154025,1
0.257779254188057,0.019248686124294,1
0.272138560819998,0.0160071494961063,1
0.283481180646695,0.014750272079302,1
0.276397832898947,0.0148185868254937,1
0.27416714549992,0.0164887001769329,1
0.258829388998107,0.0195772235299175,1
0.32031781000314,0.0222020100022294,1
0.241581813647092,0.00839177909574434,1
0.204454457398488,0.0073690537545102,1
0.229202513724654,0.00780283208813989,1
0.248211211567491,0.00886779223125581,1
0.213995501967288,0.0110557486577138,1
0.163094873596018,0.0089977005525404,1
0.183434462234075,0.0107926673183539,1
0.185042004655272,0.0103293016979291,1
0.229147361216308,0.0124878466119948,1
0.199307766643844,0.0102219165862297,1
0.181197192475921,0.0198563244364195,1
0.179836724878441,0.0227389231878717,1
0.213806052706747,0.03547745609293,1
0.282633618022862,0.0413965298298591,1
0.363682258873635,0.0421931521470158,1
0.374406432984888,0.0420326526555924,1
0.406958457751966,0.0423602226772532,1
0.469188326023193,0.0469339081511894,1
0.335160674955447,0.0454708090910652,1
0.17996169041346,0.0279319645106095,1
0.0918028384488555,0.0173072685334984,1
0.0731184598009041,0.0152159467280106,1
0.0591253717260687,0.0103329885710122,1
0.0560057701686958,0.0120690664838633,1
0.0520866033136823,0.0177381920525231,1
0.0309019257551607,0.0110788463533152,1
0.0383669422546944,0.0377223615069872,1
0.0279014738162539,0.0232544731047026,1
0.0257770231077919,0.00658755890245484,1
0.179061078954995,0.0236999205452765,1
0.250827502112783,0.00974643198782117,1
0.233274444515052,0.0113063780107675,1
0.225152541349188,0.0121631335738596,1
0.232455255055247,0.0131460485068966,1
0.204621287317156,0.0106699823948693,1
0.198770580518247,0.010816700497832,1
0.200637937445844,0.011238018453235,1
0.16987060783013,0.00883206240226241,1
0.148456436186733,0.00845983429738263,1
0.117349395154025,0.0114087850666319,1
0.0758514871183661,0.0206829337063122,1
0.064837114611625,0.0185067965158914,1
0.0754781828333529,0.0196805098088437,1
0.0750132682558155,0.0107818859274068,1
0.135185182400095,0.0212351460069788,1
0.137995394054773,0.0182883924880517,1
0.125217945140462,0.0166667547860626,1
0.13051872154231,0.0171833515464987,1
0.155906681914929,0.0209764381380887,1
0.147953526054517,0.0158965116269208,1
0.149411405760507,0.0179207023849453,1
0.155043179294651,0.0185222083467287,1
0.143792818124797,0.0167485321188491,1
0.144841646422281,0.0259744697954528,1
0.0945003081805343,0.0157393392502426,1
0.10448242851827,0.0187515371588616,1
0.106235275347585,0.0162702006045635,1
0.100945280592092,0.0164657610130537,1
0.0714377870696621,0.0112001221794795,1
0.0582691751492656,0.0115601208819748,1
0.0610991997726575,0.0102473115523139,1
0.0709517494728271,0.00241598835460119,1
0.156612662547188,0.00982113726939208,1
0.160196700528343,0.00680130273454099,1
0.167136698521416,0.00757458805577709,1
0.165092486541333,0.00726957248035816,1
0.189613302093403,0.00937452513147349,1
0.196776733348004,0.00972466547418534,1
0.201573240248914,0.00902789533492881,1
0.207409081478845,0.0089108938192102,1
0.216432536832235,0.0088363558504044,1
0.223799063183864,0.0180305635796136,1
0.0804984594022999,0.00465147584159679,1
0.080838267453318,0.0116473092614979,1
0.103061511365944,0.0162632059329591,1
0.116944939962722,0.0207840285257039,1
0.124354611616345,0.0222901131237263,1
0.136821149400002,0.024227338877272,1
0.109818159538463,0.0331044893356584,1
0.0520934770544762,0.0197103336915387,1
0.0426088132770077,0.0295397675734308,1
0.0415594535214873,0.0377509915314043,1
0.01503403123252,0.0195033852547599,1
0.0050294045914602,0.0813887619122022,1
0.00520408743168718,0.116390174437147,1
0.00447403760098179,0.108031023670995,1
0.00187725666999158,0.100032192774982,1
0.00034072999255106,0.27533705654118,0
0.000255317716695754,0.294687130154058,0
0.000263237111529783,0.336122841697126,0
0.000253878639421181,0.411890136280746,0
8.10106066600051e-05,0.430193513426201,0
1.89327775904536e-05,0.457226329524193,0
8.07301633141694e-06,0.405262586470693,0
1.05290190325043e-05,0.472784205125563,0
1.11838824232896e-05,0.478930774838084,0
1.34211011212159e-05,0.503528173314329,0
1.34814464276303e-05,0.493377382929615,0
1.40810053075833e-05,0.504328764403867,0
1.39569548386303e-05,0.498783773365219,0
9.15363618411657e-06,0.579231512309284,0
4.86875252550142e-06,0.500376682686821,0
6.14613580994697e-06,0.428227644726944,0
9.39032562346743e-06,0.472285943053194,0
8.76520348677364e-06,0.435717464765039,0
9.34392481694412e-06,0.422604922481248,0
8.80728018818444e-06,0.414444935830892,0
1.30482639881523e-05,0.51579430063108,0
1.45035433531555e-05,0.534776946254719,0
1.40537057180267e-05,0.53487638252111,0
1.40387930791644e-05,0.534792801264741,0
1.39052628772185e-05,0.541122064606668,0
1.38797867560971e-05,0.739043216953363,0
9.30102406153274e-06,0.679410074300378,0
7.91983315731436e-06,0.553935840867932,0
4.30413316173416e-06,0.418639029171242,0
4.34312386182448e-06,0.438245646860541,0
4.11719536027032e-06,0.428438513448215,0
3.73603070718089e-06,0.424092469120034,0
3.40553510557126e-06,0.412304028345597,0
2.78240604057182e-06,0.380994956811975,0
2.70132245674138e-06,0.379778214213605,0
2.45563190790699e-06,0.366502602521747,0
2.65871064926791e-06,0.375724615932921,0
2.24865415877675e-06,0.492466885465812,0
7.32022137359245e-07,0.403007027194518,0
1.51433817623692e-06,0.470409244026044,0
1.51289732653049e-06,0.467927305562428,0
3.82129026557086e-06,0.565074319634408,0
5.25522389341135e-06,0.513254230752947,0
5.44246589154647e-06,0.486187512258269,0
7.15437039202231e-06,0.53119257461795,0
7.60425221735813e-06,0.523159588351979,0
8.14410468170612e-06,0.513813328577003,0
4.73424749381353e-06,0.396772759364692,0
3.19655774957523e-06,0.336294395221892,0
3.53035563556063e-06,0.319464066307856,0
4.46513489048564e-06,0.323909242002594,0
5.90513860341225e-06,0.344425591341565,0
9.20315099983801e-06,0.454336567392658,0
9.50396914307749e-06,0.480528508310444,0
9.76275959869207e-06,0.497085820596254,0
1.00305707693046e-05,0.52427180862596,0
8.34125757855086e-06,0.506744841771269,0
8.93334177835292e-06,0.527127544296743,0
9.20222238309418e-06,0.466645752637248,0
1.02683862809368e-05,0.555142849734959,0
8.00145309200204e-06,0.551883254705561,0
8.42167628648547e-06,0.67375439456056,0
6.82130740162692e-06,0.628215612762303,0
6.65262404562845e-06,0.627144616919363,0
6.45206274567146e-06,0.60122561762373,0
6.04061908723941e-06,0.580680936743492,0
5.48028166116883e-06,0.547079438230712,0
3.42849160689826e-06,0.40305452209222,0
4.01158278838143e-06,0.515760629345653,0
3.43922796000234e-06,0.446734571024503,0
2.6719560414126e-06,0.414822081199533,0
2.56951862925475e-06,0.382876183040133,0
4.04808825612714e-06,0.454750473660101,0
4.36221216404761e-06,0.446676473655244,0
4.39511021715035e-06,0.444934041451464,0
4.80796422782205e-06,0.457987110359548,0
4.97722158971328e-06,0.46459716832377,0
4.66519640542567e-06,0.485207863272225,0
4.47140678789026e-06,0.483837478248953,0
3.99727325248485e-06,0.491947568391523,0
2.3599263447447e-06,0.360842476452418,0
3.313743954511e-06,0.451492604382199,0
2.76791476466908e-06,0.376847058805547,0
2.90382065703808e-06,0.403847303589926,0
2.50783236789765e-06,0.379759389259345,0
2.65002820719243e-06,0.378204124639477,0
2.8900868386268e-06,0.392064071297328,0
2.73466552390032e-06,0.382724863561335,0
2.71797858598814e-06,0.384838203170949,0
2.90190242861682e-06,0.402522546580199,0
2.94750298783557e-06,0.433753690838402,0
1.92470757696129e-06,0.387454743190104,0
2.01773869900541e-06,0.45080813680633,0
1.85544471789844e-06,0.412655064700518,0
1.90617880989413e-06,0.421751352806496,0
1.5931150001432e-06,0.42823403381579,0
9.77674875558804e-07,0.38641928211742,0
1.15287395309688e-06,0.422264015661075,0
1.27837180692773e-06,0.446543687580655,0
1.37691472369657e-06,0.402235862933869,0
2.79215651638217e-06,0.527154966401213,0
4.55484147745118e-06,0.666392931795668,0
6.38033519337428e-06,0.7429160330378,0
6.18630284089913e-06,0.663302947560697,0
7.37373975982648e-06,0.703856945628367,0
7.65322181306107e-06,0.715137372810148,0
7.3091556167272e-06,0.718106203081013,0
6.9043227510195e-06,0.679692621913964,0
8.70942190842514e-06,0.732451502707191,0
1.28922140521716e-05,0.992141602828484,0
1.2634566473565e-05,0.84648493487569,0
1.04632762968657e-05,0.768705344281988,0
7.64165829397002e-06,0.662523030674867,0
7.27502832899371e-06,0.666816652966961,0
7.15366210391608e-06,0.657434040595296,0
7.51266256741772e-06,0.682840404097667,0
7.79339735078043e-06,0.684536348898358,0
8.93771209646357e-06,0.742867130885841,0
7.74664053301218e-06,0.712802309567134,0
4.75881849368847e-06,0.568502576411389,0
2.44739183469926e-06,0.449263489840559,0
2.34634952604765e-06,0.455013912658003,0
2.09344072474227e-06,0.437506063174878,0
3.10643586802368e-06,0.522648767069995,0
5.95302040426664e-06,0.639310807681221,0
5.72668361009588e-06,0.538177598587315,0
5.03653916261671e-06,0.510072667102247,0
4.94360949132946e-06,0.506689831372665,0
5.41221567207811e-06,0.51829191206329,0
6.26429917861454e-06,0.580792256108355,0
7.04421540917447e-06,0.624449059320368,0
7.64652528511122e-06,0.650481639934314,0
8.6125941629645e-06,0.701624137635916,0
8.09143228897683e-06,0.758709534913744,0
3.17740425123688e-06,0.510884707607621,0
5.29874191132655e-06,0.74190454806729,0
7.06514725214509e-06,0.831082706748317,0
7.33909479315419e-06,0.798485388304369,0
7.42670078929502e-06,0.772210826095636,0
7.45432278064336e-06,0.692661244327091,0
6.73554992541184e-06,0.63615877039206,0
5.89607649899513e-06,0.553391486880852,0
4.23818519059202e-06,0.45752355300296,0
4.23762690023061e-06,0.460181636391969,0
6.02391643379587e-06,0.528286904139579,0
4.44669139184604e-06,0.456814351215733,0
3.57783956895288e-06,0.411922716144697,0
3.45996328103137e-06,0.411548396995689,0
3.02456837481732e-06,0.421577294613864,0
2.67508841133055e-06,0.416970864957079,0
4.69028710703058e-06,0.537906860474247,0
2.86528430696317e-06,0.448401560230257,0
2.92690163782136e-06,0.468091195564651,0
3.64421839461307e-06,0.51958784049092,0
3.60193956968513e-06,0.542498195601101,0
2.15524181839778e-06,0.44811761232795,0
2.81022159747468e-06,0.492464758467808,0
2.54277810805618e-06,0.4562281443739,0
2.13717284732226e-06,0.421941122772633,0
3.07363319730431e-06,0.487817995773181,0
6.10691357806797e-06,0.640500248874629,0
7.0948984645931e-06,0.612573336323179,0
6.76251450963171e-06,0.598766449262385,0
5.58229879956242e-06,0.551560766689044,0
5.60604574543681e-06,0.568417241521204,0
5.5987325773804e-06,0.572908488360981,0
5.63333024185931e-06,0.594551627495453,0
5.80638158197861e-06,0.627469436148703,0
5.58159782462425e-06,0.596980776941539,0
6.00429660429442e-06,0.638727749992692,0
2.94504840855706e-06,0.519463824385492,0
1.65016315695933e-06,0.488399396861192,0
2.83282333235129e-06,0.622737030748418,0
3.90795364102902e-06,0.738259838082275,0
4.54068442888855e-06,0.831117400509226,0
3.80170606831378e-06,0.737447260275443,0
5.25173302265932e-06,0.602875003360693,0
1.09754359721746e-05,0.825459517885226,0
1.10284329450861e-05,0.7620790219618,0
1.12287585120728e-05,0.799407628473402,0
1.13694296336275e-05,0.809419076850437,0
1.08715191216788e-05,0.796026630367882,0
9.86221619467e-06,0.726261887947462,0
9.05834716033487e-06,0.692855579129112,0
6.32720985102346e-06,0.564734233104073,0
3.05875650188507e-06,0.41595266196623,0
2.5774331886843e-06,0.490591297207129,0
9.66568040472976e-07,0.364758552756884,0
1.78131720168419e-06,0.48205427833171,0
2.5745787191525e-06,0.507742379421019,0
2.65567584012381e-06,0.496189908707372,0
2.61065162078764e-06,0.489653616479636,0
2.67087602653006e-06,0.519976456174185,0
1.93427133358722e-06,0.449482833215378,0
2.65399536746404e-06,0.492940455392762,0
3.8687083804506e-06,0.572321189155485,0
3.99445363720082e-06,0.571808780320915,0
3.98661407664367e-06,0.56922184522013,0
2.64301627942022e-06,0.468863297664507,0
1.41282082286029e-06,0.375008649880122,0
1.64839430388561e-06,0.36017941693523,0
2.41503215524493e-06,0.407631120658347,0
2.442801187951e-06,0.409078759303457,0
2.20376935643161e-06,0.404626828498578,0
1.84444835833006e-06,0.402350684379842,0
1.41850766682041e-06,0.358744904534952,0
1.9166176570977e-06,0.386561152267907,0
1.95649091653305e-06,0.36841184648018,0
2.30649976210968e-06,0.411497596624281,0
1.5213108929804e-06,0.371548826249837,0
1.66249860427864e-06,0.427380723711015,0
1.70719357545296e-06,0.449101924600338,0
1.81245200328873e-06,0.475755553873194,0
1.6532261295804e-06,0.456055582175195,0
7.99275275600474e-07,0.353621567701766,0
4.09375587865295e-07,0.321819794050934,0
4.12952038243518e-07,0.316102741621575,0
2.53786054713587e-06,0.478629539242378,0
3.8582272102319e-06,0.53343186537659,0
3.94251956324658e-06,0.524215764617116,0
4.03135012603856e-06,0.50641476242318,0
4.07194785590945e-06,0.499110192896243,0
3.79857540998836e-06,0.47354181914259,0
3.26207828938437e-06,0.422029693712472,0
5.10529601268979e-06,0.466517124050662,0
8.079039269909e-06,0.532301463188491,0
7.50569311825997e-06,0.484739494799318,0
7.14453573697966e-06,0.509650930420831,0
1.03675629537374e-05,0.474086490177559,0
1.48152693199501e-05,0.539319289683942,0
1.29891760798457e-05,0.48165284036802,0
1.28428454998113e-05,0.476798354339512,0
1.21093751995775e-05,0.455758185949837,0
1.08668772827542e-05,0.446695956137432,0
1.14231941779863e-05,0.491169539931895,0
1.01378448307361e-05,0.488246688446344,0
1.04683072896905e-05,0.505425586494914,0
9.7083905509737e-06,0.488265491584482,0
7.76367243461757e-06,0.6120280654222,0
4.05826569647252e-06,0.476879307036745,0
4.27015696094072e-06,0.52041780596684,0
5.2158736032917e-06,0.582022097226716,0
5.41758369303083e-06,0.581567200589439,0
5.29889875544146e-06,0.566116205764778,0
5.47319115573986e-06,0.48597167508692,0
8.11063946908071e-06,0.573744011572184,0
9.33723513536436e-06,0.668784153242121,0
8.62896570105434e-06,0.621639007258104,0
8.72252570518833e-06,0.615179179145823,0
8.72055768498456e-06,0.625128328377711,0
8.45161110613148e-06,0.61372669695464,0
6.48105525583344e-06,0.54412793037962,0
5.24922149402956e-06,0.496515472804068,0
4.83369802141797e-06,0.479542685039346,0
4.18633125028777e-06,0.545159389256348,0
2.85257122009338e-06,0.476994068388841,0
1.59273953898319e-06,0.392837072089575,0
1.97499930008924e-06,0.445345068645231,0
2.43784426040265e-06,0.482348602889716,0
2.33425821406198e-06,0.479200879019251,0
3.37989809475261e-06,0.510056800187681,0
4.86485756331443e-06,0.600589717052256,0
5.36573442070618e-06,0.655137467635656,0
5.05120579895348e-06,0.663364783415742,0
3.88482458005575e-06,0.573641587070458,0
3.14287738444873e-06,0.539219817751918,0
2.51752745034995e-06,0.485681790606938,0
2.35913667819393e-06,0.486776447609199,0
2.32285636266476e-06,0.498340552385845,0
3.5299386293821e-07,0.308555663002469,0
1.47901666371974e-07,0.337481329632567,0
8.6802216731705e-07,0.443610949547295,0
5.04316816046153e-06,0.651059639259197,0
1.32797746153239e-05,0.696468104137041,0
1.25753441274456e-05,0.57805938922477,0
1.21146557737122e-05,0.565745591509048,0
1.29185223184582e-05,0.584704743930284,0
1.26710384874568e-05,0.578485708570659,0
1.2563140161552e-05,0.574404771441508,0
1.26579549186052e-05,0.459087369607027,0
2.56366137291899e-05,0.496521955910645,0
2.82052250588077e-05,0.406551083544556,0
2.75700025034321e-05,0.441606278525548,0
2.22463037059161e-05,0.434239189565696,0
2.20309218818945e-05,0.463383357869668,0
2.1869223068188e-05,0.459476399482605,0
2.05337099004511e-05,0.445583886563803,0
2.0798692431019e-05,0.449452189343008,0
1.97527486648558e-05,0.438734214947982,0
2.05452609715966e-05,0.536686512620056,0
6.76412107261431e-06,0.484475159043542,0
1.78624409856372e-06,0.437969884229754,0
1.78488431610319e-06,0.434184726517543,0
1.61716007431536e-06,0.420154100352854,0
1.47641971106313e-06,0.38317343816119,0
2.72800665098599e-06,0.470460286500861,0
3.706917296347e-06,0.545199635290537,0
3.46675410216936e-06,0.513068967907017,0
3.75744553044188e-06,0.531522689623466,0
3.95817114328116e-06,0.553550655782309,0
3.25852564570217e-06,0.540700634777638,0
1.40931408097759e-06,0.423434531684994,0
1.39251511155476e-06,0.418569651493374,0
8.80696043158113e-07,0.31969220821409,0
1.3403376802635e-06,0.337540381517483,0
1.58263803110614e-06,0.35680256390518,0
2.0582752783434e-06,0.395423993838991,0
1.7528812702911e-06,0.377355471758899,0
1.80755513707803e-06,0.346024861264602,0
9.04008773569124e-06,0.497470267369519,0
1.41460794329423e-05,0.502790458050877,0
1.41335115202384e-05,0.500555711818962,0
1.31930101003076e-05,0.482310418540684,0
1.49744902144802e-05,0.549307959521556,0
1.64415590287876e-05,0.534751937425916,0
1.57695380121461e-05,0.525506822863121,0
1.53129537460862e-05,0.484858087181927,0
1.5389798648831e-05,0.431054522713163,0
1.50111526819401e-05,0.453919686359981,0
1.05943531643277e-05,0.467528332202895,0
6.46532105255976e-06,0.431748444804531,0
7.3654693447513e-06,0.457763056166644,0
8.7105134376574e-06,0.49748938066703,0
7.46318198354676e-06,0.483172253017925,0
5.93276930832253e-06,0.492110295497438,0
6.49899227868531e-06,0.506674302110295,0
5.58998151600466e-06,0.558965032693595,0
3.7836090893606e-06,0.561552562234826,0
4.11021206277306e-06,0.582064036172425,0
2.5237039653712e-06,0.463219261005115,0
2.19676567542339e-06,0.430667710350386,0
3.11774482662664e-06,0.448182718781809,0
2.58865112168486e-06,0.408445381011157,0
2.58096451525962e-06,0.414517924273866,0
2.51669452718812e-06,0.408390384018931,0
2.31239884354275e-06,0.403372714285962,0
3.36195733751705e-06,0.441577103192045,0
4.33758452602006e-06,0.492792669146418,0
4.03824426512526e-06,0.507710515358624,0
4.22743638954232e-06,0.481158294173063,0
4.34114386047305e-06,0.493339886542648,0
3.05079853024514e-06,0.478273031457416,0
3.09433101889713e-06,0.476892105375104,0
3.49101141381448e-06,0.455231505028308,0
3.77178478580864e-06,0.457779852366016,0
3.67186839383908e-06,0.454629975395411,0
3.60338524297049e-06,0.450543491006247,0
5.28972337471912e-06,0.525089295559666,0
6.06839916749723e-06,0.506521425646866,0
5.87605273365807e-06,0.530006918623439,0
5.66996594623615e-06,0.530878593620068,0
5.56680344124548e-06,0.528280186826553,0
5.11041071794898e-06,0.503346033078552,0
4.57640754325154e-06,0.523630673701723,0
4.29530430069824e-06,0.440092724367047,0
7.58068187671235e-06,0.54976375963031,0
9.29687391646041e-06,0.618728903982743,0
1.20628536479816e-05,0.684846868325995,0
1.20303221868776e-05,0.650149554818991,0
1.01164928696006e-05,0.589090913738864,0
1.16895833264101e-05,0.637603951015035,0
1.32093254670427e-05,0.680087815116644,0
1.43444474048796e-05,0.722140237677349,0
1.45763310036222e-05,0.724424115634519,0
1.46552850551544e-05,0.780051774968408,0
1.1927482239278e-05,0.701366678304224,0
9.862539685657e-06,0.645179406547297,0
5.32581199188561e-06,0.504287108527455,0
4.89084264981273e-06,0.543353291191027,0
5.57466509690611e-06,0.579074622302579,0
4.90126422549174e-06,0.496143515276335,0
4.01071314378e-06,0.446783672074072,0
3.2502477618596e-06,0.40538797055507,0
4.30268297606851e-06,0.395528049705662,0
7.02113427279187e-06,0.551243371210391,0
6.00538766672871e-06,0.524506400920364,0
4.70295958247776e-06,0.469161559479846,0
4.76991723760964e-06,0.479555354242794,0
4.81189155466765e-06,0.479193941643364,0
3.40451390723181e-06,0.43460802042371,0
3.57870719076315e-06,0.470285238956804,0
4.58141784136678e-06,0.511074257317711,0
3.47018226639528e-06,0.464715909757082,0
3.3039226810099e-06,0.582462892899022,0
1.80173556689766e-06,0.480595285139407,0
1.29046498610525e-06,0.433615506228738,0
9.52647502877276e-07,0.397250817076289,0
3.4897193170583e-07,0.332155101751039,0
5.41972349488427e-07,0.381666346541705,0
9.60705836078829e-07,0.437981131457385,0
1.2733003582796e-06,0.532670032394207,0
9.36073841270308e-07,0.452014126370661,0
2.01604515600273e-06,0.54427602685468,0
2.44776854065382e-06,0.533000401327394,0
5.55088329678398e-06,0.67671272259171,0
6.34468676668506e-06,0.5311530797689,0
9.29517726147132e-06,0.599063550305756,0
9.81280967607552e-06,0.576644871773324,0
9.58841974060096e-06,0.564731340685622,0
9.7960796371516e-06,0.568030710726981,0
9.61219282716117e-06,0.563008269658793,0
9.49077821069491e-06,0.571733036793185,0
8.53331148566778e-06,0.545756318112344,0
8.66837589691233e-06,0.545799396567834,0
5.28321309915572e-06,0.450699034163528,0
4.59198381321508e-06,0.560105497950325,0
2.70166679803731e-06,0.479290350949213,0
1.97504208990233e-06,0.447771965624572,0
1.94584543343206e-06,0.436043789593466,0
1.36255726320933e-06,0.380822316275685,0
1.2440048962409e-06,0.351686080877424,0
2.39794237069236e-06,0.458992482239803,0
2.48368335337949e-06,0.467883118471505,0
1.91141939500349e-06,0.45600877041995,0
1.75770095923891e-06,0.447202494312664,0
1.60016847293393e-06,0.437564776186855,0
1.00816362878526e-06,0.380426517693333,0
1.17845323656768e-06,0.369173256311189,0
9.46443446776323e-07,0.347561467585088,0
1.67344081528354e-06,0.4045166852,0
1.64031309758397e-06,0.401700553924644,0
1.295792706834e-06,0.377122259919198,0
1.30039331193876e-06,0.390840925702542,0
1.22149200857621e-06,0.379976441672867,0
1.25558817644563e-06,0.3767658203287,0
1.24524471162543e-06,0.364274516171506,0
1.47164794670598e-06,0.395195275055617,0
1.55423882115265e-06,0.453625046124014,0
1.82336262763161e-06,0.42010856883061,0
2.5181571607994e-06,0.423564051963021,0
2.40455798699564e-06,0.422099375691502,0
4.2008331069443e-06,0.459495363754883,0
5.640252544423e-06,0.45150417469045,0
5.8762196917288e-06,0.437448720418256,0
6.79374407122234e-06,0.462736658174059,0
6.13086607064453e-06,0.446012688498578,0
4.38966844211979e-06,0.378426933799701,0
4.63328174002753e-06,0.377899156619377,0
5.79996917838771e-06,0.404866410976017,0
5.68646943254965e-06,0.387809107418369,0
6.21636291799803e-06,0.375251970348957,0
5.34849775039521e-06,0.362557148342895,0
4.4675746878287e-06,0.362504636219379,0
4.31821723421555e-06,0.376234115654986,0
3.3717376883969e-06,0.343179145072462,0
3.84218803229033e-06,0.300084455166365,0
6.42939892666604e-06,0.329799491036844,0
5.70991622733507e-06,0.30203416346873,0
5.38446671168436e-06,0.321814646866456,0
4.90079353754767e-06,0.336018328563584,0
4.26988310613691e-06,0.345322012686137,0
4.36247092571735e-06,0.369873843796096,0
4.36173027295249e-06,0.369712434631875,0
5.73914151408029e-06,0.418031028811264,0
5.71892745077444e-06,0.37383739870216,0
1.14553453543513e-05,0.502021681967542,0
1.60702828681057e-05,0.670226963572657,0
1.76372613836119e-05,0.644607495881181,0
1.98269367092056e-05,0.611499106726193,0
2.2384544366087e-05,0.641632822563621,0
2.27574221105732e-05,0.649951150825019,0
2.25232706517366e-05,0.646878005327621,0
2.22446282124346e-05,0.642001434316482,0
2.02500142176215e-05,0.610691672486353,0
2.06260786361886e-05,0.692511516371452,0
1.45478144717812e-05,0.770747881216176,0
6.47886519539954e-06,0.537125112540301,0
1.31582378533912e-06,0.344640003947636,0
9.76819079296884e-07,0.364575609618141,0
1.0938022271196e-06,0.335878671605458,0
1.23592120035013e-06,0.326704547709873,0
1.11556076927924e-06,0.305688181260431,0
2.07358500667117e-06,0.361072759958361,0
3.90157578048724e-06,0.453905488438652,0
6.89502911481369e-06,0.575695755966584,0
8.09667411888075e-06,0.62855148911064,0
7.13183027447656e-06,0.571090120846094,0
7.84527556457866e-06,0.582730049856282,0
9.49549956087226e-06,0.671688232198394,0
1.06992656948743e-05,0.721442447938447,0
1.01604962017959e-05,0.744200033154063,0
9.34897977206429e-06,0.753505142089764,0
9.79271168986265e-06,0.798445334409413,0
9.26064292591579e-06,0.760860262513291,0
6.12272122422086e-06,0.639164402066795,0
7.23241091994469e-06,0.654599612746091,0
1.15086555486947e-05,0.837362005044405,0
1.13374494609155e-05,0.80428734520014,0
8.54049332789782e-06,0.702777246942786,0
6.73927559553827e-06,0.666294437382871,0
7.93126581737699e-06,0.72332119444595,0
8.51502234155397e-06,0.691421493717882,0
7.52290473708038e-06,0.669067771054072,0
6.25719778123313e-06,0.636764787155206,0
6.2391631976074e-06,0.642536262501862,0
5.78171722251147e-06,0.655365859461484,0
2.38387494733825e-06,0.459690705378327,0
1.95343634627528e-06,0.458577655030399,0
1.84990538209401e-06,0.433869572432067,0
1.69645582195499e-06,0.415000790251194,0
1.54512739175097e-06,0.420037761068491,0
1.38129079898206e-06,0.448127938037518,0
1.65162345658081e-06,0.466753645932383,0
1.17251930088686e-06,0.397565307839243,0
5.90855743167888e-08,0.272510254213394,0
3.92807372234534e-08,0.286921113980482,0
1.95924440210594e-07,0.31523828707626,0
3.14860203904368e-06,0.533976419723158,0
4.49254199917258e-06,0.459565241993548,0
4.68627077737373e-06,0.458534357911463,0
4.71888066053519e-06,0.454622404006327,0
4.75678325457831e-06,0.452809993256896,0
3.82949112774986e-06,0.415498652534026,0
3.35591137032557e-06,0.398765186964575,0
2.85336913340814e-06,0.351574878066934,0
3.37506206787616e-06,0.371234085264657,0
3.38882249377122e-06,0.37374225707706,0
2.17623201111354e-06,0.341699771834021,0
1.60078713583164e-06,0.352733372113702,0
1.4465497763337e-06,0.350902067566517,0
1.45766765897127e-06,0.355950092006229,0
1.86836584105953e-06,0.389774678250971,0
2.14507558120346e-06,0.402884774695428,0
2.69873950802359e-06,0.426187683222236,0
3.44768260467282e-06,0.496180999957961,0
3.05923201340806e-06,0.474200417949576,0
3.6408075019117e-06,0.484488289021627,0
4.22992784585974e-06,0.452181070650683,0
5.57402947368248e-06,0.517906821975342,0
5.57005811222922e-06,0.491405351037308,0
5.74421778630736e-06,0.50399199016642,0
5.11122605838762e-06,0.472395949403641,0
4.57506581031218e-06,0.44641514883951,0
4.86874630152861e-06,0.46768188361808,0
5.53843955233771e-06,0.497333371450403,0
5.66448200378977e-06,0.494543949950895,0
5.67162012261079e-06,0.503074397714007,0
4.49324608609716e-06,0.489684542832057,0
2.96983600268593e-06,0.419011176287483,0
3.07507404701075e-06,0.438721746041723,0
3.41775898817787e-06,0.416400236634646,0
4.39027045589022e-06,0.45925859656701,0
4.21721460339063e-06,0.462611767516386,0
3.86227139216709e-06,0.458922655782871,0
2.71098330734321e-06,0.399461945378695,0
2.49952383098897e-06,0.389713955618026,0
2.02644463657825e-06,0.343433036469563,0
2.5715339516519e-06,0.403770110258716,0
2.27769786111513e-06,0.40808516837169,0
2.04893309514965e-06,0.397936382061778,0
2.50233333231719e-06,0.489356317202914,0
3.15446953381472e-06,0.550004888525976,0
3.23032902606377e-06,0.534779770927797,0
3.22867095970613e-06,0.535622036536395,0
3.5335991033933e-06,0.547900045141416,0
3.66256417687949e-06,0.532643827850394,0
3.6849777921778e-06,0.595911325716064,0
2.02471437213597e-06,0.472421336535894,0
1.64414333045367e-06,0.435372287783151,0
1.85695963288135e-06,0.47083004815825,0
1.92933712353964e-06,0.479313507544103,0
1.88493467908757e-06,0.465399455573188,0
1.83987062632538e-06,0.471818980035486,0
1.63094990848196e-06,0.443845505472943,0
1.48970369183928e-06,0.414651123198813,0
2.15890400400151e-06,0.488511435314481,0
2.58688849258394e-06,0.518463360480986,0
2.99265791060083e-06,0.551515919617755,0
4.38122251101125e-06,0.633412172162654,0
3.72264294165807e-06,0.503532046973187,0
3.58048973657707e-06,0.491495961169342,0
2.46668692841913e-06,0.408994545628869,0
2.33086288129264e-06,0.385191221488281,0
3.91039343837209e-06,0.40222854243247,0
4.49428844594418e-06,0.358702114321368,0
5.26432334166535e-06,0.371541636750591,0
5.41056180690212e-06,0.373122166202864,0
5.42790801913462e-06,0.373224981984614,0
5.08672118822381e-06,0.371256381473142,0
5.03823752919831e-06,0.379037676804593,0
5.15063205306394e-06,0.380774441041857,0
6.25669846301412e-06,0.410020375662542,0
6.19382902442509e-06,0.407315613863207,0
5.17617834947883e-06,0.394193444067165,0
4.96389341873015e-06,0.423908283964956,0
4.73050766414894e-06,0.436057827085612,0
5.02073945202916e-06,0.451303322323117,0
5.01370885233851e-06,0.450338505166392,0
4.31226789420201e-06,0.424405600159118,0
3.95785994464046e-06,0.436530536188343,0
3.42615388270934e-06,0.406193510843767,0
2.41678498158866e-06,0.369610625057763,0
2.56674538256817e-06,0.351548192875553,0
4.63183202115984e-06,0.448254266999023,0
4.32698183273216e-06,0.463769988034558,0
3.87906118123003e-06,0.443452756758112,0
3.62247665718003e-06,0.428298071828522,0
3.78390052688761e-06,0.441210693544369,0
4.6822798104061e-06,0.48296863862753,0
6.76455177153303e-06,0.581926437575038,0
7.24511280366342e-06,0.543015088435989,0
6.9987026079724e-06,0.530802833178785,0
6.86625070931651e-06,0.54681644845536,0
5.47878168372068e-06,0.512927359023197,0
4.81486988125846e-06,0.447033060649709,0
4.89195674094642e-06,0.450357741971638,0
5.09178236731681e-06,0.445746295953296,0
5.52663034191982e-06,0.438829364634137,0
5.40560270096328e-06,0.42137914505017,0
4.09883977524671e-06,0.374902438521751,0
3.65350207246237e-06,0.39395603999429,0
3.56073873684857e-06,0.386964644150481,0
3.67876144373054e-06,0.421744524995852,0
1.99458800972661e-06,0.361468340912339,0
1.7101485621457e-06,0.37671786556517,0
1.62521000515361e-06,0.338063763693438,0
1.41985624612987e-06,0.31622717172867,0
1.09531231852359e-06,0.306777233978082,0
1.06110847592448e-06,0.314579825264984,0
1.25743311758701e-06,0.337410269485271,0
1.13214687883183e-06,0.315966364851683,0
1.39549701692992e-06,0.349325154422049,0
1.31591963452045e-06,0.343486958351036,0
1.33497370489311e-06,0.352522945159239,0
1.77081813754365e-06,0.385515289469176,0
2.15669138166615e-06,0.455236598593933,0
2.6460487545745e-06,0.507299088052061,0
2.62031947335888e-06,0.479829370741159,0
2.96995985974493e-06,0.522601080110922,0
2.84263667028706e-06,0.492264734722898,0
2.66239150679008e-06,0.495810895700036,0
2.62826375225861e-06,0.486987244815245,0
2.20715224125532e-06,0.456913399078606,0
5.45990686376506e-06,0.451711400006462,0
1.24366069498435e-05,0.641629388684274,0
1.23198139443903e-05,0.603528751747956,0
1.03636157101788e-05,0.535203382868431,0
1.03490825780589e-05,0.54946679738471,0
1.05717497178585e-05,0.555246202482153,0
1.10569351617897e-05,0.555554556429826,0
1.3412200840092e-05,0.593198246192911,0
1.28615161734586e-05,0.541993117519003,0
1.19010090377118e-05,0.509907134717341,0
1.0336866319819e-05,0.650045315022782,0
3.87792468379419e-06,0.441162425524709,0
1.99276563048668e-06,0.357318211190716,0
2.05990362523085e-06,0.381597065100263,0
2.29840315147532e-06,0.40025096221694,0
7.22665250029721e-06,0.501351311664822,0
1.78477250243159e-05,0.650831225016976,0
1.52100028561712e-05,0.578819202735798,0
1.64354155008222e-05,0.595258815223501,0
1.9051566001591e-05,0.642071135612866,0
2.01527073818535e-05,0.6597477724209,0
2.21939289746867e-05,0.6925598717679,0
2.44824148478802e-05,0.725844268667439,0
2.57828322777137e-05,0.745334472285703,0
2.58051638921701e-05,0.74574748863945,0
2.08597394903681e-05,0.901916975950551,0
5.23655570935316e-06,0.587060330203101,0
1.28783784718048e-06,0.377591700766949,0
8.72761722614877e-07,0.400096854881651,0
9.06952339271758e-07,0.390099277594815,0
1.02148853218266e-06,0.390667674411338,0
9.98077525240921e-07,0.395386400533478,0
4.31617732712578e-07,0.326238406405286,0
1.51418755609483e-06,0.431893974388747,0
2.0777189694142e-06,0.453822611011468,0
2.17266334070133e-06,0.456870644530984,0
2.36073499441256e-06,0.43503422925086,0
2.55544389273258e-06,0.442607326417873,0
2.29621231304481e-06,0.422864339643302,0
2.80241222318569e-06,0.44446703810506,0
2.23010314100679e-06,0.407432401205223,0
2.576673864001e-06,0.424454753873922,0
2.5753288634759e-06,0.420202303821821,0
1.82674971363696e-06,0.342481895596741,0
3.29515917168852e-06,0.407692645983854,0
3.35405678202633e-06,0.392753847109931,0
3.5282656254897e-06,0.414537800273691,0
4.68744570784169e-06,0.475746607396104,0
5.03281146969911e-06,0.501040642274063,0
4.85585536463565e-06,0.501645846349279,0
4.89723109110828e-06,0.517727052130867,0
5.06641174253459e-06,0.528931976519349,0
5.65220646220881e-06,0.571852643265207,0
5.3780577312785e-06,0.611847655361124,0
2.92603028162741e-06,0.529963827683766,0
3.12659780555721e-06,0.58143307921974,0
4.04269954046481e-06,0.641460647375137,0
2.19848224712548e-06,0.464893634200134,0
1.19016426381443e-06,0.377336853248007,0
7.92573924071685e-07,0.34490020702108,0
1.09405118603216e-06,0.347332832731958,0
2.49825491853153e-06,0.432775361767174,0
2.48200210272312e-06,0.411806640905477,0
2.25415257195993e-06,0.402365904552075,0
2.60147872965443e-06,0.410347106437455,0
4.26694243458164e-06,0.427681643325216,0
5.46877229064127e-06,0.402900822629647,0
7.53949660380782e-06,0.433820154700157,0
7.28749183455366e-06,0.402243917369703,0
8.08423862119846e-06,0.400012942763998,0
9.63813761343546e-06,0.440946034671464,0
7.93846337513837e-06,0.406579621373756,0
8.00604062676389e-06,0.411429381366072,0
7.9399470146579e-06,0.415637330360569,0
7.7155429196452e-06,0.425167970139302,0
5.17708564911579e-06,0.41220027569923,0
2.58925500264713e-06,0.36315697049122,0
1.83253754155598e-06,0.351651773540805,0
1.734859134611e-06,0.384391714871873,0
1.74858299466578e-06,0.418956315833842,0
2.03460177534823e-06,0.445792403858242,0
2.08040725887187e-06,0.435729428110404,0
1.8410636063145e-06,0.408126475546447,0
2.84090873983459e-06,0.480678745301576,0
3.41961077568935e-06,0.488715226970254,0
3.35177740758254e-06,0.4947011684438,0
2.97892533698411e-06,0.494563700575599,0
3.28959758518129e-06,0.528113417938024,0
3.24329729581893e-06,0.517112002602246,0
3.08146606709068e-06,0.529194469317087,0
1.77445916163981e-06,0.403960989475655,0
1.90220791523883e-06,0.423632470368099,0
2.19563166757668e-06,0.429688106294636,0
1.51566185965513e-06,0.38362181116908,0
9.51194827622499e-07,0.35383039279723,0
1.05582852418708e-06,0.344083251547797,0
1.86802663454117e-06,0.386057814490156,0
1.73742325581103e-06,0.370177972195007,0
2.95189415625513e-06,0.445814046061609,0
6.07613852209207e-06,0.606634586457971,0
1.23729629378378e-05,0.873853839420547,0
1.48116712412663e-05,0.718630523803054,0
1.53042138878615e-05,0.724795666221846,0
1.59435279273657e-05,0.740999936045094,0
1.55997456997915e-05,0.663501241849863,0
1.4568516650155e-05,0.647488757672627,0
1.04837321615154e-05,0.56506149640612,0
9.67087742202942e-06,0.541897316365717,0
1.14862061455528e-05,0.593026665831303,0
1.21222650472752e-05,0.60960282967115,0
7.30533098543302e-06,0.500499515111992,0
3.50623276172829e-06,0.456513001762812,0
3.68407656091434e-06,0.450179685249245,0
3.81071028978373e-06,0.452238942481246,0
3.30258437125558e-06,0.483276135329365,0
2.67359590264976e-06,0.45204989522631,0
1.74108917579845e-06,0.394630458615678,0
1.22131524774829e-06,0.354604252562665,0
1.22731033396201e-06,0.366132637273189,0
1.06913911244701e-06,0.357287011038353,0
1.31651091193778e-06,0.39223678541385,0
1.03648332748605e-06,0.372340719372946,0
9.68706597531851e-07,0.396745318428607,0
1.1955556246652e-06,0.433845387225042,0
1.40480667986572e-06,0.473636328502129,0
1.51463614893539e-06,0.453610135634901,0
2.66744739550617e-06,0.527529617364807,0
3.79193178580742e-06,0.606068460975601,0
3.93460889380004e-06,0.608280619486284,0
3.89168215330217e-06,0.600683065036515,0
3.91585606371158e-06,0.593393438762314,0
4.65382754108437e-06,0.576010639471513,0
4.70833974017746e-06,0.516836203870984,0
4.5070981599919e-06,0.510759815126728,0
4.24725912055749e-06,0.416925755665348,0
5.5451240991399e-06,0.376494142233244,0
5.76936341447236e-06,0.386374851310758,0
5.46792583033857e-06,0.373374159147442,0
5.57088512261687e-06,0.37137937181601,0
6.16222866965407e-06,0.389249741358011,0
6.09289983647938e-06,0.392222010903655,0
5.6152757415206e-06,0.395733892597121,0
7.29624709711105e-06,0.472829006393512,0
8.51164381351124e-06,0.503845233725467,0
6.64316749693425e-06,0.525675922023393,0
3.26856055707011e-06,0.505147178304141,0
4.73521718877794e-06,0.576819153923004,0
4.85630582466807e-06,0.54723842950473,0
4.70177158166689e-06,0.524104343388343,0
4.93169322857918e-06,0.533460331933489,0
4.90533283652022e-06,0.534652537374659,0
5.06523790126187e-06,0.549438126333489,0
4.64246334472268e-06,0.535041122817649,0
6.2488383633467e-06,0.609451856758943,0
7.56235927874466e-06,0.577362689537509,0
8.29019486079059e-06,0.585047153125759,0
9.54409011663083e-06,0.634258084401216,0
1.23934100889255e-05,0.761884612453486,0
1.47752647346884e-05,0.869685665391663,0
1.50059835169188e-05,0.871870341562199,0
1.50041513349217e-05,0.865472783487047,0
1.52236333566338e-05,0.886479323305432,0
1.41355953063365e-05,0.851181308800734,0
1.24795672997946e-05,0.762873952076291,0
1.34715775407372e-05,0.909446219550328,0
1.39443761895733e-05,0.938450974361471,0
1.36756616093068e-05,0.932422647198399,0
9.38555183631912e-06,0.777514187298134,0
5.86295127088468e-06,0.63366937741958,0
7.24491099134493e-06,0.701874465781443,0
8.58318589141856e-06,0.740736738327202,0
9.57145692509381e-06,0.639682172106544,0
1.02766898386672e-05,0.562754596293528,0
1.01564389495178e-05,0.595280195688316,0
7.46648317872728e-06,0.457585125428457,0
1.01299078650045e-05,0.503083197277366,0
2.39427721314161e-05,0.687777132786906,0
2.71362421680783e-05,0.494277610980675,0
2.73074462330664e-05,0.493721735009772,0
2.46733420603185e-05,0.471463807952403,0
2.23438646353743e-05,0.444967016201726,0
2.20645251111171e-05,0.489645490517241,0
2.14454613895604e-05,0.54338230469424,0
1.84202964469489e-05,0.501708692324325,0
1.69316653012248e-05,0.511748793390966,0
1.59181859328585e-05,0.530023167189891,0
4.90855234205755e-06,0.324769193536032,0
1.90675032619778e-06,0.353305363490918,0
1.50295250716903e-06,0.331231431615249,0
1.38756627517106e-06,0.314806842619181,0
2.12065691306314e-06,0.353502808898706,0
2.21611787409383e-06,0.337100399427512,0
4.38662694220493e-06,0.411316454336327,0
4.73824203956553e-06,0.385840732929338,0
4.89268572376225e-06,0.392400858184535,0
5.27172489013572e-06,0.402898251548576,0
5.92043479459916e-06,0.339375792399749,0
1.22128339656742e-05,0.417614101308724,0
1.2699896559806e-05,0.383021845082663,0
1.57188126337123e-05,0.427653300751626,0
1.65742766910826e-05,0.421743007425102,0
1.69469008086768e-05,0.415180763344563,0
1.55256399674821e-05,0.379991172826141,0
1.7254269216505e-05,0.41166882931261,0
1.78672409134713e-05,0.4198087947283,0
1.75438059422212e-05,0.41830074814834,0
1.71988360250347e-05,0.543650379115762,0
6.98371574823435e-06,0.41307939083437,0
6.25226279318894e-06,0.451406792962259,0
5.32573108023903e-06,0.429878597167504,0
5.0762361280221e-06,0.457113919425455,0
4.29273006554239e-06,0.464808037296177,0
3.48838318569446e-06,0.457782809382907,0
3.1966966997683e-06,0.43277186906348,0
3.50259671681038e-06,0.448406632616131,0
3.19294286616489e-06,0.395881677102463,0
3.25807923125209e-06,0.387179465265182,0
6.24074533149671e-06,0.49768072151594,0
9.11150408934772e-06,0.600324056964173,0
1.16409305309234e-05,0.673063487458756,0
1.26057739085296e-05,0.688218292962949,0
8.40095123501158e-06,0.559973784630777,0
8.10973076904987e-06,0.599285302933802,0
8.92178619482721e-06,0.621487194035278,0
8.75798990228227e-06,0.613539829403476,0
7.88060345666798e-06,0.640422530986382,0
7.08099410932671e-06,0.536626551029696,0
1.77064347730655e-05,0.564508406385193,0
2.35661445989087e-05,0.54993656599844,0
4.28254764601875e-05,0.622438944910304,0
0.000114044799054094,0.730632843557915,0
0.000400940502807379,0.496204332667398,0
0.00063406371512216,0.236940655705021,1
0.000586643739274545,0.221677294614903,1
0.000553522002812845,0.199892019527616,1
0.00062939578608147,0.191926991588709,1
0.000600091668208178,0.136042072520339,1
0.000534005274199064,0.107292247512868,1
0.000500894285760417,0.0994444402637663,1
0.000556075969134432,0.0765477109631898,1
0.000974200361407331,0.0696591616975297,1
0.00101640040951136,0.0595435614586738,1
0.00109319956372201,0.0697618232964744,1
0.0011265037434988,0.0717525431389853,1
0.00111984564842547,0.0726101629032402,1
0.00113640661063831,0.077554274836474,1
0.00121619200070881,0.0867579385493834,1
0.00132408862373467,0.103292686894641,1
0.00129690909352447,0.0810867147848306,1
0.00133767178217043,0.0925714361181446,1
0.000608113093250944,0.0699646509214459,1
0.000596204469804892,0.1046659753758,1
0.000608831370833539,0.10618677385105,1
0.000762565543290982,0.0583896606702665,1
0.00130302028904024,0.0615381977875953,1
0.00130426678974957,0.0560258937521661,1
0.00266072029540185,0.0371643078320751,1
0.00672943393308022,0.0618403088821623,1
0.00874084898545904,0.0767060494780683,1
0.00945289410807501,0.061506225189416,1
0.00885982002896472,0.0555604863406177,1
0.00985794633537056,0.0509432999173118,1
0.0134840608771193,0.0580633914693566,1
0.0173038274606191,0.0247541167240681,1
0.0658865222028888,0.0375237857189826,1
0.0627287876032778,0.017001740112592,1
0.0623067547413965,0.0121525919614727,1
0.0756993573080944,0.0146053751106838,1
0.0720049845367843,0.0136179714417015,1
0.0625697315389977,0.0123633471280196,1
0.0492636497360016,0.00870751102598821,1
0.0516451932030405,0.00925943264491238,1
0.0619035311460995,0.0121916765186065,1
0.0803861909641424,0.0182422433198793,1
0.106603286069811,0.0212508992662056,1
0.0894994172018718,0.0231411088814838,1
0.0939683046438225,0.0233212765564438,1
0.111237727821288,0.0303002778659809,1
0.0915504122556469,0.0234460436221365,1
0.0811623114700274,0.0186534162037276,1
0.0687812326620938,0.0167756735038768,1
0.0613880799850077,0.0154903293630972,1
0.0640426381024653,0.00987032898881497,1
0.103327396131079,0.0195605402984024,1
0.113112129136698,0.0227474033495464,1
0.0932719882484733,0.0228353348811859,1
0.0920778254482511,0.0242563736121188,1
0.100060184446623,0.0196642598688924,1
0.129795976406345,0.0225358380387638,1
0.135497559114989,0.0241112642399279,1
0.124538494172873,0.0184357647751574,1
0.123617936022394,0.0163061718662006,1
0.118522175905493,0.021393117499159,1
0.0925744920480407,0.0161173634842298,1
0.0830298984849853,0.0160171759082719,1
0.0866785807658043,0.0174735092447384,1
0.0841987901327368,0.0206184790461124,1
0.0754824600288491,0.0227539111198789,1
0.0633934177762153,0.01384228347052,1
0.0647236148065036,0.0095537134873943,1
0.0617073457423332,0.0124172382654297,1
0.0590858217553412,0.0115376835381116,1
0.0734119273482267,0.0135450262996374,1
0.0728082017493842,0.0143496083487608,1
0.0707711678632993,0.0108742616530777,1
0.0769417442614409,0.0121533619266157,1
0.0795321595098701,0.0103427726776339,1
0.073847119586326,0.00640572646753142,1
0.0867175520145792,0.0158531639642553,1
0.0817143132576777,0.0161810719548346,1
0.0826984064751199,0.0146134447802954,1
0.0826202283837056,0.0175823089177467,1
0.0599948579921202,0.0130052989878111,1
0.0495513651530012,0.00980040357440232,1
0.0451778483292486,0.0119884153147609,1
0.0456449189706357,0.0117023421033799,1
0.0343855313018457,0.0123155415971636,1
0.0209934252766968,0.0108807981295563,1
0.0308655814087996,0.0127202207320103,1
0.0515623343079865,0.0262150521493794,1
0.047799805813302,0.024706293603687,1
0.0494545861883943,0.0233824964962437,1
0.05966998867257,0.0256015343615139,1
0.060518602051611,0.0252329436638457,1
0.0772254461914276,0.0262985011484829,1
0.0917046493128154,0.0211164251923768,1
0.091387332687181,0.0221704858321425,1
0.0948037890140312,0.0240987717039245,1
0.083619530361699,0.021794359006034,1
0.0364682489411267,0.0094955003830164,1
0.0327343744253869,0.00897966364587212,1
0.0353451451151312,0.0107454454696442,1
0.0397024869196236,0.0132434518646703,1
0.0428768948169992,0.0157545466185366,1
0.0394830446255299,0.0206191902837416,1
0.0285615094292759,0.0178187950607917,1
0.0299639709659771,0.0180421594736828,1
0.0302541547066544,0.0193750337033001,1
0.018985229274883,0.0177363045999847,1
0.0200409033424711,0.0178486196704595,1
0.0195217253187396,0.0155532394561993,1
0.0192285532397445,0.0138848916736872,1
0.0790808873492136,0.0163422923609699,1
0.167939487438329,0.0183695791043455,1
0.172170849549399,0.0138055428782524,1
0.167698008602728,0.0139606975354085,1
0.152926095193587,0.0121061740443207,1
0.213599922564376,0.0182836477245673,1
0.216494927178027,0.0160647056969669,1
0.22600842969992,0.0144005306478039,1
0.21356521214516,0.013642389326601,1
0.174982361002999,0.0102488643460525,1
0.174129898238835,0.0166992711559392,1
0.165770257777538,0.022503477423005,1
0.129382710644862,0.0244409695148518,1
0.112899450184125,0.0227218806425736,1
0.110249344130748,0.0193250809150216,1
0.112531128225915,0.0204564906390454,1
0.116096941690201,0.0181711893290838,1
0.109038304077685,0.0214617950544772,1
0.070759573183266,0.014541602528564,1
0.0606694951480593,0.0128110360345662,1
0.0627733779085464,0.0145371423592991,1
0.060632093745651,0.0139383419578848,1
0.066482954764337,0.0104820310166298,1
0.075234588064679,0.00980745992035935,1
0.0745220289128619,0.0130037782854738,1
0.0600715268790466,0.0105394722405579,1
0.0684087736199743,0.016400591435898,1
0.0724349319374004,0.016954491961049,1
0.0696998544874838,0.0129507429588028,1
0.0825726369677488,0.0140768494217718,1
0.0948129178543744,0.0127815495635909,1
0.096675633811914,0.012209222041716,1
0.0891013123387445,0.0164202064014755,1
0.0828653546352668,0.0113330842996282,1
0.131511249208876,0.0196051281314217,1
0.153738265263077,0.0236312974756735,1
0.174133397554896,0.0296431433852701,1
0.176945927125969,0.0266159917367246,1
0.184541171500128,0.0237066319152596,1
0.197251306053155,0.0299570645252692,1
0.145706354299178,0.0211783894852643,1
0.139656680352226,0.0190850061955938,1
0.106425056934509,0.0139314999058167,1
0.109775088851945,0.022572743869396,1
0.133812707754508,0.0259356556706232,1
0.137653057797834,0.0253727084782786,1
0.135558762407103,0.0253266702076877,1
0.0975854770298694,0.0235575331017817,1
0.0437881420206924,0.0195405149531626,1
0.0433604247899694,0.0189246171483263,1
0.0296288410363776,0.0203046039487204,1
0.0121890462566678,0.0215925626348555,1
0.0150347972434617,0.00984889830971777,1
0.0247755942943476,0.0132686691440416,1
0.0196493856429109,0.00812199641995123,1
0.0511923267672353,0.0162288546579314,1
0.0583088867920436,0.00847719882165373,1
0.0591396600181456,0.00680675186779317,1
0.0810005082902551,0.0107745472408661,1
0.0786487835460081,0.00719713268285344,1
0.0781477355698198,0.00636469868281694,1
0.0706053557871608,0.00532916496344568,1
0.0628720306185297,0.00461562815018196,1
0.0716548140090431,0.00223317987882595,1
0.0952850091026429,0.00335146786297003,1
0.100443327131177,0.00375887700943539,1
0.0998153690361356,0.00521608013492636,1
0.10065129865271,0.00489206818363481,1
0.103543650307286,0.0040335370022934,1
0.104301742625144,0.00616109959268639,1
0.118262040266213,0.0061464681714792,1
0.131303507535391,0.0046510418325746,1
0.124338030115022,0.0039704107527619,1
0.121896096535344,0.00601001182005221,1
0.109920008088105,0.00635676656258019,1
0.105361355816496,0.00732236473680208,1
0.102051878000282,0.00432895523881671,1
0.125342908159595,0.00845573403478856,1
0.135218171966759,0.0117479974331346,1
0.14288346472121,0.0119155987649186,1
0.133463407596772,0.0143869018832151,1
0.127059710313148,0.0172438461887001,1
0.167474381967655,0.0208838812592138,1
0.203879531700878,0.0301279664708002,1
0.166952876624506,0.0180899231307416,1
0.110987192942797,0.0102643378716515,1
0.102590022746374,0.0126007983110365,1
0.161398670437017,0.0199731477477488,1
0.17195380998889,0.0183242607369925,1
0.190540127522476,0.0214924806995664,1
0.178015327457777,0.0125770896939762,1
0.160174716672144,0.0121327928511777,1
0.165184617005809,0.0162082508504373,1
0.172210310007727,0.0120343006554613,1
0.19483266740317,0.0174346693539758,1
0.16689835372687,0.0125866076439942,1
0.185055702991437,0.00807152628073851,1
0.197971484860278,0.00818206330010946,1
0.193613273113833,0.00733582103991475,1
0.21051063002652,0.00679439921457856,1
0.213532448561768,0.00925838728100563,1
0.20347720638248,0.0092030613850732,1
0.199973202672353,0.0081603313240364,1
0.208704784448594,0.0108495741372336,1
0.201280419635797,0.0078922820696657,1
0.208695941861831,0.00950481524464483,1
0.189434630704221,0.0138459112109884,1
0.127454750531739,0.0097387302946596,1
0.136607764904873,0.0124513033066175,1
0.0817533137847987,0.00768343686512991,1
0.0821926249777754,0.00886884917384466,1
0.0996934917581606,0.0112844775478733,1
0.112747585681898,0.0125679233567462,1
0.164253339237244,0.0189361772872616,1
0.168594602555205,0.0286383494493348,1
0.112101073509692,0.0243454950644252,1
0.111841831828341,0.0249220677509422,1
0.0824550145345169,0.0175458488480614,1
0.108106648879784,0.0230369212840543,1
0.128413119284698,0.0345812401426231,1
0.085615956889427,0.025575116357645,1
0.0790856916649485,0.0240742379165289,1
0.0564339638524732,0.0236718007819136,1
0.0575786234151194,0.0300223740027223,1
0.0408034836404427,0.00911374369372203,1
0.103601208228637,0.0244447110263046,1
0.134178147274674,0.0293596229706473,1
0.142203786845154,0.0272989973991765,1
0.130809397871225,0.0282476400983736,1
0.111364627300103,0.0232946976660728,1
0.10484710601784,0.0186002922666682,1
0.0986767353481406,0.0147857975400457,1
0.135370164850096,0.0138232345606342,1
0.147707331348947,0.0113896073401112,1
0.133544489631455,0.0130659627636274,1
0.12436125203269,0.0109282347397492,1
0.142521333481127,0.012933483911564,1
0.140821290774459,0.0141051834152841,1
0.135976393523079,0.0134498509880128,1
0.135595677291515,0.0129308244904901,1
0.12593890964573,0.0123875024550476,1
0.122890333373775,0.0137438636420425,1
0.117011019884733,0.0239773474777886,1
0.0822724808985282,0.0178317701891973,1
0.0892184729619072,0.0150540801081663,1
0.0823599807809118,0.00950927284510533,1
0.0938917036487695,0.00956835570876983,1
0.101020556670757,0.0062009974550536,1
0.104120991787507,0.00541691777259979,1
0.108354905291286,0.00657085333797065,1
0.110395787538339,0.00626537450494941,1
0.110984865215086,0.00644107037292385,1
0.106547217606149,0.00418475726581797,1
0.136171303462567,0.00775804761493713,1
0.128748943006149,0.00875946456916769,1
0.130982519714485,0.0130366107351511,1
0.107130684309164,0.0120451456853935,1
0.103906343166933,0.0198116697939174,1
0.0960148685028088,0.0200586779776936,1
0.0957274378800232,0.0198509699551804,1
0.0912621641824959,0.0235278853776391,1
0.0483222417209875,0.00771388799282742,1
0.0464651834070172,0.011987814017444,1
0.0449445824911737,0.0127585951637551,1
0.0413609636335924,0.0127653301124192,1
0.0409796847444612,0.0145812367418719,1
0.0395785224098036,0.0150087819604916,1
0.0596286517177136,0.0227096883346264,1
0.0843907240298323,0.0320325291638333,1
0.0885609563736678,0.0300232654555178,1
0.0843846543696879,0.0306240410084836,1
0.0891429419692317,0.0482894174593847,1
0.0876549327346967,0.0449656232807157,1
0.0929217244454747,0.0434790320031186,1
0.0841860786950642,0.014692878339455,1
0.138922147843896,0.0244634855249978,1
0.162815941448208,0.0186368159725116,1
0.159935837269608,0.0201186932930587,1
0.16157854680694,0.019963536665717,1
0.164345398660982,0.0231109155299657,1
0.163732963092522,0.0217976339005034,1
0.183695748070222,0.0148279251500032,1
0.204460557881458,0.0122155316187057,1
0.190110820503,0.0105896798950895,1
0.189952547863092,0.015622810368559,1
0.109492748973679,0.0077898343753936,1
0.0687324860783388,0.0048197317343151,1
0.0791086306126494,0.00471975698869669,1
0.0828314966253831,0.00501713701139328,1
0.0921689690682273,0.00626945625017559,1
0.0985657567861813,0.00413044736654586,1
0.199846066368415,0.0167289446355451,1
0.209759141664197,0.0227282436479944,1
0.218883993960585,0.0262636266689541,1
0.246718575417251,0.0306134992113633,1
0.261144600204916,0.0181814211609499,1
0.351558734604006,0.0249441610038237,1
0.365918191475337,0.0213890818509423,1
0.380531981585687,0.0212118845944696,1
0.360904284578051,0.0123429019339491,1
0.377160939659496,0.014011893212478,1
0.359136962307243,0.0128643541784779,1
0.40463772051714,0.0139679271400956,1
0.389846722249344,0.0126299187622515,1
0.362475203412791,0.0112631627045716,1
0.338423453055886,0.0169293329530507,1
0.239132253571807,0.0109390657141277,1
0.199303162710159,0.0139826637752498,1
0.224758711675882,0.0165262533057866,1
0.252979575917659,0.0264980254432172,1
0.271451643906981,0.0246905271105755,1
0.236035853150413,0.0182724765780834,1
0.174582381434448,0.0139029883450063,1
0.18926517426856,0.015337003341402,1
0.200782769620606,0.0153758772774542,1
0.21116601601116,0.0133543180045053,1
0.219558145313196,0.0101444138230389,1
0.267164789209691,0.0110937913436766,1
0.264343873329279,0.0100841198177413,1
0.259193389220048,0.00889268710394693,1
0.230844924569329,0.0126516679182182,1
0.153748667550041,0.00607604345883211,1
0.158856089107797,0.00638372821812304,1
0.182175132071358,0.0073719398754192,1
0.211161978731611,0.00948811296934955,1
0.190506648030657,0.0108482202000351,1
0.186154321922954,0.0131003194075089,1
0.241901550841572,0.0173361186573715,1
0.247296228512807,0.0242932662263069,1
0.224345614957656,0.0288165261878682,1
0.23707287250262,0.029344470359925,1
0.158720321611843,0.052313178234617,1
0.046869948766271,0.03099454326955,1
0.0455339829769161,0.0187294079481193,1
0.0815803695916162,0.0313048593385544,1
0.102747004998784,0.0382271866935541,1
0.104505113647536,0.0450552112623468,1
0.0892844884079166,0.0409370752335264,1
0.0860983257066703,0.0272857532659134,1
0.093600769985809,0.0340522179810844,1
0.090654397789271,0.0322913665655553,1
0.0787449302176837,0.0294446494934442,1
0.0582027017336893,0.0244158445653462,1
0.0518459159235996,0.024784701080564,1
0.0538829988924008,0.0248261586374132,1
0.0570505143271169,0.0221534216195396,1
0.0623489104710797,0.0209647830096036,1
0.0710867204298751,0.0144156863013545,1
0.0805531972457702,0.00618301389757587,1
0.0998027437209752,0.00616936555954946,1
0.131714979324469,0.00742172679279709,1
0.146397434453907,0.00453410825862516,1
0.152158943061578,0.00506227930962725,1
0.153894202868018,0.00530043515551913,1
0.158146436895936,0.00412923191652272,1
0.166653211547385,0.0047402815418125,1
0.155698962052112,0.00344446095748477,1
0.148188541255917,0.00364739595895858,1
0.143564222478644,0.00649475679077237,1
0.134101115814568,0.00716477206430199,1
0.104291767964478,0.00705294301916342,1
0.0890302496226653,0.0116768664238976,1
0.0829770764766631,0.0110493452564433,1
0.0941145545806191,0.0152558773569158,1
0.0952932423476856,0.0160243585002033,1
0.0995064831552716,0.0117105784428092,1
0.128389392143505,0.0198580109855112,1
0.150549876389439,0.0269795946900228,1
0.14355376287947,0.0229763715249756,1
0.121178695607878,0.0176846629647941,1
0.0980411370820237,0.0126282762555272,1
0.0878654634970575,0.0115588205235059,1
0.0914702781919286,0.011335015754015,1
0.098041113567232,0.0118373704244833,1
0.0812019048624568,0.0126040673217101,1
0.0929181473098371,0.0173343255336476,1
0.197033532572975,0.0326730550282966,1
0.259665900819258,0.0147321820405604,1
0.263979067064425,0.017826786469339,1
0.218939511790773,0.0166042501823623,1
0.205406561760154,0.0158543102964692,1
0.1828252704795,0.0138347428256787,1
0.188673102109656,0.0150495719557645,1
0.188316123129817,0.0151766170713945,1
0.18833558179001,0.0145676218817671,1
0.191410375729614,0.0190938787047489,1
0.131706207667189,0.0130188044931891,1
0.0870439325508276,0.0235377038291432,1
0.0750557487397966,0.0268625054984587,1
0.0616256851412964,0.0230556179843964,1
0.0516761952628648,0.0189530634240648,1
0.0503717267964794,0.0191818790702436,1
0.0496289285978475,0.0191941120666742,1
0.0737588519288157,0.0183055171185141,1
0.164719090087063,0.0366227777329834,1
0.247806392298674,0.0439361861350952,1
0.328136084451423,0.0428872920258565,1
0.280000358908778,0.0364410183516733,1
0.317347198151123,0.0340915572750616,1
0.453701853254133,0.0432269007280161,1
0.50605527069595,0.042355565730711,1
0.496098328389781,0.0395932794040097,1
0.474189240706634,0.038447075853741,1
0.481324651362394,0.0449851238507465,1
0.421550659770031,0.0317076592519709,1
0.337677451077051,0.0220646720571108,1
0.232783828511067,0.0144388596377166,1
0.190319495909957,0.010784309378108,1
0.189755920913268,0.0150266248925022,1
0.147349541515376,0.0102529086462355,1
0.14087236259478,0.010399852526004,1
0.139188097064494,0.0109604883050258,1
0.146471690463884,0.00887649752727859,1
0.266146505878956,0.0181907013443786,1
0.28774951481808,0.0234361497870197,1
0.22581598389522,0.0277977514814438,1
0.224689676852602,0.0311831984440241,1
0.236761513116154,0.0311585777593258,1
0.266462130764672,0.018868014183516,1
0.299967387002612,0.0192005478694575,1
0.23132193336856,0.00722740477345601,1
0.240017123180847,0.00718225625466208,1
0.244090399339607,0.00935855696783744,1
0.256562641975668,0.0101489362973644,1
0.283676781620814,0.0124836778455481,1
0.279594490957336,0.0120015384038385,1
0.267126626571217,0.0110693903151853,1
0.264172931751163,0.0119969232792324,1
0.257300410339912,0.0181228964738613,1
0.0595306415681941,0,1
0.0212921046433268,0.0130064419863196,1
0.0191982041641379,0.0111720628832797,1
0.0226347984912779,0.0121228316194171,1
0.021416161011828,0.00737450933205134,1
0.0653775908649347,0.0189921412681234,1
0.144062383591389,0.0398337027305683,1
0.145758420721091,0.0207034340486215,1
0.141441162192638,0.0195004695519563,1
0.129832813536998,0.0172482342261616,1
0.132179773703398,0.0179594521222058,1
0.130276143747299,0.0156828344910113,1
0.12683880515749,0.0121492510820937,1
0.126743894446692,0.0113341845490173,1
0.177100047991991,0.00979710860990297,1
0.247488931073035,0.00945545011790286,1
0.238134749828396,0.00796115097233958,1
0.257365158241493,0.00685208634682749,1
0.293955205691551,0.007612088440293,1
0.295779700987163,0.00708095771318094,1
0.26954061282642,0.00527830804080703,1
0.288603721023771,0.00539484836954762,1
0.285020909687295,0.00405845671884078,1
0.273039890801425,0.00307015382073262,1
0.273171632276374,0.00547996755361298,1
0.237986645077681,0.00504538542662426,1
0.215941841840434,0.00395789731742821,1
0.235134277748713,0.00648059430724353,1
0.240834124770434,0.00630461620482823,1
0.227190700716277,0.006175117788704,1
0.209510737270272,0.00526171147831425,1
0.198954016669037,0.00605933353786232,1
0.196458902253912,0.00816539667554928,1
0.211157776605318,0.0121055856804458,1
0.215816956916132,0.0138013473290518,1
0.19558970722762,0.0179114362924508,1
0.137279517556254,0.0137613442149618,1
0.125483168441684,0.0216342089282552,1
0.121314035389619,0.0278429911502134,1
0.103651616968522,0.0270891132094907,1
0.0967294637901438,0.037340948442597,1
0.0959095753763246,0.0318122554685519,1
0.107541443333699,0.0401775281462275,1
0.123533982671284,0.0490337795838953,1
0.130379972411568,0.0471350292420814,1
0.131121473892144,0.0460179511699382,1
0.12913388435645,0.0409980353507975,1
0.129318078475098,0.0414593067982998,1
0.120121488847151,0.030194012133022,1
0.314597810955562,0.0262632434331154,1
0.539519660780253,0.040737823388305,1
0.639428204419678,0.042679345483849,1
0.65244749324777,0.0338521310635432,1
0.667774239394634,0.0308365468176705,1
0.646289522935047,0.029464813167713,1
0.659749404275286,0.0233149286801423,1
0.759560487242874,0.0258489370864907,1
0.806430320354504,0.0257841877821688,1
0.964673489121823,0.0341851262958134,1
0.94608640003158,0.0438233312894481,1
0.692444975219396,0.0276476068016497,1
0.454693119627007,0.0174458228016719,1
0.35241682107366,0.0144667149290126,1
0.368125743284289,0.0158924615766943,1
0.332346129911823,0.0112114485070641,1
0.413360533595601,0.0187092571963761,1
0.460184481938852,0.0200181500680467,1
0.461089485936877,0.0197033936473627,1
0.429792850798244,0.0172484157816764,1
0.455914892336601,0.0255400645109411,1
0.34859637449888,0.0177021180294102,1
0.328730146362777,0.0139983800962868,1
0.277072532483201,0.0135616701346592,1
0.181234993998869,0.00613251693837222,1
0.178411535882612,0.00835581810179185,1
0.158315041024651,0.00697986719242757,1
0.150951240198642,0.00649276663742461,1
0.191432035151272,0.010393521326029,1
0.188432450542893,0.0103618949749797,1
0.220826906404868,0.011411958445576,1
0.194294277933424,0.0164290407724118,1
0.14500938233604,0.0211109217575381,1
0.184767645457589,0.0251187274015573,1
0.16087048133222,0.0316254654599281,1
0.114994654495215,0.0362382104093103,1
0.101387129991513,0.0296061612128773,1
0.0734704066352377,0.0245066886461282,1
0.0722589676101125,0.0262670647274276,1
0.0507586817558738,0.0202530970868461,1
0.0564254529791875,0.0445163342532195,1
0.0690219847685791,0.0521484824034831,1
0.0714609761452932,0.0708039562292939,1
0.0919242044830128,0.0762923267993346,1
0.0836321084703595,0.0354985086058313,1
0.0536922839722065,0.0229224900213982,1
0.0931144367827856,0.00393647956490058,1
0.414176108154413,0.0230735204324338,1
0.415627870647551,0.0110711760112957,1
0.423975830565375,0.0113344493639453,1
0.415127584834178,0.0109298339089249,1
0.412859927985169,0.0108773592207533,1
0.392064283951938,0.00936142321039133,1
0.395250361767376,0.00901510668275989,1
0.395595528999593,0.00965636905694076,1
0.356181214661465,0.00864211728164703,1
0.337673042614545,0.0165153544273588,1
0.101539376223685,0.00251131702549619,1
0.0803516728607079,0.0264460997054742,1
0.0637502127691932,0.0180179278824524,1
0.0974285686399903,0.0275196104452081,1
0.112412248959868,0.0126875737164906,1
0.12871491595472,0.0119697218012901,1
0.137328745314881,0.0127269822395697,1
0.126880400656332,0.00555726675015237,1
0.168830273613187,0.00831799394893146,1
0.168494621196629,0.00713509972167412,1
0.179911119002265,0.00784873451344117,1
0.18146826706391,0.00747039291265442,1
0.17770733079093,0.00806836697449964,1
0.147761497698209,0.00402875385316442,1
0.178003406687782,0.0105349585434835,1
0.187051448495016,0.0149573809079768,1
0.177125403091695,0.0180438315816863,1
0.202596365859129,0.03548894356897,1
0.25736057118022,0.033149811848429,1
0.238719693421033,0.032871936211335,1
0.163042143445599,0.0223343565291991,1
0.13702203249258,0.0198562685775226,1
0.119473934592066,0.0172249363500852,1
0.112007192847102,0.0208965154286808,1
0.121518452726415,0.0188046161795734,1
0.161980484144968,0.0249652186262485,1
0.175546415371942,0.0247857804697328,1
0.16781641792164,0.0255128225411822,1
0.137510514639695,0.0325397634348329,1
0.123193364890117,0.0435449125623008,1
0.118984515526361,0.0540590867774433,1
0.109603136048473,0.0421556324295659,1
0.121107826462333,0.0416874933497443,1
0.100779510848927,0.0167115413374446,1
0.143713295569364,0.0310263497683292,1
0.168726509835078,0.0311442827629068,1
0.16423518512611,0.0251185137208545,1
0.163283003020645,0.0263265677905905,1
0.190566942611693,0.0258187615729048,1
0.20573131622002,0.0223083649513649,1
0.21050206496655,0.0201705497778245,1
0.220019570472501,0.0246252231464996,1
0.109654531166215,0.00935988815711065,1
0.0902790978701539,0.0123405959973959,1
0.0982588458341309,0.0125703030388693,1
0.108102973032093,0.0130701468238838,1
0.111481649498532,0.0138266816272068,1
0.11689104688959,0.011931361800518,1
0.185520980457087,0.0240523510075775,1
0.240556341850108,0.0287284957955424,1
0.239093985652966,0.0296225359276328,1
0.174245595766568,0.0265523715060548,1
0.167799477430279,0.0214056052161654,1
0.130319320641556,0.0147669339057849,1
0.131350749737304,0.0117012059747075,1
0.138702768561303,0.00904832647727447,1
0.195498219334501,0.00984750464128161,1
0.254660940775995,0.0073682777224081,1
0.34457960453081,0.010896630978517,1
0.324583024663024,0.00963999376616539,1
0.426390819386209,0.011965630858848,1
0.62178906464356,0.0174636008494744,1
0.737442161585294,0.0224005118515448,1
0.785456964584365,0.0234856930674523,1
0.723406293929107,0.0227095376968349,1
0.725221670452586,0.0261915673506935,1
0.307357871222463,0.0118587128215723,1
0.22272353035157,0.0249211337857434,1
0.206834946622871,0.0281350305481632,1
0.0674355857886238,0.00882048737244983,1
0.0442663072905541,0.0511850420666379,1
0.063272775386728,0.0312247279663314,1
0.0887996312580123,0.0233627905996361,1
0.0748487128027445,0.0192546352380678,1
0.075396182315798,0.0180245539168906,1
0.0599967798596983,0.0121431674412267,1
0.058439079210718,0.00944310413944272,1
0.0676620118158928,0.01151085938089,1
0.0668723223990237,0.0105994230320481,1
0.0614279374069218,0.00938641576359674,1
0.0579843855542001,0.00567037384423088,1
0.087849686838976,0.0109153705765671,1
0.0917691529026133,0.00903355555011119,1
0.0892074786427127,0.0046158957632799,1
0.113895026506307,0.00664715443257958,1
0.126040432143998,0.00632081198795902,1
0.131614209092432,0.00449941367433395,1
0.14458297210102,0.00597440801714077,1
0.162515452326578,0.00828898178287745,1
0.156513696958091,0.00713151066397631,1
0.135510240333873,0.00661018985395392,1
0.14252712252521,0.00546441123035116,1
0.155952461023745,0.0079715955121777,1
0.155791483071037,0.00998940512458927,1
0.157007381495662,0.0102742310747151,1
0.117095323842967,0.00840025715684631,1
0.117474088034066,0.0146242644398544,1
0.13978564386723,0.0170782840786557,1
0.142918681154549,0.0194534696977595,1
0.13218484470392,0.0182588758175432,1
0.136204499358754,0.0171220727843801,1
0.112301182106342,0.0238062957969235,1
0.0447277689848908,0.011228762585667,1
0.050789370484102,0.0150056494604796,1
0.0531569981313165,0.0150611420308527,1
0.0709700682251576,0.0215197610644509,1
0.077314629681486,0.022930709125622,1
0.0866273846444999,0.0250014822914398,1
0.077080578168294,0.0187549059757702,1
0.0997367790011222,0.00870725754215491,1
0.225597042968277,0.0222880269583,1
0.236483312847175,0.0235404675299963,1
0.340992953554708,0.0307126511080723,1
0.320302528337461,0.0163011569064411,1
0.346683815425835,0.0183922497177513,1
0.387998237906829,0.0188893489503353,1
0.38557458083769,0.0182666077764731,1
0.48442287645734,0.0219538945194257,1
0.538906659490941,0.021353451137531,1
0.556490503065074,0.0178906009189553,1
0.673114402884441,0.0207069710382241,1
0.703886567659409,0.0164121275446123,1
0.621326750824794,0.0129643676791678,1
0.674945092414103,0.0215370092453925,1
0.606194585834655,0.0200442231883988,1
0.543379504237969,0.0184424871748564,1
0.567611436193247,0.0183202822461648,1
0.46596297039331,0.00554449142299814,1
0.503444108615254,0.00654796684503224,1
0.481266838939839,0.00881862019290375,1
0.410528514443327,0.00735634066626253,1
0.392824765605813,0.00870521549804264,1
0.394526593277709,0.00875471474980131,1
0.392303092837017,0.00911749119501616,1
0.3779779592054,0.00893364037554972,1
0.377095162833446,0.00911952271965782,1
0.291252432530064,0.00508814994022587,1
0.354969887732424,0.0150681893598765,1
0.262277930929279,0.00685351104716667,1
0.278789773455311,0.00669174465304505,1
0.280383186365913,0.00509567787096265,1
0.413429039308371,0.00946147407609643,1
0.555070963961479,0.01435252786717,1
0.622728606085548,0.0161152956548739,1
0.620946503800492,0.0157883007102427,1
0.621353913341153,0.0156136660584306,1
0.656158244400428,0.0196719596383385,1
0.284910530362592,0.00745262196349006,1
0.218102119700076,0.0137446446578253,1
0.157000104381835,0.0161575961973245,1
0.06785413161621,0.00709658186595365,1
0.0870718594440234,0.014976399771675,1
0.083889280523906,0.00634233479274728,1
0.0969308874426957,0.0106052888203832,1
0.104859130130836,0.0112466452548757,1
0.123594622990742,0.0130996406190057,1
0.166642045749648,0.0203686849995117,1
0.207285197143909,0.0273633517488861,1
0.207770766205672,0.028808546572376,1
0.212234774952145,0.0328475986946512,1
0.214688200848353,0.047773596810171,1
0.115112552336754,0.0357460968145307,1
0.0379100592573894,0.072510820792973,1
0.0212519845971454,0.0469008667731132,1
0.0109979040783549,0.00350178314680899,1
0.0635017203223914,0.0473642059533308,1
0.0914300475014045,0.0324193269589256,1
0.0887406404958073,0.0330049251310358,1
0.104622735095513,0.0321193689367225,1
0.120445256822886,0.0357927067424825,1
0.117069340654158,0.0325960463419793,1
0.15261349166841,0.0393220503320035,1
0.144773129730423,0.028227355794397,1
0.105058338656526,0.0189640092657894,1
0.0994501206644433,0.0222567640952891,1
0.116910596808473,0.028898654626986,1
0.142738085257114,0.0391999539839783,1
0.153508862133317,0.033446043502232,1
0.155157769080947,0.0327884011285034,1
0.169204297973266,0.0354808501785963,1
0.174281330433713,0.0280156972718418,1
0.134555607211731,0.0144140159779567,1
0.169160014680549,0.0201463405396386,1
0.182090014067116,0.0178033683417352,1
0.192664271555103,0.0153507739701653,1
0.240095707665322,0.0198375862297591,1
0.196379879211663,0.0110665842045406,1
0.140246183284561,0.00813729261780707,1
0.132301227199155,0.00856043302151157,1
0.165202399285915,0.00855593632882982,1
0.194415453690152,0.00626220558669627,1
0.278438586297316,0.010100035874114,1
0.284684160582144,0.00679605231783243,1
0.283009011083421,0.00652917737148091,1
0.348555076776836,0.00984295191147003,1
0.383054920854308,0.00940905790708875,1
0.376608845645172,0.0114165424192165,1
0.383442610876095,0.011014018575387,1
0.388147599623864,0.0103242357427792,1
0.298792993069277,0.00920155325162873,1
0.187479825149434,0.00763201976371173,1
0.154827202999847,0.00995901735878814,1
0.145905935397016,0.0178832381842987,1
0.225465288519457,0.0130571022077924,1
0.3802308199445,0.020562754373498,1
0.385738112767456,0.0164566706119893,1
0.399160361807098,0.00883740806130412,1
0.607226013046094,0.0149815877403243,1
0.627342029330213,0.0110910763693492,1
0.588490335448716,0.0100478663868058,1
0.551715316778883,0.00804860717230181,1
0.533037460891006,0.00532151831254354,1
0.569788770837783,0.00525462467395952,1
0.56319735525639,0.00699352226911363,1
0.532428910604743,0.00674712759089095,1
0.461750927893434,0.0062809764461811,1
0.499780951125718,0.0119062847362802,1
0.447881865354161,0.0102360641959485,1
0.456066214653619,0.0155167349997879,1
0.492698472036383,0.0158981675646396,1
0.464520339375434,0.0169709685585901,1
0.427119470186704,0.0265974854969444,1
0.282313800084938,0.023488269761283,1
0.222207346776853,0.0209731977453414,1
0.167657933188034,0.0161686402731628,1
0.130136408876657,0.0116587343222879,1
0.203261769829043,0.0227431192788044,1
0.209186042295404,0.0211970737294238,1
0.208772948008262,0.021518899540052,1
0.204821250872988,0.0246752138877959,1
0.166117059869253,0.0239673996854058,1
0.21420959301637,0.0227486027084282,1
0.242543907728481,0.012757593921544,1
0.265323861347601,0.0158127838676499,1
0.27410016547972,0.0151340337755606,1
0.284481928767105,0.0173290145628109,1
0.231083851067422,0.0124392482861788,1
0.23414133856349,0.0118891929771565,1
0.252790384601269,0.0115259834775582,1
0.256620909600457,0.0104657955204636,1
0.343817426210743,0.0123950959733376,1
0.289504476855376,0.00633986099341032,1
0.279994241000708,0.01206739512938,1
0.281638175259668,0.00557385869448838,1
0.38369938596699,0.00956519260060603,1
0.431662706411926,0.0135203740635761,1
0.409363616322619,0.0126324153515928,1
0.442890468304128,0.0148964230579516,1
0.464654550521551,0.0175983263781136,1
0.408334342484873,0.0150821993729115,1
0.430207695120901,0.0171904301598317,1
0.431483462578758,0.0224349451252683,1
0.178257270385778,0.01168554075089,1
0.0120442831740727,0.0041420248378739,1
0.006530454890714,0.0241735327365525,1
0.0199000849656096,0.0133867757274231,1
0.0492862534686179,0.024039814278907,1
0.0549879673351969,0.0252592531762298,1
0.0736855342659856,0.0322374938769486,1
0.0655351611338666,0.0271238541598383,1
0.0589828227657863,0.0238332477614697,1
0.0614691097671056,0.0232815433987836,1
0.157912783125883,0.0339658168940035,1
0.218346462230225,0.0434273148850452,1
0.211565586321135,0.0263229063268056,1
0.194332818783431,0.0246882086561934,1
0.224121916036273,0.0274113300770632,1
0.192737027796135,0.0217161652088086,1
0.180569937562216,0.0203230872838156,1
0.139762166160461,0.0167216994867212,1
0.111165375571484,0.0134849720486316,1
0.0991029566454417,0.0119114556215364,1
0.0931135172692244,0.0145061264310838,1
0.0826135563502008,0.00768925070369114,1
0.0862357254727929,0.0113186371469753,1
0.094559452291471,0.00936677592020978,1
0.137122387860574,0.0126144879952838,1
0.154852795810967,0.00956191044149466,1
0.172321038759334,0.00931425064701242,1
0.168857677480895,0.00852875516321484,1
0.179710523095308,0.00701689191911888,1
0.202728510422987,0.00839954929595662,1
0.196387068285372,0.00949438753149382,1
0.198741174749516,0.0122707780000061,1
0.201709019230277,0.0114504136136813,1
0.171117234521548,0.0150080066739671,1
0.0608297263757395,0.00416897749038372,1
0.149243492321305,0.0136125432133767,1
0.257698904444075,0.0261375496522611,1
0.303066758113937,0.0293231392376654,1
0.295554173715728,0.0324241235270011,1
0.273773862644948,0.0264775481890572,1
0.260081053987427,0.0248116967559697,1
0.210388256674261,0.0201603787472169,1
0.168504180470283,0.0171237822544631,1
0.154432854189014,0.0154762639379186,1
0.117831697094992,0.00984688894690166,1
0.199238294461372,0.0235295000041772,1
0.196155370507228,0.0130279543307559,1
0.199388171596799,0.012866270810557,1
0.192814877296172,0.01212579377824,1
0.187151513931996,0.012719524284353,1
0.175124604459576,0.0111331857120054,1
0.191057453442363,0.012367514788667,1
0.204832106627253,0.00787089785925985,1
0.242899901293,0.00957011868251596,1
0.254094199188585,0.0100162774850701,1
0.198240441601633,0.00764309069257927,1
0.183032363257606,0.0113840623664381,1
0.191200806663012,0.0139769086673793,1
0.210854627800699,0.0154595847988154,1
0.264285175878172,0.020953866427473,1
0.231447051792203,0.0088115563022531,1
0.463062785228501,0.0129860336220291,1
0.603618669400137,0.0143800772458124,1
0.555336810492283,0.0113158440272119,1
0.610299569821726,0.013862687410959,1
0.669493422669026,0.0152175233103359,1
0.667277143274746,0.0164410212810995,1
0.855984388577964,0.0162927602806655,1
1,0.0206923606883601,1
0.892639092160858,0.0133573617738551,1
0.879159818570218,0.0170148557610043,1
0.741847525348284,0.0182636761904129,1
0.650805147841945,0.0216006809997155,1
0.66839922951464,0.019650834621296,1
0.608484633791054,0.0191488430388896,1
0.502089754122649,0.0160414895993014,1
0.511838702370901,0.0146959286468824,1
0.44867175421855,0.0254856386175426,1
0.233881941213421,0.00832082530897529,1
0.171204965414152,0.00965312063060713,1
0.185477175573152,0.00720381891691511,1
0.21978725111615,0.00881150503889573,1
0.153000318922307,0.0051263815221959,1
0.155181303939969,0.00788051516678695,1
0.147934264632645,0.00731207172413904,1
0.146195476086002,0.00775507175060513,1
0.145176008642105,0.00819091201108798,1
0.141714327616931,0.00597270241403617,1
0.177559098207127,0.00890015794398497,1
0.17223937767345,0.00873296688492946,1
0.210842099718931,0.00962938730368135,1
0.304148544688307,0.0155529615722058,1
0.309711824933975,0.00925919096960504,1
0.318033096703465,0.00914104730223009,1
0.31193885437161,0.00892252360956525,1
0.326145428101672,0.00911578472719045,1
0.322203813873621,0.00980228339045853,1
0.354757703210695,0.0127470669390116,1
0.364089588182774,0.0136910946380308,1
0.382563436743666,0.0154129357155041,1
0.387038062925062,0.0313803439177418,1
0.251940147997515,0.0222782532698728,1
0.289593395095273,0.0422225658808372,1
0.355132849301835,0.0723843721099623,1
0.307428533809288,0.0697254555623031,1
0.273430037194217,0.0620127058167549,1
0.197471972938796,0.0549711767490225,1
0.179746671449387,0.0537816836642665,1
0.117831474775772,0.0562020725194141,1
0.0320740108955108,0.0347154157147678,1
0.0138291976405005,0.0132680080532977,1
0.0342922893240506,0.0429426548331543,1
0.0350265301844834,0.0279140047656752,1
0.031739375409048,0.0255647936003768,1
0.0290127788769027,0.0232243969074545,1
0.0274109613422994,0.0170381999722039,1
0.0942905321456748,0.0238658483655024,1
0.1410695983632,0.025842789786111,1
0.127378181171895,0.0172324977916327,1
0.122179371453805,0.0129862645122374,1
0.170313156493675,0.0165219983613547,1
0.179666527710348,0.0128353236283989,1
0.168517725809993,0.0129717560725774,1
0.143037513534165,0.00833612351323769,1
0.135322606550342,0.00201970263173158,1
0.317422970245101,0.0107629472813034,1
0.336530955531583,0.00768107852189525,1
0.33509158106402,0.00801566798933204,1
0.312467341407249,0.00788019820604769,1
0.30056878248436,0.0077662636980662,1
0.327604875837874,0.00961473211093625,1
0.342975886849205,0.0115309985891936,1
0.354750160158803,0.0122352198328687,1
0.35780112633549,0.0137003859765498,1
0.347284926386757,0.02013745907954,1
0.124276458417243,0.0101965688237276,1
0.0856124315464235,0.0301263926560597,1
0.0851051596791109,0.0259396531860748,1
0.0919912733087243,0.0276804890179857,1
0.0894234529640503,0.0247977698694153,1
0.0808559786922201,0.0169125447140944,1
0.0884706094544208,0.0151723246807761,1
0.0761790695023645,0.0109821587594345,1
0.0850141266851167,0.0115850120754417,1
0.108399598040502,0.015291746111449,1
0.235435665171205,0.0288973143991961,1
0.281568575220612,0.0209701104776583,1
0.257353118327542,0.0176545096768267,1
0.287084345380999,0.0175087514178967,1
0.248498712937864,0.0155203722012581,1
0.170009296880396,0.0112438202268819,1
0.204435266144286,0.00846537281529827,1
0.22760044490026,0.00586717149456113,1
0.274795050735849,0.00618109429703778,1
0.329899040989167,0.00895766374292898,1
0.289043886349186,0.00710860902677617,1
0.26841364102336,0.00912278222467652,1
0.266572271098778,0.00947154489856477,1
0.332868089348093,0.00425287860307995,1
0.527141299884153,0.0111215295717368,1
0.570690888632573,0.0123426210895235,1
0.689575636862233,0.0189672949012234,1
0.745748287482654,0.0176374411431259,1
0.71764585815572,0.0175179353333799,1
0.6126826962965,0.0105624464766787,1
0.573937367624072,0.00846729108202707,1
0.594809713621222,0.00922006616265748,1
0.536859052384413,0.00779351475229216,1
0.595905715318333,0.0193696008114718,1
0.546406082079203,0.0149479912412637,1
0.505526837546689,0.0132320837539655,1
0.350952019182117,0.00851638859970888,1
0.223272773179508,0.00643609397269732,1
0.240954212346427,0.00928341212664387,1
0.21131319832398,0.0182649971543584,1
0.173118097493208,0.0160341067316799,1
0.190057040306127,0.015024250883354,1
0.179030336630114,0.0112277281766638,1
0.229778395351512,0.00957105371555583,1
0.345379861931738,0.0174926255588735,1
0.352628717016222,0.0176978041192816,1
0.384472787459553,0.019598457456645,1
0.435084118211316,0.0102336325043313,1
0.566584638252975,0.0123259086688201,1
0.556119798400779,0.0117983265233025,1
0.660774224592697,0.0146626474508548,1
0.659901130695408,0.0135937831080129,1
0.665778544018309,0.013283790088133,1
0.690707569555022,0.0162813924931542,1
0.697505066101154,0.0166526381355171,1
0.743470886318323,0.0180175241845,1
0.747370019979303,0.0176071292248593,1
0.707140844363184,0.0353133981323869,1
0.455102558531192,0.0201710480564873,1
0.5279361869527,0.0246728883113591,1
0.356174841386747,0.0228669694099136,1
0.30051624677801,0.0200633278982375,1
0.322848640155976,0.0163471007051692,1
0.394768909014212,0.0200922180056132,1
0.33353924919734,0.0108537713658302,1
0.37296121458527,0.0126354900340016,1
0.364922854988813,0.00808713459904909,1
0.356471367166046,0.00814988659321673,1
0.331979050411852,0.00990468528029554,1
0.338101941799334,0.00929612804608075,1
0.327646574306123,0.00624961524370559,1
0.316517679775812,0.00635437810417496,1
0.297394050918303,0.0100829195746072,1
0.228878817333475,0.00499338675037553,1
0.303674981588101,0.0159911688497172,1
0.228273134531071,0.0046413863874868,1
0.24095517092771,0.00932305545663707,1
0.222992738103883,0.0076790314126434,1
0.242611085430927,0.00741552534673267,1
0.241156384862409,0.00536456891812107,1
0.323093399607191,0.00874858696629361,1
0.342105866806998,0.00604683262739089,1
0.358801205394694,0.0062452027874372,1
0.388319015092779,0.0081683498591093,1
0.303136508155095,0.00483704112006296,1
0.328794945951652,0.0092661302362984,1
0.334499575573356,0.0107429272171265,1
0.310965234815007,0.0102219428216471,1
0.321919727788518,0.0133775332832858,1
0.362734379070083,0.0208953465956084,1
0.206910969623865,0.0219419082077569,1
0.116138259065839,0.0311976128722725,1
0.125492401300795,0.0358925882112394,1
0.146701516317631,0.0541990783354135,1
0.123349277340405,0.0742550701987834,1
0.133355764614175,0.0904776696434635,1
0.105494093976823,0.0875819013044107,1
0.0514249898488643,0.020417093287625,1
0.0573635979857395,0.0234734124341336,1
0.0550776592608165,0.022560947613418,1
0.0563930743427568,0.0186249743324244,1
0.0889292083495272,0.0239935601133513,1
0.0967157998657024,0.026322400410385,1
0.0963338339271498,0.027082578407989,1
0.0830729896286131,0.020714748130977,1
0.0592513228463213,0.0135287809128407,1
0.0542765688033782,0.0112366515815133,1
0.0466811312526636,0.00878828529099678,1
0.050154409223553,0.00940221469113091,1
0.115893155713985,0.00675558884384576,1
0.201378785974567,0.00862858723884173,1
0.202478651557413,0.00891309773244816,1
0.199140498311955,0.0086795642999896,1
0.208058635370982,0.00818707062638916,1
0.273123662389655,0.0126475188305201,1
0.266678212265312,0.0113488333062158,1
0.263711841337966,0.0105362690118276,1
0.227707990837272,0.0097824030334388,1
0.151674654178441,0.00473884940027764,1
0.137442208343014,0.011514307389263,1
0.139381400863141,0.0166708168957911,1
0.125633096459333,0.0132526417001221,1
0.120497271094442,0.0105786731772625,1
0.126188772102536,0.0137708948806062,1
0.0848328684142893,0.00919577364294569,1
0.0677641208325731,0.00704268724053547,1
0.077074579903653,0.00463167371539306,1
0.154554322931637,0.0133124188898634,1
0.203899943553326,0.0142354920136608,1
0.19943090772704,0.0150889673969693,1
0.150080512669509,0.0108920873529713,1
0.151034619744581,0.0137363641194699,1
0.161926426018924,0.0131386615400994,1
0.17172534923241,0.0135641028793168,1
0.171888708051086,0.0130668869692784,1
0.176867348526261,0.0110781011491659,1
0.210892911873394,0.0172606339355965,1
0.152380302616265,0.0110417453506879,1
0.102879997302437,0.00327801251994241,1
0.17043121776616,0.0104132882026618,1
0.209171688667639,0.0133768315401273,1
0.188834653514946,0.0118015412690932,1
0.211885827598441,0.0157650893766551,1
0.229584897965838,0.0182903686533283,1
0.219445538530696,0.0182686649455411,1
0.202640936741713,0.0180023412924626,1
0.19494976720816,0.0209641618310239,1
0.0646986537378044,0.00437036177208279,1
0.0230364909293568,0.0137206216430756,1
0.0277754456449294,0.0198186752003229,1
0.0289106898340403,0.0173571334087426,1
0.0316336291306631,0.02304382486988,1
0.0351195564809258,0.0257872224325761,1
0.0388670796045323,0.0292728816663682,1
0.0366900234224075,0.025324687276811,1
0.0356548278201147,0.0268858922073813,1
0.0371524766234657,0.0323800611501181,1
0.0319450005312636,0.0284538205849043,1
0.0296236133854618,0.0278529176360486,1
0.0112086747177627,0.0146566119425355,1
0.008494747177507,0.0335400152003827,1
0.00915692607158329,0.0361488515167747,1
0.00979636005202276,0.0389350285962893,1
0.00999388659153825,0.0388232936166903,1
0.00699777926184433,0.0825831014791327,1
0.000618039005583392,0.143733224049701,1
0.000242899022339669,0.411007168056434,0
0.000201384662007384,0.426633197112498,0
9.03142186494338e-05,0.334166123853536,0
1.04475234216736e-05,0.340611591318407,0
9.9969347086254e-06,0.43775585248971,0
1.11783871220928e-05,0.57737983442503,0
1.45935494688127e-05,0.757068773052485,0
7.56275683500815e-06,0.661116968503889,0
6.20992655211179e-06,0.673698198029646,0
5.16248560928812e-06,0.586980108079869,0
5.21936649683489e-06,0.611415341105693,0
4.79638841638469e-06,0.583487760350597,0
4.0286381854842e-06,0.502604341354553,0
5.29855519214212e-06,0.548518974235659,0
6.31509302074925e-06,0.629369039498904,0
6.84696884153887e-06,0.652784197386398,0
5.20791936603546e-06,0.575837770308734,0
4.99614604585209e-06,0.50614417697726,0
3.61295522356924e-06,0.448940755633211,0
2.84508378079819e-06,0.423408931784309,0
2.87500319611149e-06,0.413854347526907,0
2.63281892236183e-06,0.4089479260445,0
2.44536281956191e-06,0.422786632318744,0
2.69867104432263e-06,0.443791165216255,0
2.52398793413084e-06,0.469258338264527,0
1.61570802145786e-06,0.412511298460982,0
9.91132349577145e-07,0.3731623672948,0
4.69148133181425e-07,0.358308705066375,0
6.218204747153e-07,0.37546732199254,0
6.42800709074552e-07,0.395467553649122,0
4.32141791223512e-07,0.370727518877242,0
6.29193859708675e-07,0.363564768903544,0
5.53995820170432e-07,0.359916388827754,0
6.24283145158462e-07,0.380083472921619,0
4.90829498078169e-07,0.328586272814642,0
1.4024964967565e-06,0.417685482251638,0
1.94832257461201e-06,0.415863057330412,0
1.90118484970753e-06,0.406060306469928,0
4.5233271691043e-06,0.476296399272099,0
5.81415034484499e-06,0.428333769795996,0
7.0081201012372e-06,0.456715517860497,0
8.05453237695404e-06,0.494650107329492,0
8.41641905224883e-06,0.507792812993763,0
8.54798559077193e-06,0.490707169203205,0
8.47682208601102e-06,0.494979627953365,0
7.96427107841145e-06,0.47131278915486,0
8.28075433882638e-06,0.49533396417201,0
8.29863223393652e-06,0.494244967220737,0
5.83157140035058e-06,0.49572210004461,0
3.87657034730988e-06,0.397968695880466,0
8.22328466345141e-06,0.536103940522187,0
1.00807073599101e-05,0.577587219354474,0
1.01192623819035e-05,0.558619185421298,0
9.0350873959325e-06,0.547136723166718,0
9.12510735992923e-06,0.55935128019531,0
9.83304816847467e-06,0.577536460882608,0
1.1298584485076e-05,0.61401328483354,0
1.1560501242235e-05,0.639869862607096,0
1.07445002844916e-05,0.585269237579104,0
9.82468174861883e-06,0.65249184663308,0
7.06567924622136e-06,0.619410240415879,0
3.21749519412139e-06,0.43584317041037,0
1.67087420449439e-06,0.361743596778653,0
1.74088145070579e-06,0.36356728020669,0
1.85042337223145e-06,0.369274020059511,0
1.847976106121e-06,0.362343303264698,0
2.80041510590901e-06,0.381895383577676,0
2.80090182058307e-06,0.348483720622059,0
2.96045834284714e-06,0.307164547856931,0
1.42337963713985e-05,0.46536808973514,0
1.9946040364566e-05,0.424480280852711,0
2.07203349472811e-05,0.404982205988749,0
2.11224137050186e-05,0.408006584738494,0
2.17842322298242e-05,0.410719414812919,0
2.15537804560275e-05,0.414611962987714,0
2.34425396108099e-05,0.444838991081408,0
2.82752677816641e-05,0.461975664882729,0
2.54188792434446e-05,0.42323653596215,0
2.1201784140332e-05,0.423344898554625,0
1.75219336569584e-05,0.507014285745033,0
1.7366335581404e-05,0.574990640844283,0
