Activity,Complexity,Tag
0.00273187448576044,0.0427941953010497,1
0.00214331158997834,0.039041956219995,1
0.0021766722555094,0.0357763445047019,1
0.00234329788756982,0.0320960667317131,1
0.00218036127882584,0.0262086205141239,1
0.00187184639032129,0.0224329716304797,1
0.00175859620601116,0.0201876654984388,1
0.00180032875240665,0.0183122656711914,1
0.00201644478361569,0.0169051017396347,1
0.00199323404285806,0.0133509874136799,1
0.00422934750041088,0.022777775619864,1
0.00414180471570655,0.00879290397608599,1
0.00509337994918215,0.0119745551781033,1
0.00498517730350785,0.0124553088259438,1
0.00480668754251537,0.013317378068592,1
0.00487604328080978,0.0127790924114283,1
0.00489832646573611,0.0128779712647947,1
0.00463480313773963,0.0130665439189479,1
0.00444999379971586,0.0149127022515485,1
0.0045477172742169,0.0185423796061767,1
0.00201705020018197,0.0102037035701625,1
0.00111886077379317,0.0314629529494815,1
0.000811436299775983,0.0143559552455573,1
0.00166328065988644,0.0187723347649304,1
0.00160810822235621,0.0139729328100388,1
0.00371760454499959,0.0199207617026215,1
0.00851092673629527,0.0397045544789588,1
0.0118947859332147,0.0401279294437961,1
0.0117256535836865,0.036201077796157,1
0.0104256729820665,0.0338481441669822,1
0.00927134836171952,0.0296724421729673,1
0.00874534752197845,0.0278956475902942,1
0.00695976643002386,0.0243804547654257,1
0.00837015949981178,0.026986217604359,1
0.00881548712357734,0.0147537498589854,1
0.0112603483382379,0.0246430455076377,1
0.0193291542898536,0.0259153576410921,1
0.0299532635940463,0.0410797277482236,1
0.0492353608131448,0.054603174597304,1
0.0573405786727568,0.0503161275389619,1
0.057569641085205,0.0526435239191885,1
0.0561773517646684,0.0309495871349915,1
0.0934878603720662,0.0311527349630342,1
0.0674578610394253,0.013559733218468,1
0.0587709162722764,0.00693381895773802,1
0.0623075862790595,0.00644133774835494,1
0.062276331496638,0.00364376214602735,1
0.107113515705972,0.00776453766711492,1
0.104079948499482,0.00661607799150195,1
0.097968813709692,0.00597007667799963,1
0.094859305112075,0.00420449463091521,1
0.143192436702199,0.00706733022589076,1
0.147146938561159,0.00743795705717785,1
0.141123637829565,0.00779607776686668,1
0.125716871976139,0.00628470703237962,1
0.180870691078243,0.0109199449369125,1
0.211487956014532,0.0165306693290964,1
0.196626246086983,0.0170272338506549,1
0.205922329569542,0.0184935953460219,1
0.226131239947536,0.0207190870843741,1
0.253648975431874,0.0297096693736689,1
0.168704626999526,0.0287368525103562,1
0.135712099762297,0.0302585831258519,1
0.0395055766996738,0.0117159454599715,1
0.0222025135666823,0.0185927305249073,1
0.0220036071518811,0.021192151492735,1
0.0249212824939404,0.0214859519040851,1
0.041946913661214,0.0330529869882863,1
0.0445680519314317,0.0300915904749934,1
0.0438038589253169,0.0323488065794174,1
0.0331129763431981,0.0276628107408278,1
0.0331288132693023,0.0273734614251005,1
0.049642228362091,0.0376498676961964,1
0.065504083390278,0.0438866953871632,1
0.0899958069163941,0.0556640421355263,1
0.107219919598621,0.0673281068047039,1
0.108568639201474,0.0891766751712924,1
0.0667185625169877,0.0919053555704201,1
0.0422345894186667,0.0910634797457649,1
0.0300184007928545,0.076565852821271,1
0.0156296310075853,0.0505923799155468,1
0.00566387932665213,0.0285911554110354,1
0.0036203586205746,0.0259931877716233,1
0.00126946652603325,0.0134801033967365,1
0.00137930912852776,0.0194290162877614,1
0.00151505895657821,0.0151462575178087,1
0.00159381049062209,0.0164134455033147,1
0.00187980416352209,0.0122442153477147,1
0.00403997377525425,0.0213624873277376,1
0.00398738962449652,0.0192454967550163,1
0.00423077329054269,0.0161877560039123,1
0.0106120390838055,0.0282238287641799,1
0.0137647496589404,0.0274439962997592,1
0.0147069175697369,0.0289263713793129,1
0.015479392988904,0.0285265716604396,1
0.0169570751127755,0.0364342537306516,1
0.0446783849937104,0.0185611531409824,1
0.1077939026204,0.029834453605246,1
0.114111701674794,0.029849406445238,1
0.110269745096785,0.024519704863792,1
0.175437834657678,0.0296118047263995,1
0.217498852558709,0.0316475256368979,1
0.261051767667165,0.0299705296717578,1
0.343952504413426,0.0339023529280714,1
0.289008468135203,0.026707216789601,1
0.232107259153252,0.0206510719637201,1
0.200788784047896,0.0164974195298339,1
0.206472034127518,0.0118257134348349,1
0.171408007782096,0.00980475813902925,1
0.117155021405465,0.00713358161655079,1
0.142702067967358,0.00521050774190876,1
0.250997319073876,0.0120126329121366,1
0.329354373007984,0.0204337129814008,1
0.361459518942169,0.0222297467829329,1
0.440767145872437,0.0258708327280655,1
0.43932579230714,0.0259427893250366,1
0.460088968605142,0.0297609470353492,1
0.407861488578117,0.041090158450977,1
0.276254099548817,0.0267400920499877,1
0.115500970945428,0.00844115388385206,1
0.0593003021341688,0.0135570817273846,1
0.129270343042836,0.0206971890741065,1
0.150832946894352,0.017474632825761,1
0.25940444984716,0.0231495934283358,1
0.224417577893895,0.0121308776620452,1
0.192155520332346,0.0102415538767029,1
0.174961065353653,0.00817113582645789,1
0.189754577118598,0.00635047024079226,1
0.247389719732371,0.0100907148491792,1
0.305728591849575,0.0130432784700202,1
0.365121854911668,0.0159420013908263,1
0.350007932339183,0.0173299694945103,1
0.355678521239384,0.0199313328980294,1
0.196647219183686,0.0137264051942412,1
0.157507710277628,0.0176729126336208,1
0.14944508017713,0.0162763474276598,1
0.0353030905771642,0,1
0.0124620916696364,0.005444030129332,1
0.0123400355703236,0.0052356491063416,1
0.012144761816781,0.00636315383736066,1
0.0120202050614098,0.00751624244443933,1
0.0153728080564391,0.0107982177517534,1
0.0177671850662693,0.0136238840014144,1
0.0195340702822281,0.0156391734740628,1
0.0129563596451691,0.0125786513765934,1
0.00997162314381151,0.0213426183768454,1
0.00686231482729016,0.0166277353186241,1
0.0132154503808362,0.0229349709324089,1
0.0233917242268135,0.0373007834507474,1
0.0331525815789025,0.0493239891528424,1
0.0474896902192067,0.0605143884896599,1
0.048809008456244,0.0567041729018223,1
0.0617545052402827,0.0534217274865159,1
0.0561153347298254,0.0314726175835474,1
0.0614164910123103,0.00645448337670199,1
0.155447367321892,0.0230722684379701,1
0.210499782362296,0.0317539430995581,1
0.222969471138362,0.0178265085154088,1
0.208933669339933,0.0145282693331832,1
0.241906501872958,0.0129454639815183,1
0.417199644970322,0.0213425914580373,1
0.471219333793772,0.0226664089253511,1
0.57587163801286,0.0271741045511839,1
0.592343780681318,0.0297476327222383,1
0.468194612900393,0.0197073319833398,1
0.465945538468516,0.0189905984939321,1
0.486765572997952,0.0181703226155076,1
0.469704345898514,0.0220865577621462,1
0.327262575197899,0.0176026785145994,1
0.324862976490713,0.0195784580138277,1
0.378711468671176,0.0252199256397711,1
0.360199296307039,0.0219499992629291,1
0.274020057224291,0.0173962850619824,1
0.112219141349914,0.00516395312228091,1
0.123586850107027,0.0125806098134364,1
0.186593790020012,0.0198625412170176,1
0.262223077086734,0.0281671608947614,1
0.309531458171119,0.0319499012365531,1
0.250878919904582,0.0248040203664482,1
0.186009474724952,0.0251012922710009,1
0.184511327589544,0.0280999527212419,1
0.129560464655445,0.0325183125995918,1
0.103607496762579,0.0344036521875559,1
0.0977072841693753,0.0286286336872429,1
0.106201325650459,0.0380316641476102,1
0.112025830357006,0.0376620797331339,1
0.0828038330609986,0.0115979231069228,1
0.0955031965218102,0.0150974303255142,1
0.121126910134614,0.0172335238520483,1
0.12039480909903,0.0172608046224972,1
0.138443818590444,0.017465527507964,1
0.156762996082001,0.0183786699472909,1
0.151717784693253,0.0185521077538458,1
0.165219842740888,0.0212761243707324,1
0.156145637696952,0.0189818006771509,1
0.0925096348364471,0.00849967530568896,1
0.0437285643824402,0.0157132198309021,1
0.0427520268096867,0.0158207102785384,1
0.0410507074373654,0.0281807574382414,1
0.0148923248241013,0.0119131638234867,1
0.00755746028967748,0.0235459034531721,1
0.0064402333125506,0.022942556399742,1
0.0049537153664454,0.017222413690794,1
0.00653470027034021,0.0212782137010529,1
0.00636493361595998,0.0185805655491588,1
0.00726692161284684,0.0185210514799423,1
0.00739085296902139,0.0170780657727522,1
0.00541652115292223,0.0149378060161885,1
0.00447294858074611,0.0181971701915685,1
0.00524880250291427,0.0121821085063889,1
0.0125444038877828,0.023660721108048,1
0.0146721359973905,0.0185472373784773,1
0.059287842518462,0.0273324984616208,1
0.0763868616884655,0.0193096697225029,1
0.0832010486445914,0.0183316072234435,1
0.119316000686115,0.0253491421069542,1
0.172555462845512,0.0349405355104847,1
0.297664610325201,0.0472995046271104,1
0.307459429836501,0.025673047032239,1
0.258604888396064,0.023354196949649,1
0.222275486411847,0.0206590130570231,1
0.187504138405518,0.0141864871536694,1
0.253069563578743,0.0200651256279469,1
0.330061327883343,0.032719322950292,1
0.29933066263424,0.0279672495301248,1
0.300296064237959,0.0279041986124547,1
0.30770805068063,0.0251127256917472,1
0.302889616538279,0.0228995750193008,1
0.308309602953557,0.0348284099821284,1
0.269566212130352,0.0271292986185745,1
0.212243753940932,0.0219517648629606,1
0.211128795161709,0.0306285731304542,1
0.281385572266445,0.0372870181320333,1
0.306267019708328,0.0417518548292682,1
0.280340972111219,0.0327354780570075,1
0.208144093253881,0.027296341046417,1
0.108598882757516,0.0138825347088378,1
0.123916250419286,0.0178584688074285,1
0.172731910624492,0.0243204355818301,1
0.215387989979145,0.0446663452424761,1
0.193351185405811,0.032804843029071,1
0.150707894315488,0.0277138927192637,1
0.144006013375859,0.0280478847809982,1
0.168686984428328,0.0227987105366716,1
0.163163273034203,0.0211436409214051,1
0.101234036583189,0.0107164674971301,1
0.085849166843938,0.0120246337396688,1
0.0859984088138894,0.0114505901470181,1
0.0820791912678459,0.0110611541436122,1
0.068591287362174,0.00742784681177641,1
0.0889755265751345,0.0118449146210199,1
0.0919632839329859,0.0113360941715144,1
0.10915407560349,0.0148634028610911,1
0.0801085685687075,0.013895579694525,1
0.0831609956301354,0.0200909003331567,1
0.0948270909944546,0.0302967641875666,1
0.0643917488426366,0.0205370681688184,1
0.0582228695723281,0.0194995996232177,1
0.0493366441095912,0.0161153741362165,1
0.0343515571154922,0.0126692183428085,1
0.033035710659135,0.0138587839129496,1
0.0139143475060183,0.00478923346284237,1
0.00891269759172502,0.00998108938937331,1
0.00912982567478024,0.0117994261044486,1
0.00626074626905138,0.0101345569988308,1
0.00721343147411091,0.0216517960234314,1
0.00821741493154032,0.028259113168494,1
0.00874691755793726,0.0332243608130743,1
0.00868775636471296,0.0302835365314497,1
0.0077869708625245,0.0389927041351135,1
0.00715403016324035,0.0400096395322891,1
0.0115967542683058,0.0335952952882015,1
0.0317727460697299,0.0492507075071969,1
0.0505598453243217,0.0247199214192731,1
0.0483805694144519,0.0254018947796812,1
0.0451260195493409,0.0233100970238277,1
0.0405638242247511,0.0227404119700878,1
0.042943129658287,0.0191502181187446,1
0.0779332580678599,0.019058414971404,1
0.247101820179273,0.0373375597938075,1
0.302423494986434,0.0348213765613022,1
0.307091160704878,0.0296924317604335,1
0.48218322552535,0.0345041568978804,1
0.681075145589842,0.0508008649328268,1
0.575901706107743,0.0260642845141945,1
0.461526767962189,0.0227463990109199,1
0.343999257313959,0.0163385928615854,1
0.256329770982599,0.0121981231337948,1
0.202286903131339,0.00999248023373448,1
0.247230136810938,0.0137629227075069,1
0.272755788105029,0.0158277298746409,1
0.271442183724201,0.0116102224479171,1
0.400380618137458,0.0190868127710969,1
0.366692611962413,0.0106187910167916,1
0.389491977622286,0.013752614443084,1
0.419710903696587,0.0115788716617226,1
0.420003773310252,0.0128119098891931,1
0.405599868356685,0.0122052375042646,1
0.407461045563351,0.0124793244507139,1
0.363456474922625,0.0114834989733655,1
0.322916385138661,0.0105145077925795,1
0.313935764105182,0.017116022626427,1
0.224941870788258,0.012211560904955,1
0.259059481321326,0.0235245857210888,1
0.322138499762874,0.0331215059075821,1
0.344430145276002,0.0544806443310095,1
0.283387793586901,0.0511759944425417,1
0.240063273625395,0.0449707540537987,1
0.221868137821607,0.034367999243707,1
0.189324970230142,0.0303052606321829,1
0.133377888789181,0.0191961138652972,1
0.0937205543272572,0.0113213714959375,1
0.0945148869241939,0.0170307507523813,1
0.0930471565128003,0.0145185189322526,1
0.0917773609343172,0.00991044258975602,1
0.0985057779196044,0.006823262317808,1
0.119987107604856,0.00848632401357745,1
0.136965278349205,0.00914132598914605,1
0.183176438786404,0.0155704773343148,1
0.17919595602991,0.0147874979197504,1
0.177675271848261,0.0148720178110138,1
0.145833210307748,0.0130598774536099,1
0.158454280863849,0.0148725676291405,1
0.163640992346957,0.0168428581340769,1
0.0749841596568366,0.011344227337014,1
0.0362321912338748,0.0160702148618883,1
0.0244469574528888,0.0134286348271192,1
0.00933238320817892,0.00946539612585297,1
0.00951706855800455,0.00827115210464969,1
0.00998446554767874,0.00953353456584594,1
0.00638701795082083,0.00833350793868924,1
0.005428550691,0.0208961449937123,1
0.00466449353234707,0.014713195654294,1
0.00686987456071155,0.0209295039122404,1
0.00917580200813826,0.0268934777206322,1
0.0102390722226569,0.0262677734777324,1
0.00966530988612667,0.0236005367835981,1
0.00623093932713032,0.0169268267732161,1
0.00645777051144655,0.0242693414816861,1
0.0237728068419293,0.00636212104683033,1
0.142520956249449,0.0297998365453773,1
0.164648818011274,0.0188041315117245,1
0.170843105594721,0.0194632151952534,1
0.167054615079104,0.0186665556798409,1
0.146022107052881,0.0157766575265056,1
0.123508419040668,0.0129677531381445,1
0.116852461486992,0.0102284021343009,1
0.151514565856431,0.0136284024783426,1
0.193845685686604,0.0190868572261085,1
0.20914724381924,0.0241652163096835,1
0.238672506266111,0.0308540257951481,1
0.227293903236226,0.0345866915103349,1
0.397304470914045,0.018883261742519,1
0.637374967579324,0.0268104378213732,1
0.599001161411756,0.0255403649675344,1
0.505584739450093,0.0222382935664346,1
0.402846664113862,0.0159098056811139,1
0.365901339355629,0.015179541500892,1
0.350583094057855,0.0132530620033003,1
0.351148870496311,0.0125456043194852,1
0.313741384320971,0.00908683227399569,1
0.178608666072315,0.00278157634720841,1
0.173369088010092,0.0080499868711892,1
0.224332518441527,0.0102387103824921,1
0.373618952400323,0.0158093432901618,1
0.358167148547044,0.0123623263694993,1
0.33288255890764,0.011811630106215,1
0.33623878014509,0.0112050758391299,1
0.334125653267386,0.012344237401262,1
0.306088636816969,0.0126916683680547,1
0.32902195847553,0.0155058515940059,1
0.284115306975036,0.0154399448879881,1
0.277329209211659,0.0200721849604051,1
0.278301048673593,0.0208094972541783,1
0.309705076885967,0.0248181679190178,1
0.374765604875411,0.0380646147974055,1
0.396375487747618,0.0406127639307662,1
0.384075528875003,0.0417575893977883,1
0.416655666580959,0.0365553342985405,1
0.282798562224169,0.0238402346617666,1
0.157338532223972,0.0130318254809624,1
0.130708236700165,0.010231763517076,1
0.110153513486582,0.00605502483951468,1
0.0985599339891932,0.00766832925153452,1
0.101856856333051,0.00671138512834087,1
0.115943576797634,0.00894817433109333,1
0.144431781965449,0.0151519457620936,1
0.0942826253976269,0.0108983844033296,1
0.114936024998498,0.0223612178658222,1
0.110305394046668,0.032045270398988,1
0.109442599370141,0.0363446559836478,1
0.131526569812627,0.0416467025901425,1
0.117750237733704,0.046819837803301,1
0.0529910236287376,0.0260368247178466,1
0.038214382663241,0.0315899850147024,1
0.0220238988800667,0.0173987816290533,1
0.0166698727974105,0.0140621295067832,1
0.0109184289266104,0.00846395409098471,1
0.010508805890068,0.01086819134794,1
0.00539338305835378,0.0057681508598244,1
0.00487401546045032,0.0108867281904149,1
0.0041390524919915,0.00734806424746844,1
0.00556441060042037,0.011943755519384,1
0.00529341106632917,0.0122913611955962,1
0.00516802938994923,0.0158738515333763,1
0.00551339531378124,0.0258784693847864,1
0.00397643368176061,0.0262710279064066,1
0.00529168170304351,0.023080609141482,1
0.0127331773124532,0.0223618040533177,1
0.0133247571971727,0.0155337964903754,1
0.023366132092493,0.0118929661205442,1
0.0568851699613659,0.0228423026222326,1
0.0910924257496008,0.0300269914518516,1
0.102496843528291,0.034351400988512,1
0.100485826016051,0.0337330726901317,1
0.0834630696612781,0.0250542012390929,1
0.0703824107964858,0.0225456502138403,1
0.130812287872704,0.00672624906075393,1
0.394287785687795,0.0264891733286533,1
0.640926251928942,0.0426781293582893,1
0.735020521492875,0.0303783335229098,1
0.713940515221827,0.0299432081593492,1
0.70687109467815,0.0296553493741816,1
0.680438449485377,0.0280011052014431,1
0.617828084897317,0.0268256939448649,1
0.462368413514458,0.0216695975830296,1
0.22725533488245,0.00790259122689532,1
0.145447976606217,0.0132271968413373,1
0.147346646639722,0.0127033606700195,1
0.109985723059621,0.0095413556845835,1
0.106499027492545,0.0201115800810949,1
0.147520310899551,0.0239663557324403,1
0.143227538301124,0.0157683123822264,1
0.155766146233924,0.017538170337089,1
0.171322687028471,0.0187964958393724,1
0.21178662585822,0.0245906739636539,1
0.206126547537648,0.0281171675578371,1
0.191241140973045,0.0332533013174264,1
0.182070646831392,0.0358394760523315,1
0.175594091994021,0.0357295498488547,1
0.163684138214883,0.0236229304824394,1
0.167822261128253,0.0222638557000912,1
0.183805183307079,0.0263889040043016,1
0.18730104719499,0.0260361724599625,1
0.207418082440728,0.0250724453814879,1
0.254508308290073,0.0296969113577334,1
0.314030482678054,0.0362987791754043,1
0.325722536069733,0.031312553996534,1
0.255713341224707,0.0244523362839138,1
0.153047715656092,0.0151046004975251,1
0.0616061055155342,0.00989156130066771,1
0.064605684898652,0.0133580952058879,1
0.0762425263239276,0.00661490755030604,1
0.0744408580638911,0.00261037709258054,1
0.0817553271691715,0.0049587246717893,1
0.0953855819375885,0.00602933590884995,1
0.128343996334509,0.0101794212503416,1
0.170657276879935,0.0162094470590849,1
0.19810421528009,0.0175682933079951,1
0.203883539345293,0.0178327270035678,1
0.179724983382548,0.0144090769642644,1
0.166155363867678,0.0142832828184423,1
0.119857504219252,0.0238115932962887,1
0.026239610120516,0.0184230511945804,1
0.0184942432793634,0.0125522726546375,1
0.00944617967577769,0.0079171795813892,1
0.0160020386376313,0.0145594188910414,1
0.0149898521194784,0.0139258764167403,1
0.0135098429461488,0.0131290835783852,1
0.013835255392359,0.0102431341627042,1
0.0163980332034752,0.0112383217337694,1
0.0158461544800757,0.0121703370823817,1
0.0133276301198403,0.010270262182935,1
0.0125633529082817,0.00909250436333867,1
0.0113760866085468,0.00760081336599275,1
0.0147449808653339,0.0111498781796781,1
0.0122404629698297,0.0074532854648132,1
0.019116469847553,0.0101214559347901,1
0.0226316331280478,0.0113964897911224,1
0.0346929953112235,0.0135185490329843,1
0.0716512983595998,0.0323229357118107,1
0.077431778752677,0.0254777128855164,1
0.0792483111835531,0.0261293244334254,1
0.0723136548733846,0.0240648169117218,1
0.095224381055672,0.0222344153583672,1
0.134501377739364,0.0304385432850561,1
0.317713436006105,0.0396314725655139,1
0.473135979226107,0.0463909841656697,1
0.657165535960139,0.0522426570075222,1
0.753135054084722,0.044628660427511,1
0.729525659000242,0.0338882587064863,1
0.622680990038256,0.0308771500502247,1
0.488910554917745,0.0257136148640424,1
0.320990416335328,0.0182091344319208,1
0.230322752274943,0.0112737061524431,1
0.226175567343976,0.0107695544257736,1
0.222622484061421,0.0143851349408516,1
0.221045009108487,0.0131846561888456,1
0.186535384148179,0.0170990341556395,1
0.150799990136532,0.0160775002024497,1
0.199778501282744,0.0198785367716353,1
0.264334857025125,0.0285066476049543,1
0.310728926788789,0.0319260973309493,1
0.332850652637269,0.0181334665355519,1
0.391853136397021,0.025706480482047,1
0.324001676344727,0.0211531547684188,1
0.294944291894258,0.0155756242094294,1
0.300082544200676,0.0132265720247942,1
0.323554460679562,0.0125696534311336,1
0.321424350667138,0.0124937341057171,1
0.288644687836571,0.0144401861144761,1
0.257578362093712,0.0116762400967686,1
0.273174498229447,0.0127196566882546,1
0.358049646588901,0.0259624458457891,1
0.383562579724153,0.0269094981775791,1
0.382473741773374,0.0268726565574729,1
0.352208330942669,0.0205601216865123,1
0.375079852082537,0.0245139202574114,1
0.281839661563497,0.0120207302581345,1
0.271919073785104,0.00844032670910642,1
0.285562821818303,0.0105050604519456,1
0.349688600222892,0.0154281350742798,1
0.38359377465672,0.012397733915068,1
0.356379651633656,0.0155379318178703,1
0.259956834187465,0.0108816908391258,1
0.244299436480556,0.0068207401105799,1
0.426903517083929,0.0178331640201055,1
0.50786150137372,0.0217389346819216,1
0.5452638730007,0.0317215004532323,1
0.614675556213538,0.0473102791691864,1
0.579469971120635,0.0424750243058288,1
0.448038599128726,0.0377022831762902,1
0.310712370096787,0.0394914542146618,1
0.236158745265885,0.0286856498920079,1
0.0715443261797762,0.00593737816290486,1
0.0122971394474673,0.00361259292484905,1
0.0123935183366002,0.00789384676066184,1
0.0126464273847176,0.0122425732245568,1
0.0113750042572592,0.00361307911839846,1
0.0147671664851537,0.00426247908246703,1
0.0160216014494667,0.0029167238954825,1
0.0218880873656536,0.0042587202266788,1
0.0226501777140802,0.00351291126542022,1
0.0215169704978461,0.00367512716950273,1
0.0224652699956284,0.00381556707288261,1
0.0250820278859413,0.00436265755007062,1
0.024619937683522,0.00417134506072417,1
0.0533566459497669,0.00551718530229959,1
0.121598596741375,0.0179328627107197,1
0.143912429982526,0.0232576450958939,1
0.178140756629941,0.0277622073951152,1
0.255152968852052,0.0430883648186527,1
0.227916256970609,0.023457734470542,1
0.192855672790623,0.0177538871498339,1
0.150080711487619,0.0158473814257059,1
0.181074034250226,0.017105596713444,1
0.141247134843924,0.0119044341701149,1
0.193323876224738,0.0197251224193408,1
0.230472924806125,0.0214026226967661,1
0.198435662611281,0.0172405737661965,1
0.271200833979327,0.0132200720888672,1
0.416727040772559,0.0201970759633251,1
0.519766461480177,0.0311438996528857,1
0.48328842520792,0.0143256610628488,1
0.395211041757505,0.0119367233910547,1
0.378849733623908,0.0107353471430827,1
0.40671477061718,0.0122341978546854,1
0.424697909200606,0.0130355918257826,1
0.4489859311716,0.0139803045755256,1
0.398752678527941,0.0120200289914512,1
0.387915931582503,0.0169795535020099,1
0.412225549734973,0.0170218327764201,1
0.33033051265327,0.0125658899243701,1
0.2823974123354,0.0190315406777758,1
0.294517345506269,0.0126171020851192,1
0.325369496122136,0.0194859602972485,1
0.278896292902318,0.0145319849231869,1
0.265929173057267,0.0141539186279388,1
0.241115459511718,0.0109556067538303,1
0.259777046946061,0.00907899659285154,1
0.270921084384883,0.00730501962332325,1
0.252808636315692,0.00684942439087764,1
0.362160976524304,0.0133067050942997,1
0.442970537635436,0.0166948267816217,1
0.447746100633897,0.0207981449014898,1
0.418093631041834,0.0180477169228203,1
0.43494236471341,0.0192123165771983,1
0.458098004746995,0.0210266278810846,1
0.515941294840394,0.021479490388585,1
0.368578581950168,0.0302100815201024,1
0.166288385518273,0.0235788587111323,1
0.113494294346865,0.0181177532096722,1
0.117671152014849,0.0247826717531733,1
0.16057931164097,0.0318802049400403,1
0.250433645717108,0.0288918187020359,1
0.494328696042969,0.0354180581397379,1
0.499613067652546,0.0324256777153581,1
0.484461891799165,0.0335391608353066,1
0.438175556284383,0.0301159456726888,1
0.34342467137561,0.0265786224154149,1
0.262082903774925,0.0180407117360495,1
0.232856171547565,0.0165669793071543,1
0.270714849611456,0.0175821629743357,1
0.473876194218435,0.0278069526634787,1
0.650788572154765,0.0487979939088846,1
0.505250903568891,0.0496798828665007,1
0.58273422268724,0.0582313608355422,1
0.599299238117187,0.0654812007932262,1
0.421044793158803,0.0484641294746201,1
0.263277789924086,0.0260724519738082,1
0.179374488525968,0.0195226062908738,1
0.0921141878302574,0.00865694953323194,1
0.0360323084347969,0.00160157375631348,1
0.0335043994760031,0.00515288408182524,1
0.0340831081172931,0.00667802964162932,1
0.0196229334635271,0.00334743787579804,1
0.0184254089381192,0.0121801133625766,1
0.0167212270238202,0.00675728017532578,1
0.0174184669116385,0.00982824097264877,1
0.0143235312718905,0.010727837958735,1
0.0144551756220952,0.0119302668518382,1
0.0121927096866577,0.0103960009761081,1
0.0130818443580746,0.00602598961489123,1
0.0170331925982294,0.00828587258223895,1
0.019691531436707,0.00872164086363955,1
0.0285830393718107,0.0148700271392571,1
0.0406265187253989,0.0205681769932035,1
0.105909333689786,0.0300803893505132,1
0.168769934021848,0.0373085231068712,1
0.253734775230429,0.0433476344472194,1
0.274938411702384,0.0424132587741536,1
0.219458023255434,0.0296406194840346,1
0.195271937856974,0.0277301118438261,1
0.178503136199518,0.0259495433633134,1
0.161828531511311,0.0109799742979786,1
0.378384328893082,0.0190558747964484,1
0.489717437650887,0.0230882838159341,1
0.621649379732546,0.0288917179327513,1
0.632358872708733,0.0224656694889823,1
0.706281657030957,0.0141257110167507,1
0.878878392038897,0.0171883994417777,1
0.837708757181108,0.0182372678043944,1
0.609134888189895,0.0138659979448678,1
0.372909895943675,0.00687111502897658,1
0.217199675665552,0.00259061503038807,1
0.242252254015883,0.00570676906119095,1
0.286231711069721,0.00716238918789093,1
0.285899261807948,0.00645592342885607,1
0.224033992657031,0.00609138774133805,1
0.194885523548427,0.0147164421386807,1
0.190108017074615,0.0109253818510283,1
0.211255099934604,0.00864364293420056,1
0.210365981797778,0.00685002474475155,1
0.242242618493809,0.00984894744501816,1
0.217379907144822,0.0113608956255245,1
0.217681627444439,0.0100138200900033,1
0.203599326056443,0.00919392535134577,1
0.187195926723384,0.00996646828627351,1
0.202241776483597,0.00831006829393049,1
0.205103858616557,0.0079937905498534,1
0.190306343927187,0.0105442037191556,1
0.183099581615184,0.0119243248887563,1
0.189931904847415,0.0179304373212859,1
0.152518927699451,0.00952957258979211,1
0.230247433014532,0.0141838950046142,1
0.302855829063719,0.0189140151077493,1
0.41331716076735,0.0269628315424119,1
0.499988557736495,0.0307271070354229,1
0.612002982971422,0.0407165363683473,1
0.693411467064329,0.0531155614574102,1
0.513033903209438,0.0454253206252268,1
0.348935011952169,0.0376119439649485,1
0.23334910184183,0.0272019639567553,1
0.0937190958846289,0.0225647956519831,1
0.080950563951323,0.0160048207655972,1
0.136992976126321,0.0105297177900137,1
0.243211878772233,0.0205453641653793,1
0.285069341035785,0.025602825622392,1
0.256057412422005,0.0190433563803148,1
0.233903245710544,0.0137559328445801,1
0.235633935810481,0.00875417934713336,1
0.226220384143622,0.00665868059479835,1
0.206906182384758,0.00514286836492949,1
0.205048288359978,0.00352624109269909,1
0.276626500309565,0.006200402267412,1
0.285414540796497,0.00907769008904319,1
0.308004673353081,0.00923555173438616,1
0.305157644942987,0.00892605152530454,1
0.298245072241193,0.00949553719214355,1
0.27598690757122,0.0109595114556097,1
0.225041593796621,0.0108199007377918,1
0.205476232234687,0.0139472370156472,1
0.0937680620208919,0.00480732068482641,1
0.0778528581345082,0.00593275882612663,1
0.0723071873890713,0.00807144627135491,1
0.0618224713198904,0.0118641595991809,1
0.0667584441348586,0.013563455988304,1
0.0768841819894689,0.0105032764679499,1
0.0763205390100601,0.0057469214052788,1
0.0779838690109908,0.00511805249711062,1
0.0772194291567875,0.00628860788620411,1
0.0688505748708484,0.00327774506067782,1
0.0805832844756301,0.00242543193365751,1
0.0809679946230654,0.00197202556702161,1
0.0877423391628145,0.00279660200978561,1
0.0891001114979676,0.00170344825822318,1
0.0905370393230087,0.00224430406828959,1
0.0711325461794287,0.00167873863675054,1
0.0747008533267767,0.0042745703507095,1
0.0711675138641392,0.00550673831629416,1
0.0591388587030347,0.00353074970488612,1
0.0554649004407829,0.00566819747248466,1
0.0464417768059238,0.0110844971860441,1
0.0314325044699744,0.00785883464512716,1
0.0377893369206877,0.00841798983927482,1
0.0443451302325909,0.0193585071132251,1
0.0266682755044317,0.0116884836196391,1
0.0263659488151946,0.0089852865124197,1
0.0260192207495086,0.0104934245075534,1
0.0237353790586529,0.0111380006507135,1
0.0248040622899305,0.0138401488619996,1
0.0358689208760301,0.017649162254889,1
0.044118740894681,0.0148432716247989,1
0.0400397733930791,0.0166766722639134,1
0.0366872881351357,0.019347626905663,1
0.0322938271056659,0.0155534963480552,1
0.0337601096128529,0.0124647350496352,1
0.0320102369422912,0.0111798052588023,1
0.0342635298733077,0.0108396238682732,1
0.0349820132149226,0.0115463564378201,1
0.0352065758406875,0.010964658892174,1
0.0321374067677996,0.0120089517516145,1
0.0240032604276202,0.0115215249204481,1
0.0226414580002951,0.00965686166852471,1
0.0205893642016752,0.00762266758033672,1
0.022603848240367,0.00853339625600191,1
0.0207487310565588,0.0124625160173121,1
0.011723254032086,0.00670279670291201,1
0.025556230188734,0.00581997539499863,1
0.0447534633196208,0.00487002366577634,1
0.0483787726078863,0.00484256200467157,1
0.050171977151617,0.00314518734194438,1
0.0636980629298319,0.00607716699391191,1
0.0669104036618507,0.00425712084776741,1
0.0689400838678845,0.00431374252903438,1
0.0692432778891194,0.0042045127811636,1
0.0677570496656136,0.00368477790210593,1
0.0600635654262276,0.00267355198636837,1
0.0588025569114917,0.006672390765184,1
0.054784568348965,0.00734175028791704,1
0.050084145564396,0.00239980115925566,1
0.0616065218865376,0.0070490200846215,1
0.0510353501481024,0.00425930433168674,1
0.0497728957978419,0.00586419200307551,1
0.050771452183862,0.0069683994402328,1
0.0422887096659034,0.00532272401797901,1
0.0406273408162005,0.00582289136104562,1
0.0443774243341754,0.00586329911689615,1
0.047046333060044,0.00654098924790823,1
0.0264206367164378,0.00501394258784507,1
0.0122196539897441,0.00783478572171484,1
0.0110750399577886,0.00808635164854786,1
0.00984114895953066,0.00885154249443082,1
0.00940168213481491,0.0127090862508045,1
0.00905691437153061,0.0140907555649826,1
0.00806672589877613,0.0141029029876523,1
0.00532665560642325,0.00805101700603473,1
0.00466231236348795,0.0130521015907043,1
0.00394041603871525,0.0137466466546248,1
0.00489549483636777,0.0175488541226025,1
0.00719281852568119,0.0249554074140232,1
0.00934498346842466,0.0135941349107809,1
0.0112848820926174,0.00772660546002668,1
0.0116687849238993,0.00805432365977656,1
0.012140327338748,0.00871034562428097,1
0.0152395004995994,0.00725522005422075,1
0.0264017373586996,0.00945718708817883,1
0.0281248998250007,0.00835505984371588,1
0.0281191121589027,0.0075172048809688,1
0.0294237107898123,0.00830814829591953,1
0.0246514419907544,0.00595730934255919,1
0.0242678325683016,0.00797096864315325,1
0.0273173822043312,0.00835010820131679,1
0.0273049693328151,0.00434772885097998,1
0.0289293245752124,0.00498176897289931,1
0.0292944006031611,0.00660064000043067,1
0.0294601899702615,0.00910472203933119,1
0.0369351555258796,0.0138909159873817,1
0.0399468546606038,0.0160922770418277,1
0.0388250067261793,0.0160146609734666,1
0.039081677279346,0.0163294718292443,1
0.0434004310044122,0.0176652959489805,1
0.0309665840185576,0.0267878532041532,1
0.0147620319759889,0.0384019840539354,1
0.0110934164085217,0.0347650196297571,1
0.00422128089837489,0.024931566915368,1
0.0036565628899987,0.0286022507395768,1
0.0038211236502898,0.0333942866233972,1
0.00153539675744403,0.0438682088946378,1
7.40309195988243e-05,0.132989540523881,1
7.31232023511246e-05,0.23633005118799,1
9.39366839878185e-05,0.271103397632177,1
0.000100278967797557,0.236128542029507,1
0.000100918577134789,0.214550176837066,1
0.000103290687052233,0.216416756318585,0
8.15236444761057e-05,0.225202655940152,0
4.78708142744999e-05,0.258519043343218,0
4.93769689559391e-05,0.290071031564151,0
3.54102315311187e-05,0.294159347443547,0
3.21851342472458e-05,0.329818017903565,0
3.34086921040492e-05,0.32671490778703,0
3.34002233081175e-05,0.327364349660049,0
2.74172198338384e-05,0.539669970133986,0
5.8408910972397e-06,0.363411981013411,0
3.39557189856573e-06,0.359519563906034,0
3.3578076870768e-06,0.373811808184158,0
3.6170438008897e-06,0.396692286107947,0
3.4685403939414e-06,0.395875531859848,0
3.48499558827665e-06,0.400306901983354,0
3.50880932098966e-06,0.39280337834146,0
3.56580041855474e-06,0.403612674270751,0
1.99402126926019e-06,0.340961149681281,0
1.00790008932518e-06,0.294171807423496,0
9.89871351768665e-07,0.288040541372769,0
1.01107372001905e-06,0.296744441321899,0
9.63320493828765e-07,0.299663291204992,0
9.79777929678581e-07,0.300206578793684,0
1.00118038259708e-06,0.298694307069936,0
9.5203081081024e-07,0.309088378325378,0
5.4726283050914e-07,0.238927313909799,0
6.36981456346406e-07,0.249241725157477,0
6.48010179880343e-07,0.259665231261322,0
4.45230857346047e-07,0.223428459271929,0
4.87008559642221e-07,0.245525059883535,0
5.096939847103e-07,0.265065608806285,0
5.16182579489797e-07,0.264432386310691,0
4.96562956467806e-07,0.272538064230492,0
4.79704879383969e-07,0.276738249244633,0
4.93208706890156e-07,0.27030782621702,0
5.01081849821148e-07,0.284408430749948,0
3.95582489582342e-07,0.286626716165454,0
1.58306611890072e-07,0.192739197034861,0
1.47057512082532e-07,0.189036682732802,0
1.43870432301294e-07,0.187353433449579,0
1.24386597871869e-07,0.165748215288233,0
1.42572713345394e-07,0.189870688860758,0
1.25366375683573e-07,0.175872345977992,0
1.18587917679108e-07,0.164136888493718,0
1.25216312182491e-07,0.165118322714077,0
1.29217061749079e-07,0.162637956014596,0
1.5463052801136e-07,0.174493149447739,0
1.42383010428932e-07,0.167645211486818,0
1.32533087604754e-07,0.162384206643277,0
7.81358942836105e-08,0.130653918721515,0
7.57773490684886e-08,0.132932347579662,0
7.80336104349959e-08,0.127826938671338,0
8.13062216928729e-08,0.129169614114888,0
7.8112889265756e-08,0.129874212093199,0
8.19393905689015e-08,0.141558520837909,0
7.73053541518348e-08,0.138184571169838,0
5.54989567147017e-08,0.125285837128095,0
5.43343129390072e-08,0.124289962663524,0
4.62078788627138e-08,0.119219582562962,0
4.59469193781275e-08,0.115950560233139,0
5.26534129677656e-08,0.122840026580574,0
4.92840626604482e-08,0.128940633923498,0
6.06984446731888e-08,0.14226944201303,0
7.43946885082029e-08,0.143132494466712,0
8.79655255022967e-08,0.150666041646944,0
8.86631084283179e-08,0.151169022543429,0
8.48312982748983e-08,0.148387139331476,0
8.42692679925432e-08,0.147975132167018,0
8.05643983479008e-08,0.149083007983978,0
7.94156811230285e-08,0.152178408756661,0
7.85574169953768e-08,0.151501516420811,0
1.02137560296323e-07,0.15548983590034,0
9.79697589077764e-08,0.148305994101301,0
7.80845753976272e-08,0.139182903937229,0
5.73187126142243e-08,0.122884331895317,0
5.40464552796985e-08,0.126237185885586,0
5.0702587453697e-08,0.124339435337984,0
9.10527988983816e-08,0.155656692399522,0
1.21168254861238e-07,0.170361003563702,0
1.22121488421572e-07,0.165654354279537,0
1.220176709051e-07,0.165591307270009,0
9.91699129930824e-08,0.159914251397376,0
8.72535496933098e-08,0.162931073124141,0
9.62001421497318e-08,0.176428044915022,0
7.09258857390832e-08,0.157361053815796,0
1.12538777727858e-07,0.179897557959166,0
1.23040863314601e-07,0.174314522666879,0
9.59339917893219e-08,0.156407719890457,0
6.1602128964297e-08,0.132687832962159,0
8.3926080315933e-08,0.145633697896777,0
2.20196598513677e-07,0.218198226103145,0
2.62021254641165e-07,0.22679939554387,0
2.76305247188751e-07,0.218160306577391,0
2.54951281769424e-07,0.20497960361746,0
2.5158488082337e-07,0.21129038953333,0
1.58350026487869e-07,0.173959755915191,0
1.57885325127206e-07,0.173722124700754,0
2.22426197654363e-07,0.189515611819809,0
2.24693194695869e-07,0.182255612070945,0
2.15655525963633e-07,0.182538044288335,0
1.70656767244466e-07,0.165227126912461,0
1.60920925713956e-07,0.16837938500738,0
1.2237631323473e-07,0.150604497377085,0
1.51688717112786e-07,0.160042213053525,0
1.92840093051063e-07,0.173072144254878,0
2.24387522894529e-07,0.18605421511409,0
2.45431215508945e-07,0.19550828195128,0
1.70236188328304e-07,0.170767641986629,0
1.80740633404058e-07,0.178967217121669,0
1.39599285294077e-07,0.159917393767955,0
1.45365286564039e-07,0.169398620150689,0
1.56203481360361e-07,0.173809172013312,0
9.81081429382554e-08,0.150769237336575,0
7.10212090951169e-08,0.142824985977462,0
7.35216775742337e-08,0.147517033211551,0
1.18743643953816e-07,0.177827408300974,0
1.36886344829543e-07,0.182972422804838,0
1.21405737430168e-07,0.171837425169734,0
1.30185396039081e-07,0.17313890431212,0
1.26212842366171e-07,0.170826205647717,0
1.52384294473148e-07,0.178532379577723,0
1.47768308147014e-07,0.168689322119427,0
1.72370110189605e-07,0.164940652124691,0
1.61231552442218e-07,0.155459101503003,0
1.5558529523955e-07,0.152875323134542,0
1.53829245543317e-07,0.152116401684711,0
1.72537751883817e-07,0.162266114172985,0
1.50265473341516e-07,0.157330929589599,0
1.55424260114568e-07,0.158010746851452,0
1.63453719192521e-07,0.164617820791993,0
1.45432414026394e-07,0.164964690744734,0
1.15659319918994e-07,0.146671408330938,0
5.71203975628728e-08,0.113696547054236,0
7.51262480759786e-08,0.134466491292659,0
9.2129197785075e-08,0.151283675957256,0
6.67471127266364e-08,0.130206336700176,0
6.05341062635917e-08,0.129512798087988,0
5.26609633325998e-08,0.126087965934188,0
6.57161340033995e-08,0.141067219554072,0
6.58863711355233e-08,0.138627002472371,0
6.96285207065353e-08,0.139207740562472,0
6.16241901865474e-08,0.132817937195094,0
6.00038111084309e-08,0.133750163019321,0
4.22008766502477e-08,0.115487396373842,0
1.96881661777536e-08,0.0921446554230338,0
2.06021142460584e-08,0.0967644807946224,0
5.30607787454676e-08,0.125480090509765,0
6.31370945402251e-08,0.123514275614061,0
6.00708205963356e-08,0.123917631665491,0
8.34760077871372e-08,0.140576028987496,0
1.07849529267941e-07,0.154433026117773,0
1.0680899461421e-07,0.144494650816166,0
1.73955332881462e-07,0.174826942140462,0
1.66749807366055e-07,0.165188386385911,0
1.81216424363071e-07,0.17181307790079,0
1.66141059201287e-07,0.161178684969981,0
1.84989247291222e-07,0.17807733784107,0
2.03217125720238e-07,0.190431443345585,0
2.02432949547522e-07,0.183280666552861,0
2.20735505803727e-07,0.191058362532228,0
2.94651218042753e-07,0.22269884655353,0
3.07803835609695e-07,0.238840987599939,0
2.98347947450308e-07,0.244928887958794,0
2.94865459644926e-07,0.25861790490923,0
2.68082310011918e-07,0.242954540949276,0
3.2859435505326e-07,0.268223238795219,0
2.77437212041647e-07,0.247140236253734,0
2.42524443022181e-07,0.238891038958688,0
2.44298778758247e-07,0.252467151633525,0
3.04262832476847e-07,0.27463125414376,0
2.18642639051213e-07,0.231175567050975,0
1.88582749054559e-07,0.213773182940506,0
1.19932826415222e-07,0.181718784700572,0
1.03232953069553e-07,0.167256520731818,0
1.05930674829967e-07,0.17521762784247,0
9.32328487698421e-08,0.175960676023287,0
9.48410764795535e-08,0.170215649366076,0
1.01278706296419e-07,0.167088187493378,0
1.08773033266739e-07,0.170810956026423,0
9.58855042901513e-08,0.168078592669132,0
1.02694399702855e-07,0.176157822478438,0
1.02498208191613e-07,0.169457411777954,0
1.30793200408244e-07,0.188874045289661,0
1.3499167515393e-07,0.184826176129891,0
1.11270670359043e-07,0.16064208041561,0
1.01604905652152e-07,0.148277891481748,0
1.10314605411897e-07,0.156052941652831,0
9.7047788576835e-08,0.143640431315194,0
7.22230148227302e-08,0.130345433874486,0
7.57867870245314e-08,0.133068188300224,0
7.61737432222905e-08,0.12934438436664,0
7.84482906286304e-08,0.134781812648384,0
8.76202142855768e-08,0.141176460550027,0
8.06426154086062e-08,0.138425697906663,0
1.08058933917642e-07,0.158345425529755,0
1.09520991283139e-07,0.163036253535067,0
8.2995143926751e-08,0.13904350840478,0
9.49133948177322e-08,0.161326734162163,0
8.85753354371189e-08,0.14866247253321,0
9.05468064800314e-08,0.147715511869368,0
9.49204732847641e-08,0.152173507219888,0
9.73663195932833e-08,0.152380192697703,0
7.88853859678678e-08,0.137472224965214,0
9.07553853085795e-08,0.139234579961552,0
1.0643949863513e-07,0.144148476952111,0
9.69519933229997e-08,0.14325136204152,0
1.14959023580611e-07,0.154526649814781,0
1.30544864189865e-07,0.163614433044641,0
1.28337326271429e-07,0.169431265559189,0
1.19003777617248e-07,0.174640154122802,0
1.15048684163018e-07,0.178675010808322,0
1.09272301141408e-07,0.174281065411732,0
6.95460565656106e-08,0.147238061431494,0
3.72559775560179e-08,0.124575372848046,0
3.21061568412066e-08,0.124311976060737,0
2.32764770652662e-08,0.108560884968024,0
2.75862017178085e-08,0.117506607489221,0
2.82144156669144e-08,0.116918537453495,0
3.41701198533394e-08,0.115008695880515,0
8.87630327879221e-08,0.148795622533885,0
1.03086074878636e-07,0.148126730867865,0
1.0433660405432e-07,0.142886018286513,0
1.26950536605375e-07,0.156967480525115,0
1.17184611589978e-07,0.151409093678204,0
1.57719688998653e-07,0.166976633883088,0
1.70457154474158e-07,0.168875902460599,0
1.63674921287276e-07,0.161891237880436,0
1.43488195081556e-07,0.149642259273471,0
1.55375300717596e-07,0.16385539303662,0
1.21358547649954e-07,0.149816438654182,0
1.09456695207597e-07,0.146259510773631,0
1.22739674542382e-07,0.157781264356131,0
1.24555655259487e-07,0.157880755841789,0
1.44851035934152e-07,0.171414314706462,0
1.01240010676643e-07,0.155129753303691,0
8.3029474491857e-08,0.157930149710659,0
7.87452323206307e-08,0.164122030026376,0
7.42672761016236e-08,0.163727181837448,0
7.26133922795549e-08,0.155538436219166,0
7.08167593723371e-08,0.157264828734663,0
6.13284282390529e-08,0.152008901689211,0
1.07117261853461e-08,0.0918728257173793,0
8.73040427581395e-08,0.162247945603389,0
1.19245743215298e-07,0.17795928494705,0
1.17667716964925e-07,0.173768596986393,0
1.19417514015279e-07,0.166648943551622,0
1.12184854376249e-07,0.157141821585872,0
1.16288831587056e-07,0.15847582553945,0
9.30583645574991e-08,0.149448789248887,0
8.55934132253629e-08,0.148944176063766,0
9.96497150834137e-08,0.161641415088482,0
8.9886149557028e-08,0.161694561439352,0
4.87348915932018e-08,0.142929874316212,0
2.49964265796352e-08,0.113095902824148,0
2.50813681840215e-08,0.1106051458053,0
2.28813806304201e-08,0.113014334698861,0
1.47269866093497e-08,0.100804939495937,0
1.52630625125868e-08,0.100404677765017,0
1.31306743191428e-08,0.0931807959042069,0
2.8791074781136e-08,0.106009535332709,0
3.07337600581175e-08,0.104136570166921,0
5.31947977212768e-08,0.125597863308851,0
5.92001691513776e-08,0.133060185643397,0
6.17327266810407e-08,0.132796867943662,0
6.10211047954057e-08,0.137015764589915,0
6.09729712195868e-08,0.136974113434871,0
6.35793807552856e-08,0.136703294930985,0
6.54324054498601e-08,0.140785928507506,0
6.55424756122101e-08,0.140920704219738,0
4.23754788370414e-08,0.122333147848639,0
3.92978793459006e-08,0.119247406539827,0
4.60295014935029e-08,0.117165902948146,0
4.82582748130351e-08,0.117002228794815,0
4.22307241862335e-08,0.119786671565872,0
4.69039281208783e-08,0.112959053120192,0
1.0623268942334e-07,0.147954817868898,0
1.04382850038931e-07,0.14194100727076,0
1.1857281694944e-07,0.151246345171072,0
1.3792593568767e-07,0.164408002289127,0
1.72405030626964e-07,0.186006250273674,0
1.38231253565658e-07,0.165532476272352,0
1.0674528841092e-07,0.154864982652326,0
1.03437166843432e-07,0.158891340723013,0
9.25287772490415e-08,0.146731705973218,0
5.74478946375615e-08,0.122799492346106,0
1.10105672659997e-07,0.169174968337478,0
1.26277020467263e-07,0.182450577709275,0
1.31585870741397e-07,0.181150151363103,0
1.25279428513528e-07,0.178730424183684,0
8.51917102212867e-08,0.146549602186158,0
8.77588342649569e-08,0.145917880728664,0
1.04668938081481e-07,0.154766437789782,0
1.03355056625858e-07,0.147298052412923,0
1.64103050568273e-07,0.181604791337518,0
1.88794631167722e-07,0.202607354758126,0
1.29762457633908e-07,0.172971485364284,0
1.28752596337317e-07,0.18093200918606,0
1.4676222203284e-07,0.19879029758124,0
1.83353177611185e-07,0.22045957273009,0
1.7885599155674e-07,0.214250235517085,0
1.76346439044932e-07,0.212845774911927,0
1.96077901846032e-07,0.22329475940398,0
2.02773541786221e-07,0.223015328029496,0
1.8146263704134e-07,0.211743664475896,0
1.57146687092398e-07,0.201463331215362,0
1.54053986871589e-07,0.203238915555469,0
1.64313045090227e-07,0.196437447658262,0
1.6686306283857e-07,0.180471030094473,0
1.80373142990637e-07,0.175490270841959,0
1.79670369188792e-07,0.177373591457372,0
1.8752050710193e-07,0.18103852721605,0
1.9666246524844e-07,0.192376774966397,0
1.94171788648717e-07,0.193818952882586,0
1.63418208882909e-07,0.181170344524017,0
1.64219491350952e-07,0.172180295919858,0
2.25897595861394e-07,0.198209421177076,0
2.68203233823718e-07,0.22332320810216,0
2.5021437163149e-07,0.224941843084601,0
1.94724498949479e-07,0.202483998485369,0
1.89376953055569e-07,0.202755325890594,0
1.73954743009209e-07,0.211264004010892,0
1.21112216997234e-07,0.173091148686295,0
1.17852346980014e-07,0.171005137293466,0
1.43499402654357e-07,0.184012180191457,0
1.72287174150878e-07,0.210555573590786,0
1.24793491751769e-07,0.178810411549072,0
5.20003064095965e-08,0.122339643894562,0
3.0812213067724e-08,0.104247690584574,0
3.42333541588269e-08,0.109684201927327,0
2.6567846260779e-08,0.107725513992701,0
3.47006509574013e-08,0.110225036048862,0
7.70316534265905e-08,0.147686364237764,0
7.94705392425279e-08,0.144414181445029,0
8.52719328476515e-08,0.151416761567917,0
8.13731132063272e-08,0.153757367471892,0
7.85332322330168e-08,0.157352106016965,0
6.94491995417205e-08,0.15290341462385,0
7.30069550465441e-08,0.155875589631515,0
6.74513022218878e-08,0.151152265547445,0
6.45509003554523e-08,0.142714113442998,0
7.76715468462996e-08,0.157091065853397,0
4.94196153041146e-08,0.13347006605683,0
5.07233509569914e-08,0.144777640564665,0
5.28781542960374e-08,0.146980286882848,0
5.45297966035458e-08,0.145339938218651,0
8.41423274837662e-08,0.165262212673938,0
8.56849613989791e-08,0.157227316091889,0
7.32622517575046e-08,0.14332147534927,0
1.10176457330319e-07,0.171770833169253,0
1.14841639002327e-07,0.166351435318457,0
1.31592477310627e-07,0.175316540402555,0
1.17615808206689e-07,0.15973550687712,0
1.39690833467693e-07,0.173672794109091,0
1.65447487406584e-07,0.184962420691267,0
1.652859803838e-07,0.190248014524298,0
1.72468264932451e-07,0.19143465832934,0
1.74454128858329e-07,0.192281582306527,0
1.73459250316956e-07,0.194715335002014,0
1.70207048639022e-07,0.180910563805418,0
1.79365523208606e-07,0.198027630050602,0
1.19914540375389e-07,0.160662360957452,0
1.14609819207024e-07,0.163552609885036,0
1.09282093020803e-07,0.155555560610715,0
8.56815401399135e-08,0.13777738797605,0
7.79104451086357e-08,0.12867907087854,0
8.56075701594272e-08,0.133870873178294,0
1.39304349167736e-07,0.175974324050304,0
1.70907227002955e-07,0.187550800471616,0
2.21314996304761e-07,0.206425885489408,0
4.26144596814929e-07,0.270327163323708,0
4.48203813499562e-07,0.261663873619491,0
4.6096168855501e-07,0.274573617870587,0
4.68773838695075e-07,0.279927804859614,0
4.62377853859247e-07,0.284882245739723,0
4.61292488914314e-07,0.291672129574554,0
4.48621089131109e-07,0.286508876881064,0
3.92031104697848e-07,0.26265681873459,0
3.38566027510393e-07,0.244010538173813,0
2.95325560002018e-07,0.244209765603132,0
6.87527963602044e-08,0.132161662956117,0
4.76286451705228e-08,0.127367510221093,0
1.16999627651537e-07,0.173520927034819,0
1.52718044193716e-07,0.198950278630429,0
1.52039809077582e-07,0.188801874431278,0
1.58140621838167e-07,0.1863445985191,0
1.55023736854997e-07,0.190496932556006,0
1.2935155262269e-07,0.175422573622231,0
1.83327577155418e-07,0.197640585356278,0
2.48045647307281e-07,0.227179587184688,0
2.63789101782451e-07,0.241420765486735,0
2.76913405481265e-07,0.247155150378985,0
1.86337341337501e-07,0.202382985365582,0
9.66484450617698e-08,0.147438219623964,0
7.41634585851514e-08,0.131699427149073,0
9.09555879511397e-08,0.141321098985129,0
1.17556467058069e-07,0.158133820552725,0
1.15638202492348e-07,0.15472224119111,0
1.15583934245102e-07,0.162274725282149,0
1.09192432438395e-07,0.165611290505262,0
1.69250865717425e-07,0.199154621787714,0
1.64550881582508e-07,0.18183558245097,0
1.50313252993983e-07,0.172221831496905,0
1.2561636354426e-07,0.158381486119102,0
9.31261998665574e-08,0.140719217573943,0
1.41747718012794e-07,0.165134908762363,0
1.45335085104702e-07,0.157750347535665,0
1.92651333930205e-07,0.190746512692611,0
2.06431811522902e-07,0.187270117590218,0
2.50233247543575e-07,0.200865670573537,0
2.00037124406031e-07,0.182239944108918,0
1.81365072170746e-07,0.182877796208588,0
1.65928705190322e-07,0.178768465315149,0
2.1133471171274e-07,0.199171269470208,0
2.09757629257971e-07,0.197146965059645,0
1.51884082802874e-07,0.176327980161844,0
1.72266292673133e-07,0.200439031640315,0
1.47873895280244e-07,0.184383829950174,0
1.57395023310777e-07,0.21294296718555,0
1.42843582683826e-07,0.209827859815075,0
1.42914367354147e-07,0.212080578404333,0
1.67913153422793e-07,0.228316811081085,0
1.75448771450801e-07,0.254667690471273,0
1.08540269675831e-07,0.210905690514974,0
1.32034173653435e-07,0.223967175779326,0
1.36883985340533e-07,0.212457072409247,0
1.28966837939491e-07,0.202544552764219,0
1.52906331416772e-07,0.20623263447579,0
1.25996831147239e-07,0.182372118444252,0
1.06429116883483e-07,0.166272165875729,0
1.08635593031864e-07,0.162330589992284,0
1.40467105352222e-07,0.175128733525675,0
1.38637911496656e-07,0.163603339550739,0
1.5408937920675e-07,0.171549751144545,0
1.66815873058355e-07,0.174571508920331,0
1.73232739371927e-07,0.176552523106017,0
1.88149428897739e-07,0.185965995818411,0
1.63635281871896e-07,0.178832862020381,0
1.66007984021082e-07,0.185126864353055,0
1.6773430415578e-07,0.183468464008018,0
1.68099081156839e-07,0.194752412081241,0
1.37849842167074e-07,0.170507274470759,0
1.62582005977508e-07,0.183338478468957,0
1.55748925802444e-07,0.178429820377269,0
9.25570911171701e-08,0.149255551561057,0
6.94379919689192e-08,0.141542574953845,0
7.98098337622703e-08,0.144668555607137,0
1.03499103429963e-07,0.154122265230092,0
1.1664369873427e-07,0.148134640586415,0
1.11517118986214e-07,0.146157570210407,0
8.01320219866851e-08,0.125044037326538,0
6.76040791353324e-08,0.123318256763653,0
5.76791245606128e-08,0.112484324104855,0
1.22574510311631e-07,0.144122623842424,0
1.22466917612742e-07,0.141558111964579,0
1.4863424061395e-07,0.148262117816461,0
1.66128789858432e-07,0.154365110622308,0
1.40514295132437e-07,0.148356715632136,0
1.41276764006253e-07,0.1538955949297,0
1.40543080898368e-07,0.149911900107991,0
3.41257260676026e-07,0.215784471046927,0
5.95214725674133e-07,0.27517737252379,0
9.40868894121648e-07,0.360189610315753,0
1.28099926284615e-06,0.428054632638941,0
1.44020672764052e-06,0.421398173510775,0
2.21408844980163e-06,0.483251427274143,0
1.86831418336347e-06,0.430173942491925,0
1.6489666469703e-06,0.400628062725453,0
1.20484203604694e-06,0.331053228785714,0
8.19700639260409e-07,0.269227851273567,0
6.66768117515619e-07,0.244928726490827,0
7.72296263520356e-07,0.259102473447588,0
8.34595621487323e-07,0.254108169473788,0
8.54630514575202e-07,0.255324601806244,0
3.24347156859502e-06,0.354776614315387,0
1.1114579676264e-05,0.630249415024076,0
1.33036820812376e-05,0.673787782219892,0
1.36202890523719e-05,0.617493365714804,0
1.27972909092445e-05,0.598373835669599,0
1.23915832624449e-05,0.567452164935548,0
4.9909084810795e-05,0.154516870866861,0
0.000269992783544926,0.208550700577724,0
0.000275300328667714,0.138764411161939,0
0.000281380165570993,0.131906675761764,0
0.000308187481090449,0.144224580351024,0
0.00032937019939838,0.140538405122557,0
0.00030718671656779,0.131209858484119,0
0.000304362085797777,0.123825801309786,0
0.000273013136169893,0.106394797112064,0
0.000169365143438554,0.0755429525746124,0
0.000131143541111739,0.0517433511496162,0
0.000987564891919532,0.0604441202446134,0
0.00125852856744055,0.043078414239374,0
0.00119139977138422,0.0418402001021006,0
0.00119245858653298,0.0351101683193467,0
0.00132095138602392,0.0342448372201362,0
0.00136066033932046,0.0288733992284876,0
0.00165520179865341,0.034353937980599,0
0.00192158990648491,0.0392894133881434,0
0.00198334113096993,0.0399678083839445,0
0.00199659819049211,0.0456059834080881,0
0.00129312068650446,0.0623938407419311,0
0.000882587381634844,0.0860351136796633,0
0.000861301474378314,0.0837611372697066,0
0.000730074601777489,0.117022396924892,0
0.000150086998879332,0.0685540815092487,0
0.000101826328595079,0.168992163616237,0
0.000105631291184816,0.154826186526523,0
7.43288607703692e-05,0.110489636135076,0
0.000249155844104436,0.0293446804162759,0
0.00208025878487974,0.0568531973641859,0
0.00225109562773563,0.0361352873270438,0
0.00225167468220309,0.0330284466915942,0
0.0024378947853686,0.0359843427340709,0
0.00240698184335552,0.0297827048398025,0
0.00230729898252441,0.028755331251972,0
0.00220183302793102,0.0274330200625361,0
0.00222564908143742,0.0275867960271344,0
0.00234102085385193,0.029076390795172,0
0.00244508169215623,0.0459800557247531,0
0.00125074180634603,0.0515802057485569,0
0.0011989043489186,0.108974476692317,0
0.00117966447527113,0.173601464722595,0
0.000607115181298995,0.127677904171044,0
0.000162570292530263,0.198418290726155,0
0.000159736702898451,0.314224106121617,0
0.000111253973671008,0.366782861514717,0
3.46474539181654e-05,0.295365767112451,0
3.10436134638564e-05,0.451153383297536,0
1.34362183541525e-05,0.41072614006793,0
7.85795926528442e-06,0.367899278485682,0
7.90084333197772e-06,0.321859870727992,0
1.29245263541479e-05,0.37391250394006,0
1.37478883304807e-05,0.313419340402866,0
1.83516543911309e-05,0.35199575099116,0
2.08094887914156e-05,0.37268775712294,0
1.91011254298593e-05,0.378467136154348,0
1.91927401410656e-05,0.390689347085971,0
1.90063211614083e-05,0.398141663799445,0
1.86577197552375e-05,0.435981558233178,0
1.89949813392484e-05,0.449837160575213,0
1.79297192406856e-05,0.58768426098659,0
7.09362686704751e-06,0.422851876055508,0
3.41632490213402e-06,0.394540139536753,0
3.27448905720668e-06,0.411583912336875,0
4.21030770104976e-06,0.467159949446057,0
5.2419994618657e-06,0.481369928249532,0
5.38168486850867e-06,0.483159290861202,0
5.55900235525596e-06,0.488265606804805,0
5.56570141645522e-06,0.502791680562332,0
5.47900305452614e-06,0.462349125817077,0
7.65289135638416e-06,0.472073191928705,0
7.38658291021051e-06,0.41467927829741,0
6.35215496796328e-06,0.383854983824504,0
6.58691999542479e-06,0.402108561677351,0
5.77818567121398e-06,0.369875386076756,0
4.33579665218745e-06,0.326437569996474,0
4.32805221938199e-06,0.335289869877338,0
4.2046084733188e-06,0.331544594177442,0
4.47792047274855e-06,0.341253111203529,0
4.373676242689e-06,0.375517664618281,0
1.45958002000979e-06,0.254322666527983,0
1.15610148168011e-06,0.275090466420644,0
1.1052319603789e-06,0.267457092209023,0
1.17364959132513e-06,0.286738640397026,0
6.29993062807212e-06,0.460202476129398,0
9.3068157616638e-06,0.37046220060877,0
9.31626598704957e-06,0.369625443186184,0
9.44635405416695e-06,0.373348799297553,0
9.57225544398371e-06,0.374074394881433,0
1.00314742959809e-05,0.371881206893654,0
9.84668088627761e-06,0.355165746944214,0
9.70151096540366e-06,0.35122599539078,0
1.03154284166702e-05,0.363663056124264,0
1.10554679879505e-05,0.37904601378909,0
6.27603513906489e-06,0.375993988112561,0
2.32384904719381e-06,0.349490562913137,0
2.43169881241065e-06,0.364216309141538,0
2.38777940193944e-06,0.363770822607549,0
2.26773048866489e-06,0.36760209559263,0
1.00254275155187e-06,0.286788304338226,0
4.59713046970533e-07,0.235873342039697,0
4.63827405932988e-07,0.241181509998712,0
3.82501482506874e-07,0.219905277733699,0
3.23405720744222e-07,0.203248706338633,0
2.98263005845921e-07,0.20449880744126,0
2.12409694906027e-07,0.183374820881313,0
2.44697886324412e-07,0.203184120162219,0
2.50982621253382e-07,0.217162411981269,0
1.97229804381068e-07,0.185400691471334,0
3.24637374007821e-07,0.223378102825035,0
3.5501721071433e-07,0.217222219520556,0
3.7431311184405e-07,0.212927321256409,0
4.0437866461433e-07,0.218390223333127,0
1.1091146175205e-06,0.338425223826621,0
1.20106484806411e-06,0.331149796672254,0
1.14502049546458e-06,0.316280149729891,0
1.07116082108956e-06,0.298812664041642,0
9.51567761091884e-07,0.278081365008956,0
8.31002591621788e-07,0.255766047994205,0
1.22490890021091e-06,0.305816407745398,0
1.16588923196885e-06,0.288962778275287,0
1.03498891075952e-06,0.275964153486957,0
9.99989784442266e-07,0.277877397835355,0
6.99465798251815e-07,0.249197060838001,0
6.7565289135996e-07,0.264522917956263,0
6.03038201361448e-07,0.246276468127301,0
6.30148730094695e-07,0.24970928170241,0
8.26270046538524e-07,0.275596936112559,0
1.09115418717085e-06,0.31984577313434,0
6.53442195480838e-07,0.255305350704149,0
5.75780440513933e-07,0.250230419213969,0
6.83871463482121e-07,0.259376886050681,0
6.99649484471299e-07,0.256219651511073,0
7.33506264184015e-07,0.250826009984079,0
7.64479158453369e-07,0.259299896316427,0
7.20682441410716e-07,0.249188004541154,0
1.43949652144829e-06,0.341304166373314,0
1.704848430777e-06,0.353359824687632,0
1.29297166400993e-06,0.31640583719673,0
1.28067306349042e-06,0.320054311900359,0
1.35800401809802e-06,0.343720852473484,0
1.57330160957873e-06,0.39112181406044,0
1.70407864748725e-06,0.393488786114396,0
1.72930783765779e-06,0.396782405606436,0
1.71855706192931e-06,0.383256461863868,0
1.92449267291326e-06,0.420113749128414,0
1.23149010493408e-06,0.330600160137328,0
7.43673774229037e-07,0.262618171087768,0
8.04055457502535e-07,0.265071062157918,0
7.92393919015921e-07,0.264160790986168,0
8.00186721346098e-07,0.26888439649603,0
7.72237158320637e-07,0.263169238240623,0
7.64769493576139e-07,0.280241906949821,0
4.99064014819176e-07,0.235890248971733,0
5.04236604602941e-07,0.240858677783491,0
4.99123473942245e-07,0.243705897384574,0
4.11416666409974e-07,0.242446787760852,0
4.16716078728067e-07,0.252612001500953,0
1.40977486420132e-06,0.444717210216635,0
1.52955951470667e-06,0.435538634516133,0
1.55379429823364e-06,0.412184752259174,0
1.49578767659834e-06,0.393765087787958,0
1.55865449167239e-06,0.390187522216493,0
1.57592595123091e-06,0.366539479159155,0
1.51829637593952e-06,0.361807994432699,0
1.39424565132833e-06,0.348506140193404,0
1.4594285408153e-06,0.363770609751472,0
1.44457072054031e-06,0.356047130072787,0
9.99967605245565e-07,0.303870547638497,0
1.04220705954114e-06,0.307405551230705,0
1.14972012567615e-06,0.325964495076576,0
1.14652290009216e-06,0.327593839019584,0
8.3385816319702e-07,0.29031774842728,0
7.84165790963266e-07,0.296537648730936,0
7.73435778738086e-07,0.289868781586606,0
9.0416090788837e-07,0.304692276559447,0
9.48174815894461e-07,0.31548794631057,0
9.30697726868657e-07,0.321073605478074,0
8.00607654185612e-07,0.299647421940159,0
7.83586418436681e-07,0.297807313646861,0
7.32878050234908e-07,0.276302185171216,0
7.69764059914044e-07,0.271365124925614,0
7.36042714870545e-07,0.261237025607533,0
7.15212084113798e-07,0.264451329606549,0
7.62972860668921e-07,0.26495530418719,0
6.66338218617864e-07,0.238713672807475,0
5.64554935596501e-07,0.217893355491672,0
5.93472832911963e-07,0.224909211676406,0
5.71288917233114e-07,0.217179341159831,0
5.92054897990968e-07,0.224634184243473,0
6.07809088141137e-07,0.224858420912181,0
6.1661942010719e-07,0.235702511903046,0
5.45676192123877e-07,0.224148932597111,0
5.51945472399828e-07,0.218082703134807,0
5.79484012439619e-07,0.234758605302435,0
6.75686514078362e-07,0.255978841948476,0
6.72027890418329e-07,0.259880725417034,0
5.85571494087294e-07,0.258537556859097,0
4.1175879231653e-07,0.229289850996953,0
4.01150529724305e-07,0.229088868894297,0
3.55214581970078e-07,0.225942685241421,0
2.94735687749336e-07,0.210566601120192,0
1.8931124128662e-07,0.177781886799772,0
1.69824339521482e-07,0.177158406385989,0
2.93717686215658e-07,0.203768058346802,0
5.11510791248559e-07,0.253439519102502,0
5.38914014593586e-07,0.249154027577458,0
5.5591637443043e-07,0.257405270799649,0
5.31506162895509e-07,0.253854950779931,0
5.18752534920281e-07,0.255242610925423,0
4.86176485842588e-07,0.25405346540325,0
4.49481712747772e-07,0.237485773272284,0
4.32777474347432e-07,0.220430159528588,0
4.31247581672878e-07,0.211451936477767,0
3.645463610075e-07,0.20667911931729,0
1.84176049403676e-07,0.149498960323365,0
2.9129838415851e-07,0.186925648854097,0
3.08204948741518e-07,0.17689436348872,0
6.64634077679867e-07,0.255609255159443,0
7.88149198285624e-07,0.272300260148514,0
7.98928287882227e-07,0.26717019561197,0
1.01178487000689e-06,0.301746921603739,0
1.04935819883485e-06,0.299366781025567,0
1.09909728895101e-06,0.30468351055049,0
1.18089782359163e-06,0.310995360167119,0
1.16988089750275e-06,0.317002384136309,0
1.01378654250914e-06,0.295510001439569,0
1.13241693099044e-06,0.327626815836045,0
8.79897810493269e-07,0.285988558844575,0
7.5226231422808e-07,0.27331448214986,0
7.50246366817316e-07,0.281076111836482,0
5.48047006681857e-07,0.243766109844827,0
4.83837406411805e-07,0.248751006679623,0
4.71811916745286e-07,0.252750724031297,0
5.08474246866205e-07,0.281811348868996,0
5.47943189165384e-07,0.283333490449254,0
5.02503323975661e-07,0.268214203276646,0
2.43871121375053e-07,0.194425455337607,0
2.08000399817233e-07,0.192559981215158,0
1.89320679242664e-07,0.185303641579654,0
2.49760405945826e-07,0.201199621118213,0
3.03496352471713e-07,0.215628603904297,0
2.8117747402145e-07,0.205572933389929,0
2.7976520187408e-07,0.207392641803106,0
2.7079914363332e-07,0.195785854797889,0
2.52524429347441e-07,0.19200854032242,0
2.46507732370089e-07,0.199186467007144,0
2.46892211104387e-07,0.199337342570092,0
2.48090831521836e-07,0.193365373009919,0
4.36691512692876e-07,0.239402385981319,0
4.77147783168593e-07,0.236197895125753,0
5.38944098078472e-07,0.253401055510951,0
5.35978692289792e-07,0.246401340061627,0
5.19247673689181e-07,0.244479948908494,0
4.83595204864853e-07,0.237803012023054,0
4.8774318654571e-07,0.251940023857142,0
4.87727259994888e-07,0.245288165538908,0
4.7084075106847e-07,0.240835533412648,0
4.86012265407441e-07,0.249496573692913,0
1.81105528379567e-07,0.160120057330137,0
1.00652969810774e-07,0.139691014336683,0
8.03066241734789e-08,0.129397460656334,0
7.35317054025297e-08,0.127479326746097,0
8.70600715944303e-08,0.13313492862707,0
9.80924523363343e-08,0.136646540465913,0
1.11693490789765e-07,0.143466331698805,0
1.03515147955236e-07,0.14438790627356,0
1.11088517807415e-07,0.148959524410059,0
1.63373968463958e-07,0.180362429560415,0
3.05076856185548e-07,0.248109625194446,0
3.27054080627058e-07,0.237141505183249,0
4.87412858084209e-07,0.277077510401213,0
5.55277424806325e-07,0.285328870888613,0
5.58896880948779e-07,0.289944263452113,0
5.8363281994163e-07,0.284892319540935,0
6.15300111826842e-07,0.280823723055751,0
6.20121019773558e-07,0.274599718993099,0
7.05154054358873e-07,0.287151438149421,0
6.71490752745039e-07,0.269750722463737,0
5.09912945290495e-07,0.219497056958872,0
6.3113983345365e-07,0.248167163507601,0
5.85747865890846e-07,0.238326667254243,0
6.08841600532231e-07,0.247190877979822,0
6.2041406830869e-07,0.251461107095956,0
6.00473082883438e-07,0.259727092600749,0
4.55545599505338e-07,0.228006481968887,0
4.45144146124902e-07,0.23631514883008,0
4.13726960074827e-07,0.232027623442441,0
3.78698104196035e-07,0.225262491948853,0
3.34094795835065e-07,0.235475071908911,0
2.07781321262587e-07,0.190111184387188,0
2.00563290455423e-07,0.187036428245353,0
1.43692880753237e-07,0.162219917833984,0
9.17082649455615e-08,0.129029075121215,0
1.37679133137148e-07,0.159804839676349,0
1.68983771561411e-07,0.1768936613793,0
2.10392803699659e-07,0.193616473242968,0
2.08535413950414e-07,0.192874497742793,0
1.8779550554613e-07,0.186964380543535,0
8.63751355295066e-07,0.343013196143076,0
1.30463225870094e-06,0.367240152810326,0
1.34942857326298e-06,0.368582779342685,0
1.50486616449046e-06,0.392916049967328,0
1.5544455172006e-06,0.401615077306442,0
1.51053129760522e-06,0.390182930682413,0
1.60472398650462e-06,0.394367719467633,0
1.67445679662543e-06,0.394950409948863,0
1.68781999858658e-06,0.401897922644327,0
1.68974817300615e-06,0.403375365575376,0
8.90372054109685e-07,0.332863387171559,0
1.810908995477e-07,0.18274723618819,0
2.22554671830997e-07,0.194832204099059,0
2.27709565447182e-07,0.189632311450891,0
2.27869066904307e-07,0.194121428219443,0
2.52821253064991e-07,0.201724922788137,0
2.07352484134887e-07,0.192739363617954,0
1.58005541092303e-07,0.173635334173687,0
1.77962099145027e-07,0.176609839201345,0
1.73638571481772e-07,0.176962617614891,0
1.67126381812166e-07,0.17360142601357,0
2.10055868668927e-07,0.183978091024692,0
2.25920128981447e-07,0.187682583129812,0
2.22978436057324e-07,0.178781459369594,0
3.13543056679386e-07,0.206582568007031,0
2.53282297217687e-07,0.178497084003262,0
3.1317226298135e-07,0.186722821808976,0
3.9154552185944e-07,0.192375580329672,0
5.38262795626625e-07,0.2257465808935,0
5.42903910510724e-07,0.219839127214213,0
5.62784375042852e-07,0.218055465840295,0
1.2665804255016e-06,0.318940248673901,0
1.39343870608666e-06,0.330005616926327,0
1.29277724211544e-06,0.327282903676702,0
1.28840746846758e-06,0.323909700263105,0
1.32165266862871e-06,0.331139507812746,0
1.29762174495227e-06,0.342207516751497,0
1.18186769154949e-06,0.335015745073733,0
1.03490963192876e-06,0.294865440005573,0
1.05897641983817e-06,0.287206945588626,0
1.16890324323116e-06,0.298432649429547,0
8.20542622913886e-07,0.261921613150839,0
6.51228404916524e-07,0.245236199211228,0
6.48054420299295e-07,0.246524747561926,0
6.53540704147037e-07,0.249606721169728,0
5.38458987137869e-07,0.225687861845466,0
5.11540992707896e-07,0.219971957499632,0
5.35392241296176e-07,0.233194536851663,0
5.7526524608844e-07,0.267398616553144,0
3.66871283504219e-07,0.240190792701008,0
3.57129425276732e-07,0.2508178030187,0
3.36943524892166e-07,0.238996818206028,0
3.2207874412459e-07,0.229600159034147,0
3.93037190812021e-07,0.256420573091396,0
4.24933589080174e-07,0.276678251643823,0
4.21894567234358e-07,0.286604734907407,0
4.12477020771395e-07,0.276023475020882,0
4.17121910837912e-07,0.277560416782608,0
3.39015156243583e-07,0.235934313023915,0
2.3563709459987e-07,0.188483350153315,0
2.34931489411213e-07,0.175789816188737,0
3.66593453673206e-07,0.21874187115407,0
4.35817086065501e-07,0.228416370215784,0
1.36781654302138e-06,0.376675048139194,0
1.55693064900115e-06,0.384030794034638,0
1.57177419436763e-06,0.361696844460202,0
1.65820074316268e-06,0.369682823973422,0
1.65204058925348e-06,0.368977819315002,0
1.58410429406544e-06,0.365304284068741,0
1.46185503931393e-06,0.361757038973122,0
1.38484450331399e-06,0.379139305596198,0
1.40161575120223e-06,0.383756388568012,0
1.37188147068906e-06,0.408925229591741,0
5.27404899097066e-07,0.274942362546514,0
3.00821281805802e-07,0.207970189895601,0
2.48893057785483e-07,0.200194469021863,0
2.58735902142629e-07,0.206454735702481,0
2.90827784075321e-07,0.21718877000983,0
3.69810380990431e-07,0.243368055789035,0
4.72684927679254e-07,0.234274632235841,0
9.60254455833775e-07,0.312227886909,0
9.78884981062471e-07,0.302131615652147,0
1.02368507080694e-06,0.30926361493126,0
1.05804642724459e-06,0.316433874172278,0
1.09108021719037e-06,0.313252722557075,0
1.61208983929831e-06,0.398268437451902,0
1.68257048946107e-06,0.377113315569021,0
1.69475394691685e-06,0.37057997904505,0
1.47581696161155e-06,0.34847309517217,0
1.42142755460415e-06,0.376906977290131,0
1.10174357385099e-06,0.336934283412821,0
1.26494058063915e-06,0.35509357551401,0
1.17113673552871e-06,0.322839249405591,0
1.06257192716717e-06,0.308905217597671,0
1.07060870066105e-06,0.311162634718242,0
1.13582556678978e-06,0.293538707957224,0
1.03351104481766e-06,0.283360229194677,0
1.01275178860348e-06,0.285291234753723,0
1.12316112749916e-06,0.299108409747184,0
1.16989375671786e-06,0.301204539722429,0
1.18296249445047e-06,0.308992945915319,0
1.00495261565298e-06,0.29521883337738,0
1.04991598203698e-06,0.305875812224168,0
1.54273832260163e-06,0.334923475310617,0
2.27877100964388e-06,0.392474597230438,0
1.77892506016655e-06,0.359215187709296,0
1.76135111411686e-06,0.363811450448412,0
1.82284399873996e-06,0.370257895860068,0
1.723162194606e-06,0.354674724301847,0
1.70910494895235e-06,0.346284731534281,0
1.68199949312047e-06,0.335772791936722,0
1.56544734255982e-06,0.326402819348756,0
1.33676755523143e-06,0.300497794730312,0
1.08945535508313e-06,0.2907128114027,0
4.46338873385484e-07,0.203069278202868,0
4.41394328214605e-07,0.207342546549799,0
4.49409040486241e-07,0.210880735840879,0
6.46075280917098e-07,0.253394214863234,0
7.23842269093882e-07,0.272007083621066,0
7.51972097079761e-07,0.269521959664025,0
7.67633323362908e-07,0.265213789795485,0
8.66843229694722e-07,0.281297408804169,0
8.65151004176229e-07,0.289585063442225,0
8.80753833106362e-07,0.300534503716646,0
7.40959771994449e-07,0.26785811620277,0
4.62184375760369e-07,0.212237212580535,0
4.71107963198935e-07,0.218568074801047,0
4.0233723472225e-07,0.19891013116317,0
3.83242951928496e-07,0.196982409637729,0
3.46931831746824e-07,0.200755637135907,0
2.54984314615574e-07,0.183735662244677,0
4.18094964105936e-07,0.235157640397096,0
4.14510900298642e-07,0.221993029638513,0
4.13488769659195e-07,0.234657080486634,0
4.92886872589094e-07,0.26451329710711,0
6.22881621916108e-07,0.302219835697597,0
5.92043100545915e-07,0.29771294557407,0
5.87616581187342e-07,0.308057698593727,0
6.08724569877299e-07,0.319409128930509,0
6.11644673476974e-07,0.316194126500907,0
5.76271214228164e-07,0.310745785728959,0
2.65186745097955e-07,0.220366185464141,0
1.86869760032771e-07,0.201438867417548,0
1.97248562318704e-07,0.205284067396539,0
1.33598042969745e-07,0.18145117802117,0
1.14561685631205e-07,0.155557855875445,0
2.69194101233773e-07,0.225163809034817,0
2.76639704756021e-07,0.219622634192562,0
2.54427475209043e-07,0.212274468918417,0
2.63363331990466e-07,0.206158563139843,0
3.68351744883999e-07,0.24289168150098,0
3.68613530189739e-07,0.233609260092602,0
4.03609471196833e-07,0.23824907431782,0
4.33364633187752e-07,0.235247158306852,0
4.34867981610936e-07,0.22357850979059,0
5.02972272416543e-07,0.257483066117748,0
4.07735863553241e-07,0.241975996203148,0
4.02458158534049e-07,0.253534390120669,0
4.05392890965591e-07,0.260392183298087,0
3.71718617727856e-07,0.260685698554259,0
1.85564372737587e-07,0.190325038393914,0
1.50157998617078e-07,0.182122287200064,0
1.50005929550336e-07,0.187638407504652,0
1.53111960884056e-07,0.194015303128556,0
2.16105598492429e-07,0.253228627321156,0
2.23849087502282e-07,0.222796155931278,0
2.30660814301798e-07,0.207706092578922,0
2.34440833671432e-07,0.203954142770284,0
2.332238092397e-07,0.200966888022542,0
2.32125585079658e-07,0.19353593463656,0
2.52037784738979e-07,0.201346455889878,0
2.16137687542975e-07,0.1849175125223,0
1.93124293502405e-07,0.172334923020988,0
3.04711135388886e-07,0.213861201801336,0
3.34434090354808e-07,0.223804717078808,0
3.28354984893122e-07,0.226642351592042,0
3.97696591735953e-07,0.258217892825368,0
4.5401287544397e-07,0.27580680885934,0
5.95615248933703e-07,0.297187248635874,0
6.22713508324094e-07,0.299531893007642,0
6.41860879620589e-07,0.307132154115935,0
6.48270195569327e-07,0.302290317767901,0
6.55767117977558e-07,0.301014458960199,0
5.96507135779756e-07,0.289769931879778,0
4.95961876642323e-07,0.249887679220717,0
4.71983333621915e-07,0.252796831474014,0
4.25245631501842e-07,0.242383944182895,0
3.89124096262182e-07,0.221856474846828,0
2.55478037691069e-07,0.184464539262176,0
2.50113503476281e-07,0.189924212058478,0
2.47000747598881e-07,0.183176083898988,0
2.5392537594756e-07,0.193361276276646,0
2.56461354736289e-07,0.20090311586961,0
2.25823861829809e-07,0.193303684108478,0
2.17439299655742e-07,0.19924301974168,0
2.12900468620258e-07,0.198553818068618,0
1.91988789415993e-07,0.193118301931661,0
1.85658398374665e-07,0.203908410813749,0
1.89508494567917e-07,0.196989437987271,0
2.05429028693343e-07,0.201873878469382,0
2.27082531242581e-07,0.215080455861139,0
2.49324372376644e-07,0.205038499926413,0
2.68798296952223e-07,0.210172357120169,0
3.37330481089925e-07,0.215427505703645,0
6.02192560500004e-07,0.286407626401283,0
6.40728678818792e-07,0.275372891818001,0
6.38235288806707e-07,0.27369462511724,0
5.76918304089356e-07,0.252957697255712,0
5.47538300851143e-07,0.251164000458744,0
5.94707435536826e-07,0.253607898052172,0
5.77588398968401e-07,0.2479810859007,0
5.52393185439613e-07,0.258992212276183,0
4.63332857036339e-07,0.234883144008973,0
6.94808166944641e-07,0.281511394475734,0
8.79626587231486e-07,0.302529876276038,0
8.78819995913169e-07,0.319704000018694,0
7.57848994333228e-07,0.29497232738337,0
7.80178844407391e-07,0.298424382011913,0
1.07309572005281e-06,0.359106530131876,0
1.11281818944619e-06,0.349276090875792,0
1.13765971557227e-06,0.344978997050745,0
1.21577685191825e-06,0.335317267399842,0
1.22369010616242e-06,0.325075887289713,0
9.69860525468696e-07,0.301992747410641,0
5.00976144713467e-07,0.217228692227153,0
4.17015733832429e-07,0.196295836160671,0
4.18853657797334e-07,0.192599144966082,0
4.2527146790651e-07,0.19894758694168,0
2.99820858465255e-07,0.166909644763637,0
2.36081622329492e-07,0.160933172259582,0
1.54589001004771e-07,0.138656352970088,0
1.32930779477511e-07,0.136235375334671,0
1.59286271727325e-07,0.156261426160303,0
1.67401616205268e-07,0.179064352024643,0
1.24675517301233e-07,0.157949284793004,0
1.16422496639514e-07,0.155259718733868,0
1.26782069090009e-07,0.168626659896011,0
1.41978122114691e-07,0.166421470914559,0
1.27354835047363e-07,0.16157328998478,0
1.44385626726786e-07,0.169956629405184,0
1.45755074148612e-07,0.169496072465285,0
1.83391401333159e-07,0.188982181928085,0
1.7042884060603e-07,0.175203110249214,0
1.32103660604801e-07,0.146949146707637,0
1.24227214389195e-07,0.14508601538842,0
1.19220260733983e-07,0.144926448399216,0
1.10488381777537e-07,0.145648789471947,0
9.72203851979701e-08,0.145565421506397,0
1.09811208431458e-07,0.158174015133736,0
7.22796425589877e-08,0.130323681635201,0
1.05118184789124e-07,0.155170714794061,0
1.01957885208157e-07,0.154375522375428,0
8.27982445688058e-08,0.155002507362213,0
8.60034924154272e-08,0.166659600372051,0
8.9778556858139e-08,0.177321544672373,0
1.54192724825419e-07,0.213112292788577,0
1.65262385493693e-07,0.206191605267467,0
1.68590798666674e-07,0.20456214431277,0
2.76676630759039e-07,0.240164575282127,0
3.25302395985495e-07,0.242313244580136,0
2.71822571991722e-07,0.221936009790363,0
2.60228160967463e-07,0.214524428933259,0
2.49779281857912e-07,0.197074163634096,0
2.86814765165878e-07,0.207586335128349,0
3.06302374777719e-07,0.215644191039297,0
2.77305670529298e-07,0.211186417717527,0
2.8182208641918e-07,0.223016111244567,0
2.89081762207383e-07,0.22883800102118,0
1.43378714791458e-07,0.170996072108523,0
5.62001968486895e-08,0.121775350296476,0
5.35887144116177e-08,0.123648674143369,0
4.7348455850499e-08,0.127099535434004,0
3.64896155253339e-08,0.126469521614385,0
3.18295067546988e-08,0.127003176118584,0
4.74678459944416e-08,0.138228679886709,0
4.55944117199249e-08,0.139409086686857,0
5.79443311254185e-08,0.142460263961575,0
8.91650897153497e-08,0.166050063399752,0
1.31670930320234e-07,0.195052837513558,0
1.03844886544485e-07,0.18050094791516,0
1.3527328016736e-07,0.191587453051632,0
1.37265278764666e-07,0.181685627024908,0
9.82497122788993e-08,0.157933798003057,0
2.05204877237324e-07,0.20525662235842,0
2.7483799894743e-07,0.220303084951989,0
2.75175995748217e-07,0.217767374685101,0
3.29047848841122e-07,0.232140056216066,0
3.22605500046234e-07,0.21824106804769,0
2.8948582470047e-07,0.197966901673639,0
3.16936591749063e-07,0.204165323399998,0
3.3372624365159e-07,0.210479412870807,0
3.32944662916787e-07,0.208122866115108,0
3.29877327202844e-07,0.209141277624014,0
2.48762931966542e-07,0.18970792581154,0
1.73877469744108e-07,0.172532101541113,0
1.80324065619214e-07,0.18014291566694,0
1.40484093673099e-07,0.169405373929162,0
1.36076450226612e-07,0.185495557020661,0
1.53048844553019e-07,0.208783210781301,0
1.12172113135591e-07,0.186757711897199,0
5.64050004948205e-08,0.145535262537746,0
6.8810367892066e-08,0.153985182176347,0
6.33183032962489e-08,0.144421811765801,0
6.96385485348311e-08,0.152968185371243,0
7.62545557209077e-08,0.155526802613973,0
1.4684810743283e-07,0.20688952658103,0
2.4245825935543e-07,0.257364572757267,0
2.79616554066404e-07,0.269757620332244,0
2.06781487794291e-07,0.229082514787502,0
2.12563533589527e-07,0.236105933007541,0
2.21240436452023e-07,0.230463891075318,0
2.15409195310913e-07,0.246718377271217,0
1.62871397304673e-07,0.218382331704873,0
1.69666725655565e-07,0.212472644339871,0
2.09800100060164e-07,0.234851630860749,0
2.16868303315147e-07,0.243509147150313,0
1.53847767532051e-07,0.212368418253098,0
7.94052993713815e-08,0.158263357278928,0
4.50998628232766e-08,0.132815079688714,0
4.44807329068621e-08,0.135119870223701,0
7.47665439762933e-08,0.148522268828911,0
6.57916376517429e-08,0.131609078661522,0
6.15307544217226e-08,0.123161389259756,0
6.12411271456558e-08,0.128062568058774,0
5.82218070330799e-08,0.127587122820483,0
5.47360159430832e-08,0.122545919743911,0
5.1410434156915e-08,0.117832045786585,0
5.25577356883807e-08,0.118802555728119,0
9.07695422426439e-08,0.132128198598225,0
1.37765844358292e-07,0.151126384722265,0
1.32366389706146e-07,0.156480650959018,0
1.36104764094741e-07,0.15783609144316,0
1.5695792797154e-07,0.168582376211259,0
1.48045784054675e-07,0.168402365877974,0
1.57499666648403e-07,0.171064936048221,0
1.9747412946813e-07,0.190600846169118,0
2.13258285128735e-07,0.190140648961319,0
2.03526690678444e-07,0.180539512774083,0
1.98508529450432e-07,0.194053374196283,0
1.35801805705763e-07,0.166352653856158,0
8.44905880617494e-08,0.13709476165405,0
5.34159998160324e-08,0.119524014628816,0
6.89197302077134e-08,0.13867859611992,0
8.64230095615341e-08,0.154886306712316,0
9.74912545364011e-08,0.160126438280104,0
7.95215042051598e-08,0.137759400879911,0
6.16902558788478e-08,0.126226478688966,0
5.78112559452134e-08,0.130662430885239,0
2.04965271128285e-08,0.0966403108268954,0
4.34589561907671e-08,0.121125477687265,0
8.61421123948073e-08,0.160656496963016,0
1.30474669391796e-07,0.19049460010292,0
1.1932313445485e-07,0.177910226890446,0
1.21674129305138e-07,0.163393419899099,0
1.0458729976171e-07,0.157182387745181,0
1.14114916387023e-07,0.165842374798328,0
1.22863311766544e-07,0.161590497509975,0
1.22269310408094e-07,0.146590104040747,0
1.40842618028279e-07,0.15637732644293,0
1.38190198456871e-07,0.155013968073444,0
1.34509395600138e-07,0.156986421026224,0
1.22259872452051e-07,0.156424794195272,0
1.12332558388321e-07,0.149565776381018,0
1.89622693836036e-07,0.19812853024176,0
2.05296307436489e-07,0.183423786111869,0
2.33910892439623e-07,0.201371210102357,0
2.17964875832881e-07,0.216725932637071,0
2.01662694359971e-07,0.226641175457247,0
1.77973542666729e-07,0.211541973529851,0
1.84134168473735e-07,0.233598109638932,0
1.87020767329458e-07,0.218518720813231,0
1.94151143119873e-07,0.211718114058405,0
1.91833181115735e-07,0.217326740236447,0
1.20319782612981e-07,0.182614907428653,0
8.10626044525157e-08,0.186680795582,0
5.29074119597703e-08,0.154247420917844,0
5.28752049347739e-08,0.143702244295996,0
5.0455313005373e-08,0.14796253858383,0
5.39540812849284e-08,0.148288178113707,0
4.9060501076682e-08,0.136873736783044,0
3.90967329077361e-08,0.132378115540157,0
6.21454013090169e-09,0.0917721331873273,0
1.40584253981605e-08,0.101138453130844,0
2.35836825344629e-08,0.108784356670545,0
3.37408108278378e-08,0.11236789256232,0
3.80321314660964e-08,0.115628476806886,0
3.7563065050764e-08,0.115155721611532,0
3.80865176877936e-08,0.113554215252783,0
3.7610372805429e-08,0.116295789797867,0
4.55972431067379e-08,0.127943069469463,0
4.9726348875509e-08,0.131958675046551,0
6.08361208569648e-08,0.14521817975104,0
4.70077456373501e-08,0.13494670826274,0
3.45529469453298e-08,0.124292672170725,0
1.40106457456932e-08,0.103804063790241,0
1.34770473059175e-08,0.105610651542402,0
2.49133725664578e-08,0.117012857938031,0
3.92686216821675e-08,0.132520298540097,0
5.8264277835273e-08,0.143039909155326,0
7.57746356561261e-08,0.146614431534463,0
8.50922577594847e-08,0.146477818158355,0
8.00669000899891e-08,0.13815092807839,0
5.37670917808284e-08,0.116042231135178,0
7.7804268103153e-08,0.122262745335945,0
2.46820482638461e-07,0.194482410760377,0
2.48741106693192e-07,0.189446391350293,0
2.89438634920256e-07,0.208517305868332,0
3.00431022323427e-07,0.212266462817902,0
2.9382150373213e-07,0.214726504287776,0
2.88997882373052e-07,0.225771868993784,0
2.99895772241345e-07,0.232983450774177,0
3.04666305097682e-07,0.231774737130846,0
3.31154282655448e-07,0.241365651554234,0
3.2492346205037e-07,0.268709369026776,0
9.43370896268621e-08,0.168141294043245,0
4.21755121433824e-08,0.1283731417074,0
5.15813791357421e-08,0.142511318503251,0
5.44305800906446e-08,0.145242204493631,0
4.81200087570065e-08,0.137341626821125,0
4.78457181595096e-08,0.132877428215239,0
5.14369784082858e-08,0.136298889441351,0
5.42447703310501e-08,0.145162212603224,0
5.39054758113076e-08,0.151556981639183,0
5.29380853169095e-08,0.143764789846414,0
5.26534129677656e-08,0.126154660462083,0
3.80473501702156e-08,0.113515459328246,0
4.16243355104768e-08,0.117076900348069,0
3.94553752373665e-08,0.114901466665733,0
4.40516598302615e-08,0.119326931601551,0
4.44335431266475e-08,0.121954868223579,0
5.40030406819011e-08,0.128443856101542,0
5.87660231734038e-08,0.130299914703869,0
7.95940584922394e-08,0.138813106749145,0
8.06540589303084e-08,0.140701661502661,0
6.65281521464411e-08,0.139238072168043,0
7.61526257956444e-08,0.144379919462956,0
7.52258185122311e-08,0.13266257082962,0
8.65372088296535e-08,0.140435023615479,0
9.88197648238906e-08,0.144442340863788,0
1.70968219793882e-07,0.17222423093254,0
1.90187201581853e-07,0.18022646300049,0
2.19176709388791e-07,0.200004915339547,0
2.04245862928914e-07,0.197186907895147,0
2.49551473193926e-07,0.205602318425395,0
3.01282207984047e-07,0.20420222715405,0
3.43489691203525e-07,0.216541364063713,0
3.37571148969019e-07,0.220167691540314,0
3.29287454950161e-07,0.217438026866471,0
3.21810824147421e-07,0.217240410216436,0
3.00423353984143e-07,0.216967232377335,0
2.91140298394792e-07,0.221394958383908,0
2.608741890586e-07,0.198027303125015,0
2.84674354709797e-07,0.206716947451183,0
2.52146911105725e-07,0.196980456063452,0
2.24976333377156e-07,0.208280817075785,0
1.68277812449401e-07,0.183663897343589,0
2.06716837795397e-07,0.211483548774085,0
2.44891482397742e-07,0.229156940133946,0
2.43787123566271e-07,0.239858812916975,0
1.68851758151261e-07,0.205207028910341,0
1.54141287964986e-07,0.189948591556269,0
1.49552081839123e-07,0.187329986191161,0
1.3525534805088e-07,0.181886616893501,0
1.02486764669911e-07,0.173255333065533,0
3.26024753546129e-08,0.114500121067875,0
3.14997681654499e-08,0.11563512968407,0
2.69837061989195e-08,0.10722840921141,0
5.18039969239041e-08,0.129169803089091,0
1.00802089516252e-07,0.165356343162539,0
1.00783213604167e-07,0.157109117949012,0
1.155724907234e-07,0.166776075587884,0
1.21853450469953e-07,0.18653412021655,0
1.20300906700896e-07,0.175914632328041,0
1.37104243639684e-07,0.192919337631504,0
1.10178698844879e-07,0.178131833183728,0
7.78188969350192e-08,0.148217194646186,0
7.8985310327472e-08,0.154716150045573,0
7.67400205848648e-08,0.155927955330553,0
6.73634112562382e-08,0.146487944545996,0
6.13674777821803e-08,0.151938255202014,0
5.98649551801496e-08,0.150510780907051,0
5.80322220910679e-08,0.142635896053476,0
5.72219735647845e-08,0.144975567875174,0
3.23133199763484e-08,0.111897468810775,0
4.48016234123209e-08,0.120105602874489,0
5.08375502251106e-08,0.121456421821808,0
4.82251239924343e-08,0.113203147565223,0
5.11604462962286e-08,0.113905064166181,0
3.87103665822297e-08,0.0993798897957869,0
6.15492764104568e-08,0.118696381991887,0
8.40101960991654e-08,0.138758116022992,0
8.85583471162417e-08,0.139720370588388,0
1.30948926682952e-07,0.15939773920439,0
1.39348589586687e-07,0.168322464974125,0
1.46316632533165e-07,0.179968456630821,0
1.4152686984139e-07,0.177249199049626,0
1.31085777045574e-07,0.176432798413706,0
1.38074465520895e-07,0.180674350054702,0
1.49823423075356e-07,0.187677600495794,0
1.38837642241415e-07,0.170433060872365,0
1.51408527792762e-07,0.177350059858972,0
1.40619882265667e-07,0.171429270924467,0
1.10405799662162e-07,0.154942336695163,0
1.75168464156327e-07,0.174170670910382,0
1.58864395092207e-07,0.156928696681744,0
1.74622950297047e-07,0.167004723394957,0
1.79500132056668e-07,0.165341233246473,0
1.71868954723727e-07,0.160223843202797,0
1.62866678326652e-07,0.156254173935767,0
1.54286632488046e-07,0.156007765524688,0
1.14361600963095e-07,0.129826752876878,0
1.47934888071171e-07,0.149361820838294,0
1.82799051617015e-07,0.170668708780223,0
1.02696877166316e-07,0.14280469435986,0
1.20140461448166e-07,0.157386913964928,0
1.11184431035701e-07,0.150224729602347,0
1.18183973160472e-07,0.163287470032375,0
1.25345140282476e-07,0.17291698006293,0
1.28567612398876e-07,0.177777408204043,0
1.41805407519106e-07,0.192231933836898,0
1.58665254219702e-07,0.21399128950037,0
1.3367826559611e-07,0.19799684217353,0
1.31921036155371e-07,0.189877839144542,0
2.77294816879849e-07,0.256124125216747,0
3.47551787484391e-07,0.267702036667311,0
3.2378146936918e-07,0.262583381844143,0
2.60547989702867e-07,0.226180972876215,0
3.46797340873212e-07,0.257068108686465,0
3.93829979119625e-07,0.256677144931318,0
3.91760117384965e-07,0.259265772421639,0
3.9259254510795e-07,0.259338198027115,0
3.89130702831412e-07,0.253640480967049,0
3.68814676627904e-07,0.261702136693613,0
2.10876027049056e-07,0.2116641569679,0
9.33385538775229e-08,0.159908787360236,0
1.06886857751564e-07,0.166583511517484,0
1.04823248662783e-07,0.166591008968025,0
3.77253978947019e-08,0.120075514520392,0
4.07059044130516e-08,0.134565162057909,0
5.61039296970519e-08,0.145244813060193,0
6.17572653667523e-08,0.152306592901029,0
8.39968649862549e-08,0.161969172663862,0
1.44453226086943e-07,0.205036152422999,0
1.66904589845158e-07,0.205671283194282,0
1.74615989804465e-07,0.227775239035919,0
1.83737774319933e-07,0.238018404296969,0
1.83040309368363e-07,0.232804462013197,0
1.74799440075049e-07,0.219463272625165,0
1.14566994481479e-07,0.178345687569311,0
3.2527915501874e-08,0.108914851650894,0
1.36941910795746e-07,0.186433298769524,0
1.68514823120529e-07,0.212291787409056,0
1.62299457168473e-07,0.208642725037861,0
1.63205854871944e-07,0.189132270068947,0
4.20893318072657e-07,0.272402250529673,0
4.52974700279251e-07,0.255046184662474,0
5.45302095141227e-07,0.2362966161081,0
6.73114753638786e-06,0.369361829443609,0
3.05305608645138e-05,0.505064399868809,0
3.18436485880336e-05,0.331901396718352,0
3.03700655906174e-05,0.341177152501122,0
2.87556446941509e-05,0.341054254020952,0
2.99000106673639e-05,0.312241451467917,0
3.00421645714099e-05,0.277585685985004,0
2.89105004353883e-05,0.27069803169878,0
2.60013556003981e-05,0.243688346115942,0
2.35628601619176e-05,0.232236073119339,0
2.35299852835568e-05,0.260677560713039,0
1.56151775518179e-05,0.245148095772733,0
1.47987973034679e-05,0.328560788772162,0
1.3496688282315e-05,0.297291701899001,0
1.47590473460275e-05,0.297383119389503,0
1.93832193294125e-05,0.356889304387852,0
1.90965215949016e-05,0.365947499610478,0
1.72590665784371e-05,0.356014675559515,0
1.68048319110262e-05,0.39342494112654,0
1.61498707944947e-05,0.387266112069728,0
1.47686524718668e-05,0.415300290729342,0
1.34969472362339e-05,0.391999529116858,0
1.36386412758717e-05,0.338515219303784,0
1.52906927187747e-05,0.309642146810068,0
1.53419285507448e-05,0.339918771532982,0
8.26932060167708e-06,0.276514686839316,0
8.20015359702105e-06,0.297797322603526,0
9.07492223232835e-06,0.284563194680652,0
9.58854158093134e-06,0.292695340710871,0
9.88586727976775e-06,0.271116118754605,0
1.47900799353689e-05,0.299743187358703,0
1.5795424580121e-05,0.29103921643878,0
1.22506264451485e-05,0.291294442407113,0
1.23499637638869e-05,0.353968150372087,0
1.25590144902372e-05,0.337168640049394,0
1.23383344324253e-05,0.300031265634533,0
1.31220385893636e-05,0.328134669778213,0
1.44472975009963e-05,0.379298663630852,0
1.51032514905035e-05,0.386411045377707,0
1.50167631230964e-05,0.437802708362228,0
8.11605904918975e-06,0.380178983004062,0
5.08676348897419e-06,0.354882227736362,0
4.91055260257292e-06,0.367017551762397,0
4.80520566532421e-06,0.380241072413106,0
2.42631823367059e-06,0.313556469347617,0
1.39114905795065e-06,0.305149725193999,0
2.19701459744776e-06,0.376906615042992,0
1.71804210345272e-06,0.301392265501897,0
1.40623716435309e-06,0.286613377200417,0
1.48789577572972e-06,0.299034624642176,0
1.63931633691643e-06,0.329672163265587,0
1.81205830257413e-06,0.349578104935548,0
2.00483244790734e-06,0.310150217882122,0
7.56020107211234e-06,0.474337707639758,0
8.72149921036412e-06,0.452891178754545,0
8.2665395899546e-06,0.435413285373136,0
8.53496603143872e-06,0.445476659406965,0
8.0255423261946e-06,0.458253560893852,0
7.41757279280074e-06,0.441317661456502,0
7.48714846095343e-06,0.443645460145592,0
7.74725003533548e-06,0.408060549062653,0
7.97933137999618e-06,0.41085788709822,0
8.57327316134903e-06,0.44782009615042,0
5.35371182856755e-06,0.401765344428494,0
4.34446635860846e-06,0.377351410181141,0
6.44487403800104e-06,0.451303096069785,0
6.70877061450793e-06,0.360729911706441,0
6.69102914473848e-06,0.358794366015929,0
6.00881121115507e-06,0.315127436875482,0
5.53442509189909e-06,0.272674125502614,0
6.72604809076343e-06,0.32221621230646,0
6.85919688702553e-06,0.322160269825175,0
6.26102171048964e-06,0.31321062380154,0
6.45457625681315e-06,0.345550229030523,0
6.29258931396415e-06,0.341233138043434,0
7.73019942394836e-06,0.234575180030641,0
4.99715017892891e-05,0.534517054178353,0
9.96355336106636e-05,0.518339557614221,0
0.000100050801906935,0.324194898299692,0
0.000525115312897643,0.0699931222156292,0
0.00110147925351026,0.0488820676616473,0
0.00107519684088775,0.0445523146937024,0
0.00106144856029223,0.0427968268015802,0
0.00103100830084734,0.0397004153849986,0
0.000983760952994103,0.0368650600493332,0
0.000951086018557792,0.0342615688126607,0
0.000966940159493842,0.0353997559648847,0
0.000966002461870926,0.0352996802742002,0
0.000926266828298481,0.0351259178008521,0
0.000680305961420952,0.0673096688636541,0
0.000136655433083586,0.0964456837667646,0
0.000127721048505331,0.125666775769913,0
0.000108429849365311,0.0985423107788022,0
0.000115758598368482,0.133577491640744,0
6.22056815342628e-05,0.136125852632896,0
5.95932354818789e-05,0.173985828393358,0
6.06696491153786e-05,0.171591767502692,0
5.68889738077994e-05,0.172355508195461,0
4.60274705633369e-05,0.139868623365243,0
8.33988732599896e-05,0.143992622525479,0
9.11877465690655e-05,0.113272637254537,0
9.7221734825684e-05,0.130691498564647,0
9.70364541814999e-05,0.153847684701364,0
9.85904970519008e-05,0.138216927377436,0
0.000102731389058153,0.133893299225982,0
0.000101445149960086,0.128941963957368,0
0.000103468435381674,0.144556581225361,0
9.62503841649305e-05,0.136277595455383,0
9.31732146906618e-05,0.131646403121376,0
6.7108435435783e-05,0.134102162181417,0
5.30039505706186e-05,0.167398407779368,0
5.48472112277684e-05,0.170466672774564,0
7.09420983779484e-05,0.197768533287245,0
7.09438131365869e-05,0.273370698675878,0
5.43868664276153e-05,0.239602368825946,0
4.45835576683328e-05,0.238822762893934,0
5.08114869555748e-05,0.252657359435679,0
5.18567824682565e-05,0.282680047501335,0
1.66496970422388e-05,0.223248872972032,0
1.04901273425134e-05,0.336501262733552,0
9.67177102211686e-06,0.332007539942048,0
8.35735443438624e-06,0.328686945313797,0
8.00808116371962e-06,0.334497200973402,0
7.59924601423629e-06,0.325927379023981,0
7.00823884734053e-06,0.318411124182237,0
5.07218609396812e-06,0.299182655384197,0
3.80460347550921e-06,0.283777609384228,0
4.35605085977887e-06,0.297120324380973,0
5.54293234750171e-06,0.337084669743649,0
5.41207803632809e-06,0.317172469706376,0
7.70759846858686e-06,0.350665119602297,0
7.80848726932426e-06,0.337637347468293,0
7.70627337955844e-06,0.336364571578483,0
8.46399873666751e-06,0.353304960055785,0
7.48013700340916e-06,0.379856335474373,0
6.26788546402184e-06,0.379357392666994,0
6.09720238847491e-06,0.375761850415795,0
7.55407395104929e-06,0.455786314757912,0
1.39052847694849e-05,0.551160808251906,0
2.35433490753901e-05,0.654868780900326,0
8.53092788397132e-05,0.231241240134374,0
0.000252709897571002,0.398309802004282,0
0.000328900307161894,0.355991283518593,0
0.0003134151894813,0.269047512369442,0
0.000320174480766659,0.210008701882628,0
0.000273956338716621,0.156226655324169,0
0.000226236521946928,0.120273583619036,0
0.000220118999639092,0.0947282489697818,0
0.000254518678897264,0.101951720374975,0
0.000274271328965885,0.105138036251963,0
0.000296603145084266,0.161576677597467,0
0.000247132516212046,0.145560822549338,0
0.00019208370281081,0.135765782045278,0
0.000172458449576141,0.148907689674588,0
9.01002497078357e-05,0.135677400740372,0
0.000103381385691831,0.198417100386322,0
0.000135651265587901,0.316568019299577,0
0.000206760403046568,0.427543157799373,0
0.000187839554374573,0.330859915646636,0
0.000187168651252566,0.285009179212249,0
0.000175230432006087,0.218932485755374,0
0.000171987499226808,0.22068511417884,0
0.000169584016717656,0.215978914441346,0
0.000181799698540683,0.232373194790427,0
0.000204852245941897,0.252637683926534,0
0.000219591563240817,0.286194166777029,0
0.000175703379780842,0.30394504757949,0
8.54241047881135e-05,0.320569577576283,0
7.40975341082686e-05,0.410724390930431,0
1.62934957219644e-05,0.271927005341406,0
5.54552778541351e-06,0.42429210020378,0
5.54802424276131e-06,0.425934088579755,0
4.60770463768136e-06,0.458403149737509,0
2.62228795294548e-06,0.354148234853885,0
8.58954289984804e-06,0.328387823301603,0
1.82128764439615e-05,0.408113400083283,0
1.85022671812548e-05,0.356106726695859,0
2.00293567828651e-05,0.368964428157955,0
2.15482410254916e-05,0.387240576204755,0
2.15519067276187e-05,0.390821791661973,0
2.14657193130349e-05,0.39263459532123,0
2.14534868961821e-05,0.392350182211909,0
2.09986914962077e-05,0.390037148068996,0
1.99014536025716e-05,0.392484374315392,0
1.47983366132385e-05,0.542698777248703,0
4.19959609283887e-06,0.357823074702695,0
6.92181170867323e-06,0.367900944640506,0
1.22455951887565e-05,0.397238017963849,0
1.00096809937078e-05,0.323863611378912,0
1.0386866665448e-05,0.338311505797281,0
1.09420331942708e-05,0.296829663695921,0
1.2455556677865e-05,0.29324016560363,0
1.29936918251361e-05,0.284197575640252,0
1.36014986717627e-05,0.287347017749923,0
1.62561667182235e-05,0.260104966996822,0
2.14559643596434e-05,0.273337500231938,0
2.03686852792493e-05,0.310771751295183,0
1.69419008803052e-05,0.307200449655516,0
1.74943488058898e-05,0.336409386694731,0
1.68191898735543e-05,0.287680827815247,0
1.80421867618453e-05,0.330978373068312,0
1.87989603010875e-05,0.312129217535639,0
4.33388729469274e-05,0.383048004583474,0
4.67030874724895e-05,0.266880552877181,0
4.81597472709252e-05,0.291250512149196,0
4.66311212880456e-05,0.298186112461755,0
4.50753807653013e-05,0.297594433306615,0
4.51631018477422e-05,0.284993770190293,0
3.79111736776549e-05,0.232653728226544,0
3.75127424590155e-05,0.21220899470129,0
3.99442468495316e-05,0.176035749831745,0
4.17839437344796e-05,0.191544873120944,0
3.09641358461468e-05,0.17354304180448,0
2.76676248521819e-05,0.173321689628796,0
3.07077793706971e-05,0.186893145301703,0
3.54495745946792e-05,0.202966063574328,0
4.08227434774759e-05,0.225685440349851,0
3.88285011240954e-05,0.236593291033989,0
3.82678440643446e-05,0.256561855132297,0
3.06299846585244e-05,0.285255672171957,0
2.36976024390831e-05,0.312039752408095,0
2.68530916118294e-05,0.308867315602011,0
1.56519328458059e-05,0.27717891126476,0
8.96387807291433e-06,0.337817275886051,0
8.53448127442147e-06,0.311851749679317,0
8.57553638320811e-06,0.311806162467218,0
8.11886023454328e-06,0.302407452945106,0
9.0687414328903e-06,0.293336566402526,0
1.03591713373634e-05,0.280823549671927,0
9.66233601543522e-06,0.268884891868182,0
1.00150823359512e-05,0.317763603029679,0
9.44576595153103e-06,0.380937406133744,0
2.13139437667265e-05,0.323564714118137,0
7.27063976735841e-05,0.512815590300493,0
0.000288842294836298,0.0916832718056847,0
0.00197169800227834,0.135330488699573,0
0.00292383849912612,0.111715289411562,0
0.0028385471985309,0.0749487892937266,0
0.00268921907938868,0.0735845071725517,0
0.00255906525626192,0.0714034925645054,0
0.00250209019744136,0.0707840268684624,0
0.0023685788530695,0.071366823864319,0
0.00226731000884727,0.0694870354052091,0
0.00240419054426094,0.0712578637530861,0
0.00254827517510374,0.107292990252452,0
0.0014125797064089,0.143839029060312,0
0.000265820108041955,0.0765538983323464,0
0.000122535363557556,0.122852199542461,0
0.00014396368308218,0.10679105869384,0
0.000156052908799524,0.103500325421014,0
0.00018097804235693,0.115730875825225,0
0.000160752977404147,0.116311247629671,0
0.000125119312645464,0.117400785447575,0
0.000137558685942128,0.125421355579391,0
0.000149419911758902,0.137472286580529,0
0.000157009954350303,0.144120336645429,0
0.00016805665341532,0.156497677117109,0
0.000151099538549874,0.252329523585707,0
3.52260430943977e-05,0.227497825766754,0
3.05792726331147e-05,0.378388204666731,0
3.31344486963325e-05,0.399058526842973,0
2.54890592172835e-05,0.586277678458577,0
4.13901467882061e-06,0.333655384968301,0
2.85797542263572e-06,0.472621994728565,0
2.62556575507918e-06,0.493355894169747,0
1.28132050727496e-06,0.356504693795732,0
9.00801585409349e-07,0.31577608211621,0
8.98034730620921e-07,0.317852216114446,0
7.36322904190569e-07,0.287485926401117,0
1.00152062091242e-06,0.337386378347757,0
2.69784917282059e-06,0.53424128642677,0
4.65437533031352e-06,0.639054037051231,0
4.72575411996822e-06,0.550224635991661,0
5.22913222449461e-06,0.574496330911336,0
5.30075156405394e-06,0.574072224702602,0
6.01775225881232e-06,0.500490503129427,0
6.85067913169681e-06,0.438161856805362,0
6.98925003370556e-06,0.428607963770736,0
7.52490028512505e-06,0.452914749337157,0
8.2447536020974e-06,0.479087582771024,0
7.52383002090979e-06,0.469672504951108,0
5.4817772237305e-06,0.400987138876822,0
5.32347910600086e-06,0.406088576968827,0
8.23347052564811e-06,0.431065321362043,0
9.67049843171892e-06,0.346328322832686,0
9.08741206943219e-06,0.386720892569253,0
7.49361027553266e-06,0.395427630945438,0
7.26061864001162e-06,0.397418437363823,0
6.67182290419117e-06,0.378789820839664,0
6.32970395812842e-06,0.369334076494186,0
6.4474826890513e-06,0.372742253842531,0
6.64000035792905e-06,0.377662052326352,0
7.05851896828685e-06,0.406282371071096,0
3.91493695683319e-06,0.401168671962163,0
9.28022066330496e-07,0.359891942399513,0
1.02421642773215e-06,0.401117597167212,0
9.99460315108258e-07,0.410097716236922,0
7.2683587077624e-07,0.352490086480169,0
1.6436636954187e-07,0.183074804202807,0
1.64280012244077e-07,0.191187498264116,0
3.68006669616181e-07,0.261418984998554,0
4.15378248458985e-07,0.245569618134795,0
4.19228344652238e-07,0.255898113047908,0
3.94383515241542e-07,0.25108340355174,0
4.58606446624503e-07,0.241771507769337,0
6.85634119747584e-07,0.281230205632414,0
6.94103269602685e-07,0.276674595152563,0
7.04410933294945e-07,0.285354650941963,0
7.11003345590915e-07,0.282090100212584,0
7.58172834199951e-07,0.273061263014702,0
1.29647751075652e-06,0.338892986604323,0
1.29549820484261e-06,0.335560567156353,0
1.19491896906343e-06,0.316172727849792,0
1.11535121887366e-06,0.308835946643728,0
1.10274022200912e-06,0.32755085879623,0
9.25414830973642e-07,0.293600695329947,0
9.45946514472731e-07,0.300060151859568,0
8.99164100035907e-07,0.290508664313482,0
8.97549737654765e-07,0.285254626065598,0
9.53962170539971e-07,0.318037393047612,0
4.1603925930534e-07,0.233961808283291,0
3.69552606816009e-07,0.239640822539489,0
3.75046087105232e-07,0.253970845290338,0
3.86779354057773e-07,0.243125001283231,0
3.9209988380251e-07,0.244783009981264,0
3.64418948600921e-07,0.261790031603995,0
2.88914710385424e-07,0.225830184113839,0
4.62212217730695e-07,0.278279925723667,0
5.02615517678121e-07,0.29757552714764,0
4.64653227086742e-07,0.266421877248177,0
4.22794004445248e-07,0.254237605047032,0
4.28371954441055e-07,0.261819117353361,0
4.20592129300437e-07,0.256449065743285,0
4.09677133136818e-07,0.254427900332601,0
3.97050681619266e-07,0.240102392759076,0
3.97267164736001e-07,0.222313542921286,0
5.30127277517641e-07,0.259547396674713,0
3.89296810857767e-07,0.209751616485909,0
3.80163818769498e-07,0.212652496407643,0
4.16161598810546e-07,0.222529222774059,0
3.80683732173011e-07,0.209195081241354,0
4.0853608425123e-07,0.211429868246095,0
4.42492080476846e-07,0.216615204815198,0
4.47988746076234e-07,0.221774744363004,0
4.79437785227954e-07,0.229214363880921,0
4.00330371344176e-07,0.220218930516383,0
4.04377720818726e-07,0.230379361697266,0
4.27438540588412e-07,0.228506735328944,0
5.24843791750372e-07,0.244913716409687,0
4.92224917947135e-07,0.228284482903733,0
9.28140512678833e-07,0.286393429060112,0
8.97078311750423e-07,0.270813468303886,0
8.96846491955119e-07,0.269749874629333,0
1.49792631743766e-06,0.260299453324771,1
9.08876783181774e-06,0.513732977318704,1
1.10531480203807e-05,0.516285282406756,1
1.29281329510753e-05,0.56087782035406,1
1.73832305585209e-05,0.623998817981222,1
1.71655582593253e-05,0.557637376377904,1
1.50091059913843e-05,0.506661134400875,1
1.41520972298607e-05,0.46016267781778,1
1.10861903044869e-05,0.408140628403345,1
7.94131387736195e-06,0.295013256352644,1
7.94584256259468e-06,0.311429405075625,1
7.54054947801425e-06,0.296368451672383,1
1.22175756668818e-05,0.368320150214563,1
1.342569066811e-05,0.345204547266503,1
1.22274733693585e-05,0.333470169764478,1
1.2189833384966e-05,0.352459312958899,1
1.16030750679063e-05,0.337363096301328,1
4.71300729911878e-05,0.153383163564395,1
0.000257346488370872,0.297060803929499,1
0.000333273258569559,0.285105193041769,1
0.000389726841532983,0.288670289712478,1
0.000425042506868092,0.261834347462852,1
0.000711280542135077,0.206207038166194,1
0.000925137911905388,0.180999907832358,1
0.000797551733679501,0.133050460100432,1
0.000640035516631381,0.102490967722208,1
0.000510174857654719,0.0830072144554888,1
0.000407370591177466,0.0514655525921315,1
0.000514041560285552,0.0574315802872618,1
0.000496510148272359,0.0561723261904066,1
0.000487511913208061,0.0546367681488802,1
0.000481174829830077,0.0567900341029842,1
0.000398659000995126,0.0659938381736437,1
0.00027703797611928,0.0577519147554799,1
0.000293626336239119,0.0615115134131638,1
0.000273085576375679,0.0613923342847075,1
0.00032474500221702,0.0586638771104692,1
0.000334311083704084,0.055849763878364,1
0.000347266048646215,0.0579283642246795,1
0.000408573502915553,0.0400666264222891,1
0.00057616672626289,0.0460606069501079,1
0.00079782502762884,0.0499804063243081,1
0.00101318506829506,0.0568870290710045,1
0.00121671187458847,0.061865330658844,1
0.00145500005140138,0.0587297005799124,1
0.00138471674229291,0.0564766426472347,1
0.00146081662171172,0.0619072340860903,1
0.0014581665229337,0.0721679956953909,1
0.00092923005108793,0.0537088860055262,1
0.000808307490879148,0.0710619146088779,1
0.000902430571549453,0.0786887007045879,1
0.000889284526929022,0.0701548001666533,1
0.00085002927411159,0.0617207544776865,1
0.000649696034778508,0.0486186545539853,1
0.000798076406762221,0.0531936658883821,1
0.000848669890972165,0.040441224915851,1
0.00114634351581102,0.0395877411442288,1
0.00113265055343534,0.0299564700422659,1
0.00125216909982627,0.0286991387391312,1
0.0015108860203517,0.0331580907824704,1
0.00122276183599582,0.0236345889224719,1
0.00108222832105577,0.0222660070734964,1
0.000944292412633878,0.0209016230723335,1
0.00162908884299798,0.0250224214505192,1
0.00220188557847026,0.022304617390472,1
0.00184348202157737,0.0219195530281741,1
0.00180772047357608,0.0240861782932522,1
0.00170905441542228,0.0262973018568639,1
0.00158647075359657,0.0273722232756901,1
0.00167304033780076,0.0264414149997134,1
0.0018997472611619,0.0329326422539595,1
0.00165665687063371,0.0225879417847803,1
0.00164347923528681,0.0227533427077281,1
0.00120429252049429,0.0255433798641786,1
0.000892855010461365,0.0345815743450268,1
0.00124827442344765,0.0178717520627082,1
0.0036111218394017,0.0275150294830828,1
0.00345125647061813,0.020254358497622,1
0.00325450234205301,0.0196427089046761,1
0.00423686544775378,0.0189051359322836,1
0.00584250774325228,0.0165044545552,1
0.0055403153344224,0.0163267620352662,1
0.00498985487249716,0.0147737293807909,1
0.00453339666051227,0.0138232886827103,1
0.00348292720263832,0.0101830320265379,1
0.00321677098597666,0.0108644399784799,1
0.00426022794105271,0.0179581955161527,1
0.00479314785832658,0.0167661979125708,1
0.0049168861600485,0.0166736227748033,1
0.00523262543287425,0.0213030108214171,1
0.00412287819541284,0.0284793615605509,1
0.00404417265441635,0.0319359167919632,1
0.00528816395444448,0.0315658000545365,1
0.00727220804891917,0.0375044972225149,1
0.0106692082075298,0.0380559448698448,1
0.0121125195839615,0.0235041541290396,1
0.0164918344899557,0.0166875976212571,1
0.0139657253367561,0.0104455086328723,1
0.0148557062643891,0.0112980287194811,1
0.0183213692861386,0.0145424510675239,1
0.0193607923127495,0.0143879378876352,1
0.0213643021755182,0.014302745466423,1
0.0238247537499173,0.0158869594212917,1
0.0235352043760375,0.0160727511477748,1
0.0213512320872141,0.0150461509237737,1
0.0192828761606269,0.0213419374146046,1
0.0033758906996051,0.00467911188319252,1
0.00237696151255162,0.0087826017628229,1
0.0022184335263241,0.00761408681296875,1
0.00237901907603969,0.00906198527972351,1
0.00365815366220871,0.0173641069816664,1
0.00363880774168158,0.020789415203492,1
0.00528048563416719,0.0139778117459431,1
0.0113902374060521,0.0238859800986686,1
0.0113945660141671,0.0168939026241122,1
0.0108936790288806,0.0168447156065771,1
0.00884989980645135,0.0141501066821799,1
0.00795132818484171,0.0104710265118086,1
0.00756547409590533,0.00858480368503752,1
0.00738565116876368,0.00860287478304613,1
0.00743036110054545,0.00899342252195419,1
0.00756796074438542,0.00894209894226781,1
0.00729686487436347,0.012065128681289,1
0.00383429175978969,0.00566429903751487,1
0.00397309396946665,0.0105444794817322,1
0.00637332751663763,0.007099600841167,1
0.0125036653701588,0.016872437170328,1
0.0137212379890518,0.0104949557098506,1
0.0140856576723976,0.0123613906870389,1
0.0155637126653736,0.0132997994620814,1
0.0176647397112214,0.0146316503745396,1
0.0177912390836804,0.0170261651041291,1
0.0191061996762591,0.0213610676366838,1
0.0201420620074419,0.02189076898336,1
0.0214109785258511,0.0217546098657686,1
0.0181515074740385,0.0374901349182412,1
0.0073421903397285,0.0135999007663887,1
0.00331225100358615,0.0156811455978586,1
0.0032610292795907,0.0149436013703969,1
0.00325193507644,0.0165639467993876,1
0.0060775023112427,0.0226576281720507,1
0.0110881918325884,0.0370616166811625,1
0.0119585917042271,0.0265191044825502,1
0.0113223944004585,0.0241076721907579,1
0.0100864991322549,0.0166832448929999,1
0.0121074626582166,0.0175248622471648,1
0.0129959200530598,0.0170067638000944,1
0.012063750819426,0.0199084624961029,1
0.0107724266157653,0.0159770555769206,1
0.00976569039925279,0.0104214715444474,1
0.0102671365748227,0.0132111181163258,1
0.00958261281798032,0.0111085905097836,1
0.0100545922106657,0.0141436148610254,1
0.00789607281327831,0.0101548642483845,1
0.0075005758298081,0.0105203797575049,1
0.00674336807333142,0.0105724331228654,1
0.00766809038908954,0.0131031918658609,1
0.00756967497697589,0.0131554908531882,1
0.00674154636601652,0.0123925690198272,1
0.00631889449683535,0.0165991252435417,1
0.00645618925128053,0.0173982066230642,1
0.00703141935926875,0.021748249069195,1
0.00615218100058948,0.0207391249297135,1
0.00674835332865379,0.0236723010677209,1
0.00388142175621545,0.0103261273715465,1
0.00374603749453311,0.00913832592635257,1
0.00532133495587267,0.0119248049705738,1
0.0115839519021357,0.00986118833054887,1
0.108082867378496,0.0251503060968278,1
0.180931454949187,0.0299037192870974,1
0.230295407090309,0.0372772423398001,1
0.268207365770312,0.0418879983487376,1
0.301541712446321,0.045214081497773,1
0.309128419748998,0.0471040749025197,1
0.251660526129771,0.0456068365403723,1
0.186856809790582,0.0349143255504341,1
0.136760664075544,0.02129056133509,1
0.103374305162606,0.0146466314959556,1
0.0934606071230335,0.0139665365297314,1
0.0963317085641267,0.0164190068042561,1
0.0895157032815977,0.0151259242002247,1
0.0863806649920033,0.0144346239596471,1
0.0877298936448186,0.0125926323803611,1
0.117931520749453,0.0143113852781324,1
0.125817616135953,0.01445911631597,1
0.131472985034433,0.0157827993227381,1
0.13400927092387,0.0256429835554529,1
0.0833483389267535,0.0174708963459943,1
0.100265674387511,0.0266332427275229,1
0.142420483243646,0.0346289516971897,1
0.154052131992926,0.0430480179433436,1
0.134456313404901,0.0395715849275129,1
0.0812638668454079,0.0143169494605812,1
0.0841798939644132,0.0145765444442115,1
0.0777180324980117,0.0156190989937122,1
0.0529657637672155,0.00844851961396048,1
0.0482051447126204,0.0075247774314458,1
0.0432880947525977,0.00653609894394876,1
0.0432166561870585,0.00804182377660323,1
0.0411108962046883,0.00634643359636579,1
0.0386086466284833,0.00565090220846272,1
0.0398702943500275,0.00501890966791163,1
0.0641945947982623,0.0236613167214067,1
0.0652967009495987,0.0350726998072564,1
0.0774653067027936,0.0383904523491082,1
0.0865712350206771,0.0580563040138252,1
0.0744840564139307,0.0515066622739209,1
0.069956605091072,0.0459878221983583,1
0.0468781221494898,0.030905267568258,1
0.03380405682129,0.0275282117649967,1
0.0161061843401487,0.0107390338095201,1
0.00397932278450607,0.00254652048777784,1
0.0032812042072896,0.00663559358292641,1
0.00309513891220365,0.0113893709102608,1
0.00421084056816592,0.0169736577196157,1
0.00588003919586927,0.0237662100212815,1
0.0051904512190397,0.0199279109845291,1
0.00522486467806762,0.022033240928128,1
0.00475920244381931,0.0210336197664415,1
0.00461878360794947,0.0260146850360224,1
0.00549646508022017,0.0446151893949084,1
0.00654587223656439,0.0488391725393475,1
0.00708550429781422,0.0492533422979694,1
0.00796924225217609,0.0532179840220214,1
0.0120191187243554,0.0127218718678954,1
0.0382348579927046,0.0297927210782967,1
0.0503777680376797,0.0367632132146786,1
0.0634562947879792,0.0443275344371119,1
0.0760250795579048,0.0368087040871984,1
0.135021964150428,0.0469043994954404,1
0.159790489105868,0.0508884182454333,1
0.199935134757028,0.0525603285838064,1
0.252898758362359,0.0447826443585564,1
0.206067317329252,0.0341453764129055,1
0.16965988401422,0.0241208386164911,1
0.164650188404969,0.019268582730866,1
0.160453097827085,0.0190656357665305,1
0.15402968347129,0.0182882737595642,1
0.1493652595001,0.0197796327834317,1
0.15599814825339,0.0166326317090777,1
0.186593665705024,0.0172660587662785,1
0.203860111542518,0.0208469592553456,1
0.207705391346127,0.0236050517275763,1
0.263258099178869,0.0255852014634765,1
0.253636089561028,0.025388495799722,1
0.232038262519629,0.028526074399977,1
0.189991667114802,0.0179850788623293,1
0.21342624050663,0.01856950538119,1
0.25559507050163,0.0219113515767973,1
0.285143157629784,0.0303219298122905,1
0.312212809972205,0.0380685260295717,1
0.327146742146327,0.0385831636776761,1
0.262541301298826,0.0242825074882894,1
0.142980873208179,0.0175446722289244,1
0.139691039825771,0.0203496905676506,1
0.110586096309575,0.0170904130036454,1
0.0948060191210473,0.0187769467066538,1
0.101371476824081,0.0173583758024912,1
0.0930355350714699,0.0160060465705395,1
0.0875053781518523,0.0150637132301228,1
0.0825390802987199,0.0146162896001622,1
0.0932265194783228,0.0157049418859334,1
0.129989847888764,0.0341559721098228,1
0.159718768679193,0.0397353699190009,1
0.164263815132655,0.046943916946683,1
0.15609605174652,0.044968485300935,1
0.120436719477281,0.0574109514243574,1
0.0757084651275999,0.0770054491501974,1
0.0560569657040091,0.0665543778609025,1
0.0230129781240044,0.0363330954320529,1
0.00591946804667498,0.0120264885949768,1
0.00421807301545094,0.00611848785721938,1
0.00575074441196231,0.0085576623044334,1
0.00608469334513053,0.0106429013575509,1
0.00680692453165097,0.0142983077495994,1
0.00799657953157845,0.0171054561383861,1
0.00966286311017949,0.0196319230509773,1
0.00975852238583747,0.0208951370875833,1
0.00823782893977209,0.0182893028722423,1
0.00864517459870107,0.012851829234163,1
0.00896657789933895,0.0133172252796848,1
0.00941859017124716,0.0225160329652582,1
0.0304201416059724,0.0300008640994719,1
0.0477749873134972,0.040813244489567,1
0.0653761242649664,0.0484223030756238,1
0.0778108941906659,0.0578570559636466,1
0.0870003204969824,0.062801262974564,1
0.0847145212717594,0.0623292540803387,1
0.0744390636640043,0.0590656519489227,1
0.0928435140487206,0.0249987724663069,1
0.239060441491364,0.0439829272709853,1
0.219222143965894,0.0216385048082687,1
0.211971377568556,0.0214691200117657,1
0.23971356138159,0.0247481843358147,1
0.247531550610102,0.0257479882143551,1
0.23546018091041,0.023895767701805,1
0.19953425115193,0.0194699732680967,1
0.149620189130255,0.0155154516713904,1
0.112574422469474,0.0118128795649078,1
0.100943174467959,0.0164938411125209,1
0.0904243606562503,0.0187047189600231,1
0.0835846835180263,0.0318900579729992,1
0.088074343622567,0.0380833684179545,1
0.0793842984128881,0.0261565725563639,1
0.0638900365467897,0.0230663825497221,1
0.0414889653337641,0.0130935519217728,1
0.0449076515322774,0.0121212240011009,1
0.0466785761134359,0.0113247565878683,1
0.0523593631570454,0.0102358744486915,1
0.0846095081907622,0.0178319459865112,1
0.0997109563352584,0.0202846711941765,1
0.120543601490176,0.0194628821072654,1
0.182715003367078,0.0299254516500568,1
0.172950724373686,0.036011137067727,1
0.137093129629117,0.0247271793073119,1
0.124194620821501,0.0212259758155989,1
0.116427522532433,0.0246974556817416,1
0.0669430696958226,0.0119944706956599,1
0.0441508398154413,0.00918654036036048,1
0.0448902317458017,0.00809946659335332,1
0.044943257922051,0.009361482446702,1
0.0518042370396628,0.0155108727747387,1
0.0509229330747053,0.0107214464317444,1
0.0642996488299609,0.00884473811459446,1
0.0656565572688861,0.00828817061403582,1
0.0531981164133551,0.00708955023999697,1
0.0724495576416251,0.0113657941858908,1
0.0778297752313371,0.0144264330451474,1
0.0622715907217751,0.0110113843560605,1
0.0529461154876096,0.00891762610565178,1
0.050325242528836,0.00762305703551645,1
0.0505641113390864,0.00798057518589391,1
0.0225054466808133,0.00182242358673195,1
0.016317502010806,0.00805914386517787,1
0.0133696471149053,0.017159465120487,1
0.00322246810054926,0.0145232720039146,1
0.00216262639002516,0.0349076197549878,1
0.00170819968852258,0.0375533697426875,1
0.00198532403904595,0.0229277471350089,1
0.00234857532702852,0.0250430040632689,1
0.00291270804468982,0.0335163282450052,1
0.00313431641608299,0.0315201542068114,1
0.00455308804692063,0.0111523541570569,1
0.0117915281243441,0.0260654995445296,1
0.0142473883071406,0.0322526021644542,1
0.0151508529054012,0.0335260068867933,1
0.0185965076692725,0.0328916645417121,1
0.0281178042069609,0.0434088877450051,1
0.0373444181595596,0.0727133148180221,1
0.0456700937811478,0.0375971737908059,1
0.111168549667324,0.0313958500682916,1
0.0952137667631697,0.0147227034146571,1
0.13145789372762,0.00799179526489844,1
0.24199780644408,0.0179069846934069,1
0.280859524321747,0.0206489965118605,1
0.30583466561597,0.0226640957945074,1
0.274043719181458,0.0208041233688515,1
0.339855240198843,0.0188976943522042,1
0.370821440530039,0.00831255156425815,1
0.318221104663846,0.00690472070524803,1
0.313234830751956,0.00802164194839012,1
0.226065345479224,0.00538449436574803,1
0.20770081535314,0.00679594591878226,1
0.208570649537288,0.00595476623160234,1
0.208093322926442,0.00567468699858402,1
0.211304288196819,0.00542105531938945,1
0.210304641119662,0.00528920555753935,1
0.182671302487878,0.00626669179404801,1
0.14429066971351,0.0174872017041663,1
0.0976789635078058,0.0155174530941601,1
0.110214798133913,0.00821471318826908,1
0.185976912679442,0.0206135805525725,1
0.194571994112488,0.0202967895981009,1
0.287378240262452,0.0287466390358348,1
0.372337554953887,0.0393221412452242,1
0.416700271457082,0.0455632833413181,1
0.479124981624748,0.0493767731415003,1
0.490083714347053,0.0570848947874268,1
0.373657925396436,0.041433299104689,1
0.165183836815301,0.0121571614552067,1
0.144233595102304,0.0201202503357402,1
0.158724120423947,0.0216765636391292,1
0.189753226489989,0.0231179972025698,1
0.213989172546163,0.0179481979184761,1
0.206527705533739,0.0173751905656433,1
0.185881424437597,0.015938659272317,1
0.160928978917988,0.0122245749549653,1
0.172987736911081,0.0125930536016068,1
0.23646702040388,0.0190570855002881,1
0.305932284333052,0.0322719738611684,1
0.29183123426747,0.0340316010033311,1
0.299414050163077,0.0332048800368854,1
0.241742565435346,0.037531372827408,1
0.15471207800189,0.0510545737483427,1
0.13483475139195,0.0504203240211344,1
0.0607120788998607,0.0315643516587417,1
0.0106695243932142,0.00550072753035338,1
0.0088161480724871,0.0166636626320992,1
0.00832837272704998,0.0163039488527012,1
0.00829993049328112,0.0165904025065166,1
0.00809477341185876,0.0172886419785556,1
0.00819568012914001,0.0183197637426679,1
0.00751224900234516,0.0176062360588273,1
0.00739233536235078,0.018934655054574,1
0.00727675535063818,0.0169878944002991,1
0.00723094575057111,0.0175472925519376,1
0.00688739330510014,0.0297705320513169,1
0.00291612297088687,0.0139483302889789,1
0.00224898560100941,0.0127727890251311,1
0.00221149831507733,0.00968686148992704,1
0.0031568146949769,0.0115465044256623,1
0.00832330071720984,0.0282185818840449,1
0.0239652992058773,0.048374805949426,1
0.0428956369799684,0.0301007333575012,1
0.121865682329967,0.0394246375387346,1
0.122404626456949,0.0210482571207273,1
0.118602373253814,0.0205907863167236,1
0.112219100575112,0.0188223461102671,1
0.0966463308454169,0.0163301104450728,1
0.0885540290012462,0.0113209458128547,1
0.104292869840732,0.0128621210274149,1
0.105175529712829,0.0113104419702622,1
0.172708482950427,0.0168749060295407,1
0.234789174116349,0.0265433616674976,1
0.331674012172775,0.0343563178347421,1
0.447241540204174,0.070141416571803,1
0.41197644353381,0.071377013072705,1
0.364640055471419,0.0695006924744453,1
0.257607616865656,0.0427298288739407,1
0.214395097381567,0.0206432159004151,1
0.248874006505792,0.0160169048613059,1
0.149648580390567,0.00833051523795518,1
0.168114557927709,0.00853358537255174,1
0.150864309816402,0.00527968581770198,1
0.140880020772776,0.00531792217182679,1
0.147452741345402,0.0046706505313784,1
0.170002747443362,0.00563211388243969,1
0.173986036689812,0.00523271029600222,1
0.172361770670194,0.00470352634463079,1
0.232630617568807,0.0182133085308318,1
0.258002980257807,0.0261756485577954,1
0.375087603756614,0.0401443669592875,1
0.332110069156464,0.0594911835743435,1
0.323835710003917,0.0719869537190981,1
0.280554694333234,0.0750901923131896,1
0.246452312153298,0.0764097596141774,1
0.213023306189056,0.0788692018049082,1
0.113093287733583,0.0497676545427312,1
0.0488950980284814,0.0294025698285338,1
0.0489613349630561,0.0256791724275436,1
0.0632128133075465,0.0300654101024517,1
0.0759720396351546,0.0371786682491212,1
0.109731537036585,0.048395458963441,1
0.124189161488562,0.0330874004047443,1
0.118663128519584,0.0234756951932017,1
0.113054659556497,0.00905491748824004,1
0.120700713522391,0.00174011039919335,1
0.194042768035191,0.00669777006873555,1
0.215974172669603,0.00814594284196031,1
0.261113197163644,0.00948766300913978,1
0.277576306437819,0.0101813993746507,1
0.284244675501351,0.0103303553851071,1
0.262992064618523,0.0101918685930381,1
0.206670875426675,0.00783558525578537,1
0.221367778031107,0.00905361014700079,1
0.150301612945723,0.0124347214531793,1
0.0304028566359798,0.0128000759827974,1
0.0324289575644297,0.0164872733505743,1
0.0213081495696808,0.0155188824440256,1
0.018836549649902,0.0204451946383657,1
0.0118160524635366,0.0218421411223873,1
0.00618366723236647,0.0160818061972492,1
0.006881168538354,0.0127617661333871,1
0.00838400331965659,0.0146637172453348,1
0.00810955035156388,0.0159812220945978,1
0.00798561534820919,0.0170541803352074,1
0.0077006514864393,0.0179649216913551,1
0.00816047727415982,0.0132517406494608,1
0.011904924060661,0.0210146025764071,1
0.0191768583469184,0.0282226142158928,1
0.0375004531539389,0.045396616454804,1
