Activity,Complexity,Tag
5.85062083775373e-08,0.0970217994920536,0
3.61513675138196e-08,0.0944571635667749,0
2.53452816581059e-09,0.0538713908690127,0
3.05613385132887e-09,0.0502353015369519,0
2.48332415568958e-09,0.0456998699564847,0
6.51796101361631e-10,0.0418989099871281,0
1.93233243249472e-08,0.0611556101538692,0
3.75102431670305e-08,0.0742253688213723,0
3.91380805437343e-08,0.0716332591250667,0
3.93857307080694e-08,0.0718113828563224,0
4.45808980151672e-08,0.0768082288202543,0
3.89910096849939e-08,0.0727523109603826,0
3.77924982393047e-08,0.0772605036024247,0
2.43536259730839e-08,0.0716687099680985,0
2.73077034800645e-08,0.0801166870301698,0
3.74880875857283e-08,0.0949873648158101,0
3.67596261395425e-08,0.090750541378634,0
2.17631110049981e-08,0.0742586635846907,0
2.92528931832324e-08,0.0844049823263801,0
5.21500886101963e-08,0.102817336865045,0
8.95966081052905e-08,0.129580195599013,0
9.31735036199927e-08,0.13199065285177,0
1.00737630082153e-07,0.127423182036442,0
1.0117012109621e-07,0.119965899454513,0
9.53798478418138e-08,0.113596045877404,0
8.53764270458538e-08,0.103215769787781,0
9.17179170960174e-08,0.106624687574762,0
8.84278484402073e-08,0.106733182950686,0
9.22985339964965e-08,0.110843722656273,0
8.33130742424067e-08,0.102083527319697,0
4.97494786247021e-08,0.0803398603957563,0
4.25141691231407e-08,0.0779761038602837,0
3.19259816511562e-08,0.0698836079843034,0
3.3337186677348e-08,0.0697228982585397,0
5.61072161011541e-08,0.0844278417858122,0
5.85241438481155e-08,0.0874685582407216,0
3.92031405840666e-08,0.0748039582955095,0
3.73555057738078e-08,0.0715453244064327,0
3.48099349849353e-08,0.0652561249484153,0
3.41442828533625e-08,0.065824665376793,0
3.21206694259019e-08,0.0675499434846366,0
3.33132023813985e-08,0.0684301803204602,0
2.5985402119797e-08,0.0609842488467566,0
4.25401228040949e-08,0.074691974104664,0
2.8782561843014e-08,0.0645186378844872,0
3.05308130457166e-08,0.0668401965153832,0
3.14670446098932e-08,0.0692993736759918,0
3.91254905467403e-08,0.0715319994092607,0
3.93068849727046e-08,0.0716265586727586,0
4.12780283568268e-08,0.0713346144389538,0
3.65630393149708e-08,0.0685226419512476,0
2.84319409770069e-08,0.0610392614551153,0
2.84477663922229e-08,0.0634955530470458,0
2.28906542553412e-08,0.0588635385492098,0
2.54303872243784e-08,0.0620613768701935,0
2.20354488170703e-08,0.0601894138064257,0
2.27449901001756e-08,0.0631277970216416,0
1.39460592400978e-08,0.0562453714835977,0
2.15107483836876e-08,0.0645176209733557,0
2.41578128354784e-08,0.0669953501283718,0
2.59083147639006e-08,0.0659521791186477,0
3.52739361590675e-08,0.0693666595536165,0
3.42602655631008e-08,0.0703631912099464,0
3.59347351633075e-08,0.0698624879977746,0
3.48538944716464e-08,0.0708238562036219,0
3.40281594732665e-08,0.0702015377421179,0
3.64642183888445e-08,0.0720795796722939,0
4.92241451747108e-08,0.0843070910917661,0
2.47739490012201e-08,0.067708070513971,0
2.33498726373192e-08,0.0683284720101405,0
2.27404183135577e-08,0.0684886537284448,0
2.15431025659069e-08,0.0721584233094266,0
2.34533356852422e-08,0.0707721052151566,0
3.09854596410765e-08,0.0788316861947889,0
2.8537232739577e-08,0.074077077156627,0
2.08355306678063e-08,0.0680789102369153,0
2.09707852165188e-08,0.0667620490267281,0
2.25175964673168e-08,0.0669001349782483,0
2.01406191018786e-08,0.0673793414784503,0
1.48488112591953e-08,0.0602167227988712,0
2.18286633915817e-08,0.0675801583646524,0
2.27013822893582e-08,0.0684980893492234,0
2.16528254447376e-08,0.0674036646511175,0
2.35434350492051e-08,0.0725620652738238,0
2.02829775036435e-08,0.0726215598009625,0
2.14927425779308e-08,0.0729963654598631,0
2.14395691828051e-08,0.0780310289443385,0
2.20961480763209e-08,0.0737100495746804,0
2.55279421172875e-08,0.0745093058344084,0
2.33619702880621e-08,0.0759905939888461,0
3.37802279682164e-08,0.0865605389871193,0
3.46270635202176e-08,0.0831193597450469,0
3.37515312152914e-08,0.0865332276123226,0
2.18919650524455e-08,0.0691919524778669,0
5.72423555508009e-08,0.0915661219166074,0
6.92820501063939e-08,0.0957022500055545,0
6.63257218736936e-08,0.090732241608731,0
6.55576617218787e-08,0.0969292247433064,0
6.44491793049737e-08,0.0944922834333454,0
6.95915248928394e-08,0.0977048573122927,0
5.144673682282e-08,0.0843601126563762,0
4.77786869164737e-08,0.0848237249830759,0
4.60461204586295e-08,0.080526257453151,0
3.81376329613703e-08,0.0790818485855255,0
1.67242988002342e-08,0.0653518671867374,0
8.83318409212306e-09,0.0550047388920575,0
1.71781013734495e-08,0.0657610743511096,0
1.37037545493466e-08,0.0576537006774488,0
1.43902258938259e-08,0.0610868622435626,0
1.77353669945877e-08,0.0626968398720525,0
2.45044245962975e-08,0.0734828379491189,0
2.6313797069323e-08,0.0752886850788313,0
3.22188573354196e-08,0.0809231351374346,0
3.31719693424934e-08,0.0817988806707007,0
3.21647695829704e-08,0.0828619099495003,0
3.11739579200934e-08,0.0800131783999738,0
2.99720703858248e-08,0.0745137565835314,0
3.1290432976083e-08,0.0751333443190766,0
4.27493699608392e-08,0.0862708763446061,0
4.37661353046705e-08,0.0889753324073915,0
4.33793621567922e-08,0.0867745145895834,0
4.18995099961524e-08,0.0820530444379292,0
3.26154774083212e-08,0.0777568577690295,0
3.29433096764174e-08,0.0748010272627814,0
3.69808302766724e-08,0.076639344579062,0
4.48443032595397e-08,0.0843110937383129,0
5.13330751739799e-08,0.09715308304362,0
5.64813992520383e-08,0.103586176399536,0
3.3963169768113e-08,0.0825814217921936,0
2.60349180856283e-08,0.0688654443259514,0
6.68901616830631e-08,0.0888284323204976,0
6.41774041743315e-08,0.0894171752203881,0
7.20184402351814e-08,0.0896472406822164,0
5.43901937178111e-08,0.0770546211396769,0
5.53078567948011e-08,0.0787420938518214,0
5.6940195622944e-08,0.0809331720261482,0
5.63773031875067e-08,0.077628378711233,0
6.00822087275116e-08,0.0803709906863459,0
5.98392006849731e-08,0.0785287662090965,0
5.79561872798089e-08,0.0815474358503379,0
8.07982399266426e-08,0.0990980876444929,0
8.46967078785333e-08,0.0929043860578457,0
8.84559825117023e-08,0.0961308856964675,0
9.11371595251809e-08,0.101242551524399,0
9.46303561771854e-08,0.101404324970795,0
9.52673115558334e-08,0.100197140234711,0
9.67285248941078e-08,0.10248088699019,0
9.41613612053628e-08,0.102765148772745,0
1.16703715655595e-07,0.115468864711384,0
1.32152767330137e-07,0.129085808706329,0
5.76770972905782e-08,0.0939159585377808,0
4.06607668282253e-08,0.0952598739523366,0
7.19441662864345e-08,0.103579039383868,0
3.45584515533589e-07,0.204421855194697,0
5.77428958502872e-07,0.243122509556868,0
5.98889628239298e-07,0.235292681179545,0
6.01629324121486e-07,0.229846234799368,0
5.93871635247441e-07,0.220361119666154,0
5.53626971336627e-07,0.210215794346992,0
5.09567890012514e-07,0.192968163663015,0
4.69610756312381e-07,0.185159478828412,0
4.33430129364206e-07,0.172490214333298,0
4.51790635427413e-07,0.195429786583999,0
3.05792880509024e-07,0.172999939303223,0
6.19019908069903e-08,0.0843095182708674,0
1.5338133097673e-08,0.0534082541018457,0
1.47582195489811e-08,0.0548129938364112,0
2.00108506971076e-08,0.0630070647671991,0
2.52947809997722e-08,0.0642388632432221,0
3.0114358452411e-08,0.0709447406319038,0
3.53920992593467e-08,0.0739648590702815,0
4.59814120941909e-08,0.0765357387528146,0
7.84396903780336e-08,0.0932642351604688,0
7.54465768468537e-08,0.0895543813655793,0
7.57613267717045e-08,0.0889993308380581,0
8.21061225752688e-08,0.0965619048334677,0
8.530531818015e-08,0.0952911248553202,0
8.0374822150642e-08,0.0902751918824833,0
8.22383527112956e-08,0.091214966946393,0
8.0558185961611e-08,0.0854643749079847,0
8.96717260761822e-08,0.0897450540414366,0
8.47170347451885e-08,0.0897815022740968,0
8.71449347800328e-08,0.0909452879646236,0
8.74009548306378e-08,0.0855706372496128,0
9.74052196487424e-08,0.0932335339943926,0
9.68129271085927e-08,0.0896016860818806,0
9.26519682696531e-08,0.0888771983179023,0
1.0475440180468e-07,0.0940904924153391,0
1.1385239784475e-07,0.0933942248410647,0
1.40135247435429e-07,0.104286034639098,0
1.23275061069873e-07,0.0986286993653259,0
1.33750219909627e-07,0.105762627275015,0
1.03512282548174e-07,0.0936226768008392,0
1.15346528046674e-07,0.102454041426089,0
1.10035940711268e-07,0.0940049393330033,0
1.06116090865041e-07,0.0946418158417976,0
1.06441883412953e-07,0.0984230632521694,0
8.37058962156562e-08,0.0919487333498377,0
7.40946643763374e-08,0.0941806445759918,0
5.9283201097052e-08,0.0912667833809736,0
5.81159888059008e-08,0.0887269883120867,0
5.72350406922121e-08,0.0915611648634857,0
5.65480770014816e-08,0.0910106545122713,0
4.56162318461851e-08,0.0885411920161125,0
4.16577679868311e-08,0.0962064674404546,0
4.04041137610115e-08,0.0976742524631729,0
4.11291991186179e-08,0.090930238066116,0
3.96034180862623e-08,0.091870811016259,0
3.52375728716601e-08,0.0927927814320531,0
1.67956890066529e-08,0.0653319908906571,0
1.66384898821743e-08,0.0628553383284826,0
1.51848024080249e-08,0.0599139266978687,0
1.58417329774345e-08,0.0613130006344539,0
1.31800528755019e-07,0.122704276069008,0
1.63067540116583e-07,0.119005554342672,0
1.84689699423391e-07,0.116790363905324,0
1.98859705872589e-07,0.116308316831838,0
4.6216591831336e-07,0.162772615988269,0
5.23304631760689e-07,0.159097988735726,0
4.52898062816638e-07,0.152198970625203,0
4.57635840456405e-07,0.153646716594177,0
3.98440065986524e-07,0.138534618169613,1
4.17962579537656e-07,0.140424304939339,1
4.10250467859431e-07,0.146187238579102,1
3.96220217410385e-07,0.154439553476613,1
3.90771773124653e-07,0.15775820608914,1
4.54593914311181e-07,0.177658233808286,1
2.28011175728082e-07,0.142957935322679,1
7.87367861730213e-08,0.0940113214025138,1
1.05263276822847e-07,0.0995452913062635,1
3.83568677134954e-07,0.177760702062831,1
4.63148430425146e-07,0.187952854553375,1
4.51089534365757e-07,0.181831783610857,1
4.74028157212997e-07,0.17067597068189,1
5.93317745714882e-07,0.18625379686845,1
6.2235801565279e-07,0.180891329459346,1
6.71149177467193e-07,0.185699716392514,1
1.72289762149339e-06,0.231324785177568,1
5.89727078572183e-06,0.403858393911706,1
9.90831546632056e-06,0.424447252250845,1
1.09615319461974e-05,0.440848663472252,1
1.07921251667564e-05,0.379533330539879,1
1.04504810389412e-05,0.372978768188899,1
9.6675407767125e-06,0.356662613140057,1
7.87376105013162e-06,0.319784325041214,1
6.08284593471035e-06,0.279422851329733,1
6.59349958887703e-06,0.230640443495729,1
1.56261890638135e-05,0.284531356542105,1
1.82590503812859e-05,0.205733833365631,1
8.37734817812515e-05,0.131892092556351,1
0.000222342848199877,0.215118509342276,1
0.000386335483782122,0.228071375116392,1
0.000779125037015852,0.0851980326563595,1
0.00113186614411466,0.0399552841391805,1
0.00104252368936433,0.0357427648741713,1
0.000952127379279694,0.0282454740717804,1
0.000922662846629283,0.0245914598516031,1
0.000801857216336907,0.0213549974843513,1
0.000646862892293282,0.0183240825067269,1
0.000642269219055757,0.0192388274879928,1
0.000662513275111207,0.0198438007017139,1
0.000696691666306147,0.0207014535959066,1
0.000535025424927842,0.0256835486872786,1
0.000245041383813546,0.0300288430830914,1
0.000224647522408276,0.032839937516542,1
0.000201436852373922,0.0517066967752649,1
5.78342584340603e-05,0.0317877922459082,1
5.59356387780973e-05,0.0353894901362079,1
5.46786604413955e-05,0.0375673244076933,1
6.53753819166844e-05,0.0426605058484151,1
6.6787747684331e-05,0.0397544752983312,1
0.000112733308531216,0.0413341328820656,1
0.000119050195124851,0.0359239576693022,1
0.000124192890137885,0.0361888903774615,1
0.000127898003307338,0.0366592015948486,1
0.000127529190599026,0.0368614656473225,1
0.000143622180528761,0.0394424036371643,1
0.000240942072703742,0.0346999558076569,1
0.000370155839786819,0.044198401844014,1
0.000449096631176384,0.0502091999947502,1
0.00151222649529451,0.0148531713438713,1
0.00623532771159755,0.0300359184052656,1
0.00756417096744763,0.0313618690356089,1
0.00871580823064049,0.0308049206234924,1
0.0106199297490507,0.0286729789733585,1
0.0101039970385279,0.0221230055214115,1
0.0169728470358527,0.0224327739122343,1
0.0218697104467374,0.0182405178576637,1
0.0197706541204676,0.0159387097120714,1
0.0181144649957926,0.0137337717370919,1
0.0163298812927971,0.0108917907788676,1
0.0256950579786743,0.0137865784125452,1
0.0222953775023663,0.00912445003668204,1
0.0191616529827914,0.00594897513899197,1
0.0242546299568144,0.0072390737011932,1
0.0184091004521611,0.0035739385584382,1
0.0212088703785693,0.00504721244064044,1
0.024395226374011,0.00624134709914351,1
0.0250889468871168,0.00662770224684934,1
0.0317053761189378,0.00776634420833536,1
0.0387975149971635,0.0115084161080781,1
0.0367134864307434,0.0114120186872128,1
0.0401745743753665,0.0139237702669768,1
0.0385124157446221,0.0231064141126097,1
0.0152765026453187,0.0143270093845554,1
0.00942255259070039,0.0349747274880666,1
0.00815693700310614,0.0292607876665689,1
0.00616549694194591,0.0262728779052865,1
0.00149432295203443,0.0136216909318345,1
0.000702640188578235,0.0116728070988394,1
0.00216059713468032,0.0160820197168504,1
0.00640212778547503,0.0352345924186908,1
0.0110490555905487,0.0499444062273484,1
0.0139033219503445,0.0659962436204887,1
0.0195767984483046,0.0571026338739122,1
0.0199995800820012,0.0335493945853821,1
0.0175771317471174,0.0304213916021388,1
0.0143087574195011,0.0251684038578871,1
0.0101621294301305,0.0205185604287158,1
0.00502019804022413,0.0126830223874272,1
0.00293313524492974,0.00911439569137677,1
0.00272605876564898,0.00854839583957579,1
0.00274599064963421,0.00870180982063243,1
0.00300695963287743,0.00838551849824952,1
0.00385565631750193,0.0054738966434946,1
0.00906447955854233,0.014360740757265,1
0.00966658704153574,0.0134067492487122,1
0.00936288013186527,0.0111466765908653,1
0.013559804177981,0.0136763208159171,1
0.0176766671868723,0.0156208458440455,1
0.0179682815082447,0.0147380254350917,1
0.0216627580759896,0.0145316244347308,1
0.0248894479773202,0.0154806612623383,1
0.0275952372797371,0.0166644802230883,1
0.0259219870962792,0.0286496391585779,1
0.0128709681856118,0.0146593360722955,1
0.00689271562910628,0.00801529307771978,1
0.00453660755177517,0.00649899662478935,1
0.00463789938705416,0.00721278705745033,1
0.00464113328301182,0.0080866831282739,1
0.00281078120438662,0.00563586689229242,1
0.00315872497169524,0.0101510709839709,1
0.00339534863547965,0.0113031237404164,1
0.00358763603551109,0.00921647359412047,1
0.0043105836880821,0.00909808223056133,1
0.00347269297867608,0.00906538590604252,1
0.00277761242601051,0.0126182971549705,1
0.00269752570835729,0.0120200875060148,1
0.0029321555787903,0.0117043527331936,1
0.00364243216836131,0.0135685452643714,1
0.0036154106168741,0.0133494950594034,1
0.00309394054686467,0.0122635953393068,1
0.00281247572288885,0.0117185239298347,1
0.00275005973701436,0.0181134780534311,1
0.00186820989784835,0.019587863110752,1
0.00191392677546687,0.0198748612805444,1
0.00238815269635266,0.0189538310560425,1
0.0023064269072473,0.0170209765693806,1
0.00242000438007077,0.0188499622416535,1
0.00204410178453,0.0195455351098151,1
0.00219902175831121,0.017780561893364,1
0.00264555341244922,0.0207847260822595,1
0.00284803880640503,0.0217385307011314,1
0.00268864689502131,0.0209252371304652,1
0.00308733865403824,0.0152944655534227,1
0.00429781364315876,0.0155033531361066,1
0.00383058558168816,0.0132284518122555,1
0.00383307060169534,0.0125822925126542,1
0.00393373338677743,0.0145316164505552,1
0.00456393755523466,0.0146171622181647,1
0.00434754848003897,0.0160662425230447,1
0.00326706862718687,0.011855892047183,1
0.00266150501143758,0.00983305764624497,1
0.00288262682996228,0.0105409511116734,1
0.00285919656421566,0.0115555889721739,1
0.00206359143607892,0.0118223040830003,1
0.00177522847960149,0.0129005725124963,1
0.00179375480401366,0.0125549592174717,1
0.00212193961959698,0.0139219313003966,1
0.00272079541802201,0.0042909994268667,1
0.0254774208037626,0.0124824254824629,1
0.0437297736020554,0.0134799124456546,1
0.0465265595365611,0.0145563237843985,1
0.0689950834714561,0.0123138586295027,1
0.101314403730257,0.0127150823250275,1
0.096083847910783,0.0127852909614742,1
0.10932821626369,0.0111674627694962,1
0.112280452232514,0.00940667673050862,1
0.0756705572926319,0.00700583419482002,1
0.049565279230403,0.00486512852365297,1
0.0471973890237605,0.00470732793472401,1
0.0557256775828384,0.00617572535367898,1
0.0498215434025971,0.00538871381488694,1
0.06425582645619,0.00890609570025795,1
0.0663462094407585,0.0100106156791225,1
0.0554182769137844,0.00881875719566078,1
0.0529361753217099,0.0130297651495016,1
0.0523706652407754,0.0171452493159482,1
0.0437175538595001,0.0111748741113799,1
0.0300996898417788,0.0078567706504586,1
0.0199329431392703,0.00598922492004224,1
0.0274602012877457,0.00806216784113798,1
0.0280754347428956,0.00805805868265913,1
0.021085738787197,0.00640233154777947,1
0.0309097082700384,0.00949463096092767,1
0.0373284797764339,0.00606511551095863,1
0.0382706356995133,0.00530389430336094,1
0.037293895539793,0.00550647057723411,1
0.0381004517602363,0.00657257920850304,1
0.0393631720316377,0.00737299900343756,1
0.0285916315873353,0.00605914586122713,1
0.0289402507448216,0.0061497959724717,1
0.0254134784347163,0.0055682065623063,1
0.0249838750997171,0.00609290146269008,1
0.0284787384512539,0.00704137771916043,1
0.0343399613713349,0.0177814602556443,1
0.0285412490157883,0.0224576884279078,1
0.0384531488624822,0.0311233940573029,1
0.0501345667034687,0.0345136200661979,1
0.0513801233593784,0.0325125502239923,1
0.050441588493725,0.0309338572429744,1
0.0356029207179169,0.0407003509334359,1
0.0157218965213125,0.0317159127530173,1
0.00709520695119229,0.0167300648518727,1
0.00505066406641135,0.0197829970221182,1
0.00753874093154747,0.0249837345175812,1
0.0092398081268387,0.0296582464368863,1
0.00953212411807338,0.0245753010604972,1
0.00927990192657391,0.0219639171700815,1
0.0101478015138198,0.0271855398404103,1
0.0101089404351545,0.025685656937761,1
0.00819651356222736,0.0249357379791545,1
0.00439565784639157,0.0151967221731333,1
0.00294832124219179,0.00962638305368187,1
0.00742362804437457,0.0173554973779223,1
0.00787598734084744,0.0131932807067896,1
0.00780157576781895,0.0123847023930679,1
0.00846325793573082,0.0165082758736836,1
0.0114167872610192,0.0228687387207167,1
0.0101393583743054,0.017815959453608,1
0.00852021322155536,0.0145747439133529,1
0.00669017354211266,0.0124311063642451,1
0.00545429183116402,0.010894394086867,1
0.00382778227234926,0.00790818462483715,1
0.0039123108189437,0.0102505279485541,1
0.00321621985339664,0.009891948290518,1
0.00240295436109752,0.00760915552556598,1
0.00209160912500875,0.00619015488009365,1
0.00198952818022833,0.00694468689576765,1
0.00126007976887005,0.00509377495478249,1
0.00723894773779229,0.0141241390820478,1
0.00860313251051391,0.00942892780972029,1
0.00968095826054321,0.008621019378829,1
0.0163836502972589,0.0142145126609718,1
0.0183509396613233,0.0130497856768854,1
0.0165514080853148,0.0131318525006611,1
0.0165217120177666,0.0133357301326342,1
0.0153873764527917,0.0121233932897042,1
0.0121763231855099,0.0104024347651909,1
0.0119225190633499,0.00924874564732865,1
0.012264457490996,0.00834293980964754,1
0.0107191344467712,0.00867227546692507,1
0.0184430304203487,0.0135407056095437,1
0.0195702188207824,0.0136271923252601,1
0.0197210473656359,0.0149642402359345,1
0.0203619017946814,0.0150550862676172,1
0.0227334142837779,0.011097816681521,1
0.0276097536785014,0.00963719614482246,1
0.0286591267272113,0.00959962830268309,1
0.028076481030446,0.0103220738813695,1
0.0272782693744124,0.0101826379367898,1
0.0283143984130621,0.0103614899311728,1
0.0254861542260549,0.00768469713734598,1
0.0293997097473849,0.00873573056099358,1
0.0302742687765444,0.00844814325729215,1
0.0305818773966186,0.00793498568770245,1
0.0258679597983931,0.00751894346341849,1
0.0184673165346785,0.00675616470950958,1
0.0211703220134847,0.00755175808432467,1
0.025178287686177,0.00898357617066786,1
0.0255053369835557,0.0097775687504991,1
0.0214264626000879,0.00963722778817975,1
0.0177559429318261,0.0115839250026739,1
0.0205513908892999,0.0127588642482796,1
0.0198832204431563,0.0132665224956086,1
0.0132422382992844,0.0109998823956466,1
0.00511305309562524,0.0114935890533726,1
0.00519957918893755,0.0129613904389582,1
0.00486730272786455,0.0126032077562216,1
0.00492380166188765,0.0140969894047977,1
0.00201818695419648,0.0121635326176227,1
0.000485053841594381,0.00829279756361281,1
0.00114384020947765,0.0128775577669109,1
0.00632878007225667,0.0243004023296405,1
0.00776580571910056,0.0109057789408321,1
0.00732930441111996,0.010262506208761,1
0.00703200169770289,0.00984304528818918,1
0.00680112988587814,0.00951112954763114,1
0.00664914838525216,0.00922707568881763,1
0.00636896387316793,0.0087775404632119,1
0.00634469681291943,0.00860067208391689,1
0.00604455036776255,0.00801498763263547,1
0.00600199679708329,0.00908792931000152,1
0.00341199903395161,0.00631947211736913,1
0.00336799544989692,0.02848995527063,1
0.00294118369436856,0.0187920767114015,1
0.00303017976186796,0.0142898683918738,1
0.00306018871320811,0.0120052382773219,1
0.00340309118154139,0.0104441857771074,1
0.00559585217742584,0.0147127288329112,1
0.00551527627987053,0.0117326082858955,1
0.00587887844426868,0.0125283919450403,1
0.0063349682260607,0.0129778067334137,1
0.00625233819333812,0.0131334613193022,1
0.00566298072359813,0.0120726145366828,1
0.00551202403466044,0.014199383572805,1
0.00574707699236444,0.0138040976903379,1
0.00567009945050122,0.0115791827167937,1
0.00563261807289154,0.0140213373554032,1
0.00350892044920497,0.0096249050011556,1
0.00433534258816847,0.0140313185474284,1
0.00459434350589499,0.011850986346822,1
0.00374779011914815,0.00992002752714115,1
0.00286273428085542,0.00844516265501546,1
0.00293662646537423,0.00791230545491947,1
0.00310202110227286,0.00804339081756059,1
0.00219588880993414,0.00826817124407033,1
0.00133852926340931,0.0084531416766928,1
0.00133929252951535,0.00892617033842489,1
0.00122149040154139,0.00921841050912828,1
0.00120172171563836,0.00597914533677671,1
0.00512598741426668,0.0150989408115856,1
0.00594770486948771,0.0138397401049952,1
0.00665563776486255,0.0113294844276268,1
0.00619145174087776,0.0114200430076532,1
0.00693528033201563,0.0107044890440951,1
0.00795336567302665,0.011450833135076,1
0.00840881486683904,0.0117288605231651,1
0.00897921745429599,0.0124089721850403,1
0.0101193608540941,0.0131502132684314,1
0.0111021121516276,0.0173473791271872,1
0.0066084103986269,0.0160324580389656,1
0.00481214428936507,0.0158201397987313,1
0.00166618565480389,0.00996536328337216,1
0.00127281832895397,0.00707419119325958,1
0.00130685747682188,0.00991587019128719,1
0.00189260427328092,0.0142957061724406,1
0.00229185369735247,0.0179658528751344,1
0.00282480477186832,0.0196365221306722,1
0.00252467597655086,0.0199097679761023,1
0.00237998244720348,0.0154493413104658,1
0.00317351194595334,0.0116937274524065,1
0.00394488171010853,0.0107695817154116,1
0.00447784258344014,0.0126274311970025,1
0.00387947177863769,0.0112143221967261,1
0.00378428498517677,0.0136337385554058,1
0.00361192665213632,0.0128253429724086,1
0.00357284862770696,0.0122054661470667,1
0.00339571126572575,0.0121517824898241,1
0.00342322450484551,0.0112748882318768,1
0.00311750500566148,0.0131297054645354,1
0.00168309736696301,0.00993438564480374,1
0.00520859832904366,0.0191625275970757,1
0.00526020359179377,0.00983533020398403,1
0.00505278538749973,0.0102887899519157,1
0.00504416107209075,0.00983299593206516,1
0.00506798772052904,0.00989502134230654,1
0.00490484002475473,0.0101693005228936,1
0.00438276859431256,0.00918702870302716,1
0.00401090575989917,0.00866976999822779,1
0.0043808340626397,0.00909019515917891,1
0.00448704485053866,0.0110394066427697,1
0.00172713077707225,0.00962148881839018,1
0.000910293556150987,0.017296241209786,1
0.000957211483963477,0.0176031606736372,1
0.000896984692765513,0.0158240253338018,1
0.00104738949693425,0.0138329644068051,1
0.00123179675454547,0.008376323592729,1
0.00187905781604397,0.0108149908558562,1
0.00153445671312346,0.00953749271502988,1
0.00154590764294046,0.0108447279981215,1
0.00159201962265806,0.0106625024353464,1
0.00181403048459418,0.0104432780803926,1
0.00225840164214496,0.00946308266948299,1
0.00234259894486345,0.00796346779080335,1
0.00235283637818427,0.00782413010216207,1
0.00224422620406158,0.00784356534431578,1
0.00232752437491263,0.0119675609240342,1
0.00171283968720615,0.00999694014053696,1
0.00167216910890183,0.0103500474108106,1
0.00166759454467734,0.0103057886115671,1
0.00174564978261672,0.0110673269095863,1
0.00193122695388229,0.0105024439615102,1
0.00142799524677903,0.00783444916001045,1
0.00140812916866836,0.00996025815641995,1
0.00132866522780644,0.0108115165203515,1
0.00151364558594926,0.00858536640940534,1
0.00189072453749509,0.00695449508021378,1
0.0020571340096699,0.00699038153152405,1
0.00208066263642091,0.00673312807646345,1
0.00241679159683472,0.00758751104535769,1
0.00248844421030093,0.00692784639046039,1
0.00213840109862287,0.00794941533396766,1
0.0021113559560837,0.0115523720168328,1
0.00218510326595973,0.00917226542124202,1
0.00197381277260799,0.00747074123568018,1
0.00182683880739883,0.00966311028640793,1
0.00161400380113893,0.0110144343452938,1
0.00170097940418716,0.0113901238056184,1
0.00169360955980643,0.012049960694672,1
0.00140056613549622,0.0108569438320922,1
0.00130598136917519,0.0116296537611077,1
0.00158410149087142,0.01101712425778,1
0.00179017832488321,0.00989962757910339,1
0.00158730240764846,0.0118775487892457,1
0.00142159710701753,0.0128539686851183,1
0.00130807058084777,0.011789676435791,1
0.00123292993811447,0.0141873347233937,1
0.0016310551179369,0.0150973370551117,1
0.00186056605525299,0.0094612236302904,1
0.00198617387304707,0.00958245447165823,1
0.00180078185773282,0.00909908794346353,1
0.00142688348779783,0.00844488896302646,1
0.00137227333346885,0.00963918273411892,1
0.00154173722711473,0.0112265594443691,1
0.00171758246659148,0.0114459497656608,1
0.00169165661248473,0.0118703606407026,1
0.00168983507589422,0.0119539698922301,1
0.00121319733254042,0.0113593380715284,1
0.00100569929542712,0.0225081621745366,1
0.000954511623675799,0.0205340215577258,1
0.000943851367966274,0.0212008324660449,1
0.000829364830963432,0.0201634649775704,1
0.000936316500024111,0.0275359939864431,1
0.00085030727954314,0.0170684927516215,1
0.000701896948655969,0.0119608750249308,1
0.00126019973198822,0.0149338098461412,1
0.00139640479368224,0.0102502584622825,1
0.00148497476644873,0.010816334437566,1
0.00136816493526495,0.0103890899634315,1
0.00134572771622219,0.0103044340683787,1
0.00151368684576081,0.00932320017742363,1
0.00218098483620097,0.00985457490083725,1
0.00237372791021373,0.00798616808808009,1
0.00218240824895246,0.00833170927340889,1
0.00199637589963891,0.00862848472933099,1
0.00185923642264604,0.00843128094812122,1
0.00189853754498721,0.0101770372906834,1
0.00190171495469249,0.0103795342966718,1
0.00205356618043008,0.00987359190938824,1
0.0020965000302805,0.00957565759979503,1
0.00191587107099892,0.0101526150546539,1
0.00134975505650867,0.0103765901376992,1
0.0011027131598021,0.0128283761478249,1
0.00136982130903038,0.0147915939854218,1
0.00149207552756678,0.0122076486067575,1
0.00113852443225008,0.0096133643218794,1
0.00108391274004241,0.0108582327250141,1
0.00105724236049733,0.0102671199702304,1
0.00107575577305873,0.00996447951955367,1
0.00109428317296611,0.00968125697486956,1
0.00130503094052552,0.0108297846512307,1
0.00138504112886216,0.0106843247638096,1
0.00139546029077137,0.0104664481958058,1
0.00133319664765861,0.00999160909864984,1
0.0012834710036566,0.0109599695346692,1
0.00119511328874417,0.0095427847694897,1
0.00170266391743989,0.011554461910518,1
0.00169082583332867,0.00983883280372724,1
0.00177921404613728,0.0112658143411662,1
0.0013080113532818,0.0102327205124762,1
0.00131519321585473,0.011319459136617,1
0.0013305737887069,0.0121193113790486,1
0.00126633760225862,0.011905994663865,1
0.00124738797190339,0.0128300583745203,1
0.000628292256226166,0.00827574263581087,1
0.000559445198604462,0.00916261142604143,1
0.000710704760598396,0.0109263772517763,1
0.000604905976412288,0.0119201220812036,1
0.00064745388560201,0.0161951060932545,1
0.000814440418671337,0.0165049819499602,1
0.000801842797625266,0.0136198939566791,1
0.000855821299566735,0.0142466518100379,1
0.000862454281104845,0.0143775209116157,1
0.0009277925493281,0.0152400902961365,1
0.00112867575890527,0.0179073628953336,1
0.00108795653341525,0.0180729341153049,1
0.000861692297068451,0.0197726222150417,1
0.000848667565368155,0.0229466651376086,1
0.000838212664114906,0.0200692658015892,1
0.0006435772205005,0.0169089572350017,1
0.000625886798740153,0.0205851033315036,1
0.000579383679677786,0.0203735085444472,1
0.000611795921617761,0.0215797527303465,1
0.000929910214393887,0.0213391228778313,1
0.00127631192623516,0.0239566383244416,1
0.00145762936049946,0.0302753169834305,1
0.00161159842066994,0.034919888317092,1
0.00194265545599119,0.0389221385709627,1
0.00185079141031682,0.0323673227381161,1
0.00167482576854904,0.030529604793725,1
0.00134215128942112,0.0201721569955229,1
0.00111313903309406,0.0167677101960817,1
0.000837940743812455,0.0132331840602457,1
0.000922126862182504,0.0214251674921667,1
0.000924063889628851,0.0233049451985921,1
0.00136972815711966,0.0240184460549232,1
0.00231226496741783,0.031837990999482,1
0.00211594223055276,0.0300177974587201,1
0.00193815408614079,0.0340244429647185,1
0.00170884943388573,0.0404268780347608,1
0.000967079770061868,0.0395893687568714,1
0.000932134339348893,0.042000445821123,1
0.000673650627842465,0.0334549016198083,1
0.000559011829244692,0.0274695121855587,1
0.000529332172018995,0.0237227591702007,1
0.000627932418427332,0.0359058215569977,1
0.000529929984112296,0.0308873058950319,1
0.000625950831886876,0.0292489076428963,1
0.000621146635682799,0.0229996243710361,1
0.000600888823191751,0.0223716402840864,1
0.000506050313780856,0.0213380965415852,1
0.000494482687492721,0.020002661832848,1
0.000423326879035657,0.0188940026144018,1
0.000301998101521651,0.0165374561315876,1
0.000266992374499664,0.0169002074086993,1
0.000262023627034875,0.0183172749656631,1
0.000241672578019887,0.0175003248601445,1
0.000236642069867665,0.0212454356521903,1
0.000184522883721599,0.0254982048479508,1
0.0002189077111982,0.0276607087534404,1
0.000377200369336165,0.034849792452927,1
0.000379080490558779,0.0340571284114438,1
0.000397864824944426,0.0373024841325807,1
0.000556307928623008,0.0396255466652245,1
0.00150243696771586,0.0599524851920583,1
0.0016510005499546,0.0326113640660322,1
0.00157306246890043,0.0328284687074052,1
0.00167139531284585,0.0351736765566862,1
0.00133134283404357,0.0299890451238715,1
0.00138074541766769,0.027332149415907,1
0.00141481544289006,0.0190377498722884,1
0.00117214756828463,0.0161664440687185,1
0.000848445916431355,0.0115905799976909,1
0.000952698374327722,0.0130871467821069,1
0.000760586423711594,0.0118428746618652,1
0.000639103151390396,0.0151424667867368,1
0.000636075591557106,0.0132432757092918,1
0.000874182977625026,0.0149164749822184,1
0.00129159047868426,0.0186005484430922,1
0.0011969666788711,0.021307053607549,1
0.00105999545101096,0.0230671641174021,1
0.00106944671308244,0.0237460022710506,1
0.00109867784350634,0.0264841648514839,1
0.0012408180312233,0.0280856494233524,1
0.00105730607010223,0.0283144184328886,1
0.000802656906218601,0.0198068671920181,1
0.00111507724378912,0.0220036476997397,1
0.00200697441147111,0.03999557442921,1
0.00218337082357314,0.0314022891178704,1
0.00204258267401566,0.0283440714131323,1
0.0019423042893242,0.0305460940152099,1
0.00193515944471852,0.0283835328386937,1
0.00211230619419537,0.0262482853520671,1
0.00190209881336157,0.0240036365393368,1
0.0017368325364761,0.0187397904266649,1
0.00157675359999903,0.0184272082463884,1
0.00150290742678476,0.0212856373706002,1
0.00134516311485291,0.0189808850965639,1
0.00130826885627932,0.0235390873087118,1
0.00108207724001987,0.020484448609962,1
0.0010532178806019,0.01474408968784,1
0.000963853296786628,0.0139478186977488,1
0.000874018273525971,0.0152794198222552,1
0.00108815898542004,0.0170343922762401,1
0.00113650946357876,0.0157798665526575,1
0.000882463687398722,0.0119561740923593,1
0.000824474321889739,0.0120465367340863,1
0.00127916195606821,0.015017706589439,1
0.00196272857301533,0.0156739407579923,1
0.00216634016295113,0.0110493300495376,1
0.00291524574704218,0.0163372250194104,1
0.00307505434603965,0.0167661725561249,1
0.00361677034358297,0.0187463490123836,1
0.00339959438457225,0.0179192347158037,1
0.0033364316626951,0.0200475079324414,1
0.00331208846173187,0.0220926163411719,1
0.00374583407117042,0.0135591664774953,1
0.00934086058337038,0.0186426322765366,1
0.0181875621087782,0.0321417241374137,1
0.0410401180645593,0.0394518922665101,1
0.081901127584647,0.0628905492271613,1
0.130706179972836,0.0867906351567583,1
0.182086651541428,0.131770268880044,1
0.225923851595327,0.1060226294312,1
0.206242716102071,0.0479336480972553,1
0.160868380097035,0.0351460072908025,1
0.113927297188234,0.0242283076804696,1
0.0994783653752694,0.0218959526626301,1
0.081818533934343,0.0107582406622657,1
0.103977930270739,0.0133374664689848,1
0.114380555550389,0.0118236897048204,1
0.115272048328141,0.0114267563143358,1
0.111534210777103,0.00966918794590103,1
0.100723001647889,0.00855218236757606,1
0.0995225476156718,0.00995797160715567,1
0.0909766703202301,0.00986768448106121,1
0.0879168188537944,0.00821860930295633,1
0.0721238770420429,0.00696049814866207,1
0.0739950989823774,0.0123068875770827,1
0.048278482892243,0.00920487167558618,1
0.0353294887791192,0.00699474688276473,1
0.0409779010224413,0.0087732851445478,1
0.0481141310029956,0.012169639784679,1
0.0400515752279492,0.00888765105387161,1
0.0380774090117838,0.00867989369212764,1
0.033125810111462,0.0062585619486264,1
0.0465085647264434,0.012614348164354,1
0.0487580145917887,0.00860931981061444,1
0.0478220413694973,0.00942755276574495,1
0.0444096396899283,0.00874004495611428,1
0.043344772037528,0.00892478643340899,1
0.0468676796649736,0.00924181861400321,1
0.0420411898899219,0.00858092791466814,1
0.0416208326118595,0.00796706809493308,1
0.0473549742441999,0.0090550329624811,1
0.0493912113729203,0.00786991018694709,1
0.0447585747359957,0.00843229465628654,1
0.0380872782310893,0.00882352098170984,1
0.0389564255340213,0.00909451213127038,1
0.0363271778326537,0.00938991000515205,1
0.0440722095126715,0.0108357802404092,1
0.065959903393796,0.0158701518849588,1
0.0775538423074981,0.017056647098313,1
0.0767997246113004,0.0236472639708824,1
0.0457444459860754,0.016861410528511,1
0.0385518745282602,0.0276797578109182,1
0.0383676636679203,0.0256195656754223,1
0.0374404221159422,0.0284394320769758,1
0.0277913063136034,0.0224401668353947,1
0.0116838265257319,0.0109705071796428,1
0.00458950733552967,0.0153118548175627,1
0.00532217464161801,0.0163683650137056,1
0.00490007502655676,0.0185941520967649,1
0.00364734714880207,0.0138443398191491,1
0.00334845067870814,0.0141829242744983,1
0.00359497037180985,0.0150883693168041,1
0.00213783196295563,0.0084459499727753,1
0.00225606568678782,0.0145195490848177,1
0.00348793872848586,0.0205012598732861,1
0.0075345010352561,0.0309240894463544,1
0.0104540259062772,0.0333352011879357,1
0.0159669865014595,0.0285903441874864,1
0.0219256504460856,0.0321245079465326,1
0.0221155048717507,0.0302193568442621,1
0.0189047791334517,0.0179705153288223,1
0.0183232962581634,0.017117436664359,1
0.0189911011168888,0.0193180034778136,1
0.0193552802167035,0.0178061157668924,1
0.0190057649493709,0.017619098473668,1
0.0186651650018642,0.0186103692564106,1
0.0200425016003364,0.0153159748885848,1
0.0212353153423067,0.0151006091772769,1
0.0166036520136435,0.0107709112715189,1
0.0144777202833147,0.00788753029440984,1
0.0147290924201617,0.0115430847229093,1
0.011963264819199,0.0118536947444513,1
0.0200347254273774,0.0114395699076528,1
0.0326508199124876,0.0165988551203759,1
0.0380966102449294,0.0164328968248428,1
0.0346272134098289,0.0155006755462293,1
0.0362301084601073,0.0116635016684144,1
0.0698745997224657,0.0194935035996903,1
0.061541891504423,0.00803486842616444,1
0.0548666921925172,0.00746240281835156,1
0.0473216906731852,0.00632548579145012,1
0.0398394360608355,0.0051084253575391,1
0.0386014762152313,0.00513088053539152,1
0.0466996705670733,0.00577741662174828,1
0.0464365967009873,0.00550008938354424,1
0.0520039991012788,0.00515094001791631,1
0.0699991846872656,0.00889831105964158,1
0.0425713918683292,0.00558232563265259,1
0.0367409658109301,0.0100462042696898,1
0.0375866807138647,0.0104054426090462,1
0.0346273766492681,0.00797639163042523,1
0.0363804254623403,0.00757386304316019,1
0.0309128092344776,0.00792279294587456,1
0.0375686640470199,0.00861021456598303,1
0.0792106503432024,0.0125192629680481,1
0.129590913873676,0.0228570259636838,1
0.12734318146419,0.0253922101198974,1
0.122814104142385,0.016173736514426,1
0.0987380444312867,0.0147167594461141,1
0.0797831319926843,0.0113511401886713,1
0.0727424098835015,0.00877825365465957,1
0.0705852017612786,0.00909718940029642,1
0.0524872940432058,0.00704027794566745,1
0.0440703107750634,0.0065661105078952,1
0.0537020898488188,0.00898162499784788,1
0.0553200875502979,0.00950397043206634,1
0.0596417941682498,0.0102766107915447,1
0.0664580709051506,0.015294705158332,1
0.10563000379116,0.0201474209113555,1
0.163608930148202,0.0283328094317928,1
0.160291528809514,0.0197120241615552,1
0.125666068322831,0.0151004673694784,1
0.0993098679489446,0.0125837571673993,1
0.0871555989911115,0.0108223117303947,1
0.0874745530814203,0.00878361055566345,1
0.105403735915601,0.00997801971593769,1
0.120345257602642,0.0111217411907072,1
0.12572396619008,0.0132141914832606,1
0.109641309977461,0.0131248957429756,1
0.0611710534243044,0.00734915632224743,1
0.0561407342146692,0.0112049986983654,1
0.0757405545367191,0.0162880393906601,1
0.0718680961426509,0.013735449835262,1
0.0531886042299174,0.0101980695979113,1
0.0678291765405232,0.0169558157101237,1
0.102353188437602,0.0223223235676072,1
0.11496652863024,0.00945198040397272,1
0.128865636194933,0.00813928320207113,1
0.12872766022173,0.00822070172752473,1
0.129914243177283,0.00814307115878243,1
0.135348087100576,0.0081170746017475,1
0.130657301060852,0.00839584158845736,1
0.152294638409099,0.0100814321104872,1
0.162921589446495,0.010000497255573,1
0.121134632814829,0.00801246090942154,1
0.0607225972731432,0.00369635775540074,1
0.0652733138935313,0.00697051713009133,1
0.105762313805794,0.0170204218605708,1
0.111032983369036,0.0184001057877753,1
0.116629487075289,0.0179946015068309,1
0.13515686097413,0.0215677260279613,1
0.152277720716129,0.0220239360299305,1
0.162227780395185,0.0215030072055943,1
0.157223657798303,0.0344325399890496,1
0.0966180308305552,0.0263714380287923,1
0.0401732163156013,0.0140840608902378,1
0.015390780320672,0.0212573650970089,1
0.0152830800618546,0.022044584916521,1
0.00831008275399789,0.0165083284244259,1
0.00744487059234274,0.0253164574501711,1
0.00671072046165876,0.0232884714938036,1
0.00689532981544911,0.0212843480443109,1
0.00605946630994074,0.0182781817500951,1
0.00498505736636984,0.0197179354682075,1
0.00177006131413575,0.012504915280182,1
0.00108737644972576,0.0100957581631814,1
0.00118627107586582,0.0128705720500767,1
0.00170423840663854,0.0164097521938988,1
0.00366158326694319,0.0238752474312298,1
0.00846549317448809,0.0272190113057839,1
0.0214413568410501,0.0432990870565181,1
0.0265546842144019,0.0602172811132894,1
0.0389851245894386,0.0418641208205293,1
0.0730900388586841,0.0504967721277694,1
0.0724629355361513,0.022784744797789,1
0.0596447213732171,0.0200817946477522,1
0.0477724256965166,0.0172550361421953,1
0.0367260901425346,0.0139327739570784,1
0.0287359585959165,0.0116256387597404,1
0.0251791063477071,0.0105590808963343,1
0.0290585597467076,0.0120305950765853,1
0.0317774401119625,0.0130020489745021,1
0.0315210589377612,0.0179923857030889,1
0.0117010234779882,0.0099642908606236,1
0.00543350740266099,0.0156363322347702,1
0.00535413287335532,0.0180120133669964,1
0.00355571945457859,0.0154603691142237,1
0.00458595177935652,0.022489677728345,1
0.0144435567240505,0.0127895625421665,1
0.047839830381414,0.0350219502327629,1
0.0924421215696557,0.0426741382253992,1
0.130749572020294,0.0414605874646309,1
0.131678974720655,0.0383891106287687,1
0.114606034155802,0.028788895658608,1
0.0971073252056776,0.021724578750382,1
0.0798191251007708,0.016334312296883,1
0.0673422097747855,0.0145910526697161,1
0.0707803410190137,0.014560834752578,1
0.0842448578145924,0.0194655615807487,1
0.0816146167053498,0.0161254601725559,1
0.0723386776904209,0.0150847396143497,1
0.0484886979986225,0.0102282788243907,1
0.0350969796887564,0.00724179241079574,1
0.0315155653489114,0.00762879269105412,1
0.029513981015133,0.00986700565547478,1
0.0170674676857752,0.00510690285107784,1
0.0205885545752159,0.00606274387610494,1
0.0316063565454474,0.00949739324996752,1
0.0307829613435695,0.00722234197375139,1
0.0284401265813805,0.00731554237897919,1
0.0277381849980201,0.00770341893210073,1
0.02792028420442,0.00784630543035146,1
0.031438330927783,0.00882872619458536,1
0.0318350758686967,0.00854619746861515,1
0.0360713545141154,0.00712485711991417,1
0.050619382444939,0.0119463362364285,1
0.0489722120340685,0.00837419918041044,1
0.0321626657814607,0.00546754509018506,1
0.0267540190139394,0.00543524738885345,1
0.0402549695052526,0.00437619668155565,1
0.0985173109130272,0.0118066624699781,1
0.216636925637688,0.020604363806803,1
0.28410390696117,0.0266402881049032,1
0.300905730130515,0.0174438162685885,1
0.272374736920299,0.0194085532399155,1
0.211077787072284,0.0170874281578816,1
0.183479370770197,0.0129120528486534,1
0.21284702353244,0.0159443760103655,1
0.161074656485664,0.0127997666436471,1
0.143200920953045,0.0146283857633965,1
0.140367054200335,0.0163332677256989,1
0.152050370810932,0.0195258896309069,1
0.159874326242658,0.0133254931909428,1
0.154343461808878,0.0172321431803892,1
0.105416582094205,0.0137828214209809,1
0.0750837658401876,0.0104669546770548,1
0.0818396600190012,0.012672983483058,1
0.0884328195440412,0.00796806781780964,1
0.0853726664812735,0.00627381430331186,1
0.0780944648360201,0.00539667078631795,1
0.0724544770562531,0.00496197919851205,1
0.0544198454097697,0.00340609469927021,1
0.0532650153443694,0.00500870023228946,1
0.0541785821198918,0.00542013935772981,1
0.0890238784125409,0.0080048296150446,1
0.116924938981569,0.0102447707716001,1
0.12650132312822,0.00895177266359596,1
0.13041900444924,0.0128352164440596,1
0.108197606854553,0.0127235479885149,1
0.108772126700758,0.0111609600266904,1
0.0972298192195566,0.00740630160053199,1
0.105023872183464,0.00663906318596031,1
0.148394622571307,0.00800490182038496,1
0.173356499236024,0.00567951445720484,1
0.169334239822463,0.00606870290857737,1
0.134505484919238,0.00462222585655073,1
0.118322013440145,0.00594080577017459,1
0.109282560726296,0.00565890348156959,1
0.12544249080387,0.00643195708299158,1
0.166246007089014,0.00866401058297782,1
0.176585588990815,0.0101424349564557,1
0.225700494420726,0.0131600086976296,1
0.218045427653772,0.0144318156079699,1
0.184094357006407,0.0167574923845411,1
0.2118028079511,0.020824374209448,1
0.20403026393598,0.0230241754202661,1
0.172762226846402,0.0246125658457907,1
0.0833053215017531,0.0168841576008768,1
0.0564171567169259,0.0165643584244208,1
0.0476243022284999,0.0208274738235746,1
0.00740236426390398,0.00664487232460104,1
0.0015488510089624,0.048372328613421,1
0.001246698671045,0.0490643531001744,1
0.00104410871990723,0.0486966675388063,1
0.000655581644214682,0.0363000724744724,1
0.000322127264992298,0.0246926760706613,1
0.000168612702306597,0.0293800181108104,1
0.000344857727501976,0.023663392049122,1
0.000467596112026913,0.0208814606636258,1
0.00122061233660735,0.0255984425060947,1
0.00123016910109526,0.0213432179855521,1
0.00208061677535231,0.0227115328484067,1
0.00525357390025398,0.036494134047569,1
0.00709997045181363,0.0386236293701012,1
0.00891971885656719,0.0368971766290268,1
0.0203654165915482,0.0312676391269089,1
0.0293100258515644,0.0245843124018416,1
0.0271313843809536,0.0221095689974112,1
0.0227692953773951,0.0188412805683085,1
0.0199807273216852,0.0171568765790496,1
0.0148757784213328,0.0139116069627566,1
0.0111982570440005,0.0111351340432142,1
0.0109920924758561,0.0119039769442471,1
0.0109398220817361,0.0123733383024419,1
0.0113929434032508,0.0121023167999883,1
0.016209194843777,0.0163224307667934,1
0.0181590850961746,0.00960117453499206,1
0.036920023647958,0.0100895344162694,1
0.032992667129263,0.00790428342589361,1
0.0333969998225067,0.00708954928039309,1
0.0281704213478785,0.00555355218047307,1
0.0233350793466807,0.00444327529930281,1
0.0229022599134079,0.00432021532634839,1
0.0214740737463579,0.00332783329388145,1
0.0203247110402719,0.00319160220826071,1
0.0199611275032315,0.00345928459353982,1
0.0176671610442302,0.00437919235934793,1
0.011537932917449,0.00448759895744973,1
0.00988331070729585,0.00577218452034241,1
0.0102362879486505,0.00595458185369898,1
0.00859997487884988,0.00493806469768623,1
0.00942359056540636,0.00424642269359135,1
0.0331951714462656,0.00966777226753124,1
0.0545432149925983,0.0143077982342347,1
0.0536635289153302,0.0145379035390704,1
0.0526282462155255,0.0101194004447007,1
0.0659441712075781,0.0124374315433462,1
0.0693600881781185,0.0121465619195371,1
0.0725530718485903,0.0117673745345078,1
0.0803037076037549,0.0139872794990587,1
0.0890936951188846,0.0150660383899393,1
0.109263147464448,0.020428603889501,1
0.0953827216564017,0.0301112877343887,1
0.0537186778310091,0.022154402490004,1
0.0287461838028732,0.0121033140161906,1
0.0170600078534415,0.0173429361600757,1
0.0182151378398602,0.0177484788255354,1
0.0130280614408057,0.0181991272582903,1
0.00765614770674778,0.0169849582023896,1
0.00542817253899798,0.0114475835127342,1
0.00355243524899294,0.00894084154138148,1
0.00494820402739653,0.0160050978310748,1
0.00568844004495666,0.0148607505105691,1
0.0144513852841277,0.002115988101748,1
0.103155013416513,0.00993253560997903,1
0.242316385324481,0.0234161256389923,1
0.350019061660565,0.034490278262875,1
0.390924555703156,0.0203305684773791,1
0.374986121144616,0.020631824530243,1
0.375346996747102,0.0126691889481662,1
0.421872608087311,0.0147233839997725,1
0.356451229360403,0.0141660126880961,1
0.286548120775666,0.0116872956815528,1
0.184500787542013,0.00876463172555008,1
0.184429280325991,0.00997254422220708,1
0.189738089653349,0.0104471714557819,1
0.202115302782608,0.0115389896761411,1
0.19065302723935,0.0142646842592055,1
0.117413499141194,0.00780151899003387,1
0.0981509219405561,0.00667078091568539,1
0.103305620877432,0.00777717942089466,1
0.116622872779557,0.00899291579795398,1
0.149188436232338,0.0121991058807042,1
0.156424924687453,0.00826826662225671,1
0.256473276109777,0.0106716974671203,1
0.339623064764643,0.011615646156598,1
0.34696514566592,0.0110004890319117,1
0.368114483852781,0.0110928697791742,1
0.352025415470994,0.0102188432853099,1
0.345198423743688,0.0127110766374032,1
0.328361145881768,0.0120076847088424,1
0.305257730509453,0.0117630454990634,1
0.167340928630252,0.00606002186243863,1
0.0941170369178621,0.00481562558434238,1
0.0817081170846794,0.00606128275105124,1
0.0798893926032808,0.0059095420896761,1
0.0937842407786392,0.00470143743811968,1
0.11954241668581,0.00564973522367618,1
0.0994327596360251,0.00512396122850623,1
0.0864662136154439,0.00482331560493419,1
0.0981762568830133,0.00471693070271869,1
0.0952728658851589,0.00422479359110723,1
0.0963201407246389,0.00352300252141517,1
0.129387295694389,0.0042300612257167,1
0.17093736389815,0.00582722788529944,1
0.195356454746788,0.00741278494114306,1
0.229464164343174,0.0127305207474189,1
0.166637900510387,0.0110970423145497,1
0.140676009219938,0.0127579465324312,1
0.151411648228846,0.0147040580760115,1
0.165747075892426,0.0167574912093722,1
0.107886676479895,0.0193742435614977,1
0.0323411060860993,0.0105119909476808,1
0.0184188819255177,0.0192917287748799,1
0.0168067992311057,0.0226050900014851,1
0.0106653728928445,0.017801034544363,1
0.0105117614971158,0.0198300770451624,1
0.00633310047567066,0.0176543107226672,1
0.00584558904464813,0.0195680577313383,1
0.00571182044369457,0.0185849551107505,1
0.00584164558785419,0.0197646567648744,1
0.0060967593350059,0.0210479428376534,1
0.00520386151977863,0.0264481134582652,1
0.00106710138099095,0.0157008700410086,1
0.000467285108646028,0.0108325700774925,1
0.00142949722462852,0.0157587163041374,1
0.00128338534560749,0.011537587893021,1
0.00343961770669999,0.01329768601296,1
0.00539281868554709,0.0136901615779639,1
0.00533560059640665,0.0139131566906983,1
0.00668972117831587,0.00895073226544901,1
0.0207696911730232,0.0178718850921534,1
0.025223889149816,0.0145094295669093,1
0.0262627531654201,0.0151198672331815,1
0.0273702764501895,0.0170093246754238,1
0.0275187417949324,0.0181451841464735,1
0.033102121177686,0.016302895580171,1
0.0453774473683205,0.0201957418682622,1
0.0449344871663874,0.0216291437459978,1
0.0319049476880687,0.0145451743056884,1
0.0210612580779349,0.0116452929884584,1
0.0205873696975413,0.0130527655492522,1
0.0171680222885299,0.0146815974292945,1
0.0131316584133799,0.0129975771868393,1
0.0122137684266631,0.0113669856834642,1
0.0115770726005094,0.0108716421292306,1
0.0107092017389242,0.0143682080748393,1
0.0126580324290615,0.0109781522016862,1
0.0141548096692018,0.00949383500478205,1
0.0126445825475814,0.0099780422345624,1
0.0125157707854325,0.0119842846571097,1
0.0126479694408399,0.0123164742186422,1
0.0133267492680627,0.0103501988335476,1
0.015881752458136,0.0114279150637577,1
0.0208859261156145,0.0142841197165974,1
0.0182965379689292,0.0115807099621477,1
0.0141963016758111,0.0118118842231108,1
0.0153002731982869,0.0142977800719576,1
0.0157294188681158,0.0110998822794173,1
0.0160211202508649,0.00872856855986804,1
0.0275250360814264,0.00979845157799566,1
0.038848449094348,0.0118420912314975,1
0.04311571297954,0.00753450825700588,1
0.0644114085478304,0.00807283892228919,1
0.0653081856739576,0.00442918286636992,1
0.0749919977205841,0.00510792273471223,1
0.0735766139394167,0.00452774470801681,1
0.0730162541505385,0.00465609182187736,1
0.0719571657284179,0.004989514031302,1
0.0704589143412847,0.00467660750965704,1
0.0702227849262476,0.00532763555773634,1
0.0654768047010848,0.00464159801436876,1
0.062913013288823,0.00568208140271454,1
0.0444296733745895,0.00314740287934102,1
0.0776745191054766,0.0199870053000089,1
0.108907138736588,0.0260094194926336,1
0.150428120319528,0.0327957354671376,1
0.223144002120413,0.0450185007624989,1
0.225088228870839,0.0306535421248696,1
0.220011181130413,0.036011041163809,1
0.198840606587401,0.0187106116323943,1
0.15552436729551,0.0108193091591516,1
0.178857655503691,0.00964695516600869,1
0.174349645280438,0.00366383695700293,1
0.173593966575904,0.00361245455583846,1
0.176278335960998,0.00396560642373926,1
0.20035596816244,0.00301734543864687,1
0.39426888835393,0.00667848665519044,1
0.439780629549956,0.00725511909064915,1
0.446460134494818,0.00748829019801009,1
0.392906100391367,0.00669176278673869,1
0.334686927828761,0.00605605686886156,1
0.338344725666161,0.00573663975600541,1
0.347966156975247,0.00942425918762407,1
0.258531485612836,0.00781584705543994,1
0.242203562339652,0.00738909276121614,1
0.223359110851996,0.0115956716751759,1
0.169323396247886,0.00958851008893393,1
0.285196289260026,0.0145257326829921,1
0.357966313950233,0.0157666786954528,1
0.348692184158315,0.0148976988217669,1
0.338854351661471,0.0145014547480796,1
0.335431087137316,0.0201390543843635,1
0.247113624003836,0.0143417959182216,1
0.190921910850492,0.00951575094479773,1
0.190279470340729,0.00661853045062479,1
0.233349419282491,0.00691280503128277,1
0.216399626416891,0.005443266171362,1
0.205136126287014,0.00400750860046586,1
0.266432317020387,0.00508184629834,1
0.27311006957046,0.00399611054835081,1
0.301142584728324,0.00483876762057703,1
0.304992059501207,0.00457395668999335,1
0.314237133251719,0.00489983054955219,1
0.351429251291543,0.00576685051376898,1
0.351996027568028,0.00734149469883743,1
0.274603707804887,0.00567082823414376,1
0.299696931903851,0.00748050523278748,1
0.320835606921367,0.0107100495766037,1
0.118509105149576,0.00454067755086454,1
0.0764534236866052,0.00438972627852849,1
0.101055315256838,0.00612189225062933,1
0.108651616975908,0.00699851899887505,1
0.123476062264955,0.00838253770615922,1
0.153640711531045,0.0102405134407234,1
0.155315884031136,0.0109650266584887,1
0.135648818225545,0.0100136980712305,1
0.139176543665382,0.0104246417712025,1
0.137425423928856,0.0132166542350662,1
0.0335378649127712,0.00413309577242544,1
0.0100242097306267,0.0180821820382814,1
0.00648948102998454,0.0129548849440008,1
0.00449295445354295,0.0113960024610109,1
0.00502526140475175,0.0157371678094261,1
0.00548894355250986,0.0169469049303112,1
0.00521947953849708,0.0309803459711633,1
0.00155103113272193,0.0425290313179499,1
0.00103164259694865,0.0821950871430473,1
0.000688882301824606,0.0583290528405029,1
0.000396449092302109,0.0504954415057486,1
0.000234777627200414,0.0290489497868548,1
0.000319639747453253,0.0345982822139341,1
0.000338472881722276,0.031337482848245,1
0.000803088059176218,0.0265658379493968,1
0.00143809460581382,0.0306965087674212,1
0.00165534899276894,0.0255275883687863,1
0.00461658503924749,0.0280148069406907,1
0.00770117707220185,0.0360538513400794,1
0.012780664678083,0.0434067401459749,1
0.0142016704499629,0.0303456760778052,1
0.0254853089485678,0.0310541494839361,1
0.0251273109048232,0.0173934160964648,1
0.0220511140264033,0.014240896506573,1
0.0298326208765599,0.0121871374319135,1
0.0543616097878583,0.0159906410750631,1
0.0466017294806485,0.0136313200056127,1
0.0416336635057154,0.0129434989763905,1
0.035961535717232,0.0103952076588118,1
0.0364462742186488,0.0107197414552966,1
0.0360154554293034,0.0104346985332068,1
0.0375591101723232,0.0103043412255326,1
0.046719076222945,0.0131522162744594,1
0.0465375549820907,0.0104231854165459,1
0.0444742069659372,0.0118794001326075,1
0.0265925272237795,0.0086011904038398,1
0.0228506928629163,0.00728332081606189,1
0.018411853058206,0.00571598769913574,1
0.017971687804658,0.00530050652915844,1
0.0187022831202906,0.00511142258128388,1
0.0212694422602485,0.00518927812982786,1
0.0243590053799453,0.00717836466785481,1
0.0217993139599192,0.00593867320316813,1
0.0202666835331209,0.00689174738117434,1
0.0243428475899341,0.00853997630295179,1
0.0217741817443367,0.00666310555488688,1
0.0242477104209662,0.00670914580560646,1
0.0189093001014963,0.00521575830697864,1
0.0182352055355191,0.00442313230347974,1
0.0199230792190171,0.00534215665375443,1
0.0198641280449782,0.00627842662582322,1
0.0200643791635577,0.00612089493220325,1
0.0198212465377238,0.00687858923438586,1
0.0202973905763024,0.0074881564984196,1
0.0223426053262026,0.00891487099920285,1
0.0206915612609279,0.010851513996858,1
0.018687520506692,0.0119771411105516,1
0.0190152075275799,0.0101665097491019,1
0.0197519839980333,0.0082793985100595,1
0.0218710387085821,0.00794392394483649,1
0.0203236465595428,0.00662704845588601,1
0.0201655775025649,0.00683467943160105,1
0.0267540038633902,0.0074895017837319,1
0.0285222500489626,0.00809267359666744,1
0.0276205014461546,0.00860047826332664,1
0.0419626288581375,0.00872130182561952,1
0.0787203266411545,0.0149332623995469,1
0.0913671014628975,0.0162385292550598,1
0.130376809950691,0.0221864463717271,1
0.144566805959776,0.0233149878848158,1
0.217372306446065,0.0289653872538198,1
0.229046143572811,0.0257738027025674,1
0.215840618998014,0.024753485707096,1
0.175101739451268,0.0237700978529496,1
0.119159233855298,0.0199144854349144,1
0.0979133553142012,0.0114460795361944,1
0.157859311502929,0.0162566166650935,1
0.174194145447689,0.0164532995033428,1
0.178139754863844,0.0213591686053014,1
0.17390714830761,0.0213892718000785,1
0.132657295828032,0.0185509951957303,1
0.115302586746952,0.0149706355370415,1
0.123373675793794,0.0154611361909095,1
0.115462469510175,0.0105067531893412,1
0.0920164652851561,0.00720396795857454,1
0.0914947658045119,0.00829372023859225,1
0.0888898626463841,0.00662686310200973,1
0.0989831587142072,0.00655366305735721,1
0.103860906299884,0.00547918180005061,1
0.0949654528928892,0.00448322146287985,1
0.12028881143203,0.00444311280747291,1
0.235913509412899,0.00970146047954203,1
0.213358270679276,0.00575577232281302,1
0.19510408588534,0.00598595724468132,1
0.199546319172801,0.00598075393449188,1
0.225906121048051,0.00769728529239562,1
0.191287091041104,0.00657929628345144,1
0.200584644099575,0.00633148055650015,1
0.214134632483234,0.00735383137890207,1
0.216157710099061,0.00450108057751405,1
0.254204217366947,0.0063628533071633,1
0.198836374059212,0.00530539236932278,1
0.190416952137912,0.00703474953375705,1
0.17776127530819,0.00648779936169735,1
0.162642521482092,0.00628882360173959,1
0.148403243519771,0.00592806364480615,1
0.155765916950496,0.00625103428036302,1
0.148841191881493,0.00622289673216153,1
0.1064473666306,0.00346937832133248,1
0.110147621903994,0.0102093936003017,1
0.0680334400682857,0.00715377467181709,1
0.133645504405075,0.0111179332215779,1
0.209296529252969,0.0150357553601961,1
0.246891001524066,0.0172289546090102,1
0.258076468953083,0.0170668994040806,1
0.227498680625436,0.0168658906364925,1
0.24316475099607,0.0177999165876717,1
0.194540952532785,0.023520862231555,1
0.0809567010658787,0.0200732995393495,1
0.0533550376909599,0.0151856562337952,1
0.0155865774060313,0.00747317331796163,1
0.0127262474011013,0.012716673342365,1
0.0168581497448323,0.0170735432409211,1
0.0170989858713749,0.0163419891803527,1
0.0134413738389088,0.0195776064776464,1
0.00768042028204798,0.0233284235372833,1
0.00723084977653742,0.0235220624516515,1
0.00532324422762605,0.0191023695274361,1
0.0028220673295956,0.012419773198637,1
0.00207259115945559,0.0158896360101463,1
0.00172600516944602,0.015710196969149,1
0.000710047504728784,0.00866073037953765,1
0.000730207381391595,0.0137459884773257,1
0.000759407117708469,0.0251642274895575,1
0.00122750601428975,0.0600248109051298,1
0.00164161915793532,0.0700074144241856,1
0.00285478325794781,0.0450001438544564,1
0.00672317205308808,0.0625884842168392,1
0.0147190231164038,0.0586471353735534,1
0.02306548929252,0.0670802324037115,1
0.0512403395228137,0.0352645694306509,1
0.0778562942709559,0.0241327421453687,1
0.0728594162514312,0.0239091699974122,1
0.0626809500296663,0.0207899536989408,1
0.0571072175235656,0.017786359435236,1
0.0431995675309143,0.0141861099483077,1
0.0334431164300681,0.0110045374217292,1
0.0301109127963613,0.00997935141561612,1
0.0284661809406723,0.0097531004864401,1
0.0277195758385316,0.00990701001099078,1
0.0215831591892097,0.0119537284831266,1
0.0184505627646647,0.0122898972231106,1
0.0188874695643756,0.0105866343865245,1
0.0192518165625615,0.0104275581666229,1
0.022609861462335,0.01388784775409,1
0.0299051539578209,0.0159179854020979,1
0.0290576893448616,0.0161614049407931,1
0.0292648449405275,0.0155930421455381,1
0.0295903028881695,0.0146340857903584,1
0.0288830081607518,0.012920767832045,1
0.0289287126548071,0.0131073369292547,1
0.0158490952736548,0.0104300912724157,1
0.0142404326632502,0.0114305824212186,1
0.0189112014164667,0.0144030506370195,1
0.0614716737900057,0.02117887079853,1
0.06776657754385,0.00737678826766134,1
0.0686458204677129,0.00738530519130405,1
0.0639879188043826,0.00685220654709592,1
0.0690333363916529,0.00770876927319456,1
0.0684139833258869,0.00720977405163958,1
0.0722317372993951,0.00650841693909647,1
0.0790626405610299,0.00695364304636038,1
0.0794916125690824,0.00670765337234558,1
0.0794311099140995,0.00680566751076996,1
0.0435317510856167,0.00401696663055148,1
0.0252735307503833,0.00412173866687059,1
0.0318669437501141,0.00556316300948676,1
0.0339226324263004,0.00532837247611761,1
0.0339446615578227,0.00497767854606102,1
0.0300611220546193,0.00504963687623475,1
0.0291676948406391,0.00663887957659828,1
0.0288165597400732,0.00636197575260496,1
0.0273828533884729,0.00608525607608767,1
0.0261460566700223,0.00569832794970459,1
0.0242364685158357,0.00450808542595083,1
0.0425242892476522,0.0130873925362082,1
0.0734030046276303,0.0153142529210939,1
0.0708563549882705,0.0130391053471136,1
0.0830543423336688,0.00945637457171518,1
0.207796561618054,0.0150486876592938,1
0.254370063900265,0.0148504923557212,1
0.295063976259191,0.0150559001411383,1
0.386472835959025,0.0194052523046994,1
0.334026626057308,0.0100608822036339,1
0.285054767985308,0.00919563923965184,1
0.25866797571368,0.00834575127545215,1
0.263347191634647,0.00887035236470489,1
0.171800316244952,0.00473999858555077,1
0.104665257653425,0.00341190960764922,1
0.118574292942155,0.00583462328226186,1
0.125202177837702,0.00475474516713699,1
0.131181044857029,0.00490524960555877,1
0.107498087938501,0.00405616182017101,1
0.106330711640343,0.00561528756374967,1
0.132699815713998,0.00344585113086133,1
0.192064469738206,0.00522582501789773,1
0.16356685386248,0.00414432332593597,1
0.15735463412818,0.00477692189665974,1
0.156659845692071,0.00464824604973494,1
0.153775151853001,0.00440755957801106,1
0.136823303785038,0.0046237339567193,1
0.131672017419599,0.00499956973991712,1
0.136639309768828,0.00412263631345708,1
0.118961558358071,0.00308129408245903,1
0.101317414697459,0.00657262014585062,1
0.0643710546027457,0.00460787527832487,1
0.0630853006170938,0.0048885577189144,1
0.0648990832095707,0.00416670612887771,1
0.0966575382165755,0.00588804093596716,1
0.101971068530105,0.00446827897222388,1
0.114907682231422,0.00556336563146512,1
0.104068720241755,0.00449917998295345,1
0.103476144057273,0.005487451847324,1
0.113390291626585,0.00772441710000159,1
0.116612434978545,0.00834489016969335,1
0.136814451033699,0.00943374694550228,1
0.138466239693833,0.00922567186165998,1
0.14959947004559,0.0114188683367855,1
0.0716319429522134,0.00685863026893549,1
0.0566990445557274,0.00731460558079956,1
0.0909814231290603,0.0114910518842767,1
0.0979114838567956,0.0156774705313579,1
0.0872022103953313,0.0173767039663328,1
0.0993394043213136,0.0204744349103004,1
0.102638156152527,0.0223201705114073,1
0.107132093816047,0.0289680950917798,1
0.0813631023280531,0.0245907026738134,1
0.0624629552321621,0.0215646087476948,1
0.0238757480166977,0.0127478391011829,1
0.0169002043892637,0.0226221391569106,1
0.0173520875634901,0.0243458614847643,1
0.0117869794038866,0.0330422261842611,1
0.00511847083473702,0.0346090303228032,1
0.0032750024098168,0.0299453200704082,1
0.003007836396892,0.031520655560999,1
0.00244321564851682,0.0236529904137918,1
0.00219546286860226,0.0228061731366578,1
0.000809640073669972,0.0163695837139787,1
0.000426204157209298,0.0244274791882278,1
0.000473860427505558,0.0246071551473579,1
0.000451606655480279,0.020901565258576,1
0.000482221906752092,0.0211160433902528,1
0.000580361032000861,0.0203728942976052,1
0.00067369186985921,0.023043103232592,1
0.000642961716788686,0.0223597276021648,1
0.00096546094817804,0.0174745410888659,1
0.00240180362095355,0.02800276857548,1
0.00249647831305133,0.0240309862571197,1
0.00336325832025516,0.028121673768859,1
0.0116838222284634,0.0216311735140414,1
0.0198403765188716,0.0254878721821259,1
0.0207095952283277,0.0260514083001313,1
0.0234584283328368,0.028795493043526,1
0.0271253697953099,0.029582339320134,1
0.0559661281679429,0.0256711739021912,1
0.0777307153569112,0.0231848696143101,1
0.0801073199971061,0.0252215131340783,1
0.0648486723766455,0.0168944120979392,1
0.0492178832384602,0.0137622060764386,1
0.0425586129196053,0.0138946915414088,1
0.0401915215413792,0.0128382379538061,1
0.0318488048533187,0.00773605152622536,1
0.0322576899905139,0.00766602173198265,1
0.0325165049275388,0.00784966033118728,1
0.0256562168293413,0.0104503140919268,1
0.0301147973411129,0.00839839648772765,1
0.036935031081363,0.00408862662914812,1
0.0408800268869478,0.00544805089908672,1
0.0437392419701347,0.00645510169675742,1
0.0468339592461026,0.00564173284754485,1
0.0473266980520359,0.00529528494028849,1
0.0463688883144149,0.00617853295220803,1
0.0425621398813632,0.00559521348914759,1
0.0448845936994838,0.005913266450951,1
0.0523696228126569,0.00705309463853351,1
0.038059976514821,0.00406102168459931,1
0.0515887053557748,0.0104422873710659,1
0.0505228472532344,0.00640808631741994,1
0.0496343214566108,0.00570893926261424,1
0.0477614968927247,0.0067131630624083,1
0.0482763903840309,0.00752551797887127,1
0.048165410278299,0.00711988686431519,1
0.0484173835118921,0.00695931487397711,1
0.0481144464628134,0.00629111370215347,1
0.0511458398247109,0.00656410887719785,1
0.0485592705234208,0.0122595141206334,1
0.0119569893038982,0.00307723948124769,1
0.00632596144602589,0.00538544819225896,1
0.0111853745327747,0.00961150234346848,1
0.015268115481353,0.0126731610678762,1
0.0164902986512067,0.0138507510540779,1
0.0151611441896215,0.0129295941898332,1
0.0121407285395043,0.00934698003685213,1
0.0102360028548504,0.0114273949302606,1
0.0104513304650785,0.0120649542660999,1
0.0110504044082714,0.0128054403522219,1
0.0100443151787631,0.0125344652539208,1
0.0215211579656641,0.00495287965550392,1
0.0716603393711118,0.0171467440162892,1
0.197096770239818,0.00929504450157762,1
0.541831391732381,0.0209062038402482,1
0.605125751099094,0.0188226447423663,1
0.695817545970931,0.0175257876843613,1
0.952965196683737,0.0225137691463196,1
1,0.0155473686350697,1
0.828530630414147,0.0110350745995603,1
0.59317028714416,0.00848294928072049,1
0.394155559795616,0.00662724181980507,1
0.30243030732881,0.00456983277077986,1
0.323783749386234,0.00813811067493587,1
0.331340696552071,0.00789087011671437,1
0.335519399787916,0.00877476451268401,1
0.381904789751255,0.0139693641463585,1
0.226662750671259,0.0093762883812657,1
0.0908893272244539,0.00506268885283395,1
0.0939659713585783,0.00480257723817019,1
0.120012305140882,0.00572603003327783,1
0.107641499286026,0.00420028868280849,1
0.105617608441498,0.00381904149352355,1
0.119254760979729,0.00463067093823383,1
0.169493420232377,0.00719610102688663,1
0.22270800298282,0.00978338634052323,1
0.18852311139976,0.00849466062162699,1
0.186169786044661,0.00924890459340349,1
0.158297602164514,0.00978054501514593,1
0.14735526400374,0.0136162239665665,1
0.167946833722169,0.0178701143993023,1
0.221556775240508,0.0248672308744874,1
0.22471586865108,0.0158329725635592,1
0.230544401734839,0.01650639384515,1
0.20090266351336,0.0144657818670059,1
0.154014958079738,0.0115781299356918,1
0.142033160208778,0.0113402058231444,1
0.142440792106022,0.010840095878533,1
0.165967596466923,0.0111190448262892,1
0.166151987004948,0.0103742912734501,1
0.163205843365773,0.0111320164261127,1
0.135288724545712,0.00934135808525324,1
0.127802947235675,0.0179526101248697,1
0.0915737512930635,0.0115576778506343,1
0.0925170115444938,0.00920275933921627,1
0.101323148057948,0.00600891834069056,1
0.130985870975817,0.00638080565502942,1
0.132082143913617,0.00636363674943569,1
0.170515297581169,0.00755361972940931,1
0.212835185450509,0.00961436560001332,1
0.254700393597815,0.0108683995027753,1
0.306687360256601,0.0120908835077908,1
0.350462262145616,0.0158434315539041,1
0.321534175165761,0.0169337346388903,1
0.159219006294754,0.00878628205890168,1
0.124884237268527,0.0135943004097988,1
0.117729868254235,0.0205877170907051,1
0.0480155874624964,0.0127271761623534,1
0.0351491968304246,0.01608194267977,1
0.0220930079130315,0.0118175178703685,1
0.0164743900692137,0.00971788592521271,1
0.0132432892000489,0.00963105215468398,1
0.0139553770287886,0.0102973010190741,1
0.0146965611705366,0.010625467079382,1
0.0128065091351865,0.0223287797333768,1
0.00129704127947982,0.0118157907307929,1
0.000463960041767959,0.0549378713807606,1
0.000387690548394008,0.0404747995012627,1
0.000339615575451459,0.0384647191341507,1
0.0002097209116495,0.0297351345191046,1
0.000229771331230121,0.0357451326634846,1
0.000256740634159473,0.0427851993740389,1
0.000266997091739432,0.0434519403628929,1
0.000261948733011193,0.0396800296264266,1
0.000267695259542794,0.0401589624114724,1
0.000318844351956232,0.0293136392722065,1
0.000435257163492959,0.0363959522838301,1
0.000411412468806185,0.0396193404925775,1
0.000570025168114162,0.051481364894893,1
0.00176438330602522,0.0312698655175217,1
0.00439830830212434,0.0479459889136628,1
0.0109620291779301,0.0480371989921746,1
0.0126531548089796,0.0339521934173886,1
0.0144890429903425,0.0304237210968578,1
0.0304333835206917,0.0205306175123073,1
0.0525433820635003,0.0262559215460141,1
0.0555161609702658,0.0286406523050181,1
0.050351499467908,0.0268565355507247,1
0.0435428239083536,0.0244129777059496,1
0.0351306085016135,0.0218311641321393,1
0.0275527030600239,0.0137290445217895,1
0.0248350956306807,0.0113540702118489,1
0.0169615075662638,0.00850571224687486,1
0.0120414233432933,0.00531369949503973,1
0.0188783097701594,0.0142014294232774,1
0.0148427568601126,0.0088623961688422,1
0.0146117234043317,0.00749307239860421,1
0.0150835381919639,0.00780858308758754,1
0.0130351665027089,0.00653485362941687,1
0.0111767652157799,0.00498399449740515,1
0.0153053688047418,0.00778138676509105,1
0.0172492662171636,0.00778420024938693,1
0.0148268612634002,0.00548826386526549,1
0.0248477209590748,0.011303698041725,1
0.0230229093344731,0.00924288000888294,1
0.0348705888104738,0.0109361496550868,1
0.0429983859949579,0.0133372610091168,1
0.0432604157580337,0.0134132465546706,1
0.0504279773997952,0.0135999918788616,1
0.0513405468625741,0.012699260641254,1
0.0352411580551206,0.00952086432166171,1
0.0182989154603041,0.00496186078148555,1
0.0153717116156022,0.00410747585822905,1
0.0160869286209247,0.00396923454092552,1
0.0107938888373293,0.00241571883029753,1
0.0231708359047133,0.00604474489752835,1
0.0466800083903644,0.0106449040036021,1
0.0490820307684942,0.00886076828211621,1
0.0485357275357033,0.0086491057364871,1
0.051111323618998,0.00913883090565716,1
0.0452612240560028,0.00869684003914777,1
0.0460601281821276,0.00850253337345128,1
0.0345029975284574,0.00687515249800633,1
0.0298950202285163,0.00604802443390056,1
0.0200971904034623,0.00360379206116437,1
0.0197420484991457,0.00714436273021058,1
0.0221120885652348,0.00850655372233843,1
0.015401654844837,0.0100753312260737,1
0.0093696470253942,0.0127011243810223,1
0.00816863379066579,0.0137100321244442,1
0.00407671265228718,0.0091080918539551,1
0.00457177545519056,0.0078702197432609,1
0.00457328300253118,0.00883428741207875,1
0.00992543639729135,0.0156285421919627,1
0.0156465015052158,0.0182479575781458,1
0.0758051152479237,0.0115501986697406,1
0.181880645297489,0.0234400383745963,1
0.193918006419171,0.011744285999422,1
0.186214406142159,0.0118685891654897,1
0.213066739157742,0.011279891155076,1
0.267048295983065,0.01494147296679,1
0.407348652898291,0.0192596705020002,1
0.427125957727857,0.0110622389247358,1
0.356620677909164,0.0101730817745837,1
0.278560764238676,0.00788224437745832,1
0.252943637975652,0.00844606488982087,1
0.299835832520265,0.00969819514545752,1
0.247324171306148,0.00930478597775112,1
0.138025564242051,0.00540641431981573,1
0.141129927775863,0.00628626232967783,1
0.186975886062906,0.00840115590741674,1
0.235962173393448,0.012481378135451,1
0.293339781472935,0.0195233069589916,1
0.36481056662897,0.0230278137633907,1
0.378719872313768,0.0243393469010729,1
0.382373503101936,0.0320610210240288,1
0.219186736670026,0.0265387204501204,1
0.151757618709517,0.0279476251189761,1
0.0779764419548982,0.0177186501939804,1
0.0560460770328659,0.0135903731772842,1
0.0406348103040418,0.0148402005271436,1
0.0416681618353909,0.0134779904155739,1
0.0356252999122659,0.0111595198055026,1
0.0292771624004499,0.00850282289251699,1
0.0353573549152217,0.00801375158202643,1
0.0334470842903556,0.00687717966601619,1
0.0373620909634359,0.0081138016016182,1
0.0426022630518733,0.00771212984422658,1
0.0326103964616166,0.00601597247739885,1
0.0284594814584183,0.00537645298645563,1
0.0281776112261297,0.00546547597994353,1
0.0243711986097956,0.00561925866595304,1
0.025547523873597,0.00653033069408963,1
0.0150246498015673,0.00393439759522411,1
0.0151959580971373,0.00508766864058724,1
0.0137145422478986,0.00556199381943598,1
0.0133451511769992,0.00599598843681695,1
0.0173778803214941,0.00863326978658026,1
0.0132552245174806,0.00414617371813735,1
0.0139070502527411,0.0070181947916336,1
0.0155238067454525,0.00781541992124683,1
0.0152629314298175,0.00720888966814986,1
0.0162614001347412,0.00754374460792732,1
0.0164773659362074,0.00779273695341956,1
0.0158335347872135,0.00764028543015696,1
0.016613274432715,0.00754857450724478,1
0.0167644997034959,0.00762522817577533,1
0.011118480397998,0.00590864062926394,1
0.00814468849501018,0.00716482248081382,1
0.00816773235954134,0.00666122665778299,1
0.00788808741977169,0.00620547135248254,1
0.0101639827966951,0.00859490955574983,1
0.0102110092938895,0.00951130371928103,1
0.00808808501604343,0.008413564517059,1
0.0079653278084883,0.00933177853552049,1
0.00802355918356163,0.00769084165350137,1
0.00728699890283952,0.0070634817033175,1
0.00727454671757029,0.00786021796879549,1
0.00846857468407621,0.00880402262123483,1
0.0070714024961053,0.00585999195777237,1
0.00631702507741315,0.00573171651764141,1
0.00587777933584305,0.00597749156423896,1
0.00566721943797717,0.00621875289846682,1
0.00532288494737418,0.00760519144804378,1
0.00345318573017979,0.00409041991478705,1
0.00431986827209773,0.00506779523447393,1
0.00496079693282054,0.00403196863390044,1
0.00486339465599568,0.00415908308138927,1
0.00484641468354559,0.00554345174171335,1
0.00726261540973613,0.0104112534124647,1
0.00847157781727561,0.0130255861537325,1
0.0103551064838919,0.0146180765628835,1
0.0105235231708472,0.0130464473664168,1
0.0101485151902488,0.0116806170515678,1
0.011545231664288,0.0144608733360909,1
0.00563746659355157,0.00644325918444142,1
0.00484272389533098,0.00866069795217841,1
0.00505179233601308,0.00833741866691805,1
0.0058606056666409,0.00957442449328273,1
0.00557635391882043,0.00933632605001707,1
0.00546874239620098,0.00909412606257579,1
0.00476547847828211,0.00776316041994207,1
0.00501390646923071,0.00900100602374501,1
0.00472914677137001,0.0101839334690232,1
0.00322982224166008,0.00686387175710729,1
0.00318669623279559,0.00890240104920883,1
0.0029524065087731,0.00698795159718869,1
0.00316436250570851,0.00899204156098626,1
0.00258731465780894,0.00835517486285252,1
0.00264422443965658,0.00752814367839402,1
0.00278466618613771,0.00776454466967497,1
0.00282681945842523,0.00857111744427849,1
0.00256062651722453,0.0074911230901365,1
0.00257393215271765,0.0074779241634884,1
0.00287048997361709,0.00821324526352392,1
0.00269128217516558,0.0119002714509597,1
0.00193135371229309,0.0149556882983958,1
0.00182424902412761,0.0133656656286771,1
0.00189340994805331,0.0137076166763057,1
0.00178347832904183,0.0129177781556406,1
0.00169371741352789,0.0100885367787799,1
0.00175798686591332,0.0100704825344237,1
0.00188555539448546,0.0121678830774737,1
0.00161032484843586,0.0092795237577134,1
0.00159473546309834,0.00979239848310277,1
0.00151596691391028,0.00837717151433371,1
0.00188481718254379,0.0106256797346138,1
0.00313502275223696,0.015887972195952,1
0.00610315537371493,0.0244503128392132,1
0.00796081103748448,0.0210877940793246,1
0.00789792368458426,0.0225315687885348,1
0.00760578356808173,0.0227039501035473,1
0.00649859439601955,0.0184923247978008,1
0.00587472391097033,0.0184237402337711,1
0.00624761455728939,0.0177146806560977,1
0.00855180196241257,0.0231444122525055,1
0.00921970602039695,0.0170533726849616,1
0.0087272417907631,0.0180470154511238,1
0.00625144836948755,0.0157520108128869,1
0.00340149727772334,0.0118324587149203,1
0.00337549790992079,0.0113590409644535,1
0.00244539987373163,0.00769346997832988,1
0.00262933136724309,0.00871506367071492,1
0.00300513456947005,0.00772540530020044,1
0.00312118238426325,0.00692767612479266,1
0.00233274850568365,0.00520089047972271,1
0.00204495678346419,0.0073042613592022,1
0.00187777777733422,0.00657100979289716,1
0.00346315086697528,0.00979805065173698,1
0.00350658424570532,0.00891145820845547,1
0.00337301877886711,0.00961789315084326,1
0.0033332515675927,0.0105986546948903,1
0.0030950355266153,0.00944651996945356,1
0.00440891467939891,0.0168867726903316,1
0.00467013800892648,0.022158254990147,1
0.00463635838830254,0.0230130793207508,1
0.00553578407392608,0.0239546329566229,1
0.00610697386044033,0.0290010066503604,1
0.00399001431248292,0.0335929949387327,1
0.00311133510777509,0.0333371798175444,1
0.00197191701285073,0.0227945831512604,1
0.000876949731169134,0.0153960779985426,1
0.000747146799491977,0.0146468642137067,1
0.00202778664396264,0.0175940546091387,1
0.00239689061812702,0.0136821310547806,1
0.00229671971853034,0.01326090375282,1
0.00225715893882512,0.0139922914556327,1
0.00216800325794624,0.0137770088429223,1
0.00213005900065685,0.0142069569224514,1
0.00168547667952672,0.0114613643754142,1
0.00160707638950911,0.010568037991866,1
0.00160145330494396,0.00881217781591524,1
0.00191277479355533,0.011758821782984,1
0.0011816938016269,0.0136455502770217,1
0.000854419512983658,0.0185066522854012,1
0.000912128803529566,0.0201943622743395,1
0.000974126070369674,0.0222449857544805,1
0.000940183314894844,0.0220660740219591,1
0.000746186731828072,0.0214746967806847,1
0.000642722676705256,0.0191586293031271,1
0.000453455430494121,0.0190189669144779,1
0.00020623463879249,0.0200681395887036,1
0.000181626711549564,0.0197806085550901,1
0.000214548822765791,0.0213851760351747,1
0.000265148500370742,0.0223689024176412,1
0.000401782068731611,0.0314392034163574,1
0.000410035835841404,0.0359764216041639,1
0.000433046065527413,0.0373422190784711,1
0.000258670904364527,0.0287263567124047,1
0.00024140713481371,0.026651317197593,1
0.000663268587152546,0.0381665085157252,1
0.00075649550612068,0.0206675235681645,1
0.000796045457865797,0.021829196099544,1
0.000824384317829944,0.0220863318157264,1
0.0010897708591729,0.0165190400618362,1
0.00163107166358435,0.0160127212998775,1
0.00167816295354539,0.0143499347963652,1
0.0018981001200307,0.0150968026352704,1
0.00169085286566993,0.0129169589020326,1
0.00350397269601734,0.0119263966167813,1
0.00650334509810008,0.0154168439230378,1
0.00644724754605249,0.013853602543307,1
0.00589642729756165,0.0123164510517206,1
0.00565602322511091,0.0118539219222692,1
0.00603260012232219,0.0144701785415351,1
0.00656160056437883,0.0163170336378319,1
0.00726281992593775,0.0189750188983462,1
0.00803664247682408,0.0194656996887255,1
0.00806063824922406,0.0193881528923859,1
0.0060902028354488,0.0363382431157279,1
0.00190251936125127,0.019755056116557,1
0.000776783068000938,0.0127667395439582,1
0.00183008509859537,0.0238320021032565,1
0.0030738481037028,0.0307240266437856,1
0.00490708222753871,0.0329065681994438,1
0.00593207553524571,0.0190294672677992,1
0.00574687665076669,0.0159092913566717,1
0.00552145437511099,0.0162279329911194,1
0.00605900157165394,0.0173753341704855,1
0.0060835311014076,0.0189341630497323,1
0.00544792170069941,0.0181937915743269,1
0.00558290071669464,0.0210681424585375,1
0.00540556817402975,0.0220203112026437,1
0.00457590791562178,0.0186308064929465,1
0.0029666553624347,0.0129246816079891,1
0.00559759028228666,0.0286709508522345,1
0.0068858413483188,0.024446343140881,1
0.0150013593261444,0.0197084132964917,1
0.0183771433227167,0.0109337894236519,1
0.0175885288102454,0.00869014228108199,1
0.0350682899032342,0.00685879904256061,1
0.115661347058958,0.014252404906602,1
0.207747162707966,0.0253387774468161,1
0.305468315797545,0.0327042472860631,1
0.292507333772101,0.0133567982023311,1
0.275492250465566,0.0129574998217152,1
0.256340796287804,0.0120559652165576,1
0.261700039967117,0.0126926253385277,1
0.256787762211663,0.0131407763176521,1
0.227622307476412,0.0121413013273506,1
0.230900913749588,0.0157229426615898,1
0.210294689841701,0.0188089354106293,1
0.156642386487504,0.0148831463505086,1
0.045710127635471,0.00421119103122636,1
0.0132051759444165,0.0143064514048689,1
0.0156411295383393,0.0139708436469283,1
0.021344243332124,0.0180337273223335,1
0.0256020240827879,0.0211161281062066,1
0.027757245637333,0.019058457828184,1
0.0279926726747248,0.0185826388560764,1
0.0286916210724605,0.0210076192800279,1
0.0190081585934307,0.0159944706812383,1
0.0170130130807888,0.0149188659100826,1
0.0146251650527978,0.00940465360562953,1
0.013189882565593,0.00833542758172894,1
0.0135904382569251,0.00955071602680146,1
0.0142808791801914,0.00981654758136896,1
0.0143459766965137,0.00892726819691593,1
0.0150283917512392,0.0093650094255033,1
0.0152938002164091,0.0087015479989597,1
0.0168662648394553,0.0088604042454809,1
0.0155336543883869,0.00854039774827684,1
0.00670586787731345,0.00382457817792879,1
0.00489755495557594,0.00436565492365696,1
0.00514899495996226,0.00467267699982951,1
0.00557558100940971,0.00525391536339651,1
0.00651798972802345,0.00615807035364333,1
0.00783768710160405,0.00747396500069766,1
0.00747949716211,0.0100855083505259,1
0.00356232474874392,0.00786307383598069,1
0.0045805458974195,0.0107626327493986,1
0.00444430345004592,0.0127446329569509,1
0.00438151418152184,0.0139512234842676,1
0.00395967722748844,0.0128738440562703,1
0.00358522487630382,0.0130133593267737,1
0.00354519923726495,0.0132020437517202,1
0.003698850310967,0.0123595885645634,1
0.00399295376273446,0.0079844753805584,1
0.00427082329650661,0.00748933795491895,1
0.00339869107971865,0.00649789221447931,1
0.00370443125266244,0.0092883537213206,1
0.0035147108650991,0.00915856249551079,1
0.00364009399632069,0.00823526456485438,1
0.0038000002124577,0.00692709344023635,1
0.00425656729545448,0.00767231420394738,1
0.00461364035852039,0.00781171139835148,1
0.00475261923147169,0.00780781969721038,1
0.0045230679229587,0.00922733105941851,1
0.00359077821967081,0.00984621197180063,1
0.00374508851574374,0.0106689918810698,1
0.00398472330280385,0.0110856376207204,1
0.00477954953080136,0.0123498335732096,1
0.00390315498494978,0.0145254661965315,1
0.00271826963983378,0.0161503030492129,1
0.00294714324695505,0.0176219576940476,1
0.00304789501440813,0.0200817377671945,1
0.00129658056717865,0.0210497688261661,1
0.000432782382881096,0.0621059030957385,1
0.000446469653396613,0.0785132733665643,1
0.000236960918926733,0.0758306890285254,1
4.72439450812984e-05,0.0649809979717101,1
4.71720046427765e-05,0.0968820595455337,1
4.85011492642593e-05,0.128495886542657,1
3.84606500831299e-05,0.149067763252064,1
3.93731294574468e-05,0.172595914203414,1
1.80522586959664e-05,0.169776995585535,1
1.85032574276163e-05,0.149658029607133,1
5.46598132158954e-05,0.16123991067983,1
5.64681809508927e-05,0.121684147506841,1
5.83551477557831e-05,0.125577640130497,1
6.08395450152947e-05,0.127051297290567,1
6.17376653222019e-05,0.124240683561548,1
6.08404097863173e-05,0.117328281921766,1
5.77703934587499e-05,0.108497686411297,1
6.96979726140722e-05,0.106603571064274,1
6.58295631041668e-05,0.095033341870625,1
6.42851471882159e-05,0.12102658937786,1
4.20444181184819e-05,0.129188885307598,1
3.95717920138134e-05,0.185211631642692,1
3.25716903131333e-05,0.155179195161471,1
2.77748387897612e-05,0.133493047645827,1
3.17435509770035e-05,0.150522318589714,1
4.10347988991456e-05,0.183461516068119,1
4.58974596731738e-05,0.228972054829173,1
3.49899958559108e-05,0.304233493638725,1
3.18009299234714e-05,0.36902207411268,1
2.4951231069954e-05,0.351345735364743,1
1.54211463330484e-05,0.298293896360219,1
1.08725548503464e-05,0.292635566357189,1
2.15763148373068e-06,0.152839513847839,1
1.60996907622136e-06,0.180850096963004,1
1.49919152138549e-06,0.17442725562967,1
2.17512806279345e-06,0.163558211494638,1
4.84920910075952e-06,0.198777249040811,1
4.95596242834392e-06,0.180468282827914,1
5.16080400049779e-06,0.184253330761419,1
5.12204312751762e-06,0.183176527513141,1
5.86551923531394e-06,0.199865444749612,1
5.87505155108272e-06,0.199775815490446,1
6.01802559666717e-06,0.212439426063977,1
6.17570834583479e-06,0.214181277301638,1
6.300820843114e-06,0.215284609747622,1
5.53144732250648e-06,0.261720983626543,1
8.6167817376456e-07,0.131209138489009,1
6.55008449644945e-07,0.142219246258893,1
6.72914309112792e-07,0.149561247863011,1
4.41912200244072e-07,0.12670326000849,1
4.33289670012267e-07,0.130262587484481,1
4.20481352623429e-07,0.13226911887194,1
4.54241464730527e-07,0.145912548635564,1
4.00409732331893e-07,0.155119169408055,1
1.85175645173289e-07,0.119974582083687,1
1.81478476502946e-07,0.122408450181306,1
1.67325702172538e-07,0.118144050476528,1
1.04748423314487e-07,0.0930566577479555,1
9.85572395412861e-08,0.0963010218840472,1
1.1997015169135e-07,0.100440298332461,1
1.1815043994705e-07,0.10101502174604,1
1.01474813090502e-07,0.0976119889383674,1
1.06824155109392e-07,0.0960950877270121,1
1.05788821278374e-07,0.0957922622893306,1
9.14376314087484e-08,0.0867753092263905,1
5.29536680272737e-08,0.0710851554380902,1
5.07603358135193e-08,0.0759438964442626,1
4.48029461744419e-08,0.0756111436595201,1
3.16684845617976e-08,0.0651280666852266,1
3.71197422546792e-08,0.0767262755582064,1
5.29536680272737e-08,0.0922151772931554,1
7.01756585522554e-08,0.106058274296867,1
7.71652169393076e-08,0.118708648271093,0
8.08057657907676e-08,0.13042821218815,0
8.49966170806707e-08,0.141389916557449,0
6.97608920032397e-08,0.129672337340626,0
6.13727889221683e-08,0.115877013793307,0
4.9040148347133e-08,0.102679890881001,0
9.77452902379389e-08,0.126348158070609,0
1.13324039982073e-07,0.117537902787585,0
1.03916780161094e-07,0.106031758970819,0
8.98075433063246e-08,0.0934485091172403,0
1.06699872848563e-07,0.0911087894326562,0
1.1299881011559e-07,0.086600306382523,0
1.15774165933399e-07,0.0870988780985854,0
1.18515620195055e-07,0.0893521606990825,0
1.1934944373899e-07,0.0914825958138413,0
1.1997402012618e-07,0.0886442639808226,0
1.01158867467612e-07,0.0831233280112069,0
9.5153016890385e-08,0.0873243352177827,0
9.17812187568813e-08,0.0884737714932127,0
8.79805870386147e-08,0.0926152346689122,0
6.27749910454819e-08,0.0857481425770617,0
3.94270877931672e-08,0.080266355640008,0
3.92470297355989e-08,0.0817183488432073,0
4.44504262586089e-08,0.078013336889362,0
4.91277156446614e-08,0.0760950941480333,0
5.14990661958008e-08,0.0776056852557624,0
4.7742956645675e-08,0.0817960148955645,0
4.46330163826119e-08,0.0742747402625911,0
4.62464350476743e-08,0.0778988972743622,0
5.83941644378084e-08,0.0844925293030584,0
6.10123211311379e-08,0.0810203927762281,0
6.32079040706118e-08,0.0798543643916147,0
6.14009229936634e-08,0.0800368951166585,0
5.65907704549753e-08,0.0833257608116302,0
5.78179786535898e-08,0.0902992668342219,0
5.12518380425379e-08,0.0909733548183425,0
4.4155510854162e-08,0.0806181332865569,0
4.83705574455507e-08,0.088834024040261,0
5.52307694389046e-08,0.0868322103943923,0
5.41605493592327e-08,0.0846419050040321,0
5.19407711182731e-08,0.0849903883064111,0
5.69891489073454e-08,0.0896411706943485,0
6.15991978625247e-08,0.0909654173017994,0
6.32501051778544e-08,0.0874042971132549,0
6.45994152467573e-08,0.0842520702117565,0
6.80458390049012e-08,0.0819080300588295,0
6.77870758823255e-08,0.0812383056655857,0
9.34525936092238e-08,0.0892308477848471,0
8.70802264155942e-08,0.0838874445643394,0
1.00483298075837e-07,0.0890637446540876,0
9.71741685865894e-08,0.0878791304774198,0
7.27231987261325e-08,0.0739065290284422,0
5.43128250211997e-08,0.065311210598627,0
5.23003245519799e-08,0.0649961239446248,0
4.97534173947114e-08,0.0636325340282703,0
6.29693271443336e-08,0.0728866934016917,0
6.04344473026295e-08,0.0752843309260978,0
4.24213970223857e-08,0.0656850895247175,0
3.81196974907921e-08,0.0666237988834221,0
3.89763799678165e-08,0.0687445350130384,0
4.3080789323051e-08,0.0770360502601793,0
2.38529098356508e-08,0.0635262291107387,0
2.38038862160706e-08,0.0634821693491267,0
1.97914049394462e-08,0.0587469159088386,0
2.02499903048155e-08,0.0607945877925629,0
2.68153572289011e-08,0.0668154889141875,0
3.01161168318794e-08,0.0671076792542839,0
2.34230212232063e-08,0.0625812295842308,0
2.73594701716155e-08,0.0660234291763392,0
2.57286083822259e-08,0.0671154797840215,0
3.3343094832362e-08,0.0703137508638963,0
4.88120513624869e-08,0.0784375163581237,0
5.73126907295385e-08,0.0787562192030479,0
5.8497205474659e-08,0.0806315901977066,0
5.51751343125231e-08,0.0811115269789374,0
4.90553407457405e-08,0.078516245878642,0
4.80892167306003e-08,0.0765781642905713,0
4.86817906114648e-08,0.0782272438031642,0
4.51186104566163e-08,0.0758271515208272,0
5.01795782426827e-08,0.0779408254203828,0
4.26563165193694e-08,0.0754543142987118,0
2.78240340271776e-08,0.0678978558206718,0
2.76290649117168e-08,0.0731833850439952,0
2.38179532518181e-08,0.06806532933266,0
1.8545417248109e-08,0.0615822713415428,0
1.39485209713536e-08,0.0567256800368402,0
3.20471691641212e-08,0.0700843745204668,0
5.3499398679099e-08,0.080081290325611,0
5.775889710345e-08,0.0827914705780469,0
6.22263766513282e-08,0.0840836450808186,0
5.38654932844284e-08,0.0778646227983865,0
5.80954509337097e-08,0.08041284618691,0
5.33643551359227e-08,0.0799756493189164,0
5.61591937982412e-08,0.0817434896476333,0
5.68927193772961e-08,0.0809043625471163,0
5.74984459365846e-08,0.0789024915536544,0
4.48819325801643e-08,0.0783189003459869,0
2.98848547641901e-08,0.0694515031055006,0
3.54174199236922e-08,0.0770162459983066,0
2.67889112016958e-08,0.067373469611983,0
4.22401432667788e-08,0.077775025376648,0
3.25226349723876e-08,0.0716025621626252,0
3.73564201311313e-08,0.0721369229311356,0
4.1516534947926e-08,0.073366366572638,0
3.95302695003753e-08,0.0725202311477108,0
4.08475067277737e-08,0.0767233655987958,0
4.43499876233716e-08,0.0779420544571413,0
4.1418698714302e-08,0.075834510900267,0
3.49984332639523e-08,0.0669289018763211,0
3.80963462114512e-08,0.0697282634829953,0
2.60231017756005e-08,0.0597463370419945,0
2.92557065903819e-08,0.0621107146948851,0
2.26222552132784e-08,0.0586644922784581,0
3.00440232736734e-08,0.0683401301453109,0
2.46505107625355e-08,0.0619927911621098,0
3.08385294526936e-08,0.0654440439246406,0
3.27981378675029e-08,0.0648295988147953,0
3.55369193923675e-08,0.0689956387809777,0
3.46405678745351e-08,0.0707412832519428,0
5.0701183928201e-08,0.0853534828374653,0
5.76903203041808e-08,0.0909850778747573,0
1.15789358332006e-07,0.117238401448346,0
1.40613526650845e-07,0.110853494249104,0
1.72652818274947e-07,0.120883634405795,0
1.77121634191221e-07,0.122342575814966,0
1.71880327006872e-07,0.125273749556516,0
1.68772567134349e-07,0.125873667878876,0
1.65319391199047e-07,0.121383488422358,0
1.66383210777454e-07,0.120264732311461,0
1.98995874778625e-07,0.128530447701553,0
2.11023260677939e-07,0.133295108518308,0
1.61579599410388e-07,0.127821704613271,0
1.41618124008754e-07,0.135639819823618,0
1.3395616131297e-07,0.126213597748191,0
1.46448181403025e-07,0.121712519417238,0
1.57373555721878e-07,0.120058961747606,0
1.65979416516321e-07,0.118692798312111,0
1.8525807800277e-07,0.120226022508784,0
2.38678982622397e-07,0.13539159061853,0
8.91630339294802e-07,0.146673782761891,0
7.08940529243084e-06,0.316957092511035,0
1.12365168930565e-05,0.322253044023202,0
6.80131159146694e-05,0.090379865529972,0
0.000328603639628134,0.123808453184029,0
0.00037189991533063,0.0724370060217332,0
0.00035310751469568,0.0708080503125105,0
0.000341860250938989,0.0718898998395849,0
0.000340531706065575,0.073882540272297,0
0.000338118004944939,0.0731050477623748,0
0.00033666166161444,0.0745966960901859,0
0.000342276046843346,0.0755350867762204,0
0.000338381379593508,0.0741938058517442,0
0.000317660697480683,0.10153823016241,0
0.000475222591469046,0.0335267613063915,0
0.00107190092163921,0.041720083687306,0
0.00108396294866908,0.0365745569994094,0
0.00105935245524716,0.034657013642047,0
0.00105005026099082,0.03453097087593,0
0.00103478221471837,0.0355412194803018,0
0.00102019023567009,0.0349120198524221,0
0.0010128425891421,0.0344238212820785,0
0.0010010104269716,0.032032750965024,0
0.000985359747690895,0.0335229196321707,0
0.000867062717977728,0.0579983036165235,0
0.000807021326723823,0.0937103025870231,0
0.00111790354084482,0.0827245695127922,0
0.00108691067744149,0.0638592402909403,0
0.00100198170142087,0.050676314523134,0
0.000915566352957539,0.046099806283517,0
0.000784771259322743,0.0395360271616821,0
0.000744310257343806,0.0359878303996795,0
0.000774348230174398,0.0382902741552409,0
0.00082876382720039,0.0393100822360081,0
0.000881411056107532,0.0503570508179024,0
0.000599959725302743,0.047915592361458,0
0.000248738914288049,0.0383175262442947,0
0.000235806431113438,0.0487510601787903,0
0.000247418005564321,0.0860862646505167,0
0.000110562846855856,0.0656920346520674,0
6.68902794944876e-05,0.0592434066148758,0
6.89805285406192e-05,0.0757031358257717,0
6.04051906816819e-05,0.0932576521622337,0
7.54247213857589e-05,0.0677540270151204,0
0.000158799623063683,0.0854572130924635,0
0.000165985604042665,0.0643060926260355,0
0.000393853730888532,0.0514256822283153,0
0.000558102901445225,0.0433899862282866,0
0.000529570811965593,0.0399384766236959,0
0.000488815626841755,0.0369566178780316,0
0.000440652810254761,0.0343725180911589,0
0.000435963150387807,0.0336222307067866,0
0.000441561972692383,0.0346716768456989,0
0.000456844119550463,0.0391142310593108,0
0.000436565862029659,0.0383420843334697,0
0.000465915989377385,0.043910347618334,0
0.000277480709931802,0.0707381886849664,0
5.50832323985995e-05,0.066274401047171,0
4.9587290766666e-05,0.0805482330495755,0
4.40318990282563e-05,0.0748837703069947,0
4.79885914961338e-05,0.0998286079859449,0
4.92032187006569e-05,0.093239029035151,0
4.73653177164538e-05,0.0873092429765974,0
4.73807566398626e-05,0.0848702827521807,0
5.28026780923741e-05,0.0867190550630292,0
5.15514653412788e-05,0.0814464833380171,0
4.80278155262659e-05,0.071284276621676,0
5.91757978724161e-05,0.0737427718862892,0
5.17344155813969e-05,0.0635179330342614,0
5.47388814214306e-05,0.0792275264463569,0
4.75119783804319e-05,0.0682940159522412,0
5.86633548209671e-05,0.070341116852578,0
5.28955027335075e-05,0.0618876063713918,0
4.92672164687847e-05,0.06805257337585,0
4.93334085538188e-05,0.0697969546711616,0
4.77574537810405e-05,0.0533628906324172,0
6.22432747483551e-05,0.0685399930908235,0
5.75499889622671e-05,0.0700675471008748,0
5.84968256646938e-05,0.0632135646127998,0
7.034625512158e-05,0.064338934659784,0
6.70971009315877e-05,0.068287137487815,0
5.86389952165038e-05,0.0748013647461828,0
5.92821175836235e-05,0.0787922959407929,0
6.2881996173006e-05,0.0703676970225036,0
6.81877315064422e-05,0.0826887983676548,0
6.96865041115031e-05,0.113521247660302,0
5.76961296382687e-05,0.101861941933548,0
5.57660164213335e-05,0.0724514751886017,0
6.29591957135126e-05,0.0720473895579802,0
5.14655604157e-05,0.0712046821715486,0
5.10291129775031e-05,0.0709521105401695,0
5.57479704541896e-05,0.0733795800055119,0
5.93617044407668e-05,0.0748944704038222,0
6.45333629177232e-05,0.0687930103121378,0
6.43491240667956e-05,0.055671433945983,0
6.54114373470144e-05,0.0570782202898997,0
6.77942413489945e-05,0.0581968090326196,0
5.85630523546358e-05,0.0729009219402834,0
3.8717606365299e-05,0.0706292238716174,0
4.83571562729404e-05,0.0677014243988789,0
5.11269499848141e-05,0.0615458789693027,0
5.02397960576349e-05,0.0605608935715292,0
4.65068032190288e-05,0.0641168318772426,0
3.29175934470265e-05,0.0795923888014958,0
2.62824565576997e-05,0.11059394435803,0
2.52118558240406e-05,0.105951606536204,0
2.65540937610564e-05,0.113460327419152,0
2.92499236319862e-05,0.127201724727397,0
3.25273035402114e-05,0.154341655397656,0
1.55531083513738e-05,0.219958418163,0
5.7131911736388e-06,0.262078026345238,0
5.49000077106141e-06,0.280335806271424,0
4.73429710344708e-06,0.277730866446429,0
4.84193355953572e-06,0.29025284148114,0
4.50369935152093e-06,0.353335304944222,0
1.10088903100857e-06,0.221412213943485,0
2.1091234210107e-07,0.11387160249372,0
2.3526948483309e-07,0.137827234088171,0
2.24919241270775e-07,0.132713832346927,0
2.35232558864253e-07,0.136578729967978,0
2.44963008831532e-07,0.140797890601494,0
2.491268514128e-07,0.142825025636943,0
2.40845306127516e-07,0.142172463617848,0
2.43532742971903e-07,0.138013444319115,0
2.33022346207602e-07,0.135120685456037,0
2.3367990979362e-07,0.138420912862927,0
2.05534303329254e-07,0.134548968481193,0
8.67251744333266e-08,0.0934414215313944,0
7.2731920288296e-08,0.0915365417744257,0
7.61884723121782e-08,0.0905604211293695,0
7.3319289365934e-08,0.0917709784774994,0
6.33860630783544e-08,0.082490295478189,0
4.680384133917e-08,0.0703752040931249,0
3.55369193923675e-08,0.0678899701241227,0
4.00496947953527e-08,0.071114785859748,0
3.71698209019403e-08,0.0685205241576837,0
3.61209827166048e-08,0.0718414015947649,0
3.70550338902406e-08,0.0701186304717378,0
3.29222091227961e-08,0.0682317450709333,0
2.9636079236995e-08,0.0679415948223347,0
2.64229572667237e-08,0.0640387416352952,0
2.51358234958252e-08,0.0652924965053971,0
1.66066280462061e-08,0.0595533977697426,0
1.50851374597537e-08,0.0568018606463389,0
9.8657045159915e-09,0.0544177382594413,0
1.83476347254988e-08,0.0670578134551168,0
2.70827012432828e-08,0.0742988731363707,0
3.63966966172564e-08,0.0848906727574392,0
4.13505439261053e-08,0.0869652093440254,0
3.91369551808745e-08,0.0807756501399771,0
5.51787917418176e-08,0.0938156619124261,0
5.38944010428896e-08,0.090981559481374,0
6.51556961753931e-08,0.0948836042903464,0
9.66114871566882e-08,0.117683450138861,0
1.09758046420075e-07,0.119951867456703,0
1.0775032874301e-07,0.123572134915419,0
1.01476219794076e-07,0.125101336216968,0
9.7124089939328e-08,0.122621725103217,0
9.44367234301207e-08,0.126498749620067,0
9.23829362109819e-08,0.131484194048494,0
8.31549607606046e-08,0.119464496989124,0
6.5897521305539e-08,0.107870438603187,0
5.71172292678267e-08,0.0993530772829259,0
3.09381240657861e-08,0.0739111193968827,0
3.70427252339614e-08,0.0781974934598719,0
3.79491346823533e-08,0.0732267787667559,0
3.78506654321207e-08,0.0731527724554212,0
6.25158059118335e-08,0.0846706764898733,0
7.54156293682091e-08,0.0875695647909668,0
8.00858852363878e-08,0.089327434483851,0
5.8735219719507e-08,0.0784622674633446,0
4.9996144096535e-08,0.0743352965570263,0
6.03458953125989e-08,0.0793838057033995,0
6.13639970248261e-08,0.0811082660468166,0
6.02515758379117e-08,0.0799153239204563,0
6.14360202478534e-08,0.0811875114285736,0
6.89689882258326e-08,0.0830845260222379,0
6.87934316197035e-08,0.0831016106987546,0
8.17403796458331e-08,0.0921337363119598,0
8.77154937499525e-08,0.0938201642712881,0
1.01181023048915e-07,0.103018085939527,0
1.00772516330807e-07,0.107749804849357,0
9.95757632645859e-08,0.107435277189913,0
1.40195665353964e-07,0.12204236685068,0
1.55528734318768e-07,0.119759969132941,0
1.70013842368711e-07,0.129984263622302,0
1.578726541502e-07,0.117949141344564,0
2.22883459857394e-07,0.137397425452895,0
2.43047078562719e-07,0.13631457594852,0
2.4173265474247e-07,0.134452720598259,0
2.3439423386888e-07,0.123514397139342,0
3.37936057192123e-07,0.142022790821317,0
5.43520439168638e-07,0.183264580611602,0
6.03795155280355e-07,0.178748233273898,0
5.63705158427585e-07,0.180067705787944,0
4.9014300168947e-07,0.160561510583258,0
4.26118295188178e-07,0.151126883510147,0
4.66800162570025e-07,0.157317131806254,0
4.84580333073468e-07,0.163848897579265,0
4.21149818162152e-07,0.146741679325099,0
4.08779337260956e-07,0.145234918538566,0
4.04066247268926e-07,0.143796037023448,0
3.80220722627043e-07,0.133399902899626,0
5.71860663072571e-07,0.177023808114338,0
6.03980840152222e-07,0.171734365712344,0
5.96823532363881e-07,0.168150170504658,0
7.83879025859291e-07,0.184996750139521,0
1.44276582759501e-06,0.252989011608208,0
1.8858827287805e-06,0.277038860616755,0
2.21656722904477e-06,0.239489446344197,0
3.50130986410652e-05,0.103527586761586,0
0.000276986667196127,0.123896130376118,0
0.000759018218257803,0.112558953782065,0
0.000818954067285566,0.0906992887044855,0
0.000876280705832724,0.0832753045474341,0
0.000973208719791884,0.0744306247313787,0
0.000859246914169904,0.0564956948899657,0
0.0007769218601278,0.0520159832360027,0
0.000661157026265916,0.0452581013550835,0
0.00050271585462436,0.0362659524406365,0
0.000492791215910428,0.0401310835053737,0
0.000577798819346017,0.0579237858222434,0
0.000474215871325107,0.0674688914424825,0
0.000497624387254067,0.0786688001176075,0
0.00045866654144987,0.106615409497783,0
0.00020806939044873,0.0882232472000688,0
0.000161042068152359,0.112717325916983,0
0.000160932813072802,0.116831224125574,0
0.000124815341839996,0.240940400066282,0
3.25559963543663e-05,0.162457776427103,0
6.24107720683638e-05,0.0906388481131604,0
0.000110514365942515,0.095979928533085,0
0.000112226546381818,0.0873229028865102,0
0.000120162509683635,0.0842417181921454,0
0.000115775548160331,0.0809159648748018,0
0.000109365459858669,0.0791325590935035,0
0.000101254711457299,0.0755064780372417,0
0.000103563644882782,0.0636338923068352,0
0.000101231794568022,0.0533594899912443,0
9.79805515638912e-05,0.0550547316175609,0
8.89564482558992e-05,0.082204102137338,0
5.85887140039279e-05,0.077492588473829,0
5.95730840897954e-05,0.0869853067802691,0
4.71072653308592e-05,0.0832631836055548,0
4.85265177565264e-05,0.0861242791971393,0
5.05693316327543e-05,0.0862395648135206,0
5.18966906550546e-05,0.0830808324545024,0
3.70939227029109e-05,0.14746122040737,0
1.2316865801148e-06,0.117539951924593,0
2.80519200062874e-07,0.161690386409269,0
2.85516936523255e-07,0.156524581311794,0
2.85825285946841e-07,0.153945303305468,0
1.68660593529799e-07,0.12080512048141,0
1.00152511730234e-07,0.0910886994179189,0
1.21552904218483e-07,0.103802733491329,0
1.27638092877326e-07,0.105853259400626,0
1.36103916330903e-07,0.109136926089112,0
1.4439643390407e-07,0.112221107473856,0
1.38900372702332e-07,0.113176400191585,0
1.52233109183837e-07,0.118102808472396,0
1.14861566989278e-07,0.109748617763072,0
9.32821714711426e-08,0.104305635695655,0
2.67410832801542e-08,0.0655533443482111,0
2.68956096678407e-08,0.0681597067927462,0
4.22907845954699e-08,0.081150081180625,0
8.2485932540452e-08,0.102485045058945,0
8.26997514838145e-08,0.101800708948867,0
8.47872995887475e-08,0.0995776792401078,0
8.41048373494561e-08,0.100822202839104,0
7.99364229815704e-08,0.0969199301880437,0
9.13729230443094e-08,0.0997908193029777,0
7.93774693161424e-08,0.0908809022633574,0
1.05265527548566e-07,0.0992274065199504,0
1.05966628610223e-07,0.0982587133453611,0
9.92381544066451e-08,0.0929824135667142,0
5.29744872401801e-08,0.074015450157901,0
7.09858494761342e-08,0.0852198060740117,0
7.99201052201031e-08,0.0939583207889385,0
8.11580747010643e-08,0.0924709380921316,0
8.25788453115645e-08,0.0960480819139141,0
7.71253368929634e-08,0.0969526453903045,0
7.66109757308551e-08,0.100075980230919,0
6.2974391277203e-08,0.0934965882412211,0
6.7006566403874e-08,0.0944229276970415,0
6.15198597809086e-08,0.092560911470388,0
6.0119345701885e-08,0.0869304660993114,0
5.86760678341888e-08,0.0820206468714449,0
5.92627335600394e-08,0.0777552764457565,0
7.47550413695052e-08,0.0885102809035063,0
9.67611604170418e-08,0.0960423525549716,0
1.01418544947512e-07,0.0975242648470266,0
1.07629352235581e-07,0.100239050757228,0
9.98131444928254e-08,0.0995574844558974,0
9.82269455419346e-08,0.10477923092408,0
9.12795882621245e-08,0.104607056225802,0
8.9040116171118e-08,0.107067480752857,0
6.5487115537605e-08,0.0969136008031404,0
6.10303269368948e-08,0.0978109227868103,0
4.67387812988378e-08,0.0894155201132009,0
2.09008017136748e-08,0.0714663365771151,0
2.19850888290942e-08,0.0766273261264276,0
1.84887974292252e-08,0.0671613932700063,0
3.87864046500461e-08,0.0848489713862529,0
5.86366801340957e-08,0.102701018780261,0
6.16440013713806e-08,0.095290518140317,0
7.30677707667682e-08,0.108171387867986,0
7.21155027818393e-08,0.109708121060318,0
6.55490104948939e-08,0.107624167136473,0
6.71405549193692e-08,0.101915357373924,0
7.33089500946595e-08,0.103976500219282,0
7.02502138417173e-08,0.0946216969040694,0
6.815900830749e-08,0.0903008260085697,0
9.76608880234538e-08,0.101371829059841,0
9.05176472708597e-08,0.0938274206113457,0
8.89720317181003e-08,0.09583852851805,0
6.92598945250913e-08,0.0820675324257126,0
6.29992195952973e-08,0.0776090444007819,0
6.51947321995925e-08,0.0768065506195545,0
8.12210950212133e-08,0.0826568758171877,0
9.71030597208856e-08,0.0889362396795843,0
1.15452874836925e-07,0.0996831418434461,0
1.14180441118383e-07,0.10171148452549,0
6.98780000758378e-08,0.0835674769538103,0
5.84890465939254e-08,0.0818678933816337,0
5.58587922498529e-08,0.0844514603577146,0
2.9083596408011e-08,0.0687306810696793,0
2.90058760355058e-08,0.0714457796386702,0
2.71743479811778e-08,0.0713087975317983,0
2.77871080583402e-08,0.0767301933443666,0
2.55246363638868e-08,0.0745625290651832,0
1.44482524162844e-08,0.0641642256141283,0
1.38101013395979e-08,0.0650233932961567,0
3.12646903006649e-09,0.0532175409426014,0
4.75297003837423e-09,0.0542619664734192,0
3.41969639022369e-09,0.0507999102537283,0
1.38410488182424e-08,0.0620217421481414,0
1.64243192629182e-08,0.0570860314741865,0
2.73899253040088e-08,0.0626583203164765,0
3.12752405774756e-08,0.0636868748322041,0
3.40121230525144e-08,0.0647439472906315,0
4.35450015027193e-08,0.0724247541852583,0
6.79884454990513e-08,0.0888529150035538,0
7.6929453420179e-08,0.091018652283003,0
7.64596144262117e-08,0.0906827904833636,0
9.58974444221437e-08,0.097735027622288,0
1.09503081397151e-07,0.105478008569185,0
1.00171361558136e-07,0.109272849994174,0
8.76738553241399e-08,0.112471219037965,0
8.45729179639553e-08,0.112962564389984,0
8.22021300942455e-08,0.113964198803702,0
8.29163838343263e-08,0.109685335303614,0
5.42179428650827e-08,0.0913260724754688,0
2.75187090162774e-08,0.0731315396992938,0
1.71231695988554e-08,0.0613526337912372,0
1.60912821915955e-08,0.0646340947744001,0
8.11808632989752e-09,0.0522863010701011,0
5.99218445199897e-08,0.0918489225642942,0
6.92857778708669e-08,0.0910009138167568,0
6.61468595141639e-08,0.0921613619013817,0
6.7578883753262e-08,0.091847152133884,0
5.63983334059492e-08,0.0787806471392732,0
8.47923637216164e-08,0.09367574254765,0
1.0006304538288e-07,0.0995831343985869,0
1.01180460367485e-07,0.101533402728502,0
1.02902617218876e-07,0.100882894626905,0
1.03183957933826e-07,0.103981795370809,0
6.25270595404318e-08,0.0893049767901212,0
5.88178635545237e-08,0.0877533343158014,0
6.55763005442443e-08,0.0873702298879248,0
5.17385574794023e-08,0.0831272564883654,0
3.18749886465714e-08,0.0770471283564199,0
2.89265379538898e-08,0.0728063568670182,0
2.84069719885549e-08,0.0708689940180709,0
3.98695664026057e-08,0.0805140468054407,0
9.64798197020914e-08,0.111305543021918,0
1.22368581286303e-07,0.112577611165251,0
1.31979391114549e-07,0.118481286342147,0
1.23451743038862e-07,0.114915537789895,0
1.14589721523457e-07,0.112541283141314,0
1.15332461010926e-07,0.109490413685876,0
1.2633689207068e-07,0.10959871412445,0
1.2099141848662e-07,0.103378756753252,0
1.09042034300526e-07,0.100873075916489,0
1.16289019441758e-07,0.0988193117909286,0
7.50892741388665e-08,0.0828653804475028,0
5.56407531957662e-08,0.0777504428891126,0
4.66498776329134e-08,0.0733222745781017,0
4.49019781061044e-08,0.0756384254609647,0
4.27431804651105e-08,0.0767877286723007,0
4.42633346831668e-08,0.082188203165912,0
3.16898664561338e-08,0.0725026800715977,0
2.77932975540692e-08,0.0766844417108579,0
3.74515132927846e-08,0.0924129996935992,0
1.62910340992104e-08,0.0698396219138615,0
2.32468316004686e-08,0.0758941932591472,0
4.14945903721598e-08,0.0987811568315896,0
4.74359435904852e-08,0.0974133936930583,0
5.16578126942116e-08,0.0974060510207132,0
7.01283933121438e-08,0.113620532003309,0
8.18687413470295e-08,0.116032662503801,0
8.13909544778646e-08,0.121309734452865,0
8.60671888362362e-08,0.119287285071466,0
6.42272718160565e-08,0.102271586495791,0
1.84612963743388e-08,0.0688896919622784,0
1.25092522088454e-08,0.0633968070789451,0
1.73274229579095e-08,0.0622217771029119,0
1.39957862114653e-08,0.0593025223972924,0
1.11548076718948e-08,0.054826918863025,0
1.85647594222618e-08,0.0570173219159962,0
2.81419490350716e-08,0.0622943028517813,0
4.84336481008785e-08,0.0768238729016694,0
4.27300277866865e-08,0.0742960696430468,0
3.78316045986827e-08,0.0684483853971892,0
4.13199481233543e-08,0.0645525932258387,0
4.09566669251745e-08,0.0665651605520321,0
3.2626801372098e-08,0.0627185707301974,0
4.14428940157878e-08,0.0698912246770253,0
4.63058682737077e-08,0.0709668423316986,0
5.35866846359124e-08,0.0743766074810393,0
5.06435794168149e-08,0.0747714243328156,0
3.96321851743661e-08,0.0697121279932563,0
4.11170311326963e-08,0.0691388726615061,0
3.65638833371156e-08,0.0680845484003597,0
3.4082458231252e-08,0.072914814177534,0
4.07789299285045e-08,0.0740309116245431,0
4.33908267909265e-08,0.0772582717895695,0
4.22306480176492e-08,0.0766387884453484,0
3.86316672568233e-08,0.0751464085026538,0
3.35130246241921e-08,0.071855521006969,0
3.4379483691061e-08,0.0717873627181683,0
3.6249063077086e-08,0.0719392581001287,0
5.4562866581612e-08,0.0809146240976786,0
6.88651735020159e-08,0.0840831964034707,0
6.39369281982274e-08,0.0803624765968557,0
4.77707390412764e-08,0.0741052596009646,0
5.5080533497121e-08,0.0742832966110207,0
8.42353091060144e-08,0.0897032000694303,0
1.08314205870949e-07,0.103340537816391,0
1.15090507996069e-07,0.109486106818705,0
1.11650906750262e-07,0.114778592726246,0
1.1297988995251e-07,0.119444923601698,0
9.16411110808362e-08,0.110484064015751,0
8.04550042544029e-08,0.112724714493372,0
9.37744473871272e-08,0.120680361815189,0
7.35955659480153e-08,0.104155405306561,0
6.58506077413209e-08,0.103237637349001,0
7.18934546225646e-08,0.101191521239184,0
8.03686326549132e-08,0.1085073073003,0
7.2045378608638e-08,0.0991450024420957,0
6.75855655952421e-08,0.0930309204061126,0
6.04625813741247e-08,0.0871668178530503,0
5.5795490588989e-08,0.0887893383349655,0
6.29044077743591e-08,0.0867547614266916,0
7.0959403448929e-08,0.0904737595730332,0
7.03668999032432e-08,0.0915757229914782,0
6.63049729959661e-08,0.0922573006299499,0
5.39366724853109e-08,0.0876883466022284,0
1.95640816417661e-08,0.0602495763741571,0
1.69020357969042e-08,0.0624644387105256,0
1.82952350173392e-08,0.0625962555317227,0
3.2315568206184e-08,0.07582640636354,0
2.96378376164635e-08,0.070557775265974,0
3.05108378549551e-08,0.0777700116748269,0
2.15279101672996e-08,0.0721421236382995,0
2.2630132753297e-08,0.0772123537702777,0
3.09066842408904e-08,0.0779932145833778,0
3.63261504329824e-08,0.0827399464491819,0
2.84060576312314e-08,0.0739043184529194,0
1.9227949822579e-08,0.0635540142552193,0
1.67876004610981e-08,0.0637787380025711,0
1.34967581183217e-08,0.0600335662021982,0
1.40143546986519e-08,0.0579984488691394,0
1.38118597190663e-08,0.0559888036389407,0
1.33858395414526e-08,0.0561107213683443,0
1.32005063454789e-08,0.0548478046409543,0
1.49023363302146e-08,0.0602762783200882,0
1.35924139614049e-08,0.0588031766102509,0
2.32862193005616e-08,0.068266535891534,0
2.01492703288632e-08,0.0644655000619377,0
3.33075755670995e-08,0.0743957884131517,0
4.35369129571645e-08,0.0786996231553113,0
4.86066726405731e-08,0.0823055401045649,0
4.73434528304452e-08,0.0845071919709924,0
5.56615724086725e-08,0.0848764674725134,0
5.43164121153153e-08,0.0805747089984129,0
4.35849518842424e-08,0.0724154534704768,0
4.68147432918744e-08,0.0770188236655406,0
6.45600978818429e-08,0.0868653196597295,0
6.37092532246537e-08,0.0849479248427409,0
4.85734744362088e-08,0.0769745556359402,0
3.15182486200141e-08,0.0682398305399669,0
3.07445616539001e-08,0.0701735581730197,0
3.10515747090899e-08,0.0717653879498563,0
1.34925380075974e-08,0.0574379168922218,0
1.04948526897996e-08,0.0571467702460113,0
1.26622312225997e-08,0.0583682279329663,0
1.24990536079284e-08,0.0588852398868424,0
4.87000777579368e-09,0.0504278718646406,0
1.71749362904062e-08,0.0709587124377323,0
1.66539636214966e-08,0.0684565570190132,0
2.04671853367574e-08,0.0693514351916137,0
2.30963846531488e-08,0.0721036296111722,0
4.04783877097586e-08,0.07718669774785,0
5.10742417162254e-08,0.0811342603600001,0
5.49157381733387e-08,0.0850899397324847,0
5.67135053418726e-08,0.0869947971135428,0
6.3814544987224e-08,0.0877418775476769,0
6.16689703598325e-08,0.0851556898204772,0
5.7223013376648e-08,0.0792900729561993,0
5.96495067079176e-08,0.0801582431906324,0
6.34406431770547e-08,0.082328243328069,0
5.42168175022229e-08,0.0742230476425393,0
5.59436868105892e-08,0.0748600636324505,0
5.60877332566439e-08,0.0743009745606587,0
5.84166716950044e-08,0.073183733732183,0
6.53146536793402e-08,0.0732388802885164,0
7.75777327626038e-08,0.0799948304010074,0
7.94233278526794e-08,0.0818525088771937,0
7.67477776535e-08,0.0796067127906966,0
7.99409947681882e-08,0.0820940864502862,0
1.59986296606445e-07,0.104026884491558,0
6.32705445807956e-07,0.193978685997116,0
5.93155341787177e-07,0.177983434522724,0
6.37532971135792e-07,0.187066647788073,0
5.84697747549513e-07,0.170613019829973,0
6.64095754737846e-07,0.184950988119468,0
7.11924238960866e-07,0.189900016457828,0
7.07576118211305e-07,0.193678889453008,0
6.88963108856429e-07,0.191036850538501,0
6.92337298386011e-07,0.188618490158105,0
6.85473428963362e-07,0.20788300454929,0
2.6920557555739e-07,0.145460156662899,0
2.23437068049237e-07,0.146981503712523,0
8.91478696649446e-08,0.0929003795740434,0
2.34291403837565e-08,0.0625682502780127,0
1.70140797366333e-08,0.0567116251730759,0
6.18119617782061e-08,0.0930798905905654,0
8.33781342827389e-08,0.0972094870339544,0
8.58001964977481e-08,0.0956098738901431,0
1.41162352050534e-07,0.120711109873121,0
1.56232156441323e-07,0.112448634736786,0
1.70795406874844e-07,0.113437895232487,0
1.46445930677305e-07,0.105588412482992,0
1.30726862251589e-07,0.100839874324547,0
1.36447433343857e-07,0.0996035104068539,0
1.30304358832913e-07,0.0964266882533298,0
1.32610790014077e-07,0.0974031482434729,0
1.1954110710105e-07,0.0950395547488251,0
1.14467056971739e-07,0.0993209708725536,0
7.35241757415966e-08,0.0813151100338986,0
7.23312911102062e-08,0.0898638458250936,0
6.2963137648605e-08,0.088679904375252,0
5.97975622591602e-08,0.0853570241874376,0
3.57963858667305e-08,0.0697727941049484,0
3.50586401769516e-08,0.0750911649599939,0
2.81045307199831e-08,0.0728182709917832,0
2.53281902096726e-08,0.0734248919952777,0
2.80195658240681e-08,0.0771302822107068,0
3.17394527571439e-08,0.0825564800462922,0
4.53012005806194e-08,0.0994082689103016,0
4.19614049534416e-08,0.088447652623534,0
4.15365804738663e-08,0.0913180833533919,0
2.48949255086487e-08,0.086994984199789,0
2.98639652161051e-08,0.0899977030278113,0
3.19149390280943e-08,0.0826255112784074,0
5.28016737060217e-08,0.100602687578535,0
6.10669012298383e-08,0.0959222272720412,0
6.80863520678541e-08,0.0985678111106485,0
6.23166166856486e-08,0.0930745412825791,0
6.31966504420139e-08,0.0888221300423177,0
6.40187280110993e-08,0.092569952348416,0
7.84413784223233e-08,0.0924123024289023,0
8.85960901877477e-08,0.0929106747120168,0
9.49637449244017e-08,0.0966091511126534,0
9.66002335280902e-08,0.103951717655833,0
7.78478198489564e-08,0.0929481487432339,0
6.01852497643622e-08,0.0900630219956828,0
5.33756790996995e-08,0.0888006201049652,0
5.2908583177703e-08,0.0860196771131775,0
4.17416075198867e-08,0.0804297671771548,0
3.97570301166255e-08,0.0773233417418164,0
1.86663937555377e-08,0.0657941837917861,0
1.97891542137266e-08,0.0722481794571474,0
1.34753058888067e-08,0.0607010332307238,0
7.97966669814184e-09,0.0545678755878551,0
4.86381828006474e-09,0.0502999967254371,0
6.69499465849904e-09,0.0516099900003824,0
7.1848791784066e-09,0.0522392286530694,0
6.98287654507214e-09,0.0560166627398715,0
1.05820683114343e-08,0.0625734802674091,0
1.51774172142575e-08,0.0749307120419742,0
1.41354015412595e-08,0.0759349335751152,0
1.12921019407906e-08,0.0719446098292747,0
6.70828800728041e-09,0.0670147850029938,0
1.10872859003067e-08,0.0670553865254394,0
1.66347621177012e-08,0.0703081582690868,0
1.74534635982072e-08,0.0660684719589864,0
2.52527908980659e-08,0.0726333766337873,0
3.24010957835289e-08,0.0775674327472515,0
3.57687441414868e-08,0.077206450339704,0
4.3780202340418e-08,0.0774930575398719,0
5.58315022005027e-08,0.0816027363961919,0
6.72018168600496e-08,0.0856599520675642,0
6.75112916464952e-08,0.0871703792069028,0
6.39737134967074e-08,0.0893179010898754,0
5.83018846833046e-08,0.0921966307514157,0
5.29384756286663e-08,0.0921128272094675,0
4.11710485499668e-08,0.0814855256208882,0
3.00243997588055e-08,0.0664740469200258,0
2.64094529124062e-08,0.0664194355896473,0
2.50657696578025e-08,0.0678400233561571,0
1.8983464741287e-08,0.0621053460653122,0
1.86669564369677e-08,0.0617862264988473,0
2.9350870087214e-08,0.0665201460156457,0
3.26672440998721e-08,0.0668259001073639,0
4.22395805853489e-08,0.0715416155373307,0
3.79918984710258e-08,0.0696534136795955,0
3.73530440425519e-08,0.0692118374543391,0
3.59307963932982e-08,0.0704591965906864,0
3.45258511980141e-08,0.070612280799777,0
2.88848995280772e-08,0.0672944685118511,0
4.76953397296696e-08,0.0802847968702322,0
3.84367684765414e-08,0.071353605028077,0
3.02013630685094e-08,0.0684102664784482,0
3.22185759947048e-08,0.0689159699366139,0
2.05172639840185e-08,0.0599793109982308,0
1.82767368653312e-08,0.0612697564858909,0
1.33380116199109e-08,0.057245357313368,0
1.22166578652968e-08,0.0542415681792305,0
2.21578320280738e-08,0.0614378751894708,0
3.60433326792784e-08,0.0759587457559554,0
2.98915366061702e-08,0.0707758738893359,0
5.71684332779476e-08,0.0907744686164317,0
5.9782088519838e-08,0.0969524144089026,0
5.48327426624284e-08,0.0976657383044125,0
3.46715153531797e-08,0.0852001588127055,0
2.50657696578024e-08,0.0749075720434811,0
5.07996531784338e-08,0.0926412480478857,0
6.99548060910193e-08,0.105912449596154,0
6.98943178373049e-08,0.103715198102702,0
9.00736916226678e-08,0.109557870191378,0
9.26338921287177e-08,0.111026764316741,0
9.61524094450677e-08,0.112025201672205,0
8.75247447452159e-08,0.106328757316603,0
8.72099948203653e-08,0.106065284601767,0
8.93223009082137e-08,0.105406999673204,0
8.8769466403336e-08,0.103288550151808,0
7.89042542335958e-08,0.0997887005060379,0
6.61485475584537e-08,0.0992202664908739,0
6.55542856332994e-08,0.0969270604890528,0
6.19874480491566e-08,0.0888726520972278,0
6.60269380344162e-08,0.0883253605505979,0
5.76401713217409e-08,0.0868545326000436,0
6.36102212929911e-08,0.0849323490160826,0
6.4735091806542e-08,0.081827650107816,0
6.65646504758654e-08,0.0816854805381595,0
6.62149439671819e-08,0.0814964923133132,0
7.0063684947705e-08,0.0859971344843487,0
9.44232894109817e-08,0.0944143410855479,0
8.66656005369356e-08,0.0895466055002547,0
4.66485412645175e-08,0.0756452310686424,0
6.53826677971795e-08,0.0917471704370613,0
7.25315353640724e-08,0.0960170383910334,0
8.03492201455815e-08,0.106044726895456,0
1.08799729609775e-07,0.126896265704354,0
1.18227808643661e-07,0.125316604354367,0
1.22267298628921e-07,0.123896068358475,0
1.138340403631e-07,0.119965556038541,0
6.9188715324209e-08,0.0974567937687349,0
6.04653947812741e-08,0.0995253980625361,0
6.55788326106787e-08,0.0969427953888655,0
6.21397237111234e-08,0.0966408818915949,0
6.28565798528176e-08,0.101120458298422,0
5.95677068950457e-08,0.0988262736350766,0
3.45730461029469e-08,0.0763155689761283,0
9.71715661849759e-09,0.0555047903790611,0
6.22325661470573e-09,0.0535145350255366,0
6.56733630909025e-09,0.0554261970016831,0
5.67654127037808e-09,0.0541410473704753,0
6.84016646741345e-09,0.0573475699668035,0
7.24874352070038e-09,0.0634689447368319,0
1.93824058750868e-08,0.0780105015188654,0
2.62881247290839e-08,0.077093932596063,0
1.74740718055775e-08,0.0685638881176499,0
8.86694497791712e-09,0.0578941982783005,0
1.76479403674168e-08,0.0678896185555951,0
2.10268423539727e-08,0.0668189265598969,0
2.54013387955598e-08,0.0681497851775173,0
4.64405601409902e-08,0.0782021054626667,0
9.42656682754307e-08,0.101373146889315,0
1.97136282987981e-07,0.1311368223318,0
2.00577079931826e-07,0.122753124089927,0
1.80752617458373e-07,0.117895478896098,0
1.98728601099422e-07,0.122198054711405,0
2.04644070971972e-07,0.125309327285233,0
1.90344647793896e-07,0.118277521118268,0
1.95537423704917e-07,0.125388353919744,0
1.96155810596378e-07,0.125581805896637,0
1.8519955913406e-07,0.131773791403126,0
1.62974697680649e-07,0.125412098817516,0
1.10448386199385e-07,0.110708302110119,0
1.10950298034857e-07,0.130607716854786,0
1.19285649731875e-07,0.127038654652626,0
1.10186176653051e-07,0.118565350546236,0
1.00568825653182e-07,0.113187976749901,0
8.03674369568745e-08,0.104073597113782,0
6.64984650726731e-08,0.0940295446267077,0
6.9860486616332e-08,0.0928946682788279,0
9.08248713315858e-08,0.104397150158421,0
1.01801449660559e-07,0.106734035657217,0
9.42994291612247e-08,0.106626322226315,0
6.44632463407212e-08,0.0884050583057449,0
5.28371929712841e-08,0.0901745348172808,0
3.92629958211724e-08,0.0817313023900033,0
3.4042226509014e-08,0.0790068286980674,0
5.03213739630178e-08,0.0883680599364136,0
4.83283563383082e-08,0.0887141473051479,0
