Activity,Complexity,Tag
0.000110240024896108,0.445250162553944,0
8.18318215839698e-05,0.435463810519141,0
8.74680701279964e-05,0.425552121570258,0
8.43892139942872e-05,0.4126290767883,0
6.33648775954617e-05,0.388020780184404,0
3.4223995980097e-05,0.259173894315786,0
8.77882288744107e-05,0.316133342433472,0
9.13986626820861e-05,0.300043666411801,0
8.60007535264949e-05,0.348913420028962,0
9.48337104175741e-05,0.337240965356312,0
0.000153145853112851,0.453339200401619,0
0.000180559837355019,0.532066766540225,0
0.000194154807938408,0.604871031986154,0
0.000208998401095945,0.615400277169117,0
0.000234676721424932,0.651380899225187,0
0.000253481701259548,0.715959745856307,0
0.0001809606194175,0.468980724876087,0
0.000189454571014886,0.395161189334446,0
0.000173938121602831,0.352875320289012,0
0.000167347414871288,0.369443148526161,0
0.000161006726768505,0.355893149120159,0
0.000160229528413946,0.342140267142433,0
0.000176573793637502,0.325774677828605,0
0.000208641912261124,0.349561480108234,0
0.000195718876418081,0.312578004352205,0
0.000186645627023913,0.266339140539266,0
0.000208346899292504,0.363471139315479,0
0.000191105572132386,0.327940884908228,0
0.000178356324963273,0.301623269875339,0
0.000165203062863647,0.272785030250791,0
0.00020012804054557,0.294337410302001,0
0.000243016524893193,0.328952480502403,0
0.000257616203707974,0.378641719330744,0
0.000231671629312663,0.378898688837426,0
0.000244321655000671,0.415850861794749,0
0.000211094517868568,0.546023316894631,0
7.67295210098161e-05,0.366292967640315,0
6.39349595624987e-05,0.596751775428493,0
5.12764998869075e-05,0.885279548601388,0
1.28903321812322e-05,0.586697339162713,0
1.22963199727633e-05,0.754914951447798,0
1.1755535642911e-05,0.743924056433305,0
1.11454134494036e-05,0.84053985663122,0
8.37655211400063e-06,0.725264157335052,0
7.92346781530974e-06,0.694900499774898,0
6.80665525214356e-06,0.653465000297643,0
7.13552159649576e-06,0.741938996517723,0
7.00276484323089e-06,0.723964091298098,0
6.66057530296084e-06,0.729150501628059,0
3.58954401257481e-06,0.684311848129029,0
1.30168463525634e-06,0.501074367091802,0
1.38863240995194e-06,0.48607641068024,0
2.66360804178257e-06,0.644117589346313,0
1.41842454108961e-05,0.703884886328248,0
0.000181866624032146,0.733711327379378,0
0.000814669462133524,0.946783371403873,0
0.00117852823405103,0.43501312634146,0
0.00112158371677455,0.369527119087666,0
0.00106772874615942,0.323143570219054,0
0.00143056096642776,0.218924740722959,0
0.00184475157749708,0.185095935445121,0
0.00165705225222748,0.14296849956989,0
0.00151902034177865,0.137977627735221,0
0.0013599462859472,0.125952785416347,0
0.00132691521987598,0.12766446310227,0
0.00123860319321901,0.135474635676124,0
0.00122159754411074,0.157362801605156,0
0.00121492204041582,0.162079448357943,0
0.00114234668510454,0.168059494436836,0
0.000854868238350853,0.270520664114952,0
0.000215074716002915,0.199696692446805,0
0.000238765921521171,0.236902609217682,0
0.000428019287783493,0.313537402900311,0
0.000492196910374334,0.331943346256848,0
0.00048409993391715,0.297752901897262,0
0.000524999072142106,0.326973779523336,0
0.000476765667997165,0.275810604111938,0
0.000796854876557574,0.222382349723358,0
0.000967677711713875,0.155604202035118,0
0.000978420076240155,0.152106796402039,0
0.000935801986121575,0.150165513482428,0
0.000941626380429397,0.184236062558844,0
0.000928401395950728,0.151310451754934,0
0.00104655306172269,0.164706119043992,0
0.00119202279513853,0.187431409502361,0
0.0010958194706388,0.158038151434904,0
0.0010143359729255,0.15547253143454,0
0.000960100701806239,0.105445980211882,0
0.00563864122621424,0.0823690924454211,0
0.01726170177513,0.0966264366668932,0
0.0168043509419723,0.0449697787311033,0
0.0164142559378006,0.0443332187536278,0
0.0161167350057539,0.0394755041430737,0
0.0158291215223136,0.0387446407591377,0
0.0154602540562131,0.0377484561807934,0
0.0150888869104513,0.0343162862676718,0
0.0141575227955272,0.0334668694713514,1
0.0130074691509627,0.0329360848791221,1
0.0123926755688792,0.0493478186743715,1
0.00560186974123432,0.0361024589089703,1
0.00545085951211934,0.106174091673059,1
0.00452951483706554,0.0596609685433323,1
0.00652106231053457,0.0620752233675566,1
0.00687206937107193,0.0397037032160155,1
0.00739026891880275,0.0422912964479048,1
0.00788707471189192,0.0539958444069217,1
0.00733523268169416,0.0498292615974498,1
0.00594581646064051,0.0367393337771452,1
0.00613207571314803,0.0489375664960626,1
0.00612063692586933,0.0395779099640753,1
0.00653353572750428,0.0411645513201506,1
0.00669271049946787,0.0626211314833336,1
0.00443525557170251,0.0312973480267482,1
0.00645690445394106,0.0508608518769035,1
0.00650675714471307,0.0361800635955871,1
0.0158163766795143,0.0451795215642144,1
0.017632449981014,0.0355911051138737,1
0.0169438079903696,0.0321587915369279,1
0.0175996000867387,0.0203408488690413,1
0.0302756755611532,0.0297391178140538,1
0.0269049542422914,0.0169301731723243,1
0.0213485304287299,0.0113225263626367,1
0.0198959131793368,0.0121328050474323,1
0.0201452162872039,0.0132164852847989,1
0.0183633762300813,0.0119831443123649,1
0.0161009552842385,0.0137385872781017,1
0.0156656872166846,0.0154615301090073,1
0.0150586989087061,0.0151805961123908,1
0.0135461753257709,0.0226844641408982,1
0.00465673145539328,0.00854515972724782,1
0.0062707277780936,0.0334715933844436,1
0.0065282613601896,0.0242223939181136,1
0.00713920442764916,0.0235142623684492,1
0.00721773781562942,0.0187335802068529,1
0.00694721015486496,0.0178256898921945,1
0.00697950030840616,0.0201093899123043,1
0.00786576552922475,0.0263320520380415,1
0.0083913435230354,0.0166031435976994,1
0.0104011268051069,0.0161668040155695,1
0.0126397328529098,0.0193590991199341,1
0.0111163101946017,0.0136395253202071,1
0.015176513771828,0.0165860640291618,1
0.0167077676114494,0.0121726621769597,1
0.01698500884215,0.0149560880232111,1
0.0183363564438227,0.0170213655382833,1
0.0233368669729938,0.0134813001098877,1
0.0284556093678794,0.0148982918956171,1
0.0276873652598698,0.0176649207498939,1
0.0297606756197916,0.0172115239876104,1
0.0338821119880557,0.0258665109662529,1
0.0313751806534041,0.0240320580983959,1
0.0313215328929792,0.0307556569563187,1
0.0303894028470345,0.0399139900476166,1
0.0232579200464703,0.0342568738953805,1
0.0131819255848389,0.016624379006627,1
0.0120068168490612,0.0242980876374238,1
0.0122128403776549,0.0246862975064469,1
0.00795253484368789,0.0130239610077124,1
0.00719539640063001,0.0208325734335498,1
0.00706912878961192,0.0100139643184884,1
0.0123992981724317,0.0186443715587345,1
0.0134010008089834,0.0125654826212833,1
0.0131579447915431,0.0101249728187281,1
0.0144868329562867,0.012111098465178,1
0.0128768231449414,0.0109024112641829,1
0.0165724885110636,0.0174356753728517,1
0.0164523810511834,0.0195142726607984,1
0.013825067196139,0.0157950494403543,1
0.0136803947598568,0.0172919791650992,1
0.0127568570296936,0.0249069244980191,1
0.0122540516855709,0.0277741375171248,1
0.0078036189885416,0.0276205796945228,1
0.00710733189914684,0.0263166636826518,1
0.00756824195051964,0.0191801505766528,1
0.0107136747912143,0.0224079810536181,1
0.0136318635944844,0.035781349593515,1
0.0148427656057034,0.046041506564472,1
0.0292534914609615,0.0534916228793814,1
0.0393504151808843,0.0367571765625112,1
0.0357148074628574,0.0328646763941081,1
0.0345204327374199,0.036274600551745,1
0.066370984090944,0.0223018029261646,1
0.121941236384211,0.0471794722502632,1
0.119157289233426,0.036204911011705,1
0.12385833240731,0.0233358513423869,1
0.151669251787984,0.0295654712492386,1
0.1563925840611,0.0231512536748643,1
0.156348147840495,0.0275499382916575,1
0.157045934185053,0.0287239343391565,1
0.152206414230236,0.0267237557169793,1
0.150366067364334,0.0252815673753016,1
0.142659766420527,0.0393608209096359,1
0.0980406467620978,0.0185252096121979,1
0.0745663779787622,0.0151464726575165,1
0.0679447048999283,0.0270509909745301,1
0.0447394821876066,0.0163624501190255,1
0.0401206980729444,0.0103941402593743,1
0.0461421051348654,0.00808548067013521,1
0.0444355140406025,0.010818394704967,1
0.046847770023079,0.0116846481663353,1
0.0499297244981991,0.00882261184144084,1
0.0627348009003904,0.0122576178657948,1
0.110387156978017,0.0276992167948736,1
0.106618717634043,0.0190784340833463,1
0.112703309954668,0.0170825180152528,1
0.104883147227487,0.0152657416178289,1
0.109164408122586,0.021958913734246,1
0.108426842955175,0.0243573364327435,1
0.0935097925434036,0.0187033952838498,1
0.0694319721903378,0.0140107256039558,1
0.0449691630231616,0.00681802259761262,1
0.0470900851610152,0.00768272269975054,1
0.0686980672992296,0.0151892565089776,1
0.0874273927806644,0.0316197414281124,1
0.0861792353688897,0.0252854099900926,1
0.0899230350814291,0.0261021589182069,1
0.0894795817663141,0.0290918353889277,1
0.0879356946121069,0.0344099993655757,1
0.083113225556689,0.0331607716493879,1
0.0874766231977782,0.0297561802178801,1
0.0895353683186998,0.0311679313150679,1
0.0796360159682071,0.0325780782438776,1
0.0770936158602244,0.0457708555787626,1
0.0370716031666223,0.0186573695023176,1
0.0333108774815484,0.0245783119954202,1
0.039506977515676,0.0327636503112947,1
0.0430765838065931,0.0342567008257287,1
0.0415259047808081,0.0359622148686707,1
0.0469818346941579,0.0398697810737506,1
0.0697835921885262,0.0650982988140608,1
0.0764467181289553,0.0571209131805792,1
0.0507080635040535,0.0435566362528421,1
0.0517497316833749,0.0502403096510938,1
0.0450694943231381,0.0541260025741322,1
0.0440086277255941,0.0436201452240287,1
0.0348999440582278,0.0326436163483642,1
0.0311008093233201,0.027807271531319,1
0.0265808284026009,0.0214351506271007,1
0.0236767162000523,0.024556966674077,1
0.0234094680176341,0.0250031600579552,1
0.0222589415739178,0.0393119394260484,1
0.0120664885840853,0.0274803325986531,1
0.0107657691055712,0.0308997908651065,1
0.011300978418033,0.0309927295184349,1
0.0131976161554773,0.0363568604565077,1
0.0128979493836524,0.0219386122027802,1
0.0142219050807276,0.0266048002695524,1
0.013924586753135,0.0262185426514642,1
0.0162830530647566,0.0403176472398619,1
0.0158004846690432,0.0358373583688421,1
0.0135920473643026,0.0315756194667722,1
0.0138905273988031,0.0304966961067462,1
0.0158268297530374,0.0333155576764001,1
0.0202680807333172,0.0445708594168202,1
0.0187700155283697,0.0429476385143999,1
0.0171966178385361,0.0657655180737256,1
0.0176397932818093,0.049264441334041,1
0.0171138962865346,0.0460435490353902,1
0.0198519957622648,0.0394825323767873,1
0.0157977956753272,0.0239546331630479,1
0.0152068949993616,0.0247362942472647,1
0.014245911127594,0.0203727398176344,1
0.0170949290571357,0.0254682147347543,1
0.0185317885875976,0.0231871230659797,1
0.0187014349649682,0.0275162381661573,1
0.015099961780592,0.0246078520442634,1
0.0151285571668714,0.0268863625429332,1
0.0235303437728677,0.0187370293496053,1
0.0314144406956581,0.0223353240544531,1
0.0310562322142525,0.0214239728746254,1
0.0314031159378456,0.0221805178431851,1
0.0320170495834546,0.0196327739218288,1
0.0301986222590986,0.0201356448279474,1
0.0232213527782504,0.0145303116461121,1
0.0232544753540272,0.0148670394069748,1
0.0235099950967135,0.0159838408303754,1
0.0224497560133947,0.0148143320762724,1
0.0188791962649289,0.023516313109676,1
0.0137580252742606,0.0254473879359287,1
0.0167396293423192,0.0219060341340969,1
0.027920994526319,0.0366469357897648,1
0.0320370605744334,0.0486258901716798,1
0.0291776276777456,0.044811372855529,1
0.0290500585676335,0.0429601351144859,1
0.0310323276137573,0.0448638425477436,1
0.0313404686741589,0.0362028339242934,1
0.0227569148000086,0.0221968876179406,1
0.0207683362369506,0.0277240720900988,1
0.024333524971035,0.0296220476002073,1
0.0243412128103373,0.0431301686937344,1
0.0233865394478861,0.0310038660582276,1
0.0213730304347134,0.0250992214212456,1
0.023341115823012,0.0245934507977966,1
0.0272542951900714,0.0298149666682966,1
0.0243030323524371,0.0196273042992219,1
0.0237908978531966,0.0219975930558069,1
0.0296041606819734,0.0300502499707001,1
0.0300663920449948,0.0251327141334815,1
0.0316236696915705,0.0256640306524705,1
0.0311881361657825,0.0267103825551845,1
0.0319875251813104,0.0277874012039861,1
0.0330456444045325,0.0219093485444507,1
0.0313321740595164,0.0161140159347061,1
0.0328524032836279,0.0177686872057827,1
0.0404981892645152,0.0358088337774764,1
0.0403647671053163,0.0346908771915909,1
0.0273771293697881,0.018888460693531,1
0.02502790950475,0.0216472435624871,1
0.0301135207371264,0.0247044746005701,1
0.0338274470686375,0.0224657578319461,1
0.0330258472481877,0.0265338796766027,1
0.044631289972692,0.0312140591694571,1
0.0678013116227872,0.0512433278352237,1
0.0699194675455051,0.0548067703675704,1
0.0635486616269638,0.0322901538296815,1
0.0496904143303629,0.024447890290062,1
0.0426236808952838,0.013543594866189,1
0.0477721118805436,0.0124842825984495,1
0.0470805765567229,0.0128660264872416,1
0.0488398559562219,0.0109296498432235,1
0.0728374577989375,0.0190265906630581,1
0.107178213897632,0.0343937015916846,1
0.12836931295004,0.0494159393070888,1
0.131912095249626,0.0314907235086664,1
0.131268411034591,0.0334316171540611,1
0.101534347501905,0.0263251768418898,1
0.108888288739292,0.0343229534691345,1
0.108638447160513,0.0317691736570176,1
0.0909783830780655,0.0277016022639465,1
0.073323078932807,0.0246342835504617,1
0.0739373132860578,0.0271964219486905,1
0.0701261784337662,0.0245149947876546,1
0.0870918144997817,0.0211143428336313,1
0.106036354571282,0.0335927581943495,1
0.0833209570358842,0.0241566221148055,1
0.0944653987965283,0.0251751285896433,1
0.113513596693342,0.0325120436033435,1
0.114817025818911,0.0372786547158844,1
0.118712676980991,0.0306965817380713,1
0.128358880455548,0.0319500594693942,1
0.0984743700187083,0.0244603148118954,1
0.0889707172672177,0.0225910907722591,1
0.0959859607803701,0.0304999361894514,1
0.0911140866868661,0.0293315624957165,1
0.0962988134365385,0.0290385763515658,1
0.10190931599385,0.0249045538055807,1
0.116745083061566,0.021236006692151,1
0.110806873410051,0.0140752564391769,1
0.124608538946479,0.0215022360281142,1
0.135704037615513,0.0271527065143353,1
0.147034221457619,0.0251828874752734,1
0.242053673541768,0.0361841505157984,1
0.304226544922236,0.0448258082553708,1
0.343833778968871,0.046860351771306,1
0.350808607696968,0.0574656630055981,1
0.276397351723826,0.0619686466609958,1
0.120029417212937,0.0368260620384145,1
0.0995226170431904,0.0463205302618437,1
0.081513556001038,0.0351805472391373,1
0.0578205313064745,0.0221235080247177,1
0.0242563947578665,0.00887896311887273,1
0.0273047996158923,0.02625890609182,1
0.02741283964015,0.0263659846764967,1
0.0265067514073814,0.0386164838081484,1
0.0120390143844652,0.0217751028475764,1
0.01123987214346,0.0272039527895359,1
0.0111472119074666,0.0283129169985742,1
0.0108420170927685,0.0270057890505815,1
0.0108501779828156,0.0346877950050114,1
0.00843773946232615,0.0338296207853766,1
0.00665124503597128,0.0352152431242512,1
0.00505698710347826,0.0262739267638839,1
0.00388626861257786,0.0352423936527305,1
0.00280796819071902,0.0575418158999332,1
0.00306552940952497,0.0480434712396584,1
0.00382834665888969,0.0320097747905524,1
0.00438478293215756,0.0327638916489681,1
0.00508818685966688,0.032508228494582,1
0.0212774388167327,0.0604569581658748,1
0.0243473225031847,0.0301442426727085,1
0.023714212838248,0.0261796212735864,1
0.0231480371353782,0.024499790957434,1
0.021810256164632,0.0237781279520369,1
0.0219523740090538,0.0203002605581529,1
0.0217520270123378,0.0189152524683806,1
0.0235336062511351,0.0161813356618526,1
0.024364471904834,0.013421907083212,1
0.0254898014920832,0.0148088421708394,1
0.0157158518902302,0.00797280131201118,1
0.0139741884631698,0.0146671986913762,1
0.0168416914128724,0.0216817206645213,1
0.0177255422587663,0.024532676880064,1
0.0194546497559553,0.020056893717399,1
0.0210240187927055,0.0264849396698406,1
0.0365219834118815,0.0243146133875569,1
0.0838834987198713,0.055293416193897,1
0.0904903393965093,0.033137626116257,1
0.0876275379673824,0.0323405330922711,1
0.0906894233601235,0.0298321980289228,1
0.0945474141017208,0.0329738076994208,1
0.0775244750168493,0.0205791948324326,1
0.0607660666415805,0.0111512754207046,1
0.058085268532265,0.00972812881437748,1
0.057872233926394,0.00462702037417111,1
0.0769077698538433,0.0202343739501175,1
0.0592156471727152,0.0133394247384406,1
0.062335234155016,0.0271378350585187,1
0.065728005360599,0.0311835493432828,1
0.066329660517695,0.035121360217188,1
0.051393107340789,0.0269843187115905,1
0.0468968556333459,0.0331062081502641,1
0.0383618792592088,0.0524079683537643,1
0.0161273411547526,0.0214073911929797,1
0.0137839563426709,0.0446199476848544,1
0.0129714312373613,0.0305665039995368,1
0.0224754159071099,0.0526251398404046,1
0.0345938204872852,0.0844630828656221,1
0.0425400530051979,0.10013862000132,1
0.0470039151454263,0.104842853785516,1
0.0534699373493184,0.106673871567384,1
0.0600224334565595,0.112971875418703,1
0.0647580774369625,0.0454596468347621,1
0.069440384892962,0.0481969429648799,1
0.0549366557665696,0.0399833851217788,1
0.0492468181248203,0.0298040126711557,1
0.0507458759585493,0.0297514564653458,1
0.0512901737535986,0.0314861916683461,1
0.0709655452955853,0.0117515490100644,1
0.134407369745601,0.0209516801028381,1
0.135962558278728,0.0213197670929864,1
0.161628743958665,0.0242481884431705,1
0.205594828786761,0.036890621924569,1
0.291991421677152,0.0514927769664131,1
0.309461840132644,0.0516489018654363,1
0.291693803062769,0.0435551336850907,1
0.261898545180268,0.0387010683714643,1
0.209808362572914,0.0301275220648791,1
0.184520668836781,0.0438444184403481,1
0.193994171328701,0.062573930869688,1
0.17878069201266,0.0633033399288929,1
0.201856746258223,0.0772888323796152,1
0.204623588659284,0.0953395755632978,1
0.140992578633698,0.0660573702855373,1
0.109725783966842,0.0552355866532283,1
0.126031660176043,0.0682704778964314,1
0.176299362622289,0.0459624222814868,1
0.167675242657703,0.034249171905104,1
0.191893015514769,0.032544503852738,1
0.191128517629051,0.0307046133716422,1
0.198562949411991,0.0332900968525116,1
0.157246684426325,0.011227069627991,1
0.242095878584374,0.0224161944859369,1
0.308398212531633,0.0298781891224564,1
0.323496447254998,0.0291229501919258,1
0.363442082781078,0.0359398776641248,1
0.372573833868223,0.0450173941485519,1
0.444667614907455,0.0589835800287107,1
0.393390890260993,0.0610713168240209,1
0.321717619236434,0.0602907454769802,1
0.134857854782617,0.0232225828193752,1
0.0520271876998095,0.0296546086630303,1
0.0603734965556166,0.0274083361866462,1
0.0812482865973739,0.0580835884042222,1
0.0490595119097439,0.0370952906361074,1
0.0436236131262877,0.029106785910897,1
0.0443267786194591,0.0341126540371667,1
0.0432883923984075,0.0432023016945313,1
0.0374261476677795,0.0393030966543279,1
0.0356007484385257,0.0351121121646031,1
0.0353500765043817,0.0364641649750709,1
0.0351258409442235,0.0373820090493493,1
0.0374830897973297,0.0624042747624572,1
0.0350279337035562,0.064076690630293,1
0.0333009543676599,0.0866227188992454,1
0.0264472955206535,0.0977061320146137,1
0.0138637503361203,0.0682843256288277,1
0.00900998507055672,0.0442028807597935,1
0.00717263103842657,0.038440274374833,1
0.006474509740439,0.0328739868243746,1
0.0103019239022137,0.027941143054618,1
0.0128841421067999,0.0185857446976988,1
0.0131715954465353,0.0209593299555146,1
0.013253940145569,0.0187624529814189,1
0.0131059581911382,0.0200624294216176,1
0.0120372655606508,0.0263046919845308,1
0.010169818162703,0.0236649916268833,1
0.01023250345433,0.025389921062209,1
0.0135086969288772,0.0275626501866356,1
0.0166388564735309,0.00414044494113209,1
0.0276266563702792,0.0125496086779483,1
0.0267104361213135,0.0123731410794463,1
0.027143089617856,0.0122833963589619,1
0.0275563839839209,0.0137857099543055,1
0.0341095831787233,0.00426917336427074,1
0.0638846031250191,0.0148892557594778,1
0.0648442569892368,0.0140113753784652,1
0.0811090945659481,0.0163279201046547,1
0.0847418357024604,0.0166747023374814,1
0.0745987993792687,0.0202368814014292,1
0.0745424614818356,0.0209038273054455,1
0.0771656187586858,0.0218775217885156,1
0.0681511680086705,0.0161055387372922,1
0.0567934726596102,0.0104555328343381,1
0.0552200569438311,0.0239331592339385,1
0.0499023826152163,0.0132994567810013,1
0.071020104952536,0.0238091824591716,1
0.0725410217885961,0.0299418289670003,1
0.0681545002240938,0.0339001207860139,1
0.0733269631063209,0.036658551946525,1
0.0761321324828244,0.0454642118101773,1
0.0526663608786792,0.035624566677592,1
0.0519867982171749,0.0461069002138002,1
0.0442903484387421,0.0237512331306855,1
0.0521921126568979,0.0240791735717655,1
0.0707409998507151,0.0690654109257439,1
0.0704610306424419,0.052285365569318,1
0.0683506283894941,0.0574738778180693,1
0.0690162901620212,0.052496487874267,1
0.0672283603466181,0.0621384282928215,1
0.0563389533406603,0.0528587735712877,1
0.0451035513622174,0.0434678291833888,1
0.0365652866883802,0.0261030629387791,1
0.0407694009704317,0.0571208180948772,1
0.0564312296176145,0.0578139775599075,1
0.0564412951760811,0.0491151460098017,1
0.0609713353255334,0.0571165163524978,1
0.0602368442970575,0.0414347911271233,1
0.057299307921914,0.0352539311268682,1
0.0579899451937093,0.038013345734433,1
0.0563363329050299,0.0359284742444282,1
0.0442426807445322,0.0214356875997046,1
0.0305764089594851,0.0124281593781282,1
0.0306383355502396,0.00499837764624662,1
0.0305751026074196,0.00403014204310735,1
0.0479590011056414,0.0141473330171335,1
0.0548358081299102,0.0125627559605306,1
0.0511629134209137,0.0145613508102941,1
0.0483772278341047,0.0156248741095908,1
0.0591567538928644,0.0213468890174509,1
0.062563371711662,0.0185132928228051,1
0.081077416097826,0.0185630774588896,1
0.0821329819869237,0.0116693571938962,1
0.0587757160636504,0.00769734092661499,1
0.0759379483701391,0.016294001211444,1
0.0944978731639172,0.0226475787875317,1
0.108503371642056,0.0298032697200737,1
0.110559486137713,0.0297059667007196,1
0.111025629487325,0.0219918949151891,1
0.146300752706003,0.0262834213298687,1
0.195945473557603,0.0391579990775334,1
0.332554742943092,0.0612986521065627,1
0.488151122063231,0.114969345750746,1
0.601964293157955,0.154278972374786,1
0.55853208406958,0.0657532976218247,1
0.471053678657892,0.054613179491108,1
0.364232315277926,0.0392215916856998,1
0.324959831451649,0.0367469337954365,1
0.33591896614515,0.0420389429254608,1
0.348085502841577,0.0312589463909026,1
0.361579307524192,0.0242765264796494,1
0.403572782826635,0.0308498017201356,1
0.318367170259419,0.019957644763068,1
0.2300373710976,0.00860477001695633,1
0.222401656821895,0.0151614091475745,1
0.268108398170075,0.022359844067131,1
0.284535768072373,0.0247791465186641,1
0.326783082250198,0.0270635954214638,1
0.375160495859312,0.0300950007293434,1
0.260100666468762,0.0394631035514414,1
0.134718175214693,0.0381096692910306,1
0.14491205725329,0.0467739192252655,1
0.0762471197024191,0.0455496559172841,1
0.0369146038882493,0.0653922654575767,1
0.0282560056831163,0.0396223842368482,1
0.0304731996074591,0.0373371609495311,1
0.0283690669163066,0.0181963000934224,1
0.0311968694466278,0.0239613754331011,1
0.0526373411543893,0.021635073120256,1
0.0934942245738268,0.0283038524745117,1
0.094300541726687,0.0239714687766624,1
0.0916834849445142,0.0247122149526563,1
0.0794708586113455,0.0223113480803127,1
0.08192127740007,0.0247071224978744,1
0.0742025893492558,0.0257246229362254,1
0.0646658529501137,0.0202730756561871,1
0.0677903137183449,0.0228775300803318,1
0.0728458659566023,0.0221311813947482,1
0.0627298034735414,0.0294993037880373,1
0.0310691188374424,0.015357139784082,1
0.0383709164856095,0.027164636224289,1
0.040501207904583,0.0287964470190808,1
0.0405401910251777,0.0255026935788819,1
0.0445690180193887,0.0275575720651535,1
0.0439891202824793,0.0261946367787994,1
0.0446804446047831,0.0273708819385792,1
0.0478737243182333,0.0438627449788529,1
0.025906436878871,0.0304785506293786,1
0.00859450241405549,0.00900490851149487,1
0.00831034793175606,0.0220374792131601,1
0.0087362496217166,0.0240420326105825,1
0.00916797572456202,0.0298408442612471,1
0.00731735181498449,0.0327739588143558,1
0.00796439433200051,0.0197019273549711,1
0.0209462102130039,0.0371587954528947,1
0.0240203137142093,0.0262898271251511,1
0.0236195633774562,0.0237588480327832,1
0.0250912965851492,0.0252101033388445,1
0.0489098856793225,0.0412723248461243,1
0.0508427587910396,0.0199698746075119,1
0.0483308709878394,0.0191071231839368,1
0.0451263669024499,0.0159447046480043,1
0.0417701077295091,0.0147769943998848,1
0.0369575242487766,0.0135399601535448,1
0.0343889579310026,0.0149000949995621,1
0.0355507003693192,0.0205699772152738,1
0.0335066883921875,0.0154969834473314,1
0.0436234890626835,0.0163283841878821,1
0.0421622369711668,0.0179087414196962,1
0.066743845844392,0.0550082706517859,1
0.0674287344887838,0.0345416283266441,1
0.0616273544620778,0.0330805724802689,1
0.0712379189648192,0.038180540790489,1
0.0708154661081525,0.0286764321178581,1
0.0693093992174595,0.0298934616063792,1
0.061488850168741,0.0249849247277437,1
0.0547814986046561,0.0227557430544425,1
0.0532234271676545,0.0279227964053412,1
0.0559569593604525,0.0277538461309935,1
0.0420021856415303,0.022476566235496,1
0.0375940718787361,0.0252153479582894,1
0.0449473166479598,0.0337732558852779,1
0.0302013392523507,0.0229588538184952,1
0.0231190983128311,0.0244364314631615,1
0.0240607909182043,0.0204298263516789,1
0.0257605001574846,0.0211720558680044,1
0.0249369926013281,0.0235290606309011,1
0.0220949148991186,0.0218112987526951,1
0.0250418841494923,0.0329741970956466,1
0.0237986996646285,0.0293913617057424,1
0.0271471947839077,0.021598609391516,1
0.0345935843120102,0.0300354039564758,1
0.0287396353530778,0.0206687120436415,1
0.0281050215559246,0.0186159504323652,1
0.0299280109423695,0.0111717220709881,1
0.0484664543961481,0.0245534001618077,1
0.0624235104614169,0.0229743567083345,1
0.062124528194813,0.0191859741041223,1
0.0638953135846974,0.0169378393598325,1
0.0576037067109753,0.0171851727228223,1
0.054075499924653,0.0168709858952926,1
0.0605819070790639,0.0177057203738378,1
0.0680937815946168,0.0221572692015861,1
0.0641285232479943,0.0218367416357541,1
0.0588446820477163,0.031433448940194,1
0.0553570404619651,0.0392754125222296,1
0.0469871991875308,0.0225756345178861,1
0.0608800608681916,0.0327300160389968,1
0.142119390043026,0.0481388021466415,1
0.15539009661923,0.0358558135913109,1
0.221207848116239,0.0422783961133579,1
0.219417318213514,0.0410510782483593,1
0.213505949595379,0.0397973391839715,1
0.216681186869815,0.0291739007097694,1
0.324943361383458,0.0376169927446026,1
0.24435391019401,0.0244229305849939,1
0.243701637847849,0.0251253409793859,1
0.201775717010806,0.0182912995546982,1
0.216720314346591,0.0213201110299993,1
0.17329296732477,0.0135443637826621,1
0.206026267220083,0.0189801359604464,1
0.171001543840716,0.0124422982358273,1
0.198984033223355,0.0122036134978088,1
0.186570940143415,0.015434921496657,1
0.149884506080632,0.0117685058430153,1
0.170057489319069,0.0172588349190537,1
0.149647707404031,0.0153222666541483,1
0.151451250757634,0.0167652816057891,1
0.11582066567457,0.010841758041432,1
0.08174430245237,0.0091909033355483,1
0.121663334830353,0.0191923997057149,1
0.199627295319308,0.0432431643144538,1
0.234668926167305,0.0721050945741185,1
0.277628173156,0.0559842323179631,1
0.311262998792656,0.0390951291459204,1
0.330577229058705,0.0180946091430877,1
0.392194684122926,0.0203679061069602,1
0.356756560495332,0.0101909163720995,1
0.348688645562899,0.0104321918520847,1
0.385391061087933,0.0118908846716769,1
0.43295150482776,0.0176091679136212,1
0.421405154451726,0.010760362956418,1
0.382474236422868,0.00979944574101728,1
0.32211190821856,0.00770152598646701,1
0.313185772297586,0.0109773922499035,1
0.302568764732068,0.0147408134423413,1
0.186969047437167,0.00864292209247212,1
0.167188476066812,0.0148281105479499,1
0.176347613416172,0.016142665783938,1
0.176671641577195,0.0129631413411975,1
0.224033123142813,0.0189216490268649,1
0.258962613228724,0.0478093703901782,1
0.270696211995852,0.0473958725129306,1
0.30528816949179,0.0559294205053092,1
0.321800911298133,0.0587252452312855,1
0.383226244264225,0.127640680383129,1
0.314167242093783,0.0928891743424773,1
0.229426028837679,0.0735919834226223,1
0.119712861136722,0.0431621366732028,1
0.0672689224684421,0.0311381360105191,1
0.0649226448495342,0.0346793362141675,1
0.0630368893639809,0.0336573593409068,1
0.0611289351020334,0.0330515340769173,1
0.055554755162856,0.017208800997175,1
0.0342718306543718,0.00269526783931475,1
0.0325748697758328,0.00861203692387877,1
0.0304072862425186,0.0129100939163632,1
0.0221775217693925,0.0088314677647886,1
0.0208453084549321,0.0110734522801331,1
0.0211663000026916,0.0120325796093673,1
0.0220000101672048,0.0102963240181573,1
0.0222847194349782,0.0094809168759431,1
0.0234798890168441,0.0090931908761121,1
0.019609574021331,0.0214230337037399,1
0.00984520996492865,0.0225665361853672,1
0.0108945072609907,0.0210453468194691,1
0.0124926762775966,0.025015228209323,1
0.0128425358330483,0.0247542266396603,1
0.011068408225711,0.0205735969635447,1
0.010839394487291,0.0216811180945568,1
0.00962774596863453,0.0269819184326008,1
0.00585531252583583,0.0131450057347467,1
0.00588567049029693,0.0171561791089882,1
0.00564910695920451,0.013077828391746,1
0.0166042641067334,0.0315882458672335,1
0.0176559192846356,0.0270923298860992,1
0.017957739344954,0.0256028392588248,1
0.0175814726489366,0.0206130658794358,1
0.0178985229909042,0.0208178412781287,1
0.0174007753818937,0.022044989065019,1
0.0171521311789052,0.0235487783433228,1
0.015846444208992,0.0236604233495938,1
0.0223498606013175,0.0245542789194723,1
0.0315704512950549,0.0235134140534248,1
0.0299881273802251,0.0241900779161037,1
0.035762989241797,0.0267153802531572,1
0.0407334215693105,0.01479760693619,1
0.0393574037739496,0.0123593527129086,1
0.047797500857349,0.0128701347279456,1
0.049990330999951,0.0085611630354308,1
0.0473130093374753,0.0060900047711375,1
0.0636993422932091,0.00799326128609053,1
0.114205762039522,0.0226026283085221,1
0.121569762422847,0.0209148199742129,1
0.104265629505945,0.0183112197077863,1
0.105557828504583,0.0184213375133528,1
0.107164468765879,0.0189342975449989,1
0.0873902899689111,0.0131314355873662,1
0.0862832603517779,0.0149369000186855,1
0.08460002111716,0.0182897532470904,1
0.0735439530445804,0.0159073666765438,1
0.0733630023668742,0.0186895174769211,1
0.0612521632233244,0.0152540255791124,1
0.101377406306905,0.0338727697415321,1
0.105630128962676,0.0180703802526039,1
0.106260070091271,0.0200577508774298,1
0.0825211396813964,0.0147124848285963,1
0.0829166535287827,0.0177115650166862,1
0.0784163859579923,0.0164556501632587,1
0.0823017058923728,0.0142940906751146,1
0.10123677102237,0.0187041037866759,1
0.102032780196384,0.0164519370080778,1
0.098814360763785,0.0153292945976534,1
0.0922456908631854,0.0137888879763522,1
0.10696610861862,0.0358243874549467,1
0.120353786862847,0.0380992167122097,1
0.139136703343745,0.0323426728145382,1
0.13187001229985,0.0344654381283392,1
0.126627681204674,0.0349880800432285,1
0.110607298556893,0.0385130911226716,1
0.0567514565232808,0.0138330389041153,1
0.0688878782230768,0.0231874044314829,1
0.0722806945326273,0.0262463362917648,1
0.167437393010473,0.033057522880607,1
0.244399994589038,0.0184264708988719,1
0.248851854645236,0.02130479802542,1
0.262206879316695,0.0155978358876969,1
0.333497217657357,0.0212095868506537,1
0.339014649545024,0.0139140906276301,1
0.335400487590083,0.00952783346267914,1
0.339619994354038,0.0110243398066102,1
0.337313765478153,0.0107711690202153,1
0.344082236469144,0.0105885835959499,1
0.326105517603196,0.0134788317845932,1
0.245213681529919,0.00895398359337979,1
0.232251464959975,0.00514610390893901,1
0.21175690650395,0.0088875563561153,1
0.235771145648579,0.00662287837544374,1
0.337943196371599,0.0228057729608494,1
0.500856135436385,0.0519118240444452,1
0.582089619311521,0.0405709557898776,1
0.579993814032016,0.0396767434589368,1
0.564927660679833,0.0417721150670186,1
0.43628547975123,0.0393952663457933,1
0.341621139143019,0.0306857877828264,1
0.426751026734392,0.0412469604057703,1
0.311145345701599,0.0249156756701264,1
0.342897345686601,0.0410508736938034,1
0.413348542612349,0.0488719081972121,1
0.388712811348674,0.0453443080558373,1
0.442454500341492,0.0628959313679554,1
0.474835505484291,0.0496192871753666,1
0.507225892258518,0.0369456160714849,1
0.714834775333156,0.0492884153899551,1
0.684827167576371,0.0587454914504049,1
0.385587996816474,0.0343687050828498,1
0.277236820584282,0.0279696780047118,1
0.249602756986774,0.0243123352409439,1
0.236730847716153,0.022150619776105,1
0.189286175875098,0.0165670965217059,1
0.189810455130917,0.0161288087700012,1
0.132721947245528,0.0213289580866676,1
0.0230535091779957,0.00802213885563833,1
0.0236688557896766,0.0145403960367666,1
0.0204070509176603,0.0214000720322518,1
0.0232036236281384,0.0361118652028004,1
0.0194768399339205,0.0318042311340934,1
0.023774101136212,0.0446816525299703,1
0.0226381331591235,0.0433565851935357,1
0.0169148482440841,0.03171825460525,1
0.0162809624587213,0.0378428128738038,1
0.0178943046524542,0.0442407768010242,1
0.0206815775618709,0.0516219111161835,1
0.02202829857184,0.0544495910939029,1
0.0230644612707073,0.0547464322087141,1
0.0265475001787127,0.0626095732151698,1
0.0247243764328414,0.0840487941407964,1
0.00893346135223777,0.0548801822954401,1
0.0035890545241088,0.0320939201736374,1
0.00255292337597856,0.0257755093862876,1
0.0028170020110951,0.0242574290924249,1
0.00283667446327102,0.0205023428234728,1
0.0104524921813431,0.0261080078685698,1
0.0279627842832204,0.0360641557617634,1
0.0291128331186185,0.0245719026949225,1
0.0271221578080851,0.0206532285848392,1
0.0271902883397896,0.0218033612692721,1
0.0284529047327332,0.0194655898511518,1
0.0297503329282082,0.0200418386997473,1
0.0299569510834296,0.0198017708757096,1
0.0281127110784008,0.0180069351152896,1
0.0285297252960405,0.0186790946533584,1
0.0246887033310586,0.024839066501355,1
0.0123150012988359,0.0155376905792044,1
0.0217067135618449,0.0566504275593269,1
0.0219299030534268,0.0478399854504941,1
0.0295993434891226,0.0367405032268413,1
0.032878843853737,0.0260000300230482,1
0.0277304880727946,0.0213757978007017,1
0.0248046887110426,0.0177787690920673,1
0.0243677327441915,0.0180981623354544,1
0.0193295917212725,0.0126466842488533,1
0.0218007462454963,0.0136213846853561,1
0.0271816827276459,0.0201188973224101,1
0.0235611563261404,0.0152849744286499,1
0.0231152506758174,0.0176567431570003,1
0.0187552926400371,0.0236395576717362,1
0.0124936579438454,0.0214572175159194,1
0.0182950434452814,0.0311110331308497,1
0.0411183720534314,0.0575649762257705,1
0.0449817035909469,0.0251553460962147,1
0.0474238882893365,0.0124597609195111,1
0.0847414572991104,0.0274612673805506,1
0.0901844102985413,0.0196998547400721,1
0.0876999689314227,0.0170930524877588,1
0.113043400926911,0.0233640722274282,1
0.103812274007101,0.0213077791815959,1
0.0850778751023372,0.0152179774868944,1
0.0803784553034105,0.0155258341017603,1
0.0875907192147803,0.00899094484910408,1
0.141995446364147,0.0231984656804609,1
0.1066661713317,0.0113315096003894,1
0.135796855827887,0.00899918812142325,1
0.193415150030893,0.0164672757395299,1
0.174118108466619,0.0124747420161553,1
0.190718288262923,0.0117598967829922,1
0.188316952947185,0.00999698029536271,1
0.18023182224413,0.00903120718529244,1
0.162262695571056,0.00671897091597094,1
0.156005444083391,0.009632147659979,1
0.187337791624257,0.00761658159285091,1
0.220108802689155,0.0141977797122252,1
0.266377708800468,0.0231571378647465,1
0.45263971262799,0.0447661951316563,1
0.461378547300156,0.0174658073860899,1
0.557211590443677,0.0242636974301398,1
0.654300628990272,0.030863086089973,1
0.672036422950844,0.0167159800322939,1
0.664678886045894,0.015557696591933,1
0.64264352647401,0.0146898216229475,1
0.647321374529599,0.0128405716518596,1
0.667695050174087,0.0136180893623241,1
0.645698546101113,0.0123569146105043,1
0.558683833996606,0.00859897903919983,1
0.51867789697024,0.0163349288487571,1
0.42347664239284,0.0105702539634004,1
0.323084192685112,0.00421348862365753,1
0.27609629705327,0.0101748105246394,1
0.23718237771079,0.0107156603840286,1
0.241915878729943,0.0114074022292194,1
0.232480335195383,0.0190980228370114,1
0.21876437407389,0.020129957023114,1
0.206019711347184,0.0294462799300713,1
0.15798344734914,0.0299606867337107,1
0.15955938438709,0.0265633029695948,1
0.241174449231846,0.0367331633756692,1
0.250263345818976,0.0426368987003871,1
0.362347909112043,0.0411544728849118,1
0.594787705009476,0.0620585030094363,1
0.600126888609051,0.058700450241068,1
0.506241447854026,0.0528549892868533,1
0.466955294727576,0.0528335897020492,1
0.454390712571044,0.0527991809862678,1
0.320935265518092,0.0375752322815151,1
0.133705276017903,0.01436875524552,1
0.109496191879202,0.0178512333485733,1
0.0555480376536646,0.00554798808550966,1
0.0248644003688678,0.0153692247011313,1
0.0215153873953202,0.00904430710057182,1
0.018854417003227,0.020200281935277,1
0.0126614262881797,0.0194090757366446,1
0.013074302521662,0.0152845273336259,1
0.013682770697687,0.00899477819973248,1
0.0157991573971382,0.00209630790568516,1
0.0460046969998355,0.0182106096052353,1
0.049490352889972,0.0116479447765025,1
0.0510281553611071,0.0120675735751342,1
0.0514118994969444,0.0105289694786415,1
0.0510291518603398,0.0114723293011543,1
0.0511100405763872,0.0147978443848966,1
0.0587350469691223,0.0111023560732254,1
0.0664170181334098,0.00595070228400125,1
0.0743584623481015,0.00956218488059964,1
0.070578371583761,0.00958311448363122,1
0.0503323328487927,0.00462004329923976,1
0.0526209271082047,0.00924998600451746,1
0.053947687233668,0.00569628027560098,1
0.058473743604658,0.00823249640832838,1
0.0618289287837947,0.00812887918640544,1
0.0641334903701457,0.00319703086166667,1
0.0646176193829034,0.00537638731359411,1
0.0552216894272842,0.00849154489257008,1
0.0525666933954948,0.00409741761729976,1
0.0588259906313158,0.00635023120061104,1
0.065351436163909,0.00643430769670295,1
0.0631653272339855,0.00103908518647071,1
0.0742573696749071,0.00547060598037548,1
0.0736823248116571,0.00233140912992925,1
0.0696362050155319,0.00162645531719452,1
0.103460269185925,0.00547028986532913,1
0.156140250789651,0.0151111322873357,1
0.164483855058475,0.0170465668680008,1
0.172150891090543,0.0232550841703523,1
0.224235663524897,0.0330465207518174,1
0.199147653284269,0.0176885208648204,1
0.15806870958933,0.0177773651083098,1
0.167571930761883,0.0190052153178358,1
0.171655264379881,0.022226812139088,1
0.135636733367127,0.00931009925219465,1
0.140165139945794,0.0141023723225828,1
0.140541094057691,0.0140561501278279,1
0.140112205481142,0.0132200632133333,1
0.141020654061455,0.012241059435539,1
0.103171781470385,0.00397643488606425,1
0.113263957250692,0.0175218247892706,1
0.19981201566058,0.0321899202730573,1
0.199956265022093,0.0266990310972193,1
0.16822246238383,0.0218762404725031,1
0.162813890389147,0.0275920407264587,1
0.162928399978406,0.0312888847634002,1
0.133923881373256,0.0246317361143746,1
0.112925619207337,0.0188764113770144,1
0.0869231750745685,0.00441153051309627,1
0.147681983095809,0.0126496380129713,1
0.149794597100421,0.0104274475272527,1
0.153525112894233,0.0115602238049513,1
0.197712632751843,0.0195210002496136,1
0.26351173445494,0.0216916625331789,1
0.226830130711654,0.0203864991101459,1
0.206375673332997,0.0191152409988063,1
0.18131810688677,0.0155613594309866,1
0.164281932345918,0.0108305100881161,1
0.132613669355024,0.0134731139956969,1
0.110125190515532,0.0161974303498754,1
0.103217542709337,0.0175803288829243,1
0.117546135604428,0.0195921146509361,1
0.109380203461753,0.022900044401778,1
0.0905056224785353,0.00515131566843625,1
0.179862385415981,0.00754367140628643,1
0.207088752768262,0.00501666277831172,1
0.357585262704387,0.00780516323634589,1
0.453165906459309,0.00856426083702099,1
0.484786631171398,0.00676002824848868,1
0.624838094584082,0.0100560018475181,1
0.596666466155687,0.00976088861431935,1
0.672887690902364,0.0110529822781363,1
0.642772867387308,0.00554722685377258,1
0.623351766750765,0.00740002629924217,1
0.917913782317221,0.0179027108910247,1
0.834835943547771,0.0154579135938849,1
0.98089793209845,0.0257545347606535,1
1,0.0200237782863172,1
0.982032826119118,0.0245402913162386,1
0.825914465125921,0.0184629742333484,1
0.866310363719235,0.0128463912987634,1
0.752122168423158,0.0112236747470003,1
0.483848682029278,0.00611927042789341,1
0.484018122279891,0.00609189964197094,1
0.447342594143979,0.00475415996216877,1
0.488909423475749,0.00873625805963856,1
0.497110397489192,0.0117509256543696,1
0.608870216562296,0.0334825370550285,1
0.608178050609725,0.0315455074576438,1
0.606472620196962,0.0324101864118695,1
0.589677070328132,0.0611063357957751,1
0.283910321070916,0.0364356628620665,1
0.188227389250169,0.0230801048358178,1
0.125367698271718,0.0122594702113072,1
0.117564129202961,0.00735769759755252,1
0.117061925621123,0.00380835542685393,1
0.127371734006608,0.00646884543180837,1
0.12809095294724,0.00481963050302321,1
0.119197478841518,0,1
0.123901157688125,0.00614907854010262,1
0.108338191443202,0.00735196289361765,1
0.127972311728556,0.0123394254241916,1
0.127895630338428,0.013520304569003,1
0.134838362723147,0.0156496524894741,1
0.102469390032604,0.0170871815104749,1
0.0770631801133621,0.0186906807406302,1
0.0787474501005687,0.0163198077183999,1
0.0592838012014256,0.0240072134023678,1
0.0334591196084649,0.0276446256204473,1
0.0346314600101748,0.022842436904298,1
0.0390548863498702,0.02585192106718,1
0.0378112044161532,0.0291975615511018,1
0.0339013730671778,0.026360927085527,1
0.0319175334434918,0.0275634342258222,1
0.0312345433827279,0.0155681086835308,1
0.0545346561265419,0.0199517997155438,1
0.0519253186348721,0.0131519267140447,1
0.0518250838046775,0.0112072577219084,1
0.0511356109717654,0.0128598396457716,1
0.051183193509626,0.0147954867504433,1
0.0436653460068666,0.0110846230619099,1
0.0432196564701937,0.0111919922441136,1
0.0470334408282412,0.00569837332871439,1
0.0602470205564848,0.0117150267183388,1
0.0837342819355345,0.0226386832033865,1
0.0994640756542361,0.0352640952809728,1
0.102271027993007,0.0409920775518677,1
0.0955693205945071,0.0375471735243522,1
0.0942701615098834,0.0369415499232346,1
0.160617104114425,0.028901806475119,1
0.27729487443972,0.0423728417270538,1
0.230013982844338,0.0295560532720287,1
0.1968879986703,0.0271758425228079,1
0.216073969050453,0.0262220943167056,1
0.221190326688907,0.0223935702916131,1
0.239458251723208,0.0194474995570795,1
0.252041751234765,0.0153902451144674,1
0.218074237107687,0.010344068936352,1
0.199213768729837,0.00693827574997819,1
0.181802977659493,0.0108122209187932,1
0.139921494687928,0.00620509548329502,1
0.145098228584447,0.0071057628532358,1
0.143985979814248,0.00834442126517246,1
0.232898356994736,0.00622370632214955,1
0.501932102803619,0.0277581217954977,1
0.560537547452845,0.0174801825346127,1
0.570142447201109,0.0217595367471589,1
0.537231392879808,0.0216885446614518,1
0.542193067604282,0.0234159870737314,1
0.538336586790257,0.0240008199731996,1
0.483370032957638,0.0215267402784137,1
0.431148092153948,0.0191976117529093,1
0.408891012394142,0.0171936414117083,1
0.365720680818282,0.0379398002215714,1
0.192976113562095,0.0168124654620028,1
0.162432789052974,0.054496739000508,1
0.223100683655025,0.0755317531333683,1
0.297014097813712,0.0623331034203623,1
0.241721486751366,0.0382975957811902,1
0.224452970804152,0.037423794564611,1
0.202895729073924,0.02326288447596,1
0.226643400719297,0.0237591475132926,1
0.34891267776176,0.0119711782350821,1
0.519219447910208,0.0219872346324375,1
0.663511736326407,0.0253646473497776,1
0.633913068754397,0.0178499656001402,1
0.672189960476836,0.0236932970629986,1
0.707515415038131,0.0257469475055706,1
0.694112451174847,0.0273211204153347,1
0.703334084468983,0.0274669731289946,1
0.682617859296251,0.032572262595906,1
0.586345449411006,0.0299665088428434,1
0.49950675711921,0.0699417073612212,1
0.335096813620997,0.0526950066446623,1
0.0861916271880501,0.0154068881040634,1
0.130842079506203,0.0146051093304515,1
0.311340422137005,0.0238541377092094,1
0.298052337343835,0.0174643053586188,1
0.305484125086805,0.0159191248235287,1
0.299330816088392,0.0147552973826072,1
0.290659766779408,0.012094250705512,1
0.373944275739816,0.0176712557534916,1
0.436897221947384,0.0100026583953236,1
0.455651602210644,0.00955499966209697,1
0.426817262172893,0.00821153797367568,1
0.397626360190625,0.0133461068490983,1
0.268035982939892,0.00817460207178722,1
0.24792766135269,0.00893188809121349,1
0.304033478226901,0.0116436480004622,1
0.542709091843734,0.0264884855784896,1
0.725641023688264,0.0377958627790463,1
0.495427309125571,0.0235162898132943,1
0.464230270960432,0.0498959124631797,1
0.445857796496869,0.0601695775733961,1
0.379682871799718,0.049335177238324,1
0.311081372586121,0.0421503994655438,1
0.320583149261818,0.0452537747384163,1
0.190417403381927,0.0275573516187312,1
0.145431573968149,0.0385636010172006,1
0.140800350781153,0.0452972940781302,1
0.155950021152287,0.0461487818018593,1
0.164277944481878,0.0616145738038309,1
0.154325282841188,0.0558782481532541,1
0.128143550045049,0.0597013839269824,1
0.0651749978482208,0.0400244445142438,1
0.0352015256440726,0.0159308114961014,1
0.0291474185405752,0.0335541424812243,1
0.029759659781834,0.0364116531461351,1
0.0278822696718819,0.0393511971612075,1
0.00663142529817171,0.00965665426075181,1
0.00455728996771092,0.0250653239225768,1
0.0080019534590858,0.0245451709105765,1
0.00835384360793718,0.0189708436955508,1
0.00761380812455379,0.0125210987249446,1
0.00981490173654595,0.0181359485463598,1
0.0106922054891529,0.0225350250919912,1
0.019785744293133,0.0318723872771295,1
0.0264746249026474,0.0360730852561745,1
0.0299628176710687,0.0408512207658741,1
0.0337405598723753,0.044820205630222,1
0.0276989906090455,0.0372396738943505,1
0.0340452799345777,0.0438440653659783,1
0.0256150394564213,0.0405595142605895,1
0.0138337493366174,0.0242050801423435,1
0.0119119195479735,0.0175171302838345,1
0.00870058486218282,0.00857680551097877,1
0.00977881475426433,0.0246366505502503,1
0.0160107131060156,0.0438697631218217,1
0.024115345279086,0.0639627926491776,1
0.0231219128920945,0.0562683587729049,1
0.0249752212967568,0.0662349629333104,1
0.0183322951506066,0.0696875722394626,1
0.021305879812005,0.0747397029974903,1
0.014158627968527,0.0521141515943779,1
0.0107146364226718,0.0390553507974642,1
0.00839078967054292,0.0252690480789139,1
0.0115096488066415,0.0136111303705358,1
0.0176496961657326,0.0267181954436964,1
0.0220140677672582,0.0339463528241133,1
0.0230356291454192,0.0294857868600197,1
0.0266118528516125,0.0328922557698243,1
0.0296133624378718,0.0355019669074986,1
0.0272222324610902,0.0306240260526161,1
0.0351110382323059,0.030592530578114,1
0.0451219443731561,0.0404311446652304,1
0.0392338096454861,0.0377428000268714,1
0.0449294283063896,0.0356166699758103,1
0.0996402911728884,0.0566273882097411,1
0.125495077482942,0.0206223396939063,1
0.128115448438767,0.0252134270044577,1
0.115973736020858,0.0240485969852228,1
0.106132124807056,0.0218478033415944,1
0.0991686639146931,0.0215212643269134,1
0.101879080257303,0.0165120920172863,1
0.118629590625198,0.0225796866014379,1
0.130009020346041,0.0256975735065927,1
0.154389525112195,0.0359423259705492,1
0.181225540289047,0.0434596619211721,1
0.197503183988562,0.0429998199113544,1
0.183054031965736,0.0406066294153014,1
0.157586795977368,0.0352818910565555,1
0.131317273941625,0.0300338952872313,1
0.114084945744657,0.0235020700648517,1
0.101413173517807,0.0266939359073727,1
0.120902281708406,0.0275172348907082,1
0.124898099343961,0.0167015027154253,1
0.129649931549579,0.0178034576080803,1
0.0902028287020346,0.00964310477191676,1
0.0696469498342949,0.0184203774900293,1
0.0638726098772504,0.0164317583825375,1
0.152326424047227,0.0048908364768294,1
0.3591555550621,0.0218751053419654,1
0.356832243389995,0.0225445397580187,1
0.390763027927045,0.025894466861639,1
0.317831343700803,0.0188140798718431,1
0.274780954003771,0.0159278758506422,1
0.28864685682292,0.016859523022951,1
0.256898572695425,0.0129631317787723,1
0.244058396862002,0.00935906535961115,1
0.194343116283403,0.00428032397434708,1
0.178154976065527,0.0138382086251306,1
0.174852955279377,0.021502926552504,1
0.199523975071606,0.0204739963768338,1
0.207069086944887,0.0152349894859076,1
0.236874649306866,0.0179441233764291,1
0.20985095108651,0.0171859262487544,1
0.208291066441714,0.0185232101574353,1
0.17787242327875,0.0164421664664231,1
0.123337944319844,0.0103333114239321,1
0.124562482874824,0.0115749431335791,1
0.162004697207532,0.0160459076762492,1
0.189656441197007,0.00966309259689632,1
0.206953205290291,0.0093642788762597,1
0.1924022604967,0.0126794278962712,1
0.160169025486901,0.0123180531782932,1
0.187049322800675,0.0124818462630327,1
0.380549153645626,0.0287946194238137,1
0.557323356515305,0.0445911873608493,1
0.653683578902998,0.048654954695081,1
0.673299335093188,0.0457387767343708,1
0.688062640134864,0.0534164787876023,1
0.732811968187877,0.0677260674915035,1
0.741482269770446,0.0685985267221416,1
0.7191146565571,0.0600332116615946,1
0.677300595061166,0.0555312979651812,1
0.69517845733076,0.0645937438749064,1
0.743168831265474,0.0726634098761758,1
0.609108550882174,0.0657594731118932,1
0.424117746210179,0.0489343306075763,1
0.384685632991936,0.0453214695095104,1
0.488534105196474,0.0525625721543061,1
0.541074008887708,0.0636448228648261,1
0.563686097161101,0.0925053270753822,1
0.514227085064396,0.132176712323529,1
0.265734809964117,0.0818615465771719,1
0.125887999668966,0.0462869283375458,1
0.113282531082068,0.0414646578713032,1
0.096496739755659,0.0347618594807799,1
0.0563111249979612,0.01630181447347,1
0.0524331367378855,0.0344664400174659,1
0.0556218978813672,0.0343513211443111,1
0.0548073667734172,0.0367525443872945,1
0.0406753671978432,0.0253521050972903,1
0.0390623311126324,0.0198431941163042,1
0.0562811558078981,0.0292586263620257,1
0.0635052889215508,0.035621820954637,1
0.0680135798873367,0.074360164575438,1
0.0692036029815881,0.0808786577246869,1
0.0628459249520863,0.029226031930588,1
0.0695823202684041,0.0329473940176231,1
0.0648249283721622,0.0242501772616429,1
0.0632345157261107,0.0237064337598873,1
0.0638787006694247,0.0123083956909963,1
0.0684806638118769,0.0164846734837981,1
0.0651423054402128,0.0150439751925931,1
0.058052959529883,0.0122755115285781,1
0.0559371251226802,0.011979079825549,1
0.0545498910153033,0.0106346700933097,1
0.0561625213579165,0.0237349818797387,1
0.0539552483076646,0.0237498172410958,1
0.0605297692952918,0.0439246076401959,1
0.0381453806492328,0.0360184585429003,1
0.030426983557,0.0951341080190214,1
0.0307785319548216,0.129755655183102,1
0.0226359848589162,0.121210092118349,1
0.0108670015399899,0.0794990901437115,1
0.00497454849508669,0.0410240622891152,1
0.00922025144097877,0.0412726541066556,1
0.0275473013212297,0.095842403575873,1
0.0381522925119092,0.113725587595712,1
0.0408691568116423,0.130862320976804,1
0.03463472328588,0.0912019180664907,1
0.0473309652130991,0.00812384812126943,1
0.126467584396547,0.0269853816479914,1
0.114343353922826,0.0157120640275832,1
0.102010125084704,0.0127215677667549,1
0.0906424297005503,0.0096929816069021,1
0.0894931703638174,0.0105534721384757,1
0.0996395031264451,0.0120945449636934,1
0.104312118909661,0.0128375883808657,1
0.106247037764489,0.0113026375716297,1
0.101825628847283,0.0112914361076284,1
0.0921604731740085,0.0356257620529049,1
0.0300572321452883,0.0119847078622799,1
0.0587013521087348,0.0214932420908289,1
0.102870979044266,0.0377804060457685,1
0.110465775855358,0.0315803914786529,1
0.0997595230383509,0.0307857397928798,1
0.080435121788532,0.0240316412361612,1
0.0638751656915276,0.0178154571701864,1
0.0637932530085659,0.0185938807669856,1
0.092992181440266,0.0263718992548619,1
0.108213664438055,0.0146197036411137,1
0.117409400119699,0.0150465868920901,1
0.107539984731731,0.0206104849866186,1
0.0819165698178667,0.0108372374304579,1
0.0844221458521795,0.016366846393877,1
0.0871182959869088,0.0167375718647627,1
0.0974282312771416,0.0182410204281445,1
0.0990773120077319,0.0163548806499986,1
0.110929978689925,0.0194390555084048,1
0.0678268225247702,0.0077858225541132,1
0.0480480951964679,0.00627084884652254,1
0.0452875484001833,0.00578382568736918,1
0.0413169311365183,0.00589937258870582,1
0.0734585632395828,0.022063317956347,1
0.0951309502488099,0.0261136610613386,1
0.0967474611375929,0.023137040403798,1
0.0950473806196112,0.0234875320843789,1
0.0984853936033056,0.0228841076950621,1
0.0977050134880565,0.0252099466110707,1
0.0953489770900428,0.0312447814424714,1
0.0677527425663941,0.023272630834451,1
0.0762730712496356,0.0270031299925187,1
0.0820069406197899,0.0193572439822002,1
0.0692691917772201,0.017519166805309,1
0.0558433632930975,0.0116111589007427,1
0.0837706742346342,0.0129273313145249,1
0.121235085465847,0.0212989475444647,1
0.138145831476303,0.0310566192187236,1
0.15849800761311,0.0347216274306293,1
0.196999242220687,0.0423822974630906,1
0.218787044416698,0.0456986458929703,1
0.24431330193593,0.0512984936765454,1
0.236731542791953,0.092821688513571,1
0.166793360559636,0.0631592803792386,1
0.0531345069386635,0.0201301463416518,1
0.0281175314020604,0.109196308125392,1
0.0198634119579975,0.138306101599394,1
0.00295125775531625,0.0874632337169807,1
0.000234306473865221,0.207803296370854,1
0.000535639504770538,0.2798122985856,1
0.000713108984495048,0.163002302624146,1
0.00070288823368476,0.145014708039606,1
0.000723378853753662,0.142517514850855,1
0.000612263693362197,0.102390311148427,1
0.000569472455822456,0.10145049425716,1
0.000530643747793321,0.0945392740269565,1
0.000542535757207955,0.0949557530836543,1
0.000541197581024367,0.0949390411153035,1
0.000507576683960414,0.0908154901593106,1
0.000353968779330715,0.0964973581865678,1
0.000370716815460124,0.162625307470675,1
0.000426901798877547,0.211961765597484,1
0.000434944116563403,0.230849861440797,1
0.000485103005532036,0.331721209824851,1
0.000517644856976949,0.191044908713154,0
0.00289631086448788,0.0993871491071329,0
0.00530032274542614,0.0739640266879484,0
0.00535113047738443,0.0666945158031051,0
0.0054621072152471,0.0677746419740394,0
0.00544292959531026,0.0689212074153423,0
0.00527394043780967,0.0678957819541757,0
0.00511066558004835,0.062968886405551,0
0.00498125601738548,0.0616171226549683,0
0.00479683779996885,0.0619051094074532,0
0.00488809145948349,0.0694842842201475,0
0.00332527671543554,0.141589654494319,0
0.00067129043750022,0.251040994832682,0
0.000697028753722551,0.550949122307509,0
0.000760569305449383,0.627753653108258,0
0.000699209517695294,0.310740386977637,0
0.00108925512820292,0.232250324284381,0
0.00111973308445071,0.171055650191726,0
0.00114194937557716,0.173385827387626,0
0.00118084940600508,0.176993702632828,0
0.0012232694634623,0.175191547359791,0
0.00123996427217179,0.179593448647364,0
0.00120944951154706,0.162876597498343,0
0.00117420973723951,0.159650019631441,0
0.00111357616686886,0.153625185985626,0
0.0010770540945843,0.215035417727551,0
0.000400013810474631,0.205678534502295,0
0.00022001114219159,0.397500393956069,0
0.000223910790400744,0.420120710141001,0
0.000206352205039188,0.397237588542426,0
0.000270755290130803,0.16288844430907,0
0.00143004839997184,0.240619504957497,0
0.00167558266258032,0.145076432370415,0
0.00171781114921337,0.145820007692215,0
0.00177871831571932,0.148207662511673,0
0.00186483483417681,0.149785980536981,0
0.00195606304471761,0.155507706557298,0
0.0019056086446398,0.154366051927475,0
0.00184051737698556,0.146249038433872,0
0.00188515798315002,0.149503027226591,0
0.00193874962249041,0.224677206577526,0
0.000662863169539636,0.227420999263487,0
0.000104739733864869,0.496768435624994,0
9.39598287594426e-05,0.628474952432235,0
9.8097082677631e-05,0.654296285132353,0
0.000101440270724787,0.699039347412511,0
9.97301862836006e-05,0.871272836934155,0
5.19254419542469e-05,0.888933720913708,0
1.25325890504925e-05,0.59826792280363,0
1.12583227873353e-05,0.702320038207507,0
1.08158767252802e-05,0.664348542824817,0
1.13443919356527e-05,0.671013011571135,0
1.17801307597986e-05,0.684048733963365,0
1.23490237946652e-05,0.748168743427023,0
1.48243422724074e-05,0.831642478308906,0
1.76459461892679e-05,0.914599396854664,0
1.73081039115921e-05,0.793592390398569,0
1.91341663466591e-05,0.778209347866272,0
1.98106410006463e-05,0.706504878507652,0
2.19677283891679e-05,0.752219330521747,0
2.27487914613199e-05,0.794348346205478,0
1.93866639815588e-05,0.74585478323211,0
1.90776881696787e-05,0.742550402521798,0
2.06466054927048e-05,0.776905950535443,0
2.12519111807129e-05,0.786644937354514,0
2.20634307778305e-05,0.730680293233937,0
6.27790746150222e-05,0.842432957314419,0
0.000111437802501601,0.779739276554079,0
0.000111946556072226,0.7160369592588,0
0.000110946715490599,0.717704163198446,0
0.000115073759591383,0.728729887504442,0
0.000116494344553412,0.738297702362671,0
0.000114864338959741,0.736868332582377,0
0.000108775640260051,0.677408911603482,0
0.000140676147886622,0.592673879486483,0
0.000204591732487543,0.636168749908633,0
0.000194480108174289,0.640055732995569,0
0.000164744712769696,0.708789072090807,0
0.000160648838002749,0.785213500030224,0
0.00015372589789113,0.755601233264001,0
0.000148139074431677,0.47293328046069,0
0.000221963069059401,0.536816905121703,0
0.000225163713909495,0.375178655573135,0
0.000236788737642522,0.373086981440849,0
0.000236374424825555,0.380179123459801,0
0.000202855419753161,0.342546281925122,0
0.000218184102052464,0.396913571675296,0
0.000217765731178819,0.36465715019413,0
0.000228595617763388,0.358137325988328,0
0.000208308747046285,0.323580194863606,0
0.000207111934530794,0.452934250120287,0
0.000118007799475033,0.334895200779685,0
0.000219226105691612,0.242779764775221,0
0.000602881611268355,0.295938358862662,0
0.000603418217822664,0.230569882299041,0
0.000628712720389859,0.24215775491491,0
0.0006123677836398,0.233171779559381,0
0.000590694917079919,0.221050240749936,0
0.000601615888620399,0.214964404384348,0
0.000624796377820827,0.181460167748548,0
0.000645307436789642,0.149367523837635,0
0.000648546123570297,0.14181803541241,0
0.000656872645125007,0.220486070515733,0
0.00030984271957036,0.180663362387513,0
0.000286143428212482,0.219937582407774,0
0.000276474384128976,0.213313154571455,0
0.000267183384926926,0.217379077005231,0
0.000257092635042557,0.22371216853324,0
0.000281429378438299,0.23330724473083,0
0.000238535219141289,0.297790697121059,0
0.000107190999859504,0.289098927395331,0
0.000107911626693064,0.335691301830331,0
8.44481035201949e-05,0.275015199086641,0
6.57607788902931e-05,0.231817530731541,0
7.05667362862229e-05,0.273642185772546,0
8.57765700910586e-05,0.32122865956329,0
8.94744518781101e-05,0.291277967877981,0
9.49240454104841e-05,0.32442920663078,0
7.34131176504253e-05,0.341194115596928,0
8.82987117175201e-05,0.39874463119536,0
8.6080464502251e-05,0.388949104756109,0
8.54204438530275e-05,0.388628097297987,0
9.47972133649268e-05,0.377390149916902,0
0.000105736068197456,0.412173856118158,0
0.000105064655220359,0.429337656205968,0
0.000119623661729761,0.302701523413387,0
0.000197039040646243,0.366892922356953,0
0.000201593454488644,0.339465476153372,0
0.000197319556394296,0.359888368350882,0
0.000184283545161534,0.391111691597909,0
0.000176499182410152,0.390180439561799,0
0.000177696991206768,0.400371302908909,0
0.000163931139374819,0.445236461336726,0
0.000146923280054481,0.382507235399235,0
0.000123041114461731,0.296661161878312,0
0.00013151636147731,0.529223793975206,0
7.97999367342405e-05,0.482297519013768,0
8.01239923067553e-05,0.438859466346737,0
0.000111494686621858,0.409740700554731,0
0.000112497780483352,0.395625931277204,0
0.000114742629138546,0.387812568010827,0
0.000128935955752802,0.449503439415455,0
0.000127975535932794,0.398326419801434,0
0.000238680747741525,0.353891884240983,0
0.000370745733299532,0.29737410416388,0
0.000345213189494331,0.271940456483097,0
0.000328281052355708,0.257412271426171,0
0.000307925335264464,0.251933173220018,0
0.000305119121643377,0.243204876823891,0
0.000354499374484346,0.262423808718246,0
0.000390529454527334,0.276751069951886,0
0.000399444110369489,0.192928121939251,0
0.000541384891049576,0.205661465941149,0
0.000470884710424817,0.227634900105725,0
0.00036993424856308,0.271958204891612,0
0.00039234007896256,0.281582971209813,0
0.000419760452109718,0.299009819820525,0
0.000469362996736327,0.345362244243567,0
0.00047580064152369,0.36159044556413,0
0.000451397605756247,0.342412963214793,0
0.000458573547147644,0.342898981971139,0
0.000437278131003135,0.769750019049665,0
0.000153375903231334,0.709667159131042,0
9.33996924026614e-05,0.454464111385584,0
0.000117662864886703,0.461216196079128,0
0.000117910240067894,0.387947790497099,0
0.000161138807408337,0.335589009064524,0
0.000144959142321198,0.256292806656812,0
0.000181363168135944,0.234023075776664,0
0.000217490228027508,0.236804425847343,0
0.000190626481777241,0.213151315232782,0
0.00019548645669173,0.217374288137789,0
0.000191308503405278,0.213677219135288,0
0.000201173691940537,0.21577012637171,0
0.000226351109458376,0.223076855613236,0
0.000217508306034721,0.236428230269148,0
0.000203409898132194,0.268576635696299,0
0.00019424975256629,0.282451690804072,0
0.000185409500622264,0.389103070716579,0
0.000154763440282481,0.367523936203116,0
0.000152766485360877,0.391290967897842,0
0.000129141808670546,0.338572270358045,0
0.000115441356135092,0.281458951053197,0
0.000113639975280537,0.337719354625056,0
0.000160918177926009,0.416558494401321,0
0.000184663113591681,0.302281424119135,0
0.000192352465663395,0.292457989165596,0
0.000188815295213785,0.308340835173208,0
0.000153625349640618,0.293770654706054,0
0.000151427158775328,0.318044387670238,0
0.000158049533210616,0.291803523150391,0
0.000143086304212134,0.238477020495491,0
0.000138038694517815,0.250730728025102,0
0.000136603384823507,0.238427302924682,0
7.98844444916984e-05,0.188335319727599,0
7.20676659083421e-05,0.252302786518072,0
6.53149887271626e-05,0.248186899714454,0
7.65019560898276e-05,0.277154329784707,0
9.70170724272817e-05,0.311352042218026,0
9.26766351844161e-05,0.310312685253931,0
9.4769256716631e-05,0.35667703153995,0
9.11832081738108e-05,0.494535339502787,0
5.89409639662744e-05,0.462956549931809,0
3.5235698591195e-05,0.335281844975179,0
4.19168311368554e-05,0.419540436815808,0
5.58436644764039e-05,0.526199920666265,0
5.70997814055917e-05,0.649855630129584,0
6.16425423825141e-05,0.70205335807582,0
6.88437137218643e-05,0.788233658168011,0
6.63841873549346e-05,0.455637104127841,0
0.000159321006033605,0.475952485612558,0
0.000171476857706943,0.403084506747776,0
0.00018820675184147,0.38667315837567,0
0.000215379463583025,0.399987073825241,0
0.000301821850367638,0.420348525746692,0
0.000278261423718573,0.325892176902824,0
0.000272544174583513,0.314295108762319,0
0.000269890951121156,0.314794290966108,0
0.000238169916062415,0.228530961784843,0
0.000650537019845846,0.206686161384351,0
0.000840020117664386,0.136906239408425,0
0.000871174958867025,0.145022313262306,0
0.000928782014099729,0.147903661739984,0
0.000975452822628114,0.153826112127152,0
0.00095567120680103,0.153396623409093,0
0.000968361942177894,0.155285219982406,0
0.000981192556663067,0.140589753951467,0
0.00113494779806068,0.14015888175489,0
0.00112394675248896,0.13482549242211,0
0.000752989852772352,0.165123715335731,0
0.0004965998181591,0.273528286729749,0
0.00050267076085404,0.281444571207785,0
0.000483972875965307,0.284805682744162,0
0.000476330201407295,0.288218515529166,0
0.000484411573359089,0.292098605267772,0
0.000494641539540429,0.296847747308614,0
0.000450963761104709,0.503303787070666,0
8.45544303847044e-05,0.312581293100448,0
2.84936697378966e-05,0.623336922863738,0
2.96920463964053e-05,0.673644504943464,0
5.76874879618439e-05,0.647352780068474,0
0.000149194474428271,0.916181248369988,0
0.000157195964082486,0.67949408560432,0
0.000155762761394322,0.590253963126827,0
0.000185661801248535,0.459784441465275,0
0.000170132598566574,0.38127278463629,0
0.000170252154824289,0.342873380390813,0
0.000164658918837159,0.312178486070638,0
0.000131800123624837,0.255327290582495,0
0.00014230966179345,0.258902413145169,0
0.000156268231870035,0.304738671975912,0
0.00019279040369097,0.208464031712686,0
0.000243654860144365,0.200420756725183,0
0.000214241430736476,0.194529296369912,0
0.000212667627415966,0.209972841698812,0
0.000203554603607902,0.221782556922978,0
0.000194764893436478,0.235213056698946,0
0.00019134627126679,0.219544213230873,0
0.000201964206151926,0.206625794161776,0
0.00017171499091289,0.179106098947857,0
0.000146428557901716,0.161483128356887,0
0.000102915039481576,0.230517955102812,0
5.26287338632e-05,0.21938555550065,0
5.46018016605105e-05,0.198333150972822,0
7.30239490058273e-05,0.243412691815444,0
0.000118739089085303,0.325948201236648,0
0.000136137228921991,0.348863228510343,0
0.000133829544605294,0.39649673554899,0
0.000162444395062049,0.375009558984277,0
0.000213364627204145,0.263454496243909,0
0.000238469634532836,0.279815796955883,0
0.000250165809801509,0.30378389536118,0
0.000221379190525304,0.317523643234164,0
0.000214683524292986,0.331059245931481,0
0.000215020782883861,0.329918833167534,0
0.000211175276499061,0.328834940166042,0
0.000201179916404098,0.289465599820802,0
0.000214106874072009,0.290164492115859,0
0.000154357627046191,0.332228295627679,0
8.55095486314002e-05,0.503788255464708,0
7.98489047312731e-05,0.457725618308631,0
7.15446868927342e-05,0.368314084166368,0
6.42944574231834e-05,0.32387773922007,0
7.84723783754512e-05,0.366895857298402,0
8.2836874064433e-05,0.37368570780562,0
8.26956945615626e-05,0.323410620433975,0
6.98558291566325e-05,0.286972079214614,0
7.61877147120334e-05,0.326558113906646,0
8.48551625665826e-05,0.36348640645906,0
8.88628600323366e-05,0.346997666904134,0
7.70429936181976e-05,0.33927678640073,0
0.000107238977538421,0.368844590859815,0
0.000147482131382915,0.428150192904196,0
0.000132895743884891,0.35302416701866,0
0.00012548396160565,0.361307032564505,0
0.000110862231585176,0.341759540801236,0
0.000241719225362701,0.284259671554528,0
0.000269591703499065,0.1691593838891,0
0.000251912916269443,0.164500492102355,0
0.000245912579953558,0.160539944987864,0
0.000240255886546609,0.164307910656686,0
0.000245382288913364,0.169914701613608,0
0.000278486514219351,0.153506397335193,0
0.000302913565315771,0.153774833610369,0
0.000307538196794938,0.152737992446067,0
0.000300357371011483,0.15395738180377,0
0.000207182679893818,0.189556762570079,0
0.000154336059302886,0.296037021406659,0
0.000135912416159804,0.273493094614235,0
0.00013996399517628,0.27834694350881,0
0.00017482693027684,0.260644911148694,0
0.0001662772096418,0.224834798024845,0
0.000113587194398217,0.261499040874464,0
0.000102989640158987,0.296674767658181,0
0.000103002395493012,0.304601507065407,0
0.000132789590176976,0.304563789569718,0
0.000168299313781396,0.348362676174764,0
0.000203765687001548,0.359624510992861,0
0.000214854216789389,0.263193905927332,0
0.000228418076063603,0.285217571504445,0
0.000198403250637209,0.297888646756421,0
0.000214226673436997,0.393501890892081,0
0.000176336031055472,0.322148206152298,0
0.000156508500062397,0.270680378372417,0
0.000164236513300176,0.226986269096662,0
0.000193946583348678,0.280176956366437,0
0.00018341706153292,0.232915390313714,0
0.00015120483878007,0.203375879027616,0
0.000133414754059602,0.260483338224906,0
0.00010824897518776,0.21651582879032,0
0.000137658786884219,0.222510764675342,0
0.000119682642306223,0.195519899970546,0
0.000117189041702897,0.207442858856106,0
9.76747739248643e-05,0.211191717346609,0
0.000108556644642071,0.269075993734769,0
0.000135543148138923,0.310670187370886,0
0.000129911156036283,0.290975793515809,0
0.00016970930087177,0.369810626092194,0
0.000231687428762563,0.447462282363517,0
0.000265442937534139,0.474569202567595,0
0.000256115199777595,0.457399181417179,0
0.000265700262453823,0.422406974995293,0
0.000279072281651086,0.383646860614331,0
0.000291322000253179,0.344794212809749,0
0.000323700905608515,0.325812958555202,0
0.000252224351134319,0.222694490169985,0
0.000288515910479193,0.289257596669528,0
0.000347741565446252,0.323951092721353,0
0.000311452690831314,0.282162788456095,0
0.00026855755933456,0.258932430516277,0
0.000379098906521047,0.249030710320376,0
0.000397935585709223,0.175103580057076,0
0.000442462910077061,0.193245567986044,0
0.00043779183662303,0.188425736977273,0
0.000337587415019993,0.172459064901672,0
0.000444541753160588,0.188953837480606,0
0.000438030540443028,0.127578705120168,0
0.000413943011587275,0.125121863535995,0
0.000411839430733347,0.128852704232593,0
0.000440940629214716,0.139699082227218,0
0.000328608995580465,0.145312677730245,0
0.000330471473650177,0.19085111633524,0
0.0003328668765751,0.174008254483814,0
0.000320907755563126,0.191438444340471,0
0.000348969358084731,0.201819248645508,0
0.000276428259110952,0.250691982892423,0
0.000238991780332669,0.367804954790078,0
0.000242508861865098,0.375530715330047,0
0.000245324238566239,0.356241152715136,0
0.000239565423362555,0.343702251425812,0
0.000236436880459934,0.365916173229759,0
0.000201834541677298,0.482708675015587,0
0.000213898438483514,0.205973303909058,0
0.000398102646274713,0.180393453322478,0
0.00040163297210787,0.171222646375136,0
0.000398293693500871,0.176387031916812,0
0.000413083340007912,0.19764152030978,0
0.00039564544915067,0.181814288361655,0
0.000451045316714231,0.192289570697289,0
0.000471737971081927,0.174827664932625,0
0.000476880955887477,0.176375607867452,0
0.000466702668349257,0.177246758884876,0
0.000400172413888544,0.26378963734172,0
0.000359488165062128,0.365047162047804,0
0.000417704737013623,0.281294790065731,0
0.000417581426583319,0.258386266046423,0
0.000433554770427195,0.255353327827637,0
0.000421233460861592,0.253855567426175,0
0.000395024485290196,0.263927612733705,0
0.000361894389471527,0.291460082009928,0
0.000381964762612547,0.278089179726447,0
0.000381224509912357,0.220896629068265,0
0.000390115540314556,0.227372155550539,0
0.000268307427408637,0.215332516627952,0
0.000189580843455023,0.265467374481333,0
0.000154773168013577,0.226624591958386,0
0.000146070817523134,0.205090753821863,0
0.000148195842273266,0.19474960585998,0
0.000136508118881202,0.184510618005846,0
0.000135609728111114,0.176880581282163,0
0.000133516052731808,0.17761991327003,0
0.000148711828743939,0.215433092982991,0
0.000224631583969197,0.20075802989382,0
0.00026786627669552,0.150500491243923,0
0.000279955546332549,0.161968003668211,0
0.000285553343562543,0.174063892871438,0
0.00027344152389122,0.166660800387151,0
0.000303173818531356,0.191616301486366,0
0.000300662391972603,0.158181749323061,0
0.000348870482228777,0.17270498748434,0
0.000330896915963948,0.178456347920104,0
0.000293787366010925,0.175663708483782,0
0.000225505274123015,0.191658112027255,0
0.000194326284570438,0.262705803599351,0
0.000174441125457115,0.226125534184818,0
0.000156743580207956,0.202932515485284,0
0.000160746781565248,0.228334581554265,0
0.000181018330102483,0.241337552033452,0
0.000217925645307884,0.129756239778993,0
0.00066073346359843,0.169743614053738,0
0.000678843023383445,0.134510970748549,0
0.000728471033726193,0.139420232664872,0
0.00082563230821365,0.151601660497522,0
0.00087430984801619,0.153328051203369,0
0.000917852637698669,0.147607504664186,0
0.000932898586240077,0.140224007973147,0
0.000937551895203538,0.14293056169625,0
0.00091507963138427,0.14028254433612,0
0.00086485707032751,0.233558387973387,0
0.000360904448401513,0.216855646481985,0
0.000292876376779807,0.284585310409606,0
0.000289961493290535,0.279852861327176,0
0.000265722148759394,0.237993175568061,0
0.000288605996860515,0.287113557993809,0
0.000316314482169952,0.191701890742453,0
0.000445194229227891,0.178700014281656,0
0.000462237428777213,0.174014478776343,0
0.000476896366136394,0.180839338217795,0
0.000492883396002324,0.173131544933425,0
0.00047626927161507,0.172700168319916,0
0.000473538082274349,0.172916013673747,0
0.000494892256529231,0.183977374784879,0
0.000505346344451803,0.188523428985999,0
0.000505689012867531,0.168697811222994,0
0.000460613221980031,0.251005653046268,0
0.000290111105863603,0.274974636673934,0
0.000316628821708041,0.323741544125264,0
0.000313543803034321,0.327027739822437,0
0.00035598846707576,0.275663915784186,0
0.000467630208598702,0.267230883753989,0
0.000463487346241606,0.265167452885599,0
0.000422235292170695,0.224049846455116,0
0.000439366250922572,0.247380073424333,0
0.0004568280130792,0.30469983079671,0
0.000406763329096039,0.265699846435825,0
0.000393522306876474,0.299288992035629,0
0.000358693771913663,0.276113432620451,0
0.000362186999806386,0.26963957553704,0
0.000324723581072768,0.366763393386536,0
0.000186419505151998,0.37140696104748,0
0.000177095121817121,0.387910735126501,0
0.00016705048823561,0.521367262312931,0
0.000164192639317888,0.43489718226375,0
0.000116036609337383,0.333515258224743,0
9.7619016354535e-05,0.30165005938182,0
0.00013196076707572,0.29346368746447,0
0.000166433436796798,0.283121199274995,0
0.000170719399662909,0.291895941053815,0
0.000175855395134375,0.258331189311376,0
0.000215636150690139,0.295998474163094,0
0.000232660463097854,0.296388068419622,0
0.00024493388167751,0.289807208851709,0
0.000227614581758635,0.265641648043715,0
0.000235852228798842,0.281022377485665,0
0.000259057379167943,0.312379193656418,0
0.000248129644887705,0.329699105408771,0
0.000196420830090303,0.363431421572369,0
0.000155705958004028,0.321422036079074,0
0.000189500217386798,0.441810247843125,0
0.000158889804600288,0.286029010691982,0
0.000153422290851081,0.302542002421407,0
0.00014439724871166,0.288905259240682,0
0.000139041210196824,0.327932788874725,0
0.000131761724601802,0.293408719548914,0
0.00012317252999676,0.271422198997892,0
0.000107374502962434,0.250822342347834,0
0.000118525856485759,0.256820265646051,0
0.0001159283633015,0.247957191459717,0
9.53223847035702e-05,0.235650357447595,0
0.000106180370819295,0.259153191720859,0
0.00016654511018653,0.251659295948202,0
0.000170159174090346,0.206345800201119,0
0.000174455719232551,0.222172355084352,0
0.000177177864524042,0.232344127109964,0
0.000179299439903063,0.15287972877999,0
0.000325675844873131,0.167275842549587,0
0.000335436341325615,0.145186412763169,0
0.000349496794678592,0.147467886237676,0
0.000362432424395735,0.154271305217862,0
0.000354816147847318,0.166196959692529,0
0.000322763825233398,0.144042023735484,0
0.000380683505639227,0.170264679129826,0
0.00037516166796456,0.165142619163533,0
0.000366703468502443,0.165390153743054,0
0.000346770851868027,0.224565485347276,0
0.000212005876806218,0.244116303179968,0
0.000196515752012882,0.299697042820955,0
0.000235460539865737,0.338805717785808,0
0.000224779874130441,0.267467323646779,0
0.00020063643564764,0.231571796804582,0
0.000313820890281792,0.269313946597678,0
0.000300623414079043,0.16923282994961,0
0.000361767088412411,0.183680184194167,0
0.000359391227413305,0.173527656545732,0
0.000365030199905516,0.127998197096701,0
0.000820222894579755,0.134041979600053,0
0.000847620029194475,0.101013771353782,0
0.000781391426595038,0.0958582277259302,0
0.000808740031493855,0.10660285460298,0
0.000871963483038977,0.115444500540234,0
0.000746155625485965,0.111209348168556,0
0.000731575882614259,0.138498394428254,0
0.00068228644616447,0.127593526309402,0
0.000747368340198581,0.136444317959093,0
0.000740942176266833,0.169275606983938,0
0.00028045932446056,0.165548173174942,0
0.000229633393400113,0.327117983965169,0
0.00022887935605888,0.294235685780544,0
0.000247172420781598,0.281037543809269,0
0.000249319562559864,0.217429619800485,0
0.000258047183133895,0.244079699860696,0
0.000232445009736311,0.223885558445192,0
0.000227438188626038,0.25182263864992,0
0.000168662748145123,0.218424797963334,0
0.00017829770124994,0.241516580377283,0
0.000142727229495711,0.230449959258294,0
0.000150374535705956,0.260555105765297,0
0.000153226464502901,0.285917366154157,0
0.000135828845053384,0.272716058692251,0
0.000122089404303779,0.317747616399214,0
0.000165635635788936,0.332885117781996,0
0.000188313559186863,0.337845262082037,0
0.000173370896375592,0.322834423314029,0
0.000194213523160988,0.321835284484554,0
0.000211607349678361,0.346093894987735,0
0.000218493236572111,0.302067898689254,0
0.000389040305975378,0.329571106282777,0
0.000468681222114453,0.246307997778022,0
0.000453744896605214,0.243148660880156,0
0.000479780841492808,0.286153759556891,0
0.000444486236633412,0.304983094764976,0
0.000437091152154247,0.299526636492448,0
0.000451993435306251,0.276088533095052,0
0.000426380161080174,0.267335204996449,0
0.000388055219941073,0.244771586425717,0
0.00037777107478125,0.27031213056512,0
0.000226091347961651,0.276649918444442,0
0.000121372911440584,0.324602235245172,0
0.000128961986349329,0.285054761712822,0
0.000103589012424122,0.191150526324616,0
0.000130042603909167,0.207394818847544,0
0.000132684738469048,0.187524879038768,0
0.000125650261887548,0.20548965558881,0
0.000120858492782472,0.221305162172148,0
0.00013209880430242,0.224618872567943,0
0.00014815818358068,0.202866173996947,0
0.000155061436360811,0.182406539881724,0
0.000164188085414112,0.162176267893456,0
0.000159222179028451,0.164765717544567,0
0.000154442942332618,0.183335749825188,0
0.000110680944427969,0.162826493968726,0
9.82677171493738e-05,0.185746794356292,0
0.000101290833372433,0.179887541531941,0
0.000121295691167638,0.155039478230642,0
0.000145254262623972,0.181549555214438,0
0.000152766032401573,0.182375555038952,0
0.000147804676250144,0.212379713816871,0
0.000134296561702856,0.247147001030667,0
0.000145461524646511,0.273500384871361,0
0.000141937109760273,0.291861141398298,0
0.000142547101455631,0.287695729212593,0
0.00014742497456969,0.238368714885854,0
0.000174261219424431,0.233677131008164,0
0.000202971116109559,0.206959093788604,0
0.000175200352909268,0.162539810163737,0
0.000161689300433527,0.170032161000534,0
0.000268749856269706,0.185737163712509,0
0.000304029248806199,0.150588639534359,0
0.000328655185962236,0.160369949315859,0
0.000375840483099411,0.179734110942528,0
0.000439208377747862,0.194646715818885,0
0.000442433791100786,0.184144116194536,0
0.000390271021405443,0.176230444375565,0
0.0004302402000049,0.202269320959586,0
0.000450536895925355,0.19289092390249,0
0.000465063546232869,0.170971942774841,0
0.000461727866760235,0.173612603775494,0
0.000429368437508276,0.170507356000418,0
0.000427018719714821,0.160159200575121,0
0.000390841980393432,0.136165672064276,0
0.000303886010001254,0.110304420762238,0
0.000307726189125936,0.106445002839967,0
0.000337553853602334,0.110883395570355,0
0.000276693107283333,0.107162603543765,0
0.000297344404287704,0.090661172018945,0
0.000379926694352277,0.0913098758682722,0
0.000313777936437596,0.0840586793700654,0
0.00030418719491309,0.090971095367183,0
0.000327413907750529,0.0857705836674042,0
0.000408033049711895,0.0910874144555219,0
0.000411611432119158,0.0870243367738842,0
0.000394233904109633,0.0906399555876119,0
0.00044814790552811,0.100697733832554,0
0.000471199096749589,0.0980636746391297,0
0.000421978086740529,0.125511201988753,0
0.000272393043507379,0.129115753766926,0
0.000268041000185717,0.136265036402035,0
0.000268910819658933,0.127543437971621,0
0.000306205926512646,0.139368057015716,0
0.000195741631258785,0.120065913338079,0
0.000194956003274226,0.144896941501229,0
0.000212179471682369,0.163286676675275,0
0.000221691354023958,0.162077165519458,0
0.000274322444422275,0.156258115238695,0
0.000325690093711456,0.18032381019148,0
0.000366721887089184,0.155418343534039,0
0.000398873626587413,0.159234356937261,0
0.000405868560394965,0.1651780933379,0
0.00038304528980987,0.192787958175482,0
0.000384231570734841,0.219772677064233,0
0.000380075666819309,0.200948992463311,0
0.000385645684456492,0.211499878678141,0
0.000340009246228246,0.150608514488689,0
0.000398004470384227,0.16803888840568,0
0.000370506124937004,0.156253814299971,0
0.000371045947846397,0.18697981303089,0
0.000401330398044383,0.196133445308168,0
0.000467634052445765,0.156381928750811,0
0.000588835542068128,0.163263230951727,0
0.000577792206151588,0.158780247897425,0
0.000579481457675602,0.16602923496551,0
0.000576551030687106,0.150412019186454,0
0.000546452221101277,0.195817204267031,0
0.000434067679297406,0.216543014752356,0
0.000437385781655547,0.232645272682941,0
0.000400997039031766,0.231119884640615,0
0.000332184424693061,0.207205582693408,0
0.000261749842666891,0.392160682041816,0
9.07011998433568e-05,0.290043816928157,0
9.50218222380898e-05,0.296181351790052,0
9.49653931412569e-05,0.301245197752194,0
0.000115819085435787,0.28623123922595,0
0.000139322350455352,0.343282605376164,0
0.000150123753353406,0.29639403990501,0
0.000187173455112221,0.322580379648189,0
0.000243892491769552,0.382210446800732,0
0.00024576868911656,0.275644276860874,0
0.000356743694037202,0.316499566658427,0
0.000434202065098743,0.28978890456344,0
0.000445981637399855,0.251723710924267,0
0.00047433627798751,0.263834680961789,0
0.00044370663839725,0.273581390912133,0
0.000428104778978672,0.25915647144565,0
0.000430592257177621,0.251895334535525,0
0.000467239042804926,0.2659976997141,0
0.000466626612239062,0.249969385085757,0
0.000458133744303811,0.261859273970122,0
0.000549547194788458,0.245742346474532,0
0.000550872914705836,0.269939108229155,0
0.000528072411346155,0.303276345039975,0
0.000519212619769777,0.301833109444446,0
0.000548349214670019,0.355969198168741,0
0.000547412901917582,0.2821285943815,0
0.000554793578162617,0.290420414656699,0
0.00048246461092526,0.272006147904924,0
0.000430723940589343,0.252300212956223,0
0.000492957502208717,0.344244941439931,0
0.000343137561389809,0.403532894943485,0
0.00020425657448111,0.282291934693053,0
0.000237866040457634,0.302419302378116,0
0.000239035507533208,0.261879720856183,0
0.000232622132878765,0.254213045897361,0
0.000192693085556332,0.344587102846352,0
0.000129849425136792,0.355543247262845,0
0.000166317079463834,0.345662289946085,0
0.000177702730602517,0.27568099400282,0
0.000192597061623899,0.286443616266628,0
0.000195943664640194,0.256557564524562,0
0.00025391375219224,0.238277624980453,0
0.000217549364788925,0.187515177530361,0
0.000225027646998435,0.197079968731707,0
0.000223870025210039,0.178615065563332,0
0.000234460603646627,0.167658071302254,0
0.000242595041099727,0.16977074128031,0
0.000224672380121677,0.160834628203359,0
0.000327099482895548,0.193587447771527,0
0.000253035228790629,0.143038411788171,0
0.000172093763052045,0.117913113985318,0
0.000151494338259227,0.138469991923301,0
0.000142895369824446,0.150396197920807,0
0.000161304928341285,0.148093452090917,0
0.000122848090956925,0.133817074741585,0
0.00013965973931503,0.141650757213571,0
0.000197042615928574,0.169788348110287,0
0.000198498475297147,0.181032338453491,0
0.000143193784460108,0.189936303010292,0
0.000162314014338353,0.205949852376678,0
0.000190954391517411,0.177431588784821,0
0.000222233454573279,0.199214333850752,0
0.00023326739095354,0.211364975395819,0
0.000188886498123044,0.233739543472794,0
0.000178768462428844,0.234993067142376,0
0.000191034617834715,0.260507784750752,0
0.000214330683213984,0.242092096522222,0
0.000295429260238259,0.308460954399727,0
0.000286371909830365,0.294283152980103,0
0.000277795576976116,0.351906209836851,0
0.000292401084861121,0.229173481547662,0
0.000414824438744712,0.206209483688189,0
0.000394388130445909,0.201743457961792,0
0.000411412404094069,0.199269965707369,0
0.000397142647764196,0.180590423178605,0
0.000352361930392787,0.167247794445575,0
0.000373459441621936,0.187222086331997,0
0.000365910161080231,0.1822005241857,0
0.000360099374357967,0.183131381059427,0
0.000285057712968356,0.155702524673335,0
0.000253043952901514,0.265519971158352,0
0.000167418103815078,0.369102727485192,0
0.000190330638803698,0.424847550374236,0
0.000179394852397771,0.426448090826324,0
0.000162437995377774,0.451033355493941,0
0.000154786910684213,0.35921867701762,0
0.000122136308411807,0.286315830066391,0
0.00011129402863131,0.259434712914581,0
0.000211716457827676,0.384296421998807,0
0.000281386692241449,0.303084474666037,0
0.000326358084839019,0.291700442199306,0
0.000343734355112429,0.25321074203872,0
0.000326534573150406,0.232693791493299,0
0.000301521442022994,0.21478429845467,0
0.000302105371013317,0.205537186318285,0
0.00034669477236449,0.226535308179848,0
0.000322878379214963,0.216956076123798,0
0.000312623802779867,0.219080161211055,0
0.000241195885355728,0.189399778490132,0
0.0001844263913253,0.17544152680694,0
0.000179051264073298,0.166241852216271,0
0.000156009363219171,0.173433063960767,0
0.000142468242960754,0.178040527414714,0
0.000141059659241512,0.179444802411337,0
0.000137737407776139,0.170103177855569,0
0.000121484368097889,0.163258826009662,0
0.000144632860941061,0.1914398571309,0
0.000143591251089825,0.175305446646025,0
0.000133927579906387,0.173360457508485,0
0.000125549233614846,0.216856381495068,0
0.000114502189624361,0.204549932345192,0
0.000156084066643807,0.228930331669224,0
0.000167872584145813,0.197614380861607,0
0.000166663753874588,0.20135700346175,0
0.000196093448764431,0.230350942081782,0
0.000202051706422301,0.194310662958867,0
0.000238288668231359,0.222030838270016,0
0.000262734948424993,0.195581580225639,0
0.000316476208136237,0.180309032766989,0
0.000335341349681704,0.16976811441763,0
0.000362004309507393,0.157300122611571,0
0.000342165868043406,0.160511252431723,0
0.000366526822171329,0.187249858275285,0
0.000388490956930447,0.145644639492844,0
0.000418250031212726,0.130292103195996,0
0.000416107034872149,0.134273676714406,0
0.000358308730359035,0.119152097370551,0
0.000356164407937091,0.129055519637491,0
0.000352682833597887,0.148243386464741,0
0.000332555370842161,0.136605280520323,0
0.000299415657149361,0.138165419333874,0
0.00031031185055446,0.14050966356835,0
0.000303426950079936,0.118308173487336,0
0.000398547894950797,0.154411879756047,0
0.000310798311188197,0.157688033088965,0
0.000305535630452924,0.172294806514125,0
0.000324393744134098,0.172435399919836,0
0.000379573430129013,0.204212132537082,0
0.000419704602342102,0.209768501934808,0
0.000421543704500833,0.237218166535341,0
0.00042817193506923,0.267207768962569,0
0.000549344812112355,0.284227692772404,0
0.000557487327836643,0.263711263421811,0
0.000490148530696166,0.305688609002453,0
0.000508940391911928,0.369023047953492,0
0.000483471608951942,0.32586602401267,0
0.000545143909270034,0.385134987306055,0
0.000724837412300999,0.379706992284871,0
0.000656215682123101,0.23755852629039,0
0.000611263426425458,0.247879758012925,0
0.00060200691130197,0.262387631487096,0
0.000504494748850164,0.252949699171948,0
0.000485309813448537,0.317823694028631,0
0.000428502893053511,0.287405817633679,0
0.000326132573028751,0.225258915031086,0
0.000295026578957548,0.200162103061265,0
0.000349450246516306,0.239549920888767,0
0.000177915832933257,0.191904318922993,0
0.000138392851357592,0.272175144681453,0
0.000156025975931702,0.2705247172356,0
0.000154764038188763,0.265956518844359,0
0.000147804173522652,0.266267304845597,0
0.000158351428408512,0.320207980878387,0
0.000115662800485476,0.305329583715617,0
0.000122418358717181,0.15053415384975,0
0.000389124194726677,0.204907945549856,0
0.000382749007408465,0.163262772043941,0
0.00038838549080329,0.166037692838057,0
0.000392524657012458,0.172069053922362,0
0.000404696212498212,0.181902973014902,0
0.000429671844558191,0.195478755446289,0
0.000435882744797937,0.186384731119428,0
0.000450878710484124,0.190913435636288,0
0.000449261254271336,0.182757075390048,0
0.000426577138747702,0.280532606267903,0
0.000138174342871543,0.335246183417399,0
0.000145100837853656,0.569531894517927,0
0.000273589530350864,0.31208458981207,0
0.000334395839676587,0.224191923658484,0
0.000313869895203609,0.217841390193479,0
0.000279766204526842,0.201001572967734,0
0.000271071650670105,0.206328560718371,0
0.000272222749156471,0.200666960125464,0
0.000259866311736728,0.186363785693739,0
0.00025934361573468,0.177725700173348,0
0.000252787993281446,0.158939635948905,0
0.000219326120252857,0.146287708426865,0
0.00019860788618382,0.239129681298431,0
0.00016069725304541,0.247482694546202,0
0.00018201166825261,0.234685979779074,0
0.00019521567738994,0.238465558768432,0
0.000221859717277475,0.258308637905421,0
0.000219711179237817,0.264759912552683,0
0.000211723864113667,0.270139953162354,0
0.000279769880262933,0.299098093295503,0
0.00027050000914698,0.296964948367617,0
0.000254665872196871,0.323692700094468,0
0.000211113937094017,0.287873064544418,0
0.000206719651131604,0.364630168778044,0
0.00022635675390468,0.424183745741817,0
0.000262391582795956,0.505597629621681,0
0.00024905276838257,0.415117405637005,0
0.000249926721367458,0.384406065980999,0
0.000269141676159652,0.449808364027768,0
0.000178336453237213,0.446397440162725,0
0.000149802037115023,0.447691242561824,0
0.000152168772876244,0.365738445425842,0
0.000172879459381856,0.339952819889067,0
0.000291381097567001,0.228177007061352,0
0.000544150545433101,0.204772837810728,0
0.00045863149956382,0.1739076100814,0
0.000428300095718966,0.168468186399699,0
0.00067370460165553,0.106230018424898,0
0.00118553137685727,0.130141916731056,0
0.00110116681233498,0.114570114809333,0
0.00113994497721544,0.111891343787341,0
0.00105955855313085,0.100599355994602,0
0.00102561105084953,0.0944442600480672,0
0.00101747923643216,0.106759378000593,1
0.00113545259219361,0.129431753065699,1
0.000987031034909093,0.114124747659949,1
0.00104207144681172,0.110582510560792,1
0.00108276369249132,0.16568231219932,1
0.00268623077891225,0.122424915355321,1
0.0055563832183165,0.169236601093445,1
0.00602792384110699,0.150883515956029,1
0.00768033596972969,0.137990575526669,1
0.00638780917258429,0.0757223476618504,1
0.00578624705585236,0.0702164073813146,1
0.00557306405133933,0.0674912350188217,1
0.00554848428690538,0.0683401179839745,1
0.00648230512558238,0.0783670877414127,1
0.00665021041614217,0.0797842868639844,1
0.00634539799519355,0.124442872146614,1
0.00501045875672894,0.109160946841258,1
0.00458950199758338,0.0813681595215816,1
0.00231678662566598,0.0583589511152301,1
0.00167866701500251,0.0825751173142907,1
0.00172204936948071,0.0712047679341049,1
0.00259072347259775,0.082924429022954,1
0.00369698238188184,0.0928933363317432,1
0.00321068967563942,0.0758126763256449,1
0.00316829848808819,0.0749747410422947,1
0.00308790882104432,0.0721793833034234,1
0.0032905033126152,0.0729324824201691,1
0.0032639920021887,0.0615910434638166,1
0.00419070424661048,0.0737082273728503,1
0.00402500008117489,0.0418935306371734,1
0.0043172950029249,0.0391728586070239,1
0.00441627751990172,0.0361931426289079,1
0.0042568857685051,0.0353651388634917,1
0.0042871693533788,0.0364139587195834,1
0.00462569430196256,0.0265667140700314,1
0.00588998595010232,0.0343686474843223,1
0.00634325311958789,0.0397365044332063,1
0.00670050441587637,0.0555128322561033,1
0.00482071210952715,0.0493064646490978,1
0.00433981933779912,0.0722610431484351,1
0.00475253137662957,0.0874781713021297,1
0.00560095089459268,0.116728648174536,1
0.00486260950492561,0.0883368270000443,1
0.00309330860052049,0.0452054868472198,1
0.00401210504647337,0.0689322836354689,1
0.00469406237148954,0.0654260683497505,1
0.00543225033845041,0.0257912839892705,1
0.0154811344398513,0.0469787892228603,1
0.015187001474606,0.0364140560682004,1
0.0141833830681182,0.0330466079715674,1
0.0129425001580101,0.0307425737563154,1
0.0135016820242659,0.0265115343283039,1
0.0150595555675901,0.0280580847593837,1
0.0132517677043508,0.025240841964662,1
0.0135675028212961,0.0268149057867263,1
0.0134598140641125,0.0276613286696595,1
0.0145402305696488,0.0393518674863013,1
0.010215503907673,0.0216470166671991,1
0.0185013357725407,0.00967866901515249,1
0.0386846092721195,0.0225980692887158,1
0.0421804210171853,0.0252457026016111,1
0.0440194148619941,0.0272054332821977,1
0.0333472519001082,0.0188922149464224,1
0.034974673561623,0.0143618544172553,1
0.042501326062561,0.0191119072420614,1
0.0396192986379023,0.016721623025416,1
0.042284602537993,0.0131084428373981,1
0.0430622936684706,0.0148928229143654,1
0.051002929123062,0.0459712210860931,1
0.0556059613923564,0.0557466989338815,1
0.0599137963594645,0.0620687544616435,1
0.0592066474472167,0.0648855420309291,1
0.0641303653809668,0.0713956199976839,1
0.0581923646723548,0.135096390278484,1
0.0312945202290757,0.0882273357450114,1
0.00793740601781317,0.0226701585313231,1
0.00400858436901742,0.0267971141835713,1
0.00406373056744425,0.0225526265381652,1
0.00412478980121868,0.0213289167959173,1
0.00407750523489632,0.0189644414430972,1
0.0041632842853696,0.0198373745849664,1
0.00500070266923325,0.0220221103254182,1
0.00521881211074887,0.0150560309284681,1
0.00773177790273944,0.0176874757962451,1
0.00785654396467057,0.0169583082350777,1
0.0076675559965535,0.0191134049948295,1
0.00673469773240672,0.0234559902749106,1
0.00844860099069832,0.0302274714226509,1
0.00911960035150362,0.0244536375003843,1
0.00736112285556229,0.0176989703169251,1
0.00667335329664754,0.0148423067245294,1
0.00800657624478446,0.0184348699654657,1
0.00828704346197491,0.0148751706477413,1
0.0122362352143081,0.031125674404535,1
0.0173101266962027,0.0443101656058592,1
0.0187899684212974,0.0490142505571518,1
0.0200926014792592,0.0542028071192252,1
0.0169419114692546,0.0514768520860803,1
0.0171317235877677,0.0404529983624396,1
0.0227800301974662,0.0426183447690491,1
0.0225153920181655,0.0416324670329912,1
0.0184435919352946,0.0371599464106735,1
0.0166529708414259,0.054323741997599,1
0.0158034018565473,0.0473052962037554,1
0.0134564696935549,0.0416102671891081,1
0.0143342933122577,0.0200422690223461,1
0.0263681587248274,0.0330578147009227,1
0.0423267298424619,0.028716384639473,1
0.0782563514678921,0.044461697906692,1
0.09024908838291,0.0580554433605688,1
0.0954298998739048,0.0570049282655272,1
0.113798956174909,0.0599910544827449,1
0.0999851713804157,0.0434519872069101,1
0.0743345992776676,0.0329507398776462,1
0.0502022858471647,0.0216558898718364,1
0.0272141420116046,0.0104281556945883,1
0.0269874590974147,0.00543983100437035,1
0.0455681210227241,0.021345681154454,1
0.046011623797555,0.0126691621983483,1
0.0478800727288909,0.0082565747542663,1
0.0488599858569308,0.00866436522958833,1
0.0420657709515994,0.00559021398092158,1
0.045712880406781,0.00843688670089873,1
0.0653381208208148,0.00736764594252686,1
0.296229647481834,0.043061914200048,1
0.35324488352563,0.0211584102473031,1
0.344034927069184,0.0235949942151727,1
0.285670551679451,0.0192566737868057,1
0.281311151441611,0.020277723665341,1
0.286918634183912,0.0213406088411333,1
0.261580615492921,0.01839570391989,1
0.194468902086998,0.0125571598404132,1
0.176435347076867,0.010039100326585,1
0.172873889513524,0.0104555946710656,1
0.145687698603929,0.00640299988042946,1
0.129050277287348,0.0125456855247521,1
0.121193233255375,0.0112266737866319,1
0.129218404612825,0.0115625512094119,1
0.11297041221768,0.010023517629156,1
0.116031238697754,0.0115711084574622,1
0.1254289582066,0.0106105725407693,1
0.141910149026147,0.00982363369658427,1
0.152800771183394,0.00785698892917781,1
0.151389097585397,0.00687886721071654,1
0.106685977239907,0.001747651251266,1
0.114282771188021,0.00585648073390148,1
0.118659148885993,0.00633480265117154,1
0.109718005543247,0.00582086436391235,1
0.118723167444413,0.00716808904287253,1
0.109984421594241,0.00567525525232273,1
0.117471664243572,0.00523821284116497,1
0.101399948945464,0.00284048425575607,1
0.0972081265661717,0.0072852594987974,1
0.102322193313976,0.0139268633285201,1
0.0652514079189355,0.00932386436451418,1
0.0811338075339022,0.0171770488942142,1
0.0856013919005882,0.0162825769908671,1
0.118960959016526,0.0191845804895954,1
0.182593139030262,0.0177440596343563,1
0.205136085067046,0.0167363252750361,1
0.197718383907333,0.0189289602710914,1
0.176070389982071,0.017057372482576,1
0.234450214164691,0.0196895246976648,1
0.252178389754094,0.0207008590746006,1
0.271621319161661,0.0207475554031874,1
0.279170252726218,0.0215463963367825,1
0.336699227049537,0.0273803915313343,1
0.385214370409695,0.0352529515078004,1
0.427639229836212,0.0610812850346349,1
0.314438136068815,0.0628892453518738,1
0.245097364406668,0.059458623750709,1
0.109267072597136,0.0354221335306175,1
0.0998825099467712,0.0509283458384639,1
0.0479641803664096,0.0238275934508999,1
0.0199289838007961,0.0257644649213189,1
0.0188880054633591,0.0205472378525373,1
0.0171681757231356,0.0184591643158438,1
0.0163696922388511,0.0137815648958823,1
0.0168409762837034,0.0110943958202442,1
0.0218515266485276,0.0138566805019406,1
0.0339674531832955,0.0197356259067401,1
0.0347609886137539,0.0173773573697492,1
0.0297331413242831,0.011628199278215,1
0.0299665005022221,0.0152634524663897,1
0.0317133482820013,0.0197552947951329,1
0.0307939765628238,0.0191436203323942,1
0.0306649344602435,0.0202675404735919,1
0.0312947594136059,0.0228795658191476,1
0.029540665675706,0.0235908011833355,1
0.0261528388784867,0.0272710344702161,1
0.0109688589724737,0.0128969409186046,1
0.014513892362609,0.012298621092148,1
0.015671694236845,0.0129070332561503,1
0.0174336951339611,0.0188781962590591,1
0.0183291275307327,0.0161622647597869,1
0.0182453657844065,0.0154592822383292,1
0.0195999055304313,0.0149502232001777,1
0.0222027016200472,0.0184479335963302,1
0.0227471269782987,0.0149517912367575,1
0.0209415741057148,0.013811567239457,1
0.0145794561886011,0.00384581041289114,1
0.0154547326898454,0.0111263117432378,1
0.0149740459107071,0.0125118486107294,1
0.0214875541941452,0.0118319453298041,1
0.0254096838629946,0.00990427485872418,1
0.0259758647727176,0.00935435714004023,1
0.0301290057770789,0.0123799695444659,1
0.0313839286092134,0.00936547845180485,1
0.0330086796490416,0.0125514975237036,1
0.0306007541403086,0.0109635531073193,1
0.0311006054666342,0.0140184842879313,1
0.0328322262478591,0.0123625069562786,1
0.0356764985638168,0.0145433360525784,1
0.0316588197017285,0.00703624576542393,1
0.049620560530464,0.0245771685188215,1
0.0477794743147986,0.0255394314694629,1
0.0451961880672616,0.0253510628658131,1
0.0455785548398577,0.0279112682323647,1
0.0473308960091738,0.0287038792912081,1
0.0477794815628356,0.0294169948692762,1
0.0482179844260777,0.0287612751848978,1
0.0380539639791822,0.0314392881947485,1
0.0245458074174536,0.00740245317606512,1
0.0235338645936652,0.0131501903814839,1
0.0282004354157025,0.0184073656766317,1
0.0322391894041151,0.0107231504276876,1
0.0333026427520248,0.00938726614166513,1
0.0318293906325693,0.00883822185259632,1
0.0335816179010826,0.00945441794180312,1
0.0347392455057052,0.0092722204684241,1
0.052885897466301,0.00711570774874072,1
0.16110237310053,0.0287857056296327,1
0.164470018297756,0.0185057076240294,1
0.167334623800724,0.0173972509407367,1
0.167938388161791,0.0165509121849645,1
0.156624312216753,0.0150308419662951,1
0.169741900162812,0.017564254474488,1
0.171142706651979,0.0181672420939696,1
0.15516907288915,0.0149168614563999,1
0.15558361730226,0.0150987516860101,1
0.177243640803086,0.0247490395012071,1
0.140051705091357,0.0201152522676643,1
0.134603172209638,0.0298601759627727,1
0.138432764617849,0.0310543847702279,1
0.161044696080859,0.0276766533925166,1
0.193026471568763,0.0381328610133491,1
0.138852284693745,0.0293230187091421,1
0.119752010720894,0.0179293697941654,1
0.127833259704443,0.018392148215857,1
0.128175364738561,0.018041498107342,1
0.11749238184992,0.0200329310459323,1
0.10242763064714,0.0178388194491953,1
0.102596400247353,0.0217745594927459,1
0.0948085721946823,0.019146515026925,1
0.120798047039991,0.0337052135367822,1
0.123956868732997,0.0389066654276178,1
0.179813998861823,0.0441542562278403,1
0.173730088933908,0.0266718649343588,1
0.145581152322721,0.0148677536468379,1
0.182116482032363,0.0191667235960204,1
0.209392075802643,0.0192176203019107,1
0.227834600247253,0.0178969661540433,1
0.156850834261585,0.00882679581877424,1
0.158342492544083,0.00888741129043105,1
0.228798869631473,0.0171018272316997,1
0.23262297778754,0.015543176913775,1
0.230822425315282,0.0155163209748753,1
0.162950449774994,0.0161146653594977,1
0.107483047671885,0.0140981789750186,1
0.107661017843193,0.0138000597330606,1
0.0930564094300968,0.0183054747903846,1
0.0854985145097079,0.0257772411995805,1
0.0588355347969271,0.0192626347056664,1
0.0622957105954872,0.0151837475104174,1
0.130391958090468,0.0295696357164821,1
0.178892132388429,0.0457757869760444,1
0.228328236664591,0.0554772093191735,1
0.234062024605965,0.050377707761487,1
0.215635371835214,0.0464183946101281,1
0.253273057951026,0.0550721155091069,1
0.285198477176348,0.0369581616562784,1
0.283086651257627,0.030734197257346,1
0.328114694370235,0.0321351538680977,1
0.397446882282692,0.0472522406807433,1
0.353609323545019,0.0408890109392125,1
0.295019152929641,0.0365099950183265,1
0.187872060991806,0.0201065006203622,1
0.154615966646321,0.0166849740003312,1
0.162916240756486,0.0163207014150438,1
0.207690597307528,0.0223129647769345,1
0.196915710290546,0.0263232887567852,1
0.118044922593354,0.00637125278034759,1
0.223837191171403,0.0195327217056562,1
0.239105365556752,0.0164917393800117,1
0.228090732061807,0.0132102929742135,1
0.242231891469889,0.0121537904720317,1
0.227613340948519,0.0124259116141896,1
0.237517925839032,0.0115809721501677,1
0.23644680909144,0.0113604026418679,1
0.249800894791562,0.0123299601618976,1
0.218969387415394,0.0125779844705042,1
0.179822904199547,0.0141272463863494,1
0.195447499976943,0.0137627810071943,1
0.241742880503943,0.0214413551490425,1
0.26450523838886,0.0291280924172415,1
0.260004986972319,0.0316546564158888,1
0.28880082958799,0.0280699907529719,1
0.288220952720005,0.0312517277024165,1
0.28829366846174,0.0331393802958068,1
0.311995771200185,0.0369356046675262,1
0.231465101324782,0.0301755908585202,1
0.0729989560645296,0.00644306657393057,1
0.0666560979598575,0.0152439143235016,1
0.0528509809391196,0.0148579370317308,1
0.0343241554736414,0.0170460184497287,1
0.0338870818972255,0.0181648330328911,1
0.0301652684688112,0.0379368823870126,1
0.00862232932930207,0.0101223445334207,1
0.00725961042876425,0.0310485869969028,1
0.0158928440100188,0.0365313431459811,1
0.0188337346233524,0.0182678497429536,1
0.0187914553662883,0.0138546174703655,1
0.0259621692557185,0.0209842793135945,1
0.0276408043365166,0.0139367855065928,1
0.0279327000848404,0.0145748153400174,1
0.0297471699613158,0.0158789048196228,1
0.0288809453586841,0.0151341043962552,1
0.0298407913645694,0.0110576755245401,1
0.0336149231164728,0.0107387525235274,1
0.0288378212091281,0.00904747106652714,1
0.0269928512240574,0.0133854937950543,1
0.0266980613006264,0.015583034665632,1
0.0179429424673816,0.00867176497375061,1
0.0161520822736115,0.0154238128707951,1
0.021604550412104,0.0202783348448822,1
0.0229816898851551,0.0143683819275252,1
0.0223962853529483,0.0116394330960627,1
0.0234500724660396,0.0219515658352615,1
0.025356853292988,0.032604661815658,1
0.0268155187499591,0.0195669519527901,1
0.035404564851089,0.0309573399367898,1
0.0543661589280276,0.0476731453051788,1
0.0547577704337597,0.0238166091237586,1
0.0616299415784804,0.0286927544618357,1
0.0603182868754593,0.0209273402598924,1
0.0584810945894779,0.0204901285501858,1
0.0594707174414751,0.0217901780177304,1
0.0570096417241469,0.0193297560349615,1
0.0468817216221766,0.014084273817538,1
0.0478454985942214,0.0131086175057529,1
0.0665447947066812,0.0187044864564298,1
0.0560097247474363,0.00948316385271221,1
0.0548519517910397,0.0139178797229882,1
0.0490673662715649,0.0105740771036014,1
0.0463785528936877,0.0116053279542321,1
0.0476456366228889,0.015505293952452,1
0.0368979042531724,0.00965092426917914,1
0.0360294337959719,0.0100802617111006,1
0.0386861868530059,0.0108487235718393,1
0.0402134985185345,0.0272510497284041,1
0.0203366115714196,0.0130078452280033,1
0.0222769152156377,0.0321269210420252,1
0.0254187707887783,0.0638878543078144,1
0.0192016846259999,0.0073137973536647,1
0.0399255275382815,0.0275528478250811,1
0.0408357801818853,0.0285954993414842,1
0.0407123035854675,0.0302472172074357,1
0.041944633211355,0.0319792734427099,1
0.0472902302330599,0.0232415176331126,1
0.04967798571577,0.0169666117469579,1
0.0481205064855614,0.011354528292052,1
0.106089572568505,0.018634959749832,1
0.124357242232149,0.00833812761524626,1
0.119428524017332,0.0124920791895008,1
0.114975032911785,0.0120735678934665,1
0.113749415354761,0.0119275023589928,1
0.113973330583245,0.0118987270972462,1
0.0982627733345588,0.00772644819773704,1
0.0931045400026176,0.00683337801700659,1
0.0909618095422721,0.00759024166971856,1
0.0752368105897755,0.00709051213403075,1
0.0500847001479665,0.0114966017195227,1
0.0285959252594565,0.0238438768534708,1
0.0282675529806381,0.0139600642456274,1
0.0861422702934604,0.0352220548549945,1
0.145786951752509,0.05629201498247,1
0.191742789625858,0.0706750823641361,1
0.247017943923048,0.10012759356749,1
0.266834376965241,0.111951517644366,1
0.299316701805585,0.137282400105766,1
0.267849244972469,0.109502496763288,1
0.198146060245063,0.0884935754248803,1
0.0973991976003291,0.0492368854100302,1
0.0349056186828602,0.0118762548813963,1
0.0335663796895493,0.0175104359810077,1
0.0480857747309158,0.0244897949972979,1
0.0735939546603447,0.026701425865423,1
0.121716863563852,0.0382886820443942,1
0.140798484518408,0.0437274777520784,1
0.143420516104922,0.0493405139556113,1
0.151950418992889,0.0568919248098068,1
0.134101158845022,0.0459709632517341,1
0.0988683893414317,0.0414571100147743,1
0.0418711811265903,0.0199509197156618,1
0.0412270507679686,0.0143294263674832,1
0.0724532783065967,0.0318435366097423,1
0.134218568352453,0.0681520568552664,1
0.164293316876011,0.0443772850894169,1
0.149401241893557,0.046908164478055,1
0.136451478378515,0.0393926987463255,1
0.128511775224488,0.0326542165834761,1
0.148246676440618,0.0236882166751272,1
0.163049427430743,0.0243902780791029,1
0.155954530186717,0.0215031367986332,1
0.149076042072906,0.0203703032509193,1
0.164461316211702,0.0198801637916604,1
0.15275767569825,0.0182163275078331,1
0.155405720137442,0.0225367559788699,1
0.157297415441884,0.0191523896183326,1
0.182618874963575,0.0123612081495859,1
0.152789260643004,0.00566177315665838,1
0.143847715726492,0.00961219325349099,1
0.148200344797925,0.0101407985764641,1
0.134091612838905,0.00595914965564192,1
0.261447345731709,0.0145631261143315,1
0.339650739710626,0.0146804634716309,1
0.337230081248874,0.0173928845490961,1
0.356356385383641,0.0138346619073744,1
0.27115709496301,0.00446608272404276,1
0.291453044478316,0.00839809264904035,1
0.349391689491426,0.00968045075128287,1
0.363272908824438,0.00975426018911603,1
0.396734170628136,0.0112510874639378,1
0.40090137884859,0.0121104928434898,1
0.363627455782584,0.0135202994262384,1
0.278817632713145,0.0105991991612379,1
0.239557361865999,0.00598346603181252,1
0.253978634391309,0.0117903025794968,1
0.245455636208573,0.0148957599613027,1
0.145062923397541,0.00198138833265018,1
0.188666707211501,0.0125848463278145,1
0.220380244124564,0.0157033710613775,1
0.249496856731723,0.0123268566700078,1
0.324252038172108,0.0125346462243409,1
0.389650904257554,0.0103842429965329,1
0.437976674436259,0.0136489736123469,1
0.439491571570445,0.0149515831371621,1
0.463021270755618,0.0142664035639256,1
0.413662268877941,0.00891699328376482,1
0.423743601470255,0.0164549873910022,1
0.413792852022844,0.0140354999214521,1
0.437393039302999,0.0142283053203891,1
0.472874336098143,0.0314949058928258,1
0.310487194644544,0.0283013304554086,1
0.347483753444176,0.0637715442457962,1
0.357048838309669,0.059471082638503,1
0.359939139305284,0.0499659332570124,1
0.406650595636816,0.0682108564775265,1
0.364020330614293,0.0836349559804021,1
0.203064544464768,0.0539161524935561,1
0.0875868257866771,0.0234636175137861,1
0.0482180044037618,0.0223735726519676,1
0.0542512029883117,0.0260281177900584,1
0.0588379075495933,0.0165810102445587,1
0.0639383849900665,0.0166444803022134,1
0.0554299182207061,0.018556126678146,1
0.0336252650193337,0.0131722725414291,1
0.0349832533977448,0.0159053799397438,1
0.0386509128439194,0.0166955556381647,1
0.0416335088446929,0.0103901169133791,1
0.0467140208423989,0.0123438748203272,1
0.0458293213658948,0.0134033556501882,1
0.0352793943198919,0.00767729471644543,1
0.034343232916181,0.0184100006272809,1
0.0422322625992859,0.0232570064070911,1
0.047881097087529,0.0215999848851293,1
0.0402116002030126,0.0182712329803643,1
0.0356399635233647,0.0173372844295877,1
0.0356116980692028,0.0177159461919903,1
0.0342533560639716,0.0307830366038247,1
0.0229280193671374,0.0226073959233856,1
0.02261812800593,0.0274843425497253,1
0.0213748710319818,0.0221926546566577,1
0.038007508391458,0.0277431809747969,1
0.0588140612877339,0.0237707887594004,1
0.0618299442951629,0.024658650569619,1
0.0747145361575266,0.0286801795335479,1
0.077569491629005,0.0261693972244992,1
0.0771760833605392,0.0271737736583739,1
0.0747863200053269,0.024035450087516,1
0.0853691461014367,0.0223119432393771,1
0.100351859650356,0.021579036506581,1
0.100096728458455,0.0224982148073542,1
0.101405919017906,0.0272618887110194,1
0.0831860548652973,0.0323411154880603,1
0.0833705428877564,0.0351128885546324,1
0.108146714527463,0.0406517347579145,1
0.117762505046464,0.0192195183888921,1
0.0994854275607129,0.0144966502892351,1
0.0825391667381416,0.0118765419562778,1
0.0842503840397233,0.0168008340465611,1
0.102766637708637,0.0221703729133633,1
0.111481283204209,0.0222816963053447,1
0.110386913708138,0.0209029521111137,1
0.114776253884503,0.02143523274503,1
0.132249599097898,0.0360736507158088,1
0.113953940895789,0.0337992905201312,1
0.0884286648496965,0.0415518736226114,1
0.087188833812236,0.0417925681506475,1
0.0864770864268516,0.0375241681815166,1
0.099094704418264,0.0164067139489577,1
0.158616879991491,0.0317955187293658,1
0.131629570244506,0.0200919486235604,1
0.1366506074938,0.0161347338447407,1
0.25042796476295,0.0314570352409033,1
0.268805986516374,0.0245338522972538,1
0.264975998471489,0.0292087425483893,1
0.215146280164076,0.0257480363679316,1
0.200252729575063,0.0242983243442242,1
0.140936980321567,0.0145836012867215,1
0.100674811829829,0.0154959761859746,1
0.100137961933167,0.0185133161494467,1
0.0924585469943751,0.0183639675296341,1
0.0988875102932927,0.02755753832636,1
0.108122054965131,0.0373572043589996,1
0.111458596811504,0.0308652356223405,1
0.10872113790853,0.0220397269966041,1
0.116877150544248,0.0202480181027875,1
0.132050336122243,0.00460522771789412,1
0.245849364035815,0.0177350732846772,1
0.259428198493942,0.00656413734999649,1
0.26988268178233,0.00367899996424731,1
0.270448831356214,0.00505205625513142,1
0.302332546580037,0.00325080192225761,1
0.368333032424325,0.00516380235359783,1
0.360786126519597,0.00514366520955868,1
0.374748345102423,0.00615764881555781,1
0.356432600302286,0.00594526799113482,1
0.343236117090916,0.00876153865770223,1
0.288904671863149,0.00559537797758611,1
0.252526569619018,0.012553117682692,1
0.217015509451179,0.0152191698375482,1
0.212519578985916,0.0147870235557234,1
0.197548518496731,0.0289453065736678,1
0.12781588680648,0.0247633816441866,1
0.143357487240795,0.0384011587088803,1
0.127768452483096,0.0193246684059125,1
0.175095257406029,0.0257448928862133,1
0.16770106013447,0.0315151197409233,1
0.154996625858434,0.0330488174310779,1
0.160039337436601,0.0325366803207385,1
0.169972739117379,0.0219718766133864,1
0.288303130237149,0.0388650272040631,1
0.323246015785367,0.0237613804798332,1
0.303132069468089,0.0197248413088248,1
0.280426736373094,0.0135920121605206,1
0.341738155457464,0.00934495075842423,1
0.410782763481841,0.00577024270123619,1
0.469150122146644,0.0075979179723158,1
0.463830730911906,0.00798284282067143,1
0.437341463371554,0.00479061479534093,1
0.542510645597282,0.0107897413383168,1
0.536863252544578,0.00920934538656117,1
0.48738983498333,0.0089452540735228,1
0.497778967078355,0.00661026052982844,1
0.546324425278725,0.00904669238278945,1
0.56378944047005,0.0179835720764053,1
0.580894792551274,0.0306278853909435,1
0.482399457979915,0.0303628029641847,1
0.402997261246537,0.0243255200681148,1
0.322071527576544,0.0230754036459184,1
0.336495514833521,0.0258078855062052,1
0.344381476137498,0.0332696547190984,1
0.19774693875364,0.0254144025583444,1
0.0642477125708308,0.0168786900573436,1
0.0815385064042968,0.0359372814043461,1
0.0648678677877127,0.031355857152457,1
0.0530499235464049,0.0234370588751389,1
0.0615126257038145,0.0251895460755013,1
0.0566464269883461,0.0263220006415989,1
0.0703671434956472,0.022607534674944,1
0.0764567652917699,0.0127311343404949,1
0.0806419918927915,0.014387734577771,1
0.0717148385571033,0.0126662261680336,1
0.0758639678270419,0.0146326445656793,1
0.0856716610926086,0.0184441184545465,1
0.0947159333693297,0.0209917107592427,1
0.0816243319600446,0.0172462486402018,1
0.0716268998955127,0.0144814511286566,1
0.0801435281321854,0.0156372998681802,1
0.0459913846219619,0.00786541758726193,1
0.0320332009425987,0.0157257912313568,1
0.042979667120727,0.0264817163964814,1
0.0356401249062287,0.0138169912279355,1
0.034212558705129,0.0138448261381253,1
0.0341928965657471,0.0140517901593141,1
0.0379364749848461,0.00624774029127821,1
0.0788625314705644,0.0235566203496918,1
0.0858310667015785,0.0215111642713856,1
0.083030577815725,0.0212893497042934,1
0.0824977701978502,0.0209996120789265,1
0.0786851842125624,0.0216696353171586,1
0.0600896041482319,0.0149934965506402,1
0.0538253985474526,0.0160200219736743,1
0.0551627036712616,0.016720312392745,1
0.0459362440374783,0.0126414528095225,1
0.0495163751015922,0.0374416647072032,1
0.0236167137382252,0.0193977924785813,1
0.0189037956990347,0.0299809776196571,1
0.0192377769463209,0.0285156196939288,1
0.0331670918423422,0.0263875452384166,1
0.0508228428513347,0.0387916417727857,1
0.052635737367227,0.0261074416178646,1
0.0611722785515503,0.0272460091560499,1
0.0635661540637538,0.0280001234012152,1
0.0652499138781937,0.0313012661375297,1
0.0616029774135604,0.0347151626199331,1
0.0638766698980522,0.0423648574517445,1
0.065987566675456,0.0437800285395325,1
0.067978157740375,0.0420945945834419,1
0.053507369246442,0.0744294823778505,1
0.0209077311709811,0.0351395062876563,1
0.00633566140696523,0.018462135686995,1
0.00652382198654331,0.03171111205354,1
0.00708921886613868,0.0374711921769208,1
0.00719391419302003,0.0331760649137529,1
0.00714641955793288,0.0287934127472801,1
0.0146771451822373,0.037593022485419,1
0.02641044190945,0.0635268928654132,1
0.0320498551173037,0.0663673403380249,1
0.0579611963851825,0.0845209513672301,1
0.0587612497094508,0.0543407867215227,1
0.0521937935354405,0.0406409324686385,1
0.0529179324913738,0.0410009010282814,1
0.0566821634177386,0.0449877766346154,1
0.0581127386174091,0.0452326298730471,1
0.052249908728723,0.0423792133341296,1
0.0529332319638756,0.0536233877573697,1
0.0505375272036144,0.0470707209768828,1
0.0501923841932266,0.0573064392229445,1
0.0344528506071007,0.0527803158335214,1
0.0250790168735314,0.0364023375724693,1
0.0287725787431992,0.0484479170727813,1
0.0289206510546402,0.02646971529456,1
0.0320691241632347,0.0232230297947276,1
0.0284429816110469,0.0171372094694049,1
0.0422068083759287,0.0260840457899259,1
0.0441309270709166,0.0111263102591452,1
0.0494641386036535,0.0151070668681826,1
0.0531570324147658,0.0165642125450341,1
0.0595256214126319,0.0201798944491845,1
0.0576245721953487,0.0228509987695583,1
0.0517832016321519,0.02105652124435,1
0.053585401469468,0.0295380692261052,1
0.0513016156343027,0.0313024351657636,1
0.0493672400462508,0.0345970798064696,1
0.0259527638309689,0.015115458985846,1
0.0270795200595327,0.0572979062389437,1
0.053643792409652,0.0974444582410816,1
0.0586465819548294,0.0449803057758758,1
0.0511368350799526,0.0418897875039985,1
0.0523011871931919,0.0396794340292992,1
0.0535823343260592,0.044683864995281,1
0.0490429307919852,0.0371527383898931,1
0.0375002701974498,0.0216012394656548,1
0.0418255598635308,0.0249675806329328,1
0.0439781915104063,0.0237337120543695,1
0.0509931442535,0.0178616805673099,1
0.0657215941207017,0.0226484664015118,1
0.0840335215240766,0.0468590124093112,1
0.179294586909456,0.0512904217347695,1
0.273146979110741,0.0331769984036607,1
0.268684884231032,0.0316404244826429,1
0.298157956175385,0.0212085613740681,1
0.395991310174029,0.0354774996033255,1
0.401047441482113,0.0417536174073239,1
0.317815125572476,0.0133409250696027,1
0.30444226963553,0.0124698643012565,1
0.287906015747858,0.0110038507462652,1
0.268708948994497,0.00921333766999587,1
0.283453497145709,0.0134094091488618,1
0.265453708485328,0.0167511927211084,1
0.226022131422286,0.0103273650770442,1
0.306294368220291,0.0217851001253122,1
0.392473109784872,0.0178256157796381,1
0.364560129263416,0.0114384278383546,1
0.479482096139517,0.0196492100486547,1
0.531125605333279,0.0240801801937526,1
0.594612960622145,0.0236197315027304,1
0.567302036920996,0.0177203016654884,1
0.612796659129151,0.0169915862258211,1
0.516662189122427,0.0104758236520965,1
0.481599985210491,0.00721058254506354,1
0.522517351591216,0.00398727911360498,1
0.578377919778867,0.00752443570360212,1
0.40218723682772,0.00228485908341575,1
0.390421706727421,0.00473848163040715,1
0.426524488397703,0.00467905227346051,1
0.465156541601182,0.00524598021881306,1
0.444099267097983,0.00673924551083712,1
0.367703875731343,0.00437939496547848,1
0.367293508386013,0.00543864765787832,1
0.302196335400865,0.00494465557619691,1
0.267457301987678,0.0147986084499893,1
0.241452956413853,0.0140272772853735,1
0.249742743517307,0.0110341522032633,1
0.245276732447544,0.010558381195164,1
0.316903581776744,0.0163731306316098,1
0.289453108344156,0.00805882726865928,1
0.289936589733818,0.0116065965738765,1
0.273483127486434,0.00883557168731551,1
0.247480494529953,0.00405348132266572,1
0.260487031549838,0.00465918010784738,1
0.268776428611296,0.00444521260736342,1
0.269459482550789,0.00405450919903363,1
0.262704130189432,0.00462912559226637,1
0.278915589987124,0.00610516500477771,1
0.203549401071906,0.00273554104643541,1
0.233517811764293,0.00982902111715083,1
0.412096283061667,0.0196444072713422,1
0.396228058743699,0.0127437842701261,1
0.352903601810985,0.0151852192508776,1
0.372182034177968,0.0170933338864101,1
0.365655957722372,0.0155382399543556,1
0.420046016535531,0.0193195774985394,1
0.448175930066634,0.0178055528830187,1
0.370257841659329,0.0138136848041246,1
0.352651840122576,0.0115482417478235,1
0.389525976038944,0.0108020461666432,1
0.356946348609296,0.00889181270452227,1
0.324178936048978,0.0102042384689096,1
0.462397519936307,0.0163222383123819,1
0.452078087474245,0.0091137877364371,1
0.45235772880741,0.00870704494708188,1
0.456852792174167,0.00778091288371965,1
0.476640376320798,0.00788510971849398,1
0.492881831644639,0.00654090320187192,1
0.463877502727607,0.00522552733541027,1
0.404359670444464,0.00462678335341093,1
0.482890190696469,0.00878705140437376,1
0.500908026364445,0.00661912508057148,1
0.361333731908578,0.00116370139507587,1
0.337952825236013,0.00351115172567755,1
0.339654322390757,0.00538959719601947,1
0.39031882905972,0.00808825078209632,1
0.424618460699196,0.0139557009681442,1
0.4228869895388,0.00932418331875592,1
0.424790740922086,0.0125560719158164,1
0.405223299721465,0.0128908044104672,1
0.417218869409344,0.0129343467760797,1
0.466228954062832,0.0354935445573503,1
0.336961665638959,0.0243806635866958,1
0.305406317333439,0.0209969331026797,1
0.289721938929012,0.0148563902311757,1
0.317228743057325,0.0207717463831505,1
0.29824677115544,0.0189263430267438,1
0.260543458260321,0.0458554092309018,1
0.108062635206437,0.0141755311532,1
0.0676610173448226,0.0140459312427189,1
0.0692051005602288,0.0153469028477014,1
0.0797585285972735,0.0202382958319153,1
0.0876405840311009,0.0224610736929962,1
0.0704958794846597,0.0310084849774637,1
0.0518652141145478,0.0584728533122161,1
0.0544768880102184,0.0412429258215305,1
0.0426764821894412,0.0206999281828791,1
0.0307048035187823,0.0115739015497219,1
0.0273867209011819,0.0126221879359661,1
0.026669241946956,0.0109026389663428,1
0.0287770315235235,0.0105962725602174,1
0.0348297892864799,0.00262767976006479,1
0.0492116151092497,0.0084057182175486,1
0.048828804282414,0.00865286847570794,1
0.0474040891651989,0.00619185665048748,1
0.0748745498211314,0.0169567620364749,1
0.0752402275163866,0.0114515223902416,1
0.072455228597536,0.0101352387882488,1
0.0757499461127961,0.0082373362544587,1
0.0782566493580123,0.00632039128846937,1
0.067321708396385,0.00408675107528514,1
0.0621875194204295,0.00790818173130797,1
0.0569182107130607,0.00688002267287536,1
