Activity,Complexity,Tag
0.00305298122901268,0.0122927120377071,1
0.00362895237602951,0.0173678764056496,1
0.00325452928894977,0.0159060788114696,1
0.00289583124754863,0.019630736933777,1
0.00271993782813425,0.0172624022274498,1
0.00294593427581435,0.0143933111866874,1
0.00337757740087845,0.0141932799126899,1
0.00299891926362314,0.0151722016314563,1
0.00252961676450387,0.0115704766269068,1
0.00366967008006732,0.0185195951081225,1
0.00393206081202697,0.0205038910137232,1
0.00297763047364179,0.0191562188998527,1
0.0029617883260274,0.0197852849333162,1
0.00298337933234533,0.0190329784750983,1
0.00308840319846147,0.0203035233136382,1
0.00350703480271169,0.0263180545243754,1
0.00284742634207284,0.0214843442447347,1
0.00280314146745493,0.0207251131698228,1
0.00299198559608835,0.0316453319547163,1
0.00253553827395451,0.023978626523822,1
0.00244516356219795,0.031887069694064,1
0.00215610389116286,0.0256138647797846,1
0.0023919120800741,0.0255316393686061,1
0.00223578361775904,0.0215995895101698,1
0.00342487840733081,0.0313169368062511,1
0.00325122984101213,0.0261542021127793,1
0.0032326464361401,0.0259388590577698,1
0.0112062008034948,0.0165473125658418,1
0.0263430812435772,0.0358073225089436,1
0.0327883563701755,0.0386219848439884,1
0.0348464338489109,0.0340296167843672,1
0.0443574415091279,0.0307691986176571,1
0.0404569320714111,0.0201225422086208,1
0.0377692034051148,0.0196712420397425,1
0.0367942240219368,0.0151002893473182,1
0.0345945451212754,0.0140813965013267,1
0.0280092526323688,0.0121684420992292,1
0.0318043634552418,0.00861424995608541,1
0.0451827689596295,0.0110348510996665,1
0.0457884231433049,0.0104129531298423,1
0.045824296824178,0.00960512137438424,1
0.0495094463958785,0.0108719761046794,1
0.0482337672716213,0.009876436188436,1
0.0397593791261102,0.00654711104215577,1
0.0377425213637541,0.00785359588550629,1
0.039425997152984,0.00850001742245857,1
0.035935380708524,0.00592840200191818,1
0.0320397038411847,0.00931234666396218,1
0.0237259245860975,0.00790619132111508,1
0.0204110599165621,0.0074557060774544,1
0.0159135026608625,0.00724766873823828,1
0.0119375654181128,0.00560915387672994,1
0.0120586515115621,0.00973818214428743,1
0.011023630383388,0.0123921361930183,1
0.00969587437275871,0.0114934812552141,1
0.00568984472138141,0.00846283347231758,1
0.00587276646977188,0.0180077246440277,1
0.0113919094379207,0.0328618867658976,1
0.011807056096407,0.0152506139312,1
0.0315612693430073,0.0214117649481981,1
0.0374032340945866,0.0218673128009183,1
0.0385825531070674,0.0181244453708867,1
0.0436864785403806,0.019650655355958,1
0.0474042911339679,0.0222956694157482,1
0.0485185876729979,0.022108946283045,1
0.0479174862266713,0.0229396295772353,1
0.0478170481535863,0.0215551610441756,1
0.0457922645510631,0.0203302925872761,1
0.0445422194018014,0.025507887611009,1
0.0387470328051593,0.0302686887669609,1
0.0356769813096852,0.0168641272512968,1
0.0337979388876312,0.0218697341244483,1
0.0307859015182901,0.018165236540366,1
0.0446081565317197,0.0198124810541315,1
0.050600578879346,0.0172647513285842,1
0.0566957635608393,0.0100619664407092,1
0.120439596616159,0.0171920558059668,1
0.106041104120724,0.010017441838893,1
0.101801472880313,0.0091893346664126,1
0.104080617426759,0.00859695401501365,1
0.105763952874842,0.00872100042986032,1
0.0945194548225712,0.00758429200610909,1
0.0790277949928285,0.00609319997586273,1
0.0793386581564053,0.00699979469324108,1
0.0920018483285568,0.00596846597198776,1
0.138571478250707,0.0133455719759404,1
0.139420409091981,0.0145762100113719,1
0.263594277507935,0.0335369937672025,1
0.341928936714658,0.0322754691240514,1
0.309272649009036,0.0317533753602218,1
0.283670277356994,0.0270600838664328,1
0.313071104092933,0.0270674336051541,1
0.275422306792518,0.0244138403445982,1
0.190543718550429,0.0162736801374134,1
0.131531841052128,0.0132027894844044,1
0.152855864047921,0.0153786792902936,1
0.111249143386984,0.00889105392380475,1
0.125736678183675,0.0123082718548,1
0.136863629288302,0.0148855269439474,1
0.114807153625353,0.0102855951552939,1
0.152782505168053,0.0152648036903153,1
0.148442798272213,0.014634056561294,1
0.148678908475648,0.0143617221229465,1
0.139115933721726,0.0120170894754092,1
0.142385577245805,0.01301454277591,1
0.0719226090762092,0.00563769532813325,1
0.0648747888945393,0.00743379802063214,1
0.073027776637874,0.00501747685287266,1
0.187391204978845,0.0161874358210338,1
0.215000601128022,0.0182528062981094,1
0.248292271847677,0.0235308671877739,1
0.359576528817969,0.0308084385260936,1
0.453986323940993,0.0408661010604148,1
0.420545137275373,0.0412815534984348,1
0.428442459669048,0.0435071246446568,1
0.356437020476479,0.0366128674341771,1
0.23138595604464,0.0231735515602722,1
0.0975972386247616,0.0119635311319499,1
0.0948739678334278,0.0138794301851868,1
0.0586449533985148,0.0134539808339444,1
0.0235473258080333,0.00628751503363795,1
0.0252337228147263,0.01296928420752,1
0.0245129275731446,0.0115711724051734,1
0.023808069316541,0.011013221012988,1
0.0245665521937606,0.0106030110422364,1
0.0260825825334546,0.0108106736189343,1
0.0258666948904746,0.0105389613570702,1
0.0166478977855358,0.0135985054679894,1
0.00968593126583909,0.0179806115153161,1
0.0176920347623303,0.0279748410084995,1
0.0204630441346797,0.0154408971145376,1
0.0174443757366388,0.00891460195358093,1
0.0219248395648117,0.0122907363747069,1
0.0230850541459465,0.0097164331218856,1
0.0300961426381517,0.00441208884580927,1
0.0428512053650819,0.00739547675953992,1
0.0431672126540562,0.00664014169510506,1
0.0439570639389562,0.00647593488597232,1
0.062869361957054,0.00781894030382169,1
0.0780157901771459,0.00649501945572479,1
0.0767758712143843,0.00631419281543706,1
0.0870771647180618,0.00817139796976917,1
0.100520430823366,0.00889841988070444,1
0.176638147623225,0.0179606647988347,1
0.215815662556548,0.0250350017751398,1
0.279788584249998,0.0324759526881569,1
0.259233664183304,0.0330160538897673,1
0.199033634827896,0.0264061909140289,1
0.309429786404981,0.0275846270646093,1
0.327111421980307,0.0175031499572656,1
0.21415140932958,0.0116936005332622,1
0.189597940171993,0.01015005347883,1
0.128403597616853,0.00611154306337777,1
0.125501821380326,0.00609499952028216,1
0.123219315732291,0.00542064195760276,1
0.12847350998152,0.00466268197839612,1
0.147522153298332,0.0051394990545881,1
0.150722128995518,0.00440222271277186,1
0.156335121476295,0.00325919308788213,1
0.165665315853821,0.0041667049654172,1
0.20084856320427,0.00590534230034256,1
0.255362467702432,0.00817983680342574,1
0.270868868449571,0.00916752955396462,1
0.299562026938898,0.0108665443813066,1
0.297352015054208,0.0100367262527102,1
0.298181700386392,0.0107760741361709,1
0.27321138263869,0.00932393098885368,1
0.313253017499096,0.0116595627949218,1
0.212693074921374,0.0156276497855394,1
0.0847176592503246,0.0160360954465834,1
0.135082397863414,0.0205407705664869,1
0.210521555738315,0.0321077107425908,1
0.233565846193436,0.0317362225016211,1
0.268285945956337,0.0326929987313681,1
0.251430264760161,0.0353963855689953,1
0.13090155545291,0.0201423892214988,1
0.112495782273993,0.0197670886968186,1
0.1101601979871,0.0157464221873166,1
0.0857341232513166,0.0123575899264318,1
0.0397279695865328,0.00219379885163172,1
0.0364005799980045,0.00763320386205714,1
0.0377946835360874,0.0081836964034999,1
0.0423071707185347,0.00979160511076854,1
0.0433909794786864,0.00818784810262197,1
0.0514664228792473,0.0125173893806572,1
0.0375265755262033,0.00681578470422368,1
0.0361931271285395,0.00823727390158087,1
0.0355973733760369,0.00931350128009076,1
0.0276046468189393,0.00734807866471057,1
0.0271296146645434,0.00826157486925796,1
0.0281446258486027,0.00893066270039655,1
0.028039810997206,0.00924134137481276,1
0.0238674100592095,0.00618754237939666,1
0.0230162842247653,0.0108210287601077,1
0.0111064746830788,0.0041725300415574,1
0.00868645561423823,0.012468994143162,1
0.00800308717147401,0.0108868265997037,1
0.0217260621647925,0.00923768698006367,1
0.0390894605486091,0.0156459061725814,1
0.0395417208572538,0.0134286528922634,1
0.0555368663874831,0.00494266983650418,1
0.117385257380739,0.0169199690370527,1
0.122820201657687,0.0184394975881264,1
0.125281236149357,0.0185685021774177,1
0.124822309033183,0.0154777345307341,1
0.112558615295119,0.0145981740044324,1
0.0819214715287966,0.0114162823961835,1
0.0822698534822151,0.0136011272566968,1
0.17092307435474,0.0236542961405698,1
0.194294766731105,0.0291003546364405,1
0.24807482853564,0.0463734777569812,1
0.288207256445177,0.0488932987400382,1
0.297620027806506,0.0412571114032745,1
0.265789100571695,0.0337413689895313,1
0.297232848565526,0.0207962107051299,1
0.377241772493681,0.0212797446827841,1
0.308492110186225,0.0157829257648414,1
0.271423559805395,0.0126136024846848,1
0.265913035777741,0.0116202993981033,1
0.270050614730922,0.0108806870001797,1
0.273418279447891,0.0101022315304161,1
0.267346655671097,0.00899191139775139,1
0.328549431303026,0.010662381493785,1
0.274259573079571,0.00807747796901764,1
0.318679145830499,0.0195204614850636,1
0.26755145905298,0.017066613269271,1
0.291649690186424,0.0189778906822183,1
0.262146368115655,0.0206304648901308,1
0.220112575065053,0.0189930366014278,1
0.246806726297982,0.0229093527729571,1
0.245071943817228,0.0271100448232229,1
0.140703399775585,0.0146401367654582,1
0.132763111395853,0.0170656439423608,1
0.128746407473494,0.0105423044613845,1
0.177581813101673,0.0166553999522654,1
0.207214736392995,0.019988585221646,1
0.216505251556788,0.0212120302411293,1
0.22675214414699,0.0215388206084462,1
0.215107147563509,0.0203281171561341,1
0.197749492257898,0.0181008487600147,1
0.187391071362678,0.0183445235038443,1
0.178531994618428,0.0220960200985697,1
0.0444037847213205,0.00418883372422577,1
0.0110350722734478,0.0193971948996895,1
0.0139109535071572,0.0174288425729941,1
0.0131850938215636,0.0186940355355555,1
0.0100425836166389,0.0113756482411195,1
0.0101910283121288,0.0116042168850924,1
0.00991591517122531,0.00842359148680889,1
0.013315296726038,0.0125328723721663,1
0.0126838956768531,0.0138894874317174,1
0.0124189257480423,0.013609905415164,1
0.0130804449435435,0.0102868625352901,1
0.0183620159337908,0.0157789606750743,1
0.0190688258095347,0.0133986055743556,1
0.0180407150638784,0.0108402805319018,1
0.016208666012581,0.00897994611656521,1
0.0179808986831971,0.010583508335656,1
0.021263174155105,0.0156098634098336,1
0.0248346115120148,0.0180368614193781,1
0.0427175953952765,0.0256477245345635,1
0.0456643341968928,0.0202449594477227,1
0.061142660356478,0.0148776740675011,1
0.0868276642772995,0.0187698339016144,1
0.0862846241799022,0.011047605296315,1
0.0775324601931345,0.00610406269933959,1
0.0919877068815886,0.00810406239056992,1
0.0943586848844092,0.00678954869990137,1
0.167852283989896,0.0146442909450842,1
0.216817852419443,0.0191777262900849,1
0.279777924675131,0.0225073321192988,1
0.357231785271533,0.029966290551718,1
0.404022623968097,0.036061582590833,1
0.50622604018587,0.0380005468338448,1
0.393792030821879,0.0413744440117732,1
0.255561093551395,0.0347657294025574,1
0.194804880189936,0.0305977000657,1
0.0830225517283513,0.0163368202574567,1
0.0885295680584919,0.0173862135350041,1
0.0878767608059454,0.00865219239358406,1
0.123748541701528,0.0126966591793788,1
0.124962635974585,0.0130876995198579,1
0.123363398151926,0.0129687455294058,1
0.154790689549461,0.0159535224204746,1
0.195887600972471,0.0196615299132697,1
0.21432097253883,0.0176914613043887,1
0.214855668581689,0.0177115883112977,1
0.219752254163417,0.0191002529321861,1
0.205695380260055,0.0188922656765858,1
0.209837845534981,0.0310904454757487,1
0.131999107451121,0.024669199555314,1
0.120667098151072,0.0211702320647442,1
0.0817349051787301,0.0159502724315275,1
0.0850206527649709,0.0213231212205243,1
0.115654503932476,0.0225219999019679,1
0.25895078986705,0.05039614449908,1
0.346862667397776,0.0649251014640747,1
0.407269739346694,0.0709078216657679,1
0.347872215203982,0.0576299382094271,1
0.302138337512306,0.0507832304330726,1
0.26694176581483,0.0465957834172371,1
0.244755576213606,0.0474650560954442,1
0.163325249970713,0.0391355450232207,1
0.0874431957393334,0.0210647050279459,1
0.0476400341144565,0.0174473960123276,1
0.0449140339068197,0.0288214960874606,1
0.0393558172670134,0.0199039725444753,1
0.0302144659051154,0.0129377816502385,1
0.0350619459704321,0.0143026975177491,1
0.0307077502310882,0.0133198820086727,1
0.0267436324274698,0.0126880497579842,1
0.0257729305635645,0.0121626840756731,1
0.0273193616212083,0.011527923081644,1
0.0314517912257554,0.00924515967821358,1
0.0314721547672214,0.00513740567886786,1
0.032303391001296,0.00553110303603495,1
0.0308183775325472,0.00609788983360308,1
0.027059952051213,0.00558361097101413,1
0.0263616478276095,0.00636611785522307,1
0.025851260969579,0.00624575419388709,1
0.0267099754056336,0.00628951777313315,1
0.0266805783195521,0.00614650041160252,1
0.027687673019388,0.0052629573462109,1
0.0253893736344613,0.00473271341913528,1
0.0243520840784478,0.0103189850593506,1
0.0263193289896152,0.0114069172280109,1
0.0401139642505583,0.0156757433627168,1
0.05172290918776,0.0102963292605083,1
0.0553103199311757,0.0120543105311297,1
0.0577446656160112,0.00871853029861454,1
0.159767922443954,0.0148264711578332,1
0.299491250300999,0.0246603984715203,1
0.43228869578722,0.0273563631497919,1
0.703057293343028,0.0396915958658244,1
0.763346344858707,0.0396225782758711,1
0.779526742335847,0.0400460211925966,1
0.77750738089241,0.0394626241026794,1
0.721132310496842,0.0472313641168182,1
0.411235316355932,0.0303527271636559,1
0.157787615789486,0.0140073744589014,1
0.108568834688083,0.0100653706037313,1
0.152179455768221,0.0112634023916038,1
0.133206281018001,0.0202574414559582,1
0.0982566981037597,0.0124871780874637,1
0.112715779409556,0.0157891746483287,1
0.13012137852122,0.00892366918751154,1
0.187765084312455,0.00977491991061065,1
0.185178433249153,0.00878856095261801,1
0.204268001676573,0.0108344050967377,1
0.21967636381801,0.0118447843479368,1
0.215709416210586,0.0139871918338972,1
0.158586943737729,0.012480011726655,1
0.179854282362741,0.00927670176468818,1
0.29072096594611,0.0179821762514358,1
0.354711273021029,0.0206759001167371,1
0.361635800072554,0.0299628950662847,1
0.463185543283291,0.0403556381740353,1
0.494248260776961,0.0384052262840945,1
0.493729685948083,0.0311086792053921,1
0.516140820359918,0.03183697904216,1
0.443970902686773,0.0273534524263266,1
0.339991607441372,0.0220382152830451,1
0.219475621331159,0.018686536836653,1
0.201260844329057,0.0173991855928794,1
0.190269831933026,0.0165431563269576,1
0.101959624668319,0.00842273251470718,1
0.0817671728077951,0.010200845863999,1
0.041855640026878,0.00532564584942506,1
0.0165105607507236,0.0203220363240782,1
0.0151590626500862,0.0114759206787468,1
0.016642679941148,0.011058118810001,1
0.0173334255384265,0.0124151694277734,1
0.0182633346396378,0.00773719036877206,1
0.0192466712164358,0.00531752609911146,1
0.0252230153262704,0.0080027895717595,1
0.0294379856872139,0.00507089673243009,1
0.0369302744045736,0.00602983807590639,1
0.0394026141323206,0.00567768845249476,1
0.0371392805892439,0.0052826008641888,1
0.0396030105851576,0.00737416663555489,1
0.0404754651812458,0.00823758790990517,1
0.0575183611660907,0.0112637138471315,1
0.0640443421429548,0.0123050248938259,1
0.0607930840894854,0.0136188683172787,1
0.0556030496651258,0.00855602042412962,1
0.074158911267486,0.010738941746586,1
0.086446073833019,0.0109231486436512,1
0.078872915867692,0.0087728920312687,1
0.0707433448401881,0.00634261017290105,1
0.117131681587441,0.0118091069888878,1
0.119420227217161,0.0105076638787931,1
0.134701016048721,0.0129521280001964,1
0.150673010455346,0.0139607535062301,1
0.226906303515804,0.0211333724121756,1
0.283048900402587,0.0282459772065568,1
0.411520027215391,0.0438343137815259,1
0.35949020958454,0.0322570582181114,1
0.252070255757351,0.0234926977136512,1
0.199289835309215,0.0174523372394282,1
0.20330337472771,0.0198107578476491,1
0.194611789992219,0.0195256996631564,1
0.256348248874274,0.0265786299878999,1
0.261950561078619,0.0265169818454082,1
0.260637131048198,0.0258121518256785,1
0.277668702088533,0.026675980692448,1
0.286543481735944,0.0274561912609256,1
0.283548918170478,0.0337919908013824,1
0.241693276880752,0.0315307913421052,1
0.228978952868594,0.030882672205433,1
0.226812196503096,0.0303176209849777,1
0.219313506539897,0.0368617441806594,1
0.173771370218414,0.0248389986498845,1
0.15405780231815,0.024394223634279,1
0.218201752336705,0.027609581581864,1
0.19729127268059,0.0208027203296161,1
0.179638149052765,0.0158433581016745,1
0.323210792514651,0.0216103890757191,1
0.468766614713002,0.029531558363517,1
0.657060427321235,0.0456107443306077,1
0.814020698375922,0.0521338741199171,1
0.978819519657978,0.0576646945822563,1
1,0.0746729094577271,1
0.847329892324361,0.0656334392287259,1
0.469777571323668,0.0446612453152027,1
0.292889073715756,0.0366299419980595,1
0.066194560758049,0.0152852959666664,1
0.0384668751388359,0.0218130197913451,1
0.027831119180323,0.0190939940353673,1
0.0318934574066596,0.0169513757240076,1
0.0327656655987742,0.0133657153426529,1
0.0334648134224955,0.0130409306819978,1
0.030389239007344,0.0124137099093,1
0.0228372187218385,0.00930299138930548,1
0.0287495578926098,0.0057279155854777,1
0.0435170664236506,0.00998855986255992,1
0.0435681652359373,0.00934566230367031,1
0.0458589325343581,0.0101626251051348,1
0.0457553837592304,0.00815105805144074,1
0.0436200760499231,0.00807418105481158,1
0.0416912107160048,0.0123710387369235,1
0.0466939257063958,0.0111047046657556,1
0.0581611612336557,0.0111492972163487,1
0.0485730316056251,0.00890562292515626,1
0.0467007312333602,0.0165317155837863,1
0.0396028469380352,0.0143494780086452,1
0.0361037899136718,0.0180080639493841,1
0.0232862198435555,0.0106132825186409,1
0.023244639831306,0.0115919735484038,1
0.0258265109765335,0.0118407464387429,1
0.031255043480273,0.00769547600388234,1
0.0719341877386086,0.0213234675688906,1
0.096598553577097,0.0343399981795754,1
0.179461402521662,0.0411768248761171,1
0.219757728137017,0.0188163574139598,1
0.21060045193666,0.0185149571258216,1
0.281751760923484,0.00941757785925915,1
0.749234125151021,0.024591458201113,1
0.878894015343895,0.0166475399736823,1
0.746660900615805,0.0145431227457286,1
0.772131971619359,0.0154909304427048,1
0.756821131442976,0.0153095072843059,1
0.689247395854464,0.0128641362039652,1
0.677134452375957,0.0135203370462137,1
0.607291041374103,0.0134709768375061,1
0.380374047559314,0.00650930171965841,1
0.31650821537484,0.00839647524465795,1
0.331142595099665,0.0125737501039271,1
0.303855527443252,0.0127885735446781,1
0.29810466478312,0.0156454978428276,1
0.252345507642252,0.0146710763778275,1
0.240622176967964,0.0135771982465462,1
0.264357048119024,0.0172317868358509,1
0.248594965444454,0.0133972218463631,1
0.23314392460341,0.0167249635792353,1
0.215468951053558,0.0142584113198613,1
0.242277250366691,0.0152578280428693,1
0.174178491705808,0.0128749251057644,1
0.140887423809349,0.0102431870692911,1
0.21163768060483,0.0121455536424718,1
0.233435504838199,0.0131500867993606,1
0.281995994624234,0.0130252252062733,1
0.446422061061837,0.0212215324506318,1
0.561573399130952,0.0254519170564268,1
0.690152238058619,0.0304949952261762,1
0.837056640567265,0.0370819269263162,1
0.81917430815805,0.0538850647040793,1
0.628259542792808,0.0402722861408593,1
0.361803798205971,0.0307211364792056,1
0.304611428020462,0.0277302975046028,1
0.161574171097732,0.0219106133372103,1
0.0338896114077954,0.0153551328500297,1
0.0276779478175773,0.020206714218983,1
0.030545979863984,0.0206503960302025,1
0.0312318000610285,0.021040980549791,1
0.0309201703096299,0.0214984323380132,1
0.0276227458278964,0.0207303647082472,1
0.024815698218445,0.0181735822200317,1
0.0196601630229804,0.0119586598268309,1
0.0258878315893982,0.0267864743807654,1
0.0255451532060852,0.0184771028514605,1
0.0344072704050815,0.0146457285687716,1
0.0387445725321554,0.0120960386785639,1
0.0265736460067033,0.00820999235694225,1
0.0229195895049229,0.00787389920716429,1
0.0311913631371554,0.0105819692646337,1
0.0354004445171324,0.00597818554093336,1
0.0384515125189693,0.0059420265858732,1
0.0405415158078756,0.0071623166816221,1
0.0377932275796743,0.00530260114247574,1
0.0387579230508451,0.00401306293445984,1
0.0384989247524018,0.0054417304646712,1
0.0359525903439591,0.00594451201904666,1
0.0369591732828852,0.00513895417138329,1
0.0415596574556144,0.00544552704801519,1
0.0542129543553556,0.00787701009429555,1
0.0593099804015399,0.0133201185100697,1
0.0521914185565831,0.010256141592914,1
0.0808596282616563,0.0192654932931495,1
0.0911687907909964,0.026829873342273,1
0.145264934878958,0.0308810281411421,1
0.242703979171125,0.0435437587095851,1
0.258081750827135,0.0494831271307547,1
0.250759393868834,0.0471832110107503,1
0.369155247750343,0.0503427912840303,1
0.432155438082781,0.0496790849863067,1
0.430796338256436,0.0546395166102725,1
0.33786506729951,0.0295541957368796,1
0.279156295266252,0.0206713248920025,1
0.197991198148027,0.0136507235616134,1
0.154369771947795,0.011553152552561,1
0.148498781065007,0.012123612613523,1
0.115286542236412,0.00918786697541184,1
0.117061748315033,0.0079060317613868,1
0.138197626535307,0.012658129502261,1
0.132225054057463,0.0118086239106974,1
0.134342388133225,0.0106911906851305,1
0.13832419672297,0.0116667750454767,1
0.134116389607763,0.00939771212446003,1
0.144097874100153,0.00613565198363162,1
0.235520234402547,0.0114680931062448,1
0.219819613174949,0.00598342080939792,1
0.240563777492521,0.00685238954136006,1
0.241434859234063,0.0070147767142774,1
0.250515765268124,0.00628456240582892,1
0.257886823142016,0.00542728110885363,1
0.285874772257752,0.00576306678318476,1
0.311277158456233,0.00762676884482325,1
0.349182281327064,0.0119712231370068,1
0.379826912884996,0.0171748906382433,1
0.5272387957785,0.0224918280484196,1
0.681261074739833,0.041015789084907,1
0.689723703135697,0.0416328209794418,1
0.693070282355041,0.0408659696000229,1
0.495546101932113,0.0468490271534932,1
0.258814529267352,0.0342304785691856,1
0.185356436849771,0.0358512651728824,1
0.0990539123942688,0.0259134657092138,1
0.0438397031356414,0.0226808158279116,1
0.00744213605905295,0.000396986725005435,1
0.00486792433744363,0.0134440267992021,1
0.00664543486105843,0.0126798818897476,1
0.00636132290945541,0.0130060204597052,1
0.00773504827378346,0.0161018388870932,1
0.00865915512492427,0.0142007566166615,1
0.00873802171936559,0.0142123572122962,1
0.00875023715078269,0.0106011370658218,1
0.0192697801077506,0.0169400751269775,1
0.0369886037249975,0.0239293314674672,1
0.0372027340624162,0.0172546247543274,1
0.036142487311814,0.0189161133797961,1
0.0332557809566264,0.0168382900597474,1
0.0355382427960884,0.0122110094536899,1
0.038398493851641,0.0124303728283644,1
0.0382388043203617,0.0101521431351281,1
0.0474787313429123,0.0130614967090377,1
0.0488744736468933,0.0114274580283721,1
0.0440937408442436,0.0121753870852509,1
0.0294857830172169,0.00701124487146571,1
0.0327284179210454,0.0102673803357123,1
0.0327037939351196,0.0110142137860372,1
0.0321474757199798,0.0117111758845942,1
0.0316960227149095,0.0161152158799728,1
0.0203880709330273,0.0115091584204012,1
0.0195899451108312,0.0167889452516801,1
0.0431232357266732,0.0137716105111648,1
0.0799410052920097,0.0270660869652056,1
0.145900007568195,0.0290052965117478,1
0.248455409864868,0.052077707623238,1
0.277303741643731,0.0556006452767908,1
0.272847701494024,0.0394804045400526,1
0.221420195745345,0.0300840363884521,1
0.322195782191332,0.0148176613317927,1
0.518288712360853,0.0248337021587549,1
0.523755587073546,0.0273391979262621,1
0.50383271917103,0.0242801563853617,1
0.442503381305788,0.0218227888912584,1
0.408677399826484,0.0204169355455988,1
0.474206426249576,0.0232892559320225,1
0.505694110051506,0.0229035842357389,1
0.430721669179143,0.0175906700965582,1
0.232085346277805,0.00722563419256212,1
0.199709059092927,0.0153199737394272,1
0.204805885485836,0.0150339473647535,1
0.21380589542171,0.0129025737328272,1
0.246430453222766,0.0147280549400495,1
0.212310308256975,0.00633989214023508,1
0.227202226076465,0.00553159874727291,1
0.265989398490995,0.00688742332744432,1
0.244842551586677,0.00531178307642914,1
0.313816366266189,0.00763265102800861,1
0.326049106681136,0.00776657756638006,1
0.318928298088338,0.00723523166574293,1
0.282612540784843,0.0059432160233812,1
0.280584114545379,0.0056330841861367,1
0.313307908665898,0.00661559073894162,1
0.282352279101601,0.0102576637947939,1
0.180326112084113,0.00647411445955973,1
0.182029242785794,0.00695312134194048,1
0.155727464532497,0.00623776438891849,1
0.127996437340318,0.00682256364443911,1
0.153030537541068,0.0131707178368076,1
0.173140704754966,0.0147975001498171,1
0.19281004657313,0.0159311192112001,1
0.361557721855942,0.0265367319014971,1
0.503876695720014,0.037797282564362,1
0.532863229328904,0.0360926644922258,1
0.520138329760439,0.0409222672256033,1
0.47300229787388,0.0397939842437897,1
0.412556896934564,0.044423222628164,1
0.185375427452191,0.0223479202964896,1
0.112948626713863,0.0168565799126459,1
0.0871853980599791,0.0122697599475348,1
0.0308124235995021,0.00143956429879089,1
0.0269177358698249,0.00663025402232125,1
0.0263621683376017,0.00774828143225829,1
0.0220526679280717,0.00450974030795676,1
0.0239704097831831,0.0033810943975923,1
0.0317030689922412,0.00485423649554791,1
0.034118798641676,0.00423285058125944,1
0.0329984499487415,0.00546967689376544,1
0.0322302432254044,0.00736646973392266,1
0.0316811438117361,0.00719425631302662,1
0.0307061068178979,0.00606168020051239,1
0.0318940609691094,0.00666050834267915,1
0.0314207051379167,0.00695624900323052,1
0.0316197434550832,0.00667715558230467,1
0.0445796984097491,0.0122438502164848,1
0.0460438327847329,0.0114293758490655,1
0.0451916463920082,0.0147279158408245,1
0.0483972442998703,0.0155931290412007,1
0.0477186571553418,0.0152941934532372,1
0.0649738808379247,0.0206433769428372,1
0.0614699504471989,0.0194980511746258,1
0.0594532005560196,0.0195416380223365,1
0.0427312022099015,0.0170188854683965,1
0.0207324206817553,0.00969184218976316,1
0.0213928849488732,0.0140608048418327,1
0.0209907835391819,0.0148353632002812,1
0.023787040842441,0.0203146693184644,1
0.0281220508871741,0.0164919609327277,1
0.0765204795237776,0.0171014911101738,1
0.124270368632638,0.0290837438139315,1
0.300020192478146,0.0387998826129712,1
0.420750276741362,0.0233636610323539,1
0.407247989112274,0.0217684476086271,1
0.447644774907572,0.0223583684294533,1
0.478877977776714,0.0232272530185145,1
0.421733308762008,0.0179175196855936,1
0.316155184934473,0.00790118529487924,1
0.318924396953919,0.00813090540750221,1
0.339190365795372,0.0101585065131147,1
0.363548415964575,0.0104022421129943,1
0.367055788119648,0.0129807223901289,1
0.358691236008275,0.0175967708336543,1
0.274077627953029,0.0145567114815868,1
0.27493198272058,0.01620357957436,1
0.304108090402942,0.0158073552623266,1
0.241114652834206,0.0110712764087716,1
0.192864191696815,0.0178342548310739,1
0.168688695532971,0.0141879023510652,1
0.170228903092436,0.0117844684237699,1
0.160321487668522,0.00668369290193453,1
0.196561323013017,0.00704656826835409,1
0.203275343228349,0.00749970619408982,1
0.189453220702528,0.00636285594303047,1
0.20186084631302,0.00677778470414754,1
0.236132481812179,0.0115189853299927,1
0.206757654723693,0.00916628440562964,1
0.246175269378678,0.00641440177112858,1
0.320995288331978,0.00993671792955918,1
0.30613455374052,0.00981799328123507,1
0.325323238763322,0.013296829557167,1
0.201807520871399,0.00620369036839387,1
0.203998157111818,0.00539869336048635,1
0.230977910495519,0.00656743189172723,1
0.241337101813196,0.00635731601896624,1
0.335994580203263,0.00986664250400402,1
0.29043779012878,0.0108856053962199,1
0.296546016990336,0.0181161488446796,1
0.344592669739306,0.024781801231038,1
0.263196212382153,0.0214134304600327,1
0.233726839143959,0.0190679046668415,1
0.18130695098879,0.0161510628739634,1
0.107811049414331,0.0135371861738514,1
0.0924744436613096,0.0120564109741438,1
0.0547061656722869,0.0082367407110584,1
0.0550938062114683,0.00905668775771911,1
0.0581000590320444,0.00989263978626619,1
0.0576024029169391,0.00839382085991306,1
0.0632535730122225,0.00979021010253525,1
0.0581561499978807,0.00551156191652944,1
0.0407357122752543,0.00726568659863232,1
0.0252109157377346,0.0120771013432208,1
0.0338811521886496,0.0131268218369955,1
0.0353971720963806,0.0101095523902634,1
0.0361174526463081,0.0102245486514239,1
0.0372375348194165,0.0106335986269951,1
0.034487079938058,0.00968910464655993,1
0.0359055363390475,0.0140736013063611,1
0.0327538506583256,0.00467758677973871,1
0.0484177673495872,0.013371373582241,1
0.0442781687483941,0.0123012931800834,1
0.0420571884862681,0.0124936651942074,1
0.0383596657872324,0.0113670446081118,1
0.0391347751413096,0.0143581946141063,1
0.0384415368344401,0.0130855457488578,1
0.0355971849555273,0.00990419079207446,1
0.0352326677626046,0.00991759856082737,1
0.0313870094407434,0.00802742090916212,1
0.0283053533658446,0.0136047160011303,1
0.0185825115402958,0.010101261160321,1
0.0183327060565834,0.0093087545861008,1
0.0178585064137865,0.00790330129167766,1
0.0182211228303841,0.0104177609612766,1
0.017204881440023,0.00898901135356567,1
0.0192365059855883,0.0137759547407017,1
0.0177230032042488,0.0130902413086261,1
0.017790507428888,0.0134348127754884,1
0.018225384826091,0.0133170301318552,1
0.0189396930210024,0.0196125807447899,1
0.0297382418644009,0.0193857981783429,1
0.030713125036408,0.0141733737611145,1
0.0326563391583326,0.0162012764024506,1
0.0339124017282468,0.0165367827508359,1
0.0354423285253327,0.0171288048163001,1
0.0335180883861383,0.0121860589489079,1
0.0342357651017288,0.0126898805705757,1
0.0353023508172679,0.0122389537444732,1
0.0354182454962325,0.0113408069873254,1
0.0341488819974587,0.0111839472091665,1
0.0151945240253058,0.00413460588546125,1
0.0141823685646383,0.00765636354843017,1
0.0140052509006534,0.00756507308787239,1
0.0119370145030345,0.00609936083351908,1
0.0259143427349685,0.00842012737793317,1
0.075386787024898,0.0401444081473251,1
0.099986859263118,0.028594375096948,1
0.102250079405458,0.0272719359305925,1
0.113368357827801,0.0318186145418018,1
0.0993976996870277,0.0268314727994573,1
0.087029762101659,0.0197654335094375,1
0.0836253130595186,0.0168984413215056,1
0.0808171049345588,0.00971878648292959,1
0.0652175756819175,0.00524134373104838,1
0.0719142492503913,0.00832079361716059,1
0.0632255303319715,0.00678449455261618,1
0.0775322562085637,0.00988778044646454,1
0.0906490527590278,0.0126217807480726,1
0.0759627744944816,0.0068953248521138,1
0.0839646654690158,0.00694659980110649,1
0.0836778055483589,0.00691680344901264,1
0.0830744543085984,0.0061667482935868,1
0.0721204866385938,0.00867808197417059,1
0.0562002368348218,0.00741181082617397,1
0.0561794987839016,0.0069518447809571,1
0.055595037464875,0.00697122115426652,1
0.052272190660469,0.00561135784099209,1
0.0523245082689469,0.00575457089734532,1
0.0478619567795311,0.00869028988241849,1
0.0286640467843268,0.00541136352393221,1
0.0257586205988409,0.00621566928894727,1
0.0304362138279102,0.0119043009831595,1
0.0356156399207134,0.0164622950871811,1
0.0391632452756052,0.0180723420779737,1
0.0414958038036765,0.0209924991941546,1
0.0368723902211964,0.02442240952126,1
0.02135982576058,0.0241449549515398,1
0.0210116515166409,0.0197609574931677,1
0.016804090032108,0.016471467363257,1
0.0168357322410961,0.0121578297551949,1
0.0131045675289207,0.007129265964252,1
0.01472193452303,0.0102300353016979,1
0.0148361901913224,0.00788852781738087,1
0.0168446615664189,0.00947967579975086,1
0.0170817324371023,0.00936600555320859,1
0.0164758916933325,0.00870029343817002,1
0.0166610785919994,0.00903628701634257,1
0.0176135132759159,0.0165627340958708,1
0.00891406172209057,0.0095372388535076,1
0.00868678958357765,0.0184613646775303,1
0.00928128622350958,0.0302131100315446,1
0.00382191123783733,0.0257775163555015,1
0.00256599568321573,0.0513779759723682,1
0.00282492360434141,0.0644526455227226,1
0.00198015396091176,0.124741022285674,1
0.000559432938456216,0.259094081364336,1
0.00037078080615731,0.288684478833381,1
0.000273714665508486,0.325345512982633,1
0.000115832884290562,0.292495553823005,1
4.84820556647855e-05,0.298388772166562,1
0.000246661757283546,0.200367927894245,1
0.000379138809210161,0.100896591180284,1
0.000371125451000883,0.0972737206863567,1
0.000354653330949309,0.094815125293249,1
0.000348676569147465,0.0976449470160529,1
0.000349948978149722,0.0950021331568308,1
0.000365938769825333,0.0937277630232614,1
0.000374568851378981,0.0927533206371569,0
0.000387015667735943,0.093566024678368,0
0.000399479716619594,0.0973741219715437,0
0.000204574267053002,0.134708646440837,0
1.20189354515167e-05,0.332955181473232,0
8.96695451412235e-06,0.529890885355766,0
1.9640818456e-06,0.303000761321733,0
7.42496975658427e-06,0.330064900964854,0
2.13660190746425e-05,0.487397133786331,0
2.50094122441176e-05,0.534119273823445,0
2.63765955435765e-05,0.490585534680784,0
2.59131141026744e-05,0.466539975117241,0
2.33042763610338e-05,0.412264724793593,0
2.11063343327567e-05,0.380582047939145,0
2.43071825375773e-05,0.402254985070691,0
2.76106534560684e-05,0.423865191896056,0
2.79250391674773e-05,0.422513439910602,0
2.74209720900189e-05,0.803834193524681,0
1.81597188867155e-05,0.737995585630055,0
1.44490714731584e-05,0.675707318550895,0
1.00127740038393e-05,0.668843070170495,0
6.24877372714405e-06,0.688816735177424,0
7.84382162112269e-07,0.307071249424062,0
2.93226178797104e-07,0.241181724254597,0
2.60718748492553e-07,0.23734158004013,0
2.24572616409779e-07,0.22823179624216,0
2.18186964125765e-07,0.21972484225285,0
2.42884861086609e-07,0.23638173895664,0
1.67440977407563e-07,0.208667271227294,0
1.68178808408256e-07,0.225859995362005,0
1.51870182696932e-07,0.224714414195777,0
1.52365326097268e-07,0.228425690285919,0
1.62733938068569e-07,0.239175998984486,0
1.85267941720571e-07,0.273513990923454,0
1.59358218985066e-07,0.233350531206548,0
8.64038984935758e-08,0.167525654650741,0
7.12604388072525e-08,0.160941451033945,0
7.32334254574337e-08,0.165273724014719,0
5.21894990140292e-08,0.14793045592967,0
6.15021022202003e-08,0.155152068405464,0
4.96569747155081e-08,0.141696647773124,0
4.49564791218924e-08,0.135447876468026,0
5.2167876203212e-08,0.135954719856026,0
6.03935538182601e-08,0.138251873109477,0
8.49252965486145e-08,0.159181172040445,0
5.89785874261862e-08,0.145700484261033,0
5.58990439487453e-08,0.143939512053545,0
6.28251716663008e-08,0.147266913285517,0
6.41306014509454e-08,0.151886869040379,0
5.82919683458501e-08,0.153252731404615,0
6.37189145134124e-08,0.151419426598869,0
6.23547806941369e-08,0.147901886314883,0
5.53072617579583e-08,0.147679815353289,0
4.80328929819783e-08,0.145857717007021,0
3.8833714695708e-08,0.143864297325158,0
3.6511064433759e-08,0.142135979538172,0
4.19657029730696e-08,0.151055715467962,0
7.64141598960235e-08,0.190140493204514,0
7.92366005658967e-08,0.185786329233064,0
8.09148341633589e-08,0.177945473400365,0
1.12991325641798e-07,0.220910393036321,0
1.73986619524248e-07,0.268656667166445,0
1.79235556850126e-07,0.250300580624204,0
1.85795329663353e-07,0.26281904964715,0
1.86614625552169e-07,0.251282954209382,0
1.99743560030688e-07,0.255578081676754,0
2.07892324928312e-07,0.262728683171625,0
1.39461724068317e-07,0.21619915814825,0
1.38317611832796e-07,0.197806447269057,0
2.51445123247987e-07,0.243688488586012,0
2.64028081753372e-07,0.245694448344488,0
2.4163946305305e-07,0.240358042418383,0
2.60670855863331e-07,0.249391973504533,0
2.5817825789531e-07,0.24040022803942,0
2.6061632465184e-07,0.249499311099227,0
2.70837085912335e-07,0.25700561152165,0
2.57411975827753e-07,0.258011102534758,0
2.60787031053029e-07,0.267691417829821,0
2.13047563407316e-07,0.277332850937566,0
1.63745373495611e-08,0.124366188028635,0
2.04400051307554e-08,0.132857331755555,0
1.86475879182758e-08,0.129878611115846,0
1.13826079943612e-08,0.12434280152729,0
7.97274763062038e-09,0.120481531864785,0
1.15775926392741e-08,0.118678411811638,0
6.23825679027748e-08,0.186390449362203,0
7.37905921835351e-08,0.180309326308897,0
7.12997961164155e-08,0.181095805189246,0
7.24439083519367e-08,0.17579555475931,0
7.2431010534958e-08,0.175782653626862,0
7.72939617203713e-08,0.180586689576037,0
7.52196892721519e-08,0.172579380261938,0
1.14147576999182e-07,0.21017598895458,0
1.02327865780889e-07,0.19701490232849,0
1.05513152390177e-07,0.206765482206033,0
5.92335089852943e-08,0.168418573898678,0
4.71415210571056e-08,0.160279797260198,0
6.37925079397025e-08,0.170139054962158,0
7.94671490443907e-08,0.189416899300901,0
1.02604315313924e-07,0.197145455648097,0
1.06739298535158e-07,0.188861366558092,0
1.04802255066116e-07,0.192871652199648,0
7.58944537412941e-08,0.165339129970575,0
8.2441233900653e-08,0.179453284666093,0
7.66737284627195e-08,0.171189649739366,0
8.38661581661294e-08,0.17506818918127,0
8.00392999990409e-08,0.171545200819296,0
8.44942628856136e-08,0.181818376091366,0
7.55383412210368e-08,0.167421739366148,0
5.23488249884719e-08,0.14257162061864,0
7.59362768095854e-08,0.179257377765902,0
8.33547976576802e-08,0.193376719157676,0
8.6551938878162e-08,0.204208630133499,0
4.90249816835522e-08,0.162936056565113,0
3.04619882707543e-08,0.13802479233799,0
5.54814771240602e-08,0.178077687683002,0
8.49457813167572e-08,0.215746595865069,0
8.8242216760597e-08,0.209960816707491,0
8.95203335210513e-08,0.207028221983814,0
9.51288923321003e-08,0.22159550974794,0
7.19811991678261e-08,0.192924995227444,0
9.67002447550404e-08,0.187470679454569,0
2.28830034055421e-07,0.262050704910007,0
2.0967867257986e-07,0.238051557803955,0
2.0352973317216e-07,0.234588295619028,0
2.06277726883737e-07,0.233257691828529,0
2.06274786940161e-07,0.230442860938336,0
1.90991537678642e-07,0.22078487434338,0
2.76181618822878e-07,0.269411695015366,0
3.37503151605377e-07,0.291130169720152,0
3.14959284916863e-07,0.283059706720183,0
3.32150557559222e-07,0.316120111213704,0
1.69651720139845e-07,0.226986523939918,0
1.50612361030841e-07,0.227204766823,0
1.30539943683978e-07,0.219575202464548,0
1.42122942025957e-07,0.22838924084122,0
1.59208376699578e-07,0.248690182497476,0
1.60199896379815e-07,0.258542150973353,0
1.19027788498493e-07,0.235960388553009,0
8.01014181616958e-08,0.201635358742038,0
8.11400717760381e-08,0.202926500487254,0
4.22915625255606e-08,0.159663550538893,0
1.29675220925069e-08,0.127404005331945,0
0,0.0990231250961066,0
8.41468753591949e-09,0.107025550982193,0
3.21174610147247e-08,0.146595367422606,0
3.5509112695672e-08,0.139448027030741,0
4.59753118263193e-08,0.144769101440771,0
7.89410888180614e-08,0.173430910870716,0
7.74062485975975e-08,0.169144163441015,0
8.129114694109e-08,0.172762230298362,0
6.19739157457074e-08,0.154390719761764,0
5.65652730978282e-08,0.151297516052618,0
5.24675607741874e-08,0.143696007653734,0
5.31928733054594e-08,0.150197298089217,0
5.16382121750797e-08,0.141545980554794,0
7.22542345728384e-08,0.158236445748223,0
6.66191214327158e-08,0.159202957207255,0
7.01811950041829e-08,0.161354672581532,0
7.58846855416705e-08,0.176320203887488,0
6.94812987593098e-08,0.168421068300469,0
7.5592587921859e-08,0.176037206586411,0
8.59198510093168e-08,0.171529565874304,0
8.22121079755021e-08,0.161855797188061,0
5.34671415900359e-08,0.128248040045711,0
3.98867835172621e-08,0.119586019284421,0
3.42193309978032e-08,0.120161291489328,0
4.17903495642931e-08,0.135090781376051,0
4.19182845282951e-08,0.139997050077772,0
4.75588033711218e-08,0.140434906249147,0
5.91497680118226e-08,0.147183468691772,0
6.60299946748363e-08,0.148236467740712,0
5.11311193266604e-08,0.141012889404843,0
3.54450977952262e-08,0.126759051398955,0
4.62878942142734e-08,0.145010154225803,0
4.48199140009417e-08,0.143305211909442,0
3.94383947034735e-08,0.133393672639339,0
5.08686108163882e-08,0.139645312836968,0
8.64445835191924e-08,0.15879696188819,0
1.87306650335209e-07,0.214927452748383,0
1.92513954266575e-07,0.21541090036045,0
1.90735952261307e-07,0.21207004004378,0
1.91132370459623e-07,0.207839876928186,0
1.89429858618436e-07,0.213715886221184,0
1.66825580831279e-07,0.205887934464024,0
1.64492593348369e-07,0.20692694193779,0
1.66920417720828e-07,0.210921628600274,0
1.42784524167452e-07,0.19855721514845,0
1.18498978002367e-07,0.201332805232987,0
3.51138325400311e-08,0.133937777567941,0
2.46765586606962e-08,0.13083050864418,0
1.18432307669013e-08,0.11900226339823,0
9.01699662144634e-09,0.119369232370776,0
1.06577696475368e-08,0.119571467407212,0
1.55432920126625e-08,0.125830083293086,0
1.92760719853181e-08,0.139491007310449,0
4.61125408054973e-09,0.106954603401201,0
2.81694013027927e-09,0.102892403717186,0
4.81392051351631e-09,0.104665741291355,0
5.42656682000398e-09,0.101087666178284,0
2.89043871967985e-08,0.138697156666959,0
4.15366608847492e-08,0.153430321628594,0
1.06886390550849e-07,0.207948162790635,0
1.05009094322223e-07,0.202483491073799,0
9.37731041591051e-08,0.199539477907684,0
8.72407392069577e-08,0.183833364962447,0
8.54613146483465e-08,0.179368851696383,0
1.14973416633376e-07,0.19790275061389,0
1.24401626007908e-07,0.20202661362108,0
1.28128431256522e-07,0.214309071421234,0
1.25861355411849e-07,0.215970303202143,0
1.25748784023954e-07,0.223230817798151,0
9.01879852234776e-08,0.199971174535897,0
1.0203301789128e-07,0.214812587137957,0
9.88814932146716e-08,0.1976905082601,0
9.87138215939488e-08,0.204269462569643,0
9.84610812833001e-08,0.200366412263563,0
7.02626598923058e-08,0.187126399118685,0
6.12774336288583e-08,0.180853821285456,0
4.81380670924883e-08,0.151061291608056,0
5.98288001409946e-08,0.162823743394692,0
7.53448739663566e-08,0.164716391613329,0
8.66247736093359e-08,0.168413141520216,0
6.7568249023324e-08,0.155076242125587,0
6.40535938966314e-08,0.151813037826759,0
5.6775052297511e-08,0.142783037313319,0
5.60318155941143e-08,0.14168888867436,0
5.80174155506052e-08,0.148067499210935,0
6.06698136775167e-08,0.149593667972762,0
6.04668627338814e-08,0.148479553203906,0
9.82851588531863e-08,0.181843737012405,0
7.38475891541542e-08,0.177794231433024,0
5.04591999642045e-08,0.167847753763141,0
5.52254175222776e-08,0.160478346034772,0
6.02114669903256e-08,0.169199724849439,0
8.28365140562939e-08,0.182936372692494,0
9.83358965890951e-08,0.193506412634112,0
1.05176291758498e-07,0.193080324536145,0
1.13116036151556e-07,0.200947216403974,0
1.34594694896654e-07,0.230637332511813,0
1.58470830209554e-07,0.240155380276231,0
1.58866963897201e-07,0.222815333156503,0
1.45867481772916e-07,0.21158764446509,0
1.50973499906244e-07,0.217591607089829,0
1.51047093332535e-07,0.220803831497192,0
1.01352563208765e-07,0.190271438906718,0
5.38232541102928e-08,0.146308455459121,0
6.71642438738445e-08,0.152386226453397,0
8.54677635568358e-08,0.164162984921314,0
1.08690567537633e-07,0.184862920116238,0
1.00269905277672e-07,0.180845160930474,0
9.54915485977361e-08,0.191146260672455,0
9.60871242641053e-08,0.193160945960971,0
8.84956209294725e-08,0.198238653522723,0
9.21457031344414e-08,0.19826660286098,0
1.48142713590091e-07,0.245044663321887,0
1.92398917119552e-07,0.283114827375627,0
1.55426186707468e-07,0.264635741511061,0
1.5551618691565e-07,0.259715673016903,0
1.51215428811484e-07,0.247078065960818,0
1.33937664925856e-07,0.247713239589113,0
9.2390477146368e-08,0.209977798589767,0
5.63277066895077e-08,0.175013307506162,0
4.1723299883382e-08,0.156629390354607,0
3.47140950505812e-08,0.153711741951472,0
3.41313223643015e-08,0.149732631250776,0
2.03538932350447e-08,0.138210140609811,0
1.94992231864275e-08,0.143598362910995,0
1.90947438525002e-08,0.146973040561964,0
1.8641897704903e-08,0.155505007259319,0
8.24606754630083e-10,0.11393256700004,0
3.79423427708357e-09,0.108041070312341,0
4.15551540782112e-08,0.171596058787248,0
4.07554894255326e-08,0.153687319063185,0
4.38031677080849e-08,0.150585760337912,0
6.10279177724544e-08,0.166969631563075,0
6.16637042799921e-08,0.159144547649283,0
1.16473262041597e-07,0.19346547409715,0
1.35773707107529e-07,0.204386703461717,0
1.45041926649391e-07,0.210706241077005,0
1.4744860239548e-07,0.20948645416245,0
1.46450918317423e-07,0.210280702590515,0
1.3348671551605e-07,0.193589596364317,0
1.38884357084742e-07,0.191195833578377,0
1.29327169540424e-07,0.185080300937243,0
9.58979246694544e-08,0.161739531418837,0
9.09334031753343e-08,0.16298326826048,0
6.80191984331303e-08,0.155573646442501,0
5.85147401994011e-08,0.152115052563413,0
6.15707641282338e-08,0.153988090329335,0
5.87251832573108e-08,0.153581085543009,0
5.75284365480898e-08,0.154835430506272,0
5.59621104802955e-08,0.159072666252004,0
5.60110463153029e-08,0.164488085703796,0
2.66916528898371e-08,0.130019772626323,0
1.953023484931e-08,0.121491300689422,0
6.35907898756314e-08,0.161374527486885,0
7.4832754762791e-08,0.1594514995347,0
7.78572928442934e-08,0.157596307418254,0
7.65125057504859e-08,0.160944250505822,0
7.57500171585106e-08,0.151686029225774,0
1.2454625226447e-07,0.178643782346763,0
1.09481886544031e-07,0.165683942145926,0
1.43679784404796e-07,0.187596798541294,0
1.45752823973452e-07,0.190991241351904,0
1.49660103822878e-07,0.198032769769254,0
8.22015810807623e-08,0.16159772039873,0
6.95294758992012e-08,0.159433933859993,0
7.49731133593239e-08,0.161975802547944,0
8.27037424109252e-08,0.163029274848517,0
7.98889835291055e-08,0.166365692253836,0
6.20392583626069e-08,0.158196973992429,0
6.77984181542598e-08,0.181044709443658,0
6.71046863072075e-08,0.183673084180002,0
6.66232942558559e-08,0.186972599511008,0
7.19963730701543e-08,0.181819183354029,0
7.50425339624741e-08,0.175359583042854,0
7.47070958841384e-08,0.172180053041177,0
6.30550562865681e-08,0.166162024425399,0
5.64733761518552e-08,0.159092173923902,0
5.3113874176465e-08,0.155370763121723,0
1.04992023682104e-07,0.199781730405325,0
9.80089938308192e-08,0.18937264787282,0
8.12045608609317e-08,0.178214486871022,0
9.92798081507781e-08,0.180014982421801,0
1.05035933161966e-07,0.182067088697519,0
1.31956806813843e-07,0.20182004363694,0
1.28187514638711e-07,0.201915173206353,0
1.31024275678906e-07,0.201076852880435,0
1.23638378720816e-07,0.193534787514346,0
1.19264501374808e-07,0.195365300883446,0
8.94895115319481e-08,0.180188805667045,0
7.06079610071543e-08,0.164219822621046,0
7.04925445125729e-08,0.168095410364424,0
6.76315052286533e-08,0.160184957507989,0
8.21856484833179e-08,0.179406744959123,0
8.5252958002007e-08,0.185436974521201,0
9.93571002157607e-08,0.194382782671585,0
9.59733199966461e-08,0.198037160188571,0
9.98374490613273e-08,0.209202352450455,0
1.11523250591577e-07,0.219372461420455,0
1.14600897331227e-07,0.2179651154631,0
1.41781149876022e-07,0.232337883325186,0
1.11430974298046e-07,0.193678244910794,0
1.18885153816611e-07,0.219767859500527,0
1.25944148016425e-07,0.231898609517342,0
1.04339925229564e-07,0.209283940963165,0
8.01825985391498e-08,0.190129775953984,0
7.93578969476301e-08,0.189307821693633,0
8.21688623538675e-08,0.188811221215092,0
7.63914938794215e-08,0.182970867716398,0
7.23707891100943e-08,0.185749961238522,0
4.78023445034842e-08,0.155851957550715,0
4.2361741823827e-08,0.160859027343128,0
5.18002884193194e-08,0.162929522336237,0
6.99948405162188e-08,0.183688456644384,0
1.01060844936512e-07,0.218560730223316,0
1.17889745823903e-07,0.220671916975383,0
1.14255691053268e-07,0.206883804924191,0
1.16829848746301e-07,0.205719135910957,0
1.25968046912591e-07,0.206231561701275,0
1.33044775610751e-07,0.205329275398178,0
1.20126853211478e-07,0.196181210041998,0
8.20661540024859e-08,0.163497950930353,0
8.12945610691138e-08,0.16760152918018,0
7.75779982045709e-08,0.16938641963193,0
4.28532814223605e-08,0.138798467408123,0
2.9210141328705e-08,0.1261688783447,0
6.39625504826642e-08,0.173621639354163,0
6.73008089947951e-08,0.180282036235706,0
6.64752538712698e-08,0.182977604151,0
5.94631090948929e-08,0.17182510545497,0
6.56593721104781e-08,0.171970366304661,0
4.97839613106144e-08,0.160362909787731,0
4.83838843101997e-08,0.161825706579863,0
5.259113324127e-08,0.157587858850034,0
5.05897903611136e-08,0.144964610185245,0
6.77693032291681e-08,0.160076589769152,0
5.17300142841634e-08,0.139545397062137,0
5.42607366817833e-08,0.139978779943821,0
5.46264277278848e-08,0.140345437099527,0
4.36344528815769e-08,0.135057742958523,0
3.71167876473096e-08,0.13640474429876,0
4.46727271483613e-08,0.148338146127475,0
4.75602259244652e-08,0.151743139931374,0
4.87564036123489e-08,0.153151170851622,0
5.29666873238848e-08,0.164157496045544,0
3.66471553702621e-08,0.13896345328688,0
5.73140103408191e-08,0.160011024364229,0
4.22766731339014e-08,0.151213514139727,0
4.080859808368e-08,0.149144665513394,0
3.75629003757489e-08,0.144960716530475,0
3.51776577666976e-08,0.141733738737442,0
3.69749116605441e-08,0.141371012952663,0
4.16811923044221e-08,0.139596968531617,0
6.25596283755631e-08,0.165733182751486,0
9.32298784557675e-08,0.195564618539134,0
8.53811774766773e-08,0.211910258197243,0
7.03195620260352e-08,0.2093526138894,0
7.25440561073007e-08,0.197768226364038,0
6.66172246949246e-08,0.191060540534815,0
5.72150954650192e-08,0.176073497742407,0
6.23327785357614e-08,0.178338205552487,0
8.95737266898675e-08,0.207080927277996,0
9.33176025786005e-08,0.20280423024325,0
9.32235243841675e-08,0.20283677442962,0
7.27892094667854e-08,0.186363523929629,0
2.05961066509532e-07,0.237909828000969,0
3.69218978392861e-07,0.274173559758037,0
3.69588368077655e-07,0.271681198989752,0
4.21936813718568e-07,0.284143599018941,0
5.90651640226556e-07,0.322171047420991,0
5.63020817619514e-07,0.304421602871765,0
4.64103286386813e-07,0.28075427082623,0
4.10973669286683e-07,0.272739275603367,0
3.87645311847819e-07,0.262627354673467,0
4.05699695021964e-07,0.268672851294134,0
3.48827434912666e-07,0.275517605798419,0
2.97539645044469e-07,0.289241695968646,0
3.38302911094946e-07,0.308281687011852,0
3.01771361893043e-07,0.295480296958963,0
1.07857520299833e-07,0.195344096431326,0
9.71869476722067e-08,0.194120797275692,0
1.04901738963253e-07,0.190114403129588,0
9.23161250249612e-08,0.177017290884005,0
8.88625448551384e-08,0.176681685002211,0
9.82789944553657e-08,0.184728133825913,0
1.85733780522036e-07,0.251824904908302,0
1.9153476338198e-07,0.237034792114636,0
2.57292860694479e-07,0.232600848470649,0
1.3582596223367e-06,0.45656684725258,0
1.44855221264935e-06,0.406715838393425,0
1.4604022716723e-06,0.406411864630903,0
1.33708899380886e-06,0.386888708932937,0
1.23529818933349e-06,0.371287940263671,0
1.11937336902416e-06,0.352871731650704,0
1.10221367706602e-06,0.346579140623623,0
1.27163513323804e-06,0.375696980352208,0
1.39022676688149e-06,0.398107197276844,0
1.37899883785399e-06,0.441895105351251,0
2.97058347830008e-07,0.230149517767361,0
2.40868628814794e-07,0.237415935752995,0
3.12038308718748e-07,0.246657698180231,0
4.0256201653123e-07,0.284968178766008,0
6.97231612787272e-07,0.358113796159395,0
1.17765642270239e-06,0.436414212603656,0
1.18610676890878e-06,0.424957374556853,0
1.07347155578724e-06,0.403944006793029,0
1.09915954987498e-06,0.40608871019715,0
1.18039872620059e-06,0.419433282110717,0
1.33462807136195e-06,0.468314885454539,0
1.29694975449162e-06,0.483187174426845,0
1.25924611617178e-06,0.510875883196168,0
1.22871423311343e-06,0.490552438500937,0
9.81582196765248e-07,0.444150974364525,0
4.16713292679089e-07,0.303724639075701,0
3.98519783787975e-07,0.319106172808994,0
4.04316973172337e-07,0.324223588528551,0
4.00980232050438e-07,0.334955333978355,0
4.37554647526417e-07,0.337956042527685,0
4.50807533819577e-07,0.331561014214775,0
6.18784908674431e-07,0.376316285343264,0
6.51483909495871e-07,0.363010276749795,0
5.35477813972194e-07,0.338213412066538,0
5.26640628093333e-07,0.338696669557773,0
4.94501164920233e-07,0.322515185083663,0
3.70790235978912e-07,0.279375186459945,0
2.95189681758331e-07,0.241904486933211,0
2.67483938008544e-07,0.228345515827591,0
4.06852152903765e-07,0.260784042717818,0
9.15479841543686e-07,0.3730613877343,0
8.74289904327128e-07,0.349051380635857,0
9.25283225653274e-07,0.356683491647248,0
1.08127710598158e-06,0.384827192916858,0
1.0074052385837e-06,0.36395201570686,0
1.01665600813789e-06,0.370072372869747,0
1.04407904311993e-06,0.37042582848211,0
1.10066698223436e-06,0.316121726865034,0
8.51648763441004e-06,0.492667414845279,0
2.22911884960284e-05,0.489305961889752,0
2.26381435662307e-05,0.405030698210354,0
2.20679697710538e-05,0.388167574056063,0
2.18336882280764e-05,0.371916113136237,0
2.23889980478804e-05,0.383053702529662,0
2.29654170419079e-05,0.38018390740482,0
2.27254739262983e-05,0.376569960369202,0
2.25051807296925e-05,0.371701507563966,0
2.27370558814345e-05,0.376330877602442,0
1.74180636832887e-05,0.495089973300875,0
1.22104429967114e-06,0.245653597279117,0
3.09367796745932e-07,0.311451778775799,0
2.038052343363e-07,0.237381798606123,0
8.77153978391513e-08,0.166427247453772,0
9.58739309363984e-08,0.17005060565257,0
9.9248701651006e-08,0.156662779049476,0
1.49414381442056e-07,0.171590894950475,0
1.16889339927116e-06,0.364507043698728,0
1.97813515524095e-06,0.403140212614025,0
1.96799709174814e-06,0.395000528267487,0
2.05322387476863e-06,0.399724949500289,0
2.1497406101424e-06,0.413447997296516,0
2.17692579420545e-06,0.411065337225899,0
3.31851185949981e-06,0.422926963343716,0
7.4517839387354e-06,0.530212885903641,0
7.48115862206747e-06,0.449416870853379,0
7.17730018474613e-06,0.441495127641396,0
7.24741376104806e-06,0.485996549827211,0
6.91766210260998e-06,0.488310735146451,0
6.86370607685432e-06,0.485086619516792,0
6.93650429582561e-06,0.489180395132958,0
6.7837600015177e-06,0.483680239977945,0
6.89199971448242e-06,0.484879225862444,0
6.0295367289772e-06,0.576968508477406,0
1.37814909932363e-06,0.215748338621843,0
1.58733793936896e-05,0.536135269772897,0
2.16708869558163e-05,0.355680758251643,0
2.13102412322386e-05,0.357601155736055,0
2.18742507244317e-05,0.349550708951691,0
2.21151522616472e-05,0.34580320805833,0
2.1961767628661e-05,0.349952752757579,0
2.20267764197092e-05,0.350908132715101,0
2.26326286114296e-05,0.359062326959029,0
2.31871271016435e-05,0.361838580939228,0
2.36496852105889e-05,0.421245837233949,0
9.42368897419117e-06,0.42769196601321,0
3.71759468990104e-07,0.260499817955419,0
2.06029633580676e-07,0.237598584626321,0
2.15062373125788e-07,0.240870166959698,0
1.86837681916389e-07,0.222834646256001,0
2.11794293911923e-07,0.236597608345517,0
1.99333390483388e-07,0.232355424031904,0
2.20565947500106e-07,0.236301463018412,0
2.18650242331212e-07,0.217222742484596,0
1.92272309872004e-07,0.202176361075806,0
2.01089769677839e-07,0.215197896612672,0
1.90000017998406e-07,0.20724908912682,0
2.14236912839152e-07,0.218339354909772,0
2.11290425517748e-07,0.230559740428678,0
2.93396411013845e-07,0.255270999539098,0
4.93637390530219e-07,0.307727868033407,0
4.60149346787729e-07,0.286402973228627,0
4.63845614557909e-07,0.287555147123033,0
4.57197169252953e-07,0.288008933529533,0
4.75753049899034e-07,0.283946946147827,0
5.08091291192628e-07,0.281442611929421,0
4.89927750758613e-07,0.283989487802534,0
3.96236016650741e-07,0.255494165135416,0
3.25406990854048e-07,0.227792029105995,0
2.83160191340355e-07,0.233693932682143,0
1.2556242953599e-07,0.17167567797211,0
1.48968173876727e-07,0.202671134652647,0
1.55696377005793e-07,0.217759530296775,0
1.53562072806489e-07,0.225872448436672,0
1.10964376801464e-07,0.218755153859007,0
9.02982805260232e-08,0.216704803806388,0
9.32723653822855e-08,0.219727918136098,0
9.75703732166542e-08,0.230104550796515,0
8.98219148298177e-08,0.221536791279604,0
8.23433622306381e-08,0.199954264442979,0
1.04193022887653e-07,0.221211077102163,0
1.16378899336495e-07,0.212173098251783,0
1.42188948501083e-07,0.21486195883442,0
2.09449926002267e-07,0.254198621302198,0
3.25679741748391e-07,0.299889737094052,0
1.52498467606506e-06,0.548975918634357,0
2.32153640268117e-06,0.587997460205948,0
2.20504104364431e-06,0.531202454630436,0
2.25682198533816e-06,0.481232339414483,0
2.93840181271113e-06,0.550879083168873,0
3.75459767328089e-06,0.607121602509719,0
3.21233171926544e-06,0.548379687925131,0
2.30626386998817e-06,0.457507030306921,0
2.15005689116904e-06,0.427645829967114,0
2.54644256043149e-06,0.470958405097168,0
2.81325552744648e-06,0.543460970303826,0
3.0471827598045e-06,0.606502296516953,0
3.48254174366407e-06,0.683922412338604,0
3.75613858306229e-06,0.862778061042834,0
3.23558268980243e-06,0.808539216779573,0
1.74274202908116e-06,0.630725482966096,0
1.0833877009585e-06,0.532413730920819,0
3.18987197289795e-07,0.309549919087854,0
1.2163475975531e-07,0.220643211073929,0
1.03533811668396e-07,0.212300858709856,0
6.93435955956846e-08,0.179049955649494,0
7.90852408901761e-08,0.196602097392596,0
7.56324194154698e-08,0.185552880600452,0
7.13780365502934e-08,0.18833210718718,0
7.03969489279072e-08,0.191119095837122,0
1.01363848798621e-07,0.206467389857035,0
1.00736123426695e-07,0.202601383659495,0
7.8620540131385e-08,0.185610027725956,0
4.52803470997029e-08,0.149202130007691,0
3.38385608862631e-08,0.134689795251609,0
4.22099079636585e-08,0.137821184809746,0
4.22045970978441e-08,0.131312077152439,0
6.08146296078583e-08,0.146205963518409,0
1.22086847207791e-07,0.189756545784904,0
1.14147102814734e-07,0.176945048243875,0
1.11336137408497e-07,0.17824580249176,0
1.05403615782748e-07,0.184843728922138,0
1.13566701050693e-07,0.191148655956691,0
1.21042218869407e-07,0.196676989330159,0
1.24594808751919e-07,0.193878259413137,0
1.25915222765113e-07,0.200277158201361,0
1.28733775122514e-07,0.196790118459663,0
1.16651555393949e-07,0.202804198266334,0
1.5760278815951e-08,0.108617677702311,0
1.20153597214332e-08,0.113736011125955,0
1.30547720308921e-08,0.107319013081062,0
4.21909405857489e-08,0.140166216045542,0
5.0252076197429e-08,0.146975919912022,0
5.97486629693256e-08,0.144464281543617,0
1.72840610550936e-07,0.226373413427984,0
2.0235385057864e-07,0.238385197022927,0
1.93741807475568e-07,0.244769309483981,0
1.93258613523315e-07,0.241083742553813,0
1.97517169211632e-07,0.237196788717029,0
2.11833366710418e-07,0.242128259872352,0
2.11158412567496e-07,0.255187147929068,0
2.06632796198209e-07,0.26372063724561,0
2.21396718652556e-07,0.278755718280717,0
2.38714314031795e-07,0.321759844237473,0
9.1563025285051e-08,0.228802519236922,0
9.91083430544732e-09,0.121332967162207,0
1.54117532468578e-08,0.122607361575183,0
1.51381488205085e-08,0.119347499650182,0
2.45251989849757e-08,0.132027124534716,0
4.78872235196308e-08,0.158211313899795,0
5.05532781586372e-08,0.155290098389101,0
5.00624024183308e-08,0.157596155619114,0
4.93059833872863e-08,0.151138326281213,0
8.1285456727717e-08,0.173189458860202,0
1.15949003716169e-07,0.188892926454584,0
1.15915336620379e-07,0.19287168918442,0
1.13207079565523e-07,0.199506210263576,0
1.15568612952187e-07,0.207943467277342,0
1.08684497976702e-07,0.205586307729744,0
8.63712746035709e-08,0.189358619462771,0
7.20817262707485e-08,0.175432948110328,0
6.80462269466518e-08,0.165594239700634,0
7.0492544512573e-08,0.165276617105628,0
5.37440653075194e-08,0.14847520422761,0
2.17607984915067e-08,0.113569752349824,0
4.36723876373966e-08,0.134155946066133,0
5.24030716892939e-08,0.136190907898015,0
6.18435150225774e-08,0.137102819903284,0
1.47953039810992e-07,0.200998481188276,0
1.29632070140324e-07,0.183041419830865,0
1.28183721163129e-07,0.182098325798325,0
1.18986913799097e-07,0.170987362956664,0
1.73672899093619e-07,0.207630587198018,0
1.93085536199888e-07,0.20885525558647,0
1.90155455660377e-07,0.201981432377148,0
2.005656061893e-07,0.213061445374775,0
1.98560280159783e-07,0.214003648255789,0
2.0113576556927e-07,0.218300994830648,0
1.3325332193087e-07,0.178745998327157,0
1.00263740879851e-07,0.160131591513198,0
1.02044872502474e-07,0.166256472388549,0
1.01538348675392e-07,0.167998258575087,0
9.40993430591542e-08,0.154742567313704,0
1.10669244401187e-07,0.179523527886474,0
1.09014530352333e-07,0.173590252828186,0
1.55111423071054e-07,0.203896394119844,0
1.51496240841439e-07,0.209400055064089,0
1.43912988316197e-07,0.216059621482711,0
1.51348200456853e-07,0.210098986248688,0
1.86491811780202e-07,0.228028391939667,0
1.67185961011566e-07,0.209909313656423,0
1.67976521322848e-07,0.211673860375377,0
1.97171109401667e-07,0.236998598351347,0
1.44859839821456e-07,0.207728500953547,0
1.4224016042144e-07,0.211783116984133,0
1.25903842338367e-07,0.203130868215345,0
1.25052301907105e-07,0.194160081624691,0
1.41042844690881e-07,0.202566938735799,0
1.19976157393985e-07,0.193432137281169,0
7.2972054989836e-08,0.161250653946894,0
7.05183401465301e-08,0.153532047535532,0
9.6705176273297e-08,0.178112204766916,0
9.40865400790653e-08,0.165708992290954,0
1.10779255193064e-07,0.174674644027624,0
1.07679701131928e-07,0.176891397966857,0
9.6667526028146e-08,0.166334843619228,0
1.11453735151537e-07,0.18447244924787,0
1.20791849480997e-07,0.188679767562845,0
1.36571569859306e-07,0.199746301293815,0
1.58822864743561e-07,0.203541437796742,0
1.56355683061939e-07,0.218285104121521,0
9.87676889472127e-08,0.179646914743033,0
8.9827130858743e-08,0.169980124023565,0
1.06127695434456e-07,0.185449395484007,0
9.56789462914853e-08,0.177485489942192,0
9.32716066871692e-08,0.175158570055113,0
9.78548838853017e-08,0.169422496684468,0
1.04737860818113e-07,0.170201579098507,0
1.00858557851103e-07,0.169555767957605,0
1.0579434376769e-07,0.175391100545025,0
1.20527728743603e-07,0.181329063352238,0
1.11649573328457e-07,0.173030607323086,0
1.07213482982904e-07,0.183901667601358,0
8.71489370978741e-08,0.17516396545332,0
7.45095506432073e-08,0.169155517871749,0
6.3959420865309e-08,0.161491493097496,0
6.59289933874664e-08,0.170124234329654,0
5.79172677952413e-08,0.158055829175543,0
1.00412160611995e-07,0.198539404663507,0
1.01655946418433e-07,0.196342325037299,0
1.33881616324133e-07,0.2169058141627,0
1.42437421151702e-07,0.236251233560395,0
1.45373476415255e-07,0.234457059049397,0
1.62937268359762e-07,0.236355345527978,0
1.44733896432135e-07,0.210778106495849,0
1.39484484921809e-07,0.204173227107259,0
1.4079702747317e-07,0.19845288421657,0
1.44711135578644e-07,0.210483732403516,0
8.84387187957429e-08,0.176275156668025,0
1.12968090603859e-07,0.206378889862468,0
1.33823196800171e-07,0.230379808517589,0
1.53256413511472e-07,0.240812982970384,0
1.47132131695055e-07,0.239794373825591,0
1.01093753337185e-07,0.206701664126591,0
1.19919255260255e-07,0.212974263721222,0
1.36774141455383e-07,0.207949450221092,0
1.05074342102233e-07,0.196228809437187,0
9.72433756214887e-08,0.19928324129327,0
1.25322681879209e-07,0.223012416598511,0
1.38774346292865e-07,0.21555455811924,0
2.22962949883461e-07,0.248359244318639,0
2.3121375927424e-07,0.237893286853682,0
2.27916565135283e-07,0.236503747562996,0
2.12599933288644e-07,0.231245880550987,0
1.8694892558783e-07,0.228526743816665,0
1.73371602295522e-07,0.229012251999962,0
1.73371602295521e-07,0.225972607156962,0
1.68565268733169e-07,0.215859824414237,0
1.2932176383772e-07,0.18109503262731,0
2.06133669648512e-07,0.225325329065408,0
2.15250814025322e-07,0.232499313235145,0
2.08916468498553e-07,0.237541880900967,0
2.20882607874311e-07,0.247241870420599,0
2.16476106638298e-07,0.238725527899378,0
2.20326484353994e-07,0.246742015122323,0
2.06240645659924e-07,0.245330196764055,0
2.68762813464114e-07,0.268401475692514,0
3.32985596371702e-07,0.309747144663577,0
4.05122612549057e-07,0.372511571001207,0
3.19160274613223e-07,0.367264891986163,0
1.8114064028739e-07,0.273765810217128,0
1.5671748579557e-07,0.251271024961287,0
1.67384075273834e-07,0.259065735358945,0
1.52620532167045e-07,0.236258709323935,0
1.43934326616346e-07,0.229721831542874,0
1.05948738223876e-07,0.198416042181754,0
1.1550896054866e-07,0.214877731076665,0
1.44582631593304e-07,0.230077649872952,0
1.3679159144306e-07,0.214135877998414,0
1.15229002050711e-07,0.192532515418802,0
1.06701268942449e-07,0.191553749846889,0
9.45962883603919e-08,0.18439098112372,0
8.61156891862359e-08,0.175331338391382,0
8.78173474954167e-08,0.178464368902277,0
1.39078677871428e-07,0.206935139703686,0
1.88662343671315e-07,0.236812837282638,0
1.84885274871239e-07,0.2395623574477,0
1.48190511382424e-07,0.219004733235337,0
1.46109505515046e-07,0.23119263979466,0
1.4862875264903e-07,0.235127055251203,0
1.50304994671812e-07,0.238150751778518,0
1.59563351177161e-07,0.244830895260801,0
1.12813032289446e-07,0.213337776685073,0
5.25600267414978e-08,0.160620067141427,0
4.51617061508769e-08,0.158096997037677,0
3.79096240439407e-08,0.148628331007362,0
3.86872865382441e-08,0.143588045219961,0
4.70868950087253e-08,0.148567830424351,0
5.60664310587996e-08,0.155892071137569,0
6.298525633586e-08,0.157922366658282,0
1.08286941735711e-07,0.20575158221524,0
1.07846898568203e-07,0.205104077199837,0
1.13527248904641e-07,0.217552014877364,0
1.06703639864688e-07,0.200582651076499,0
7.96098785631621e-08,0.189559313443675,0
1.33415398175109e-07,0.242727035412618,0
1.47203923220444e-07,0.230461435307007,0
1.57043060837392e-07,0.235307081897698,0
1.79659003561963e-07,0.243078655748717,0
1.79645726397426e-07,0.250758104546784,0
1.41485163943738e-07,0.227800046691366,0
1.31878281869296e-07,0.224302267968826,0
9.66843121575962e-08,0.192182133211973,0
8.77520997154067e-08,0.190538987442103,0
8.17948256614857e-08,0.181810681157919,0
5.37822845740076e-08,0.152118665138459,0
4.50572907354832e-08,0.154571396525461,0
2.22089027946265e-08,0.129784538572802,0
1.40038996215003e-08,0.116252530293466,0
1.88929309515395e-08,0.125799868355418,0
1.81821284643686e-08,0.120581796838822,0
1.32899675169741e-08,0.11108878308852,0
1.38727402032538e-08,0.110906901820477,0
1.01717305885971e-08,0.115661962715307,0
9.30539560256537e-09,0.113947249702072,0
7.34872089738678e-09,0.107705933505899,0
1.48010036781612e-08,0.118752963060036,0
3.37565269768033e-08,0.145719549074513,0
4.8753653342552e-08,0.173621486544783,0
5.02573870632438e-08,0.160882008515939,0
5.82661727118928e-08,0.170250711832951,0
6.06944712687995e-08,0.169836292038065,0
6.69942013308827e-08,0.180006012456213,0
6.79665639594304e-08,0.174389038921104,0
3.31398785535765e-07,0.29120529734364,0
6.91241714843346e-07,0.374898424339915,0
5.92334425994717e-07,0.345778721962723,0
6.3972261780154e-07,0.341775948271884,0
8.10315594070161e-07,0.377221761227045,0
8.1075943071325e-07,0.366080147083759,0
8.06657924914027e-07,0.356931329191237,0
1.02063299310113e-06,0.405833533884082,0
1.14950646296195e-06,0.41809988080094,0
1.19398496416052e-06,0.429323159914306,0
1.06946943904826e-06,0.447940626870185,0
7.61730655554115e-07,0.40363674233787,0
7.72322703237195e-07,0.39907443822118,0
7.07836747961109e-07,0.413027190625796,0
3.31443453710743e-07,0.292555055569808,0
1.37366302993728e-07,0.214496767988247,0
1.33192721158448e-07,0.214720542216718,0
1.10673512061217e-07,0.187727422264859,0
2.4133854560251e-07,0.235385513722314,0
1.36591371801844e-06,0.499697331788058,0
1.52742852787185e-06,0.43791463693394,0
1.64176577865013e-06,0.429352201226327,0
1.78788476785413e-06,0.433239881242004,0
1.65590937300994e-06,0.411903227073795,0
1.53680713755315e-06,0.383839954130981,0
1.8960268936595e-06,0.341857142750227,0
1.15181761899289e-05,0.598481505467038,0
1.46334932801504e-05,0.534379174570244,0
1.67385386868016e-05,0.5559314343803,0
1.98494167467341e-05,0.607098682694598,0
1.90305278030118e-05,0.505787820628502,0
1.80428775627056e-05,0.48346356163461,0
1.78030946266024e-05,0.400387638175987,0
1.67593534873199e-05,0.364677630607004,0
1.29814706073849e-05,0.292132322029212,0
1.08725789958411e-05,0.282338090242315,0
9.28538539821805e-06,0.278464690901018,0
1.34114610646009e-05,0.327266996851489,0
1.3492841453055e-05,0.303480877181935,0
1.34599216719547e-05,0.306212988766948,0
1.52029592127837e-05,0.306667475605743,0
2.15761074425852e-05,0.355657451542698,0
2.22743933570736e-05,0.307082315146432,0
2.32387691072942e-05,0.260779466154902,0
3.53720828739624e-05,0.319640040373162,0
7.59764004008157e-05,0.409479525154423,0
8.60089884863147e-05,0.316015370364619,0
9.58594292379438e-05,0.315756751697138,0
9.86193965810108e-05,0.321868820159028,0
9.08223548678854e-05,0.291818084206771,0
7.84269665645517e-05,0.269982279128745,0
8.43935482901608e-05,0.271288896402024,0
6.42752921965927e-05,0.179764961817199,0
4.54160814495013e-05,0.15537798824233,0
5.99829570307723e-05,0.173714740123103,0
9.26194831028532e-05,0.116907607401388,0
0.000108874356023876,0.104167232893689,0
0.000114844981689293,0.103858123981535,0
0.000123186422427753,0.0933312015039443,0
0.000142355795325377,0.101926955416442,0
0.000145677089414706,0.100093257238763,0
0.000140685917995927,0.0993687825303923,0
0.000134197366264198,0.111552676282143,0
0.000118354312673006,0.104674864865704,0
0.000105085242938828,0.098692653603383,0
7.66458296310627e-05,0.147619020956249,0
5.20838642807466e-05,0.178239503349276,0
3.22262221409082e-05,0.174973626687922,1
3.17748554487878e-05,0.303659691887242,1
3.6032300122943e-05,0.321914728404104,1
3.61487059559562e-05,0.314720775050882,1
3.38999035676721e-05,0.289110263110303,1
3.99194267539924e-05,0.269237441458754,1
3.91280936168975e-05,0.253595272465065,1
3.91038769223143e-05,0.240330112917698,1
3.89009744403296e-05,0.245407933785167,1
4.7275228078716e-05,0.249314794770961,1
7.45123433999308e-05,0.328129026842418,1
0.000117520000311099,0.444323146561289,1
0.000178925279283099,0.51393189146122,1
0.000201686379824999,0.395962848289078,1
0.000189800103257789,0.124632811068348,1
0.00105890243579614,0.0795133038236616,1
0.00144543322603537,0.0759791788076415,1
0.00136209448312504,0.058963010060999,1
0.00122998598707729,0.0462943797501318,1
0.00125744668245203,0.0392552111346881,1
0.00112386510425079,0.0309570213128651,1
0.0013091904594656,0.03194033205528,1
0.00155101007514822,0.032739220056426,1
0.00135889345596301,0.0265559179614044,1
0.00171268915795275,0.0277296145505023,1
0.00266454333047377,0.0519703645478915,1
0.00319729523777177,0.0574551662984821,1
0.00386871254511485,0.0574716991411675,1
0.00439666991893049,0.0656763665881957,1
0.00558598551685286,0.0803798866552127,1
0.00527714531204386,0.0856701687977482,1
0.00571330373759458,0.0711378559864562,1
0.00804995852499364,0.0651954155421448,1
0.00543933731494948,0.0301238708063307,1
0.0162393821106071,0.0127541903931061,1
0.0592262530314714,0.0374900492844837,1
0.0616295736279349,0.0220449773505721,1
0.0659981263752725,0.0174750926415156,1
0.0763978194831681,0.0164739195296896,1
0.0697710389810025,0.0143915781589732,1
0.0628734852707857,0.0126124435684718,1
0.0557221087877326,0.00963359503170227,1
0.0654104096818559,0.0113963313921873,1
0.0579844517726803,0.00930212647066034,1
0.0600912051446733,0.0153601689797919,1
0.0423535778340996,0.00966998320625244,1
0.0416185706814563,0.0122676257029444,1
0.0382512527784401,0.0153814192146052,1
0.0291491323046223,0.00906062351945139,1
0.0677246103418784,0.026565549903611,1
0.0800323808721825,0.0220896959504286,1
0.0828668778170666,0.0277179501689061,1
0.0994632559767501,0.0302189014688612,1
0.111657059738766,0.0312968566807989,1
0.102297075461616,0.0287097267475328,1
0.107760628564224,0.0225214259775289,1
0.0885320492259593,0.0155982927994855,1
0.0468878927279645,0.00779480921057787,1
0.0505508289663755,0.0106012391257545,1
0.0500977823161437,0.00825754525502208,1
0.0543654975635924,0.010595474620984,1
0.0576835128184451,0.00801314161445983,1
0.0575930204546988,0.00807082655482305,1
0.0519546085480416,0.00654847340081112,1
0.0642024639089217,0.00914738559704732,1
0.0513919366679626,0.00908876867807731,1
0.0633654635798386,0.0156193802681283,1
0.0729867031752472,0.0174931283527213,1
0.0778582275286051,0.0187970018259505,1
0.082744646687955,0.0276957966899008,1
0.0408982769934899,0.0152763990711953,1
0.0306386046982583,0.0234633662591842,1
0.0267271177523988,0.0318027720539359,1
0.0121399907180454,0.0241397537911179,1
0.0128262774249572,0.022702511299575,1
0.0210586952507173,0.0251759928947392,1
0.0206833808652113,0.0176996535399946,1
0.0198701535458074,0.0137750499554382,1
0.0201441645909161,0.0119757014300458,1
0.019043919151543,0.0111153561407403,1
0.0175012742362187,0.0107447449644343,1
0.0175911175383793,0.0106682194352223,1
0.0161364901644908,0.0103872196391968,1
0.0155972414126389,0.0106395000350881,1
0.0179634083727713,0.0133256203372985,1
0.0183106252326203,0.0112905366051334,1
0.017610785210849,0.0135920974255933,1
0.0158582012122265,0.0148182797581027,1
0.0154735622970167,0.0162206946831831,1
0.0189697683229519,0.0146279265304412,1
0.0178224128007609,0.0100079581281811,1
0.017143883478284,0.00918798562529598,1
0.0186403986379158,0.00911497209172695,1
0.0203512084504993,0.0100284869614612,1
0.0198536303291571,0.0104286049720254,1
0.0195888771925443,0.013709972798473,1
0.0199564179923451,0.0124701997412948,1
0.027012847523371,0.0128235930849283,1
0.0280905297123438,0.0124888981803362,1
0.0210948379264696,0.0127926391136338,1
0.030035483575184,0.0199740521712418,1
0.0512236605982546,0.0331068356823975,1
0.067361107019794,0.0449329202531142,1
0.131046256415525,0.0501861090346611,1
0.168817392645764,0.0594011050881199,1
0.173494373053268,0.0643876716023754,1
0.18656011129941,0.0638432813960988,1
0.192219395999344,0.0576898095446798,1
0.158889672113849,0.0539787993843766,1
0.0997529341202063,0.0406477649909701,1
0.0627322531585021,0.0288311366633545,1
0.0423792604639283,0.0195959449877431,1
0.0329088894325458,0.00437357180406205,1
0.0801339661327788,0.0156747453492726,1
0.0812427161670507,0.0146071279616398,1
0.0965083447838064,0.0143420535077118,1
0.0891770150759839,0.00930688855299949,1
0.0852782077410767,0.0102522795061178,1
0.105977456748125,0.0123773419414727,1
0.123359766825139,0.0140848882661071,1
0.153093935003288,0.0165398428668268,1
0.153051813423369,0.0142748793018234,1
0.144216760973932,0.0189790418106305,1
0.106373552932713,0.0171582681821326,1
0.107350334879134,0.0145820763104286,1
0.108646676508099,0.017511210356554,1
0.111554813946062,0.0258104383118911,1
0.115768253284919,0.017594839396018,1
0.11189946352541,0.0168134579393554,1
0.107501324330605,0.0171433648774564,1
0.134140495256315,0.0192542435855026,1
0.177329861087105,0.0271225929757883,1
0.234580254939148,0.0384222636474609,1
0.233294513048853,0.0373483313470721,1
0.250249993242189,0.0439048807099384,1
0.277060353935454,0.0455865262875636,1
0.303658034233632,0.0522974869599698,1
0.24557101546879,0.0769361793666044,1
0.112071055601766,0.0529673427473602,1
0.0365400353888654,0.0216523430913065,1
0.0252829428379569,0.0161949452497814,1
0.0254077565910404,0.0136843614360245,1
0.0237954619410455,0.0141317803345515,1
0.0273629588461534,0.0148361193569182,1
0.0297922773848083,0.0148477073497451,1
0.0296142649847496,0.0147445304995384,1
0.0270008500256087,0.0149993512667973,1
0.0223334769941843,0.0125430753106925,1
0.0193949160465951,0.010458793386637,1
0.0164451439342953,0.00362990562137497,1
0.028859220473302,0.0146000348515909,1
0.025203214423619,0.0113470994562173,1
0.0243017720918905,0.0076494438521442,1
0.0297314451534737,0.0112566485393019,1
0.0308074692536269,0.0130230878638235,1
0.0303967388235119,0.0134522110804148,1
0.0278556044040416,0.00961919570834965,1
0.0259558491110203,0.00862804920240434,1
0.021907842700206,0.00706958295889402,1
0.0210867565683138,0.00899966653021313,1
0.0810814702665338,0.0162972605043061,1
0.162941156928673,0.0353214597375321,1
0.207311739235995,0.0426853779875355,1
0.289569180366148,0.0487378729111752,1
0.299766414648038,0.05392298384082,1
0.373916842682729,0.0560456619078629,1
0.373870932208513,0.0435256911155328,1
0.285909099192202,0.0374938958426609,1
0.184127814292159,0.0260886829397813,1
0.090486794749647,0.0124068961109281,1
0.0794152822851748,0.0156124915587683,1
0.0843544794876188,0.0126927911395333,1
0.0917501920039351,0.0152944511936458,1
0.0930589012410125,0.0172029809243221,1
0.0908497678219905,0.0145744831743327,1
0.0828826131665836,0.0145883537470905,1
0.113951171616862,0.0210936703563078,1
0.154597730285261,0.0136373446833998,1
0.174492241405471,0.0146810086725243,1
0.215476537191401,0.0166621327673044,1
0.306439963369175,0.0223149958927943,1
0.315884237201603,0.0215438528204141,1
0.301235503771669,0.0201569047720806,1
0.293315455337511,0.0198296952639947,1
0.299382711814277,0.0206367032276504,1
0.285124002229374,0.0178869553935504,1
0.21257079912826,0.0134678109023281,1
0.132645389273378,0.0124953358416413,1
0.136123159231421,0.0131902945565465,1
0.164119457680695,0.0164538975409811,1
0.193671334759458,0.0201414015789781,1
0.250657277625124,0.0356943809304395,1
0.309352201022397,0.0400356159607163,1
0.300414969709115,0.0339979026801536,1
0.290465076605469,0.0317225085756125,1
0.235620453639888,0.040648895968166,1
0.114098779421944,0.0292799738429802,1
0.0861289196037731,0.0266604693603609,1
0.0332140255113051,0.0101962178095165,1
0.0190929863398152,0.0108548500926215,1
0.0180645509101097,0.00850307181893651,1
0.0173733806643463,0.00550268029172813,1
0.0306288826804065,0.0104657914905476,1
0.0309144130303589,0.00816510349335099,1
0.0312726247587174,0.00777715920612326,1
0.0338732665156988,0.00765366888195231,1
0.0327528892952588,0.0077278243788744,1
0.0330540220421341,0.00818892304157173,1
0.0331327824386059,0.00830678560470712,1
0.0334874311393337,0.00841461746275221,1
0.0298985968380625,0.00679172247549418,1
0.0267019595001055,0.00852276527154878,1
0.0206511627375886,0.00834619535594708,1
0.018656878090566,0.0101506072880855,1
0.0171779570854779,0.0108422310095538,1
0.0189195193327469,0.016380440146865,1
0.0207140049987675,0.0168430167468408,1
0.0204035609087838,0.0162971436841959,1
0.0209778631138475,0.0153675953064598,1
0.0639398186549508,0.0243468050476939,1
0.105337306299966,0.0304370788417083,1
0.126553238206521,0.0340518421419319,1
0.198659654717479,0.0471302006954218,1
0.266073957506612,0.0634734679275771,1
0.30945003621767,0.0642393559452168,1
0.301834891275559,0.0612983010129175,1
0.244476048640067,0.0417172148204797,1
0.172048888630391,0.0327324309491479,1
0.103089757884867,0.0199163496634435,1
0.089117873303196,0.0216768778513183,1
0.102565994021911,0.0277538759131625,1
0.105497800928534,0.0280451353827332,1
0.205451268632306,0.0397417560525123,1
0.222374242636088,0.0226243836278421,1
0.238132528205195,0.0193915547706874,1
0.263189665520434,0.0112512011713267,1
0.264333709401603,0.0109686821544806,1
0.203410711129165,0.0071301461690992,1
0.213984087310256,0.00737761742092038,1
0.211899992908105,0.00644381710624131,1
0.227414254942974,0.00462626384165884,1
0.306158069103407,0.00801833262411775,1
0.230704057470481,0.00538150872582512,1
0.231780763798766,0.0071022155605793,1
0.203268381192066,0.00726468742188328,1
0.204313601930503,0.0108844211282881,1
0.32867815061429,0.0223284639518103,1
0.365339168935028,0.0238232347970616,1
0.420668677976934,0.0296564827212159,1
0.343281701494727,0.030316710197559,1
0.259356203139492,0.0376950160778034,1
0.272333753437671,0.0460903650575136,1
0.223502354049361,0.0391775430847127,1
0.180775999038617,0.0372972656853897,1
0.0592942240186234,0.0145948422318137,1
0.0189701825408964,0.0101913398653322,1
0.0193155682205664,0.0137013686977185,1
0.0139259918540925,0.0140763993780681,1
0.00728701834630455,0.0188451540001008,1
0.00808286572171289,0.0306963118468079,1
0.0169155396380614,0.00550680900293691,1
0.0385600711152849,0.00850890753227529,1
0.0397822658357414,0.00869708899937831,1
0.0427025151429545,0.00897979610173403,1
0.0474527363423715,0.0094079615130019,1
0.0600978145642188,0.0128801919473999,1
0.0731470275092911,0.0101700080132734,1
0.16203134567001,0.0175510164194899,1
0.15115405132873,0.0120964662903685,1
0.136977297351305,0.00891440644316606,1
0.138857980026963,0.00989283730389099,1
0.142542526075192,0.0119449078918409,1
0.120217098631819,0.00583164246815793,1
0.138047146327585,0.00644659666898195,1
0.125363634911979,0.00528353548663438,1
0.123419409731699,0.00512935424334309,1
0.121772363531772,0.00690818349787843,1
0.0951853874508418,0.00554831253850496,1
0.11109809858491,0.0104589802307666,1
0.121172798571371,0.0139036084898038,1
0.122023206315966,0.0164634832776352,1
0.0732052082685809,0.0104067243468461,1
0.0696321101431404,0.0152418084532091,1
0.106122389486408,0.012504316021222,1
0.0836536895553784,0.00858438650379112,1
0.0779932777705091,0.00743401763591851,1
0.0759121111930126,0.00740948334157605,1
0.065824911340336,0.00652297227321102,1
0.0681915069760121,0.00796285236378605,1
0.0900673789439937,0.00673437273602306,1
0.125138665836401,0.00768640765339976,1
0.124739251428447,0.00786229907759721,1
0.162169358595195,0.0114539465357211,1
0.176222359563034,0.014599327147177,1
0.169266492265738,0.0154349188710401,1
0.16275246013038,0.0137166786157528,1
0.177429974147625,0.0133964356225354,1
0.185517364874294,0.0120485199769616,1
0.208967890735171,0.011809149211756,1
0.200183099305145,0.0154475047924556,1
0.191902070327288,0.0158019026142806,1
0.193162613076175,0.015489963615964,1
0.17069147316221,0.0196534488616569,1
0.128718070149537,0.0145176309598068,1
0.139625101752364,0.0115216293205387,1
0.144254274186985,0.0112041837377671,1
0.120842984911894,0.00877295872182191,1
0.143103769022155,0.0125300698947173,1
0.189554200271776,0.0195300500150847,1
0.275846241192438,0.0298253790024866,1
0.249070590126458,0.024062993038011,1
0.263251787832677,0.0221470849838461,1
0.258264440851164,0.0207926319701742,1
0.256255863784622,0.0216286218508308,1
0.189117338001826,0.0273022768724544,1
0.0901204136990726,0.0143515149839317,1
0.0602588310260385,0.0104818982945425,1
0.0568361048325691,0.00712684185222104,1
0.0631575940267649,0.00810801373094042,1
0.0730422209213171,0.00969938025812379,1
0.0643214415772621,0.0132653024191284,1
0.0542211132686539,0.0174805696077942,1
0.0560047416900451,0.00906390098322207,1
0.0974992107659767,0.014139980285068,1
0.0981153585857588,0.0127063100456328,1
0.09805043850637,0.0132333682324209,1
0.0878380631548732,0.0117350985237688,1
0.105645437971355,0.0108841024044812,1
0.125591126752381,0.0149493340702418,1
0.113751842013406,0.0116733455786206,1
0.10800720286179,0.0120631107231838,1
0.108920325937492,0.0115967019504846,1
0.103846294532906,0.012692602360676,1
0.0877672217494483,0.0123015554526749,1
0.0929964483989746,0.0128041670625928,1
0.0996424582875802,0.0132596990379046,1
0.0887959253292262,0.00870072246006259,1
0.0941084785893692,0.0138913770145975,1
0.088503186153505,0.010010654788229,1
0.0966255165347134,0.000158600899790632,1
0.27267431325914,0.0105911076292064,1
0.269784929628687,0.00830264840719255,1
0.252740002650872,0.00747053297050248,1
0.335321922575833,0.0103518094089223,1
0.356825342144159,0.0113696207319592,1
0.301533073596562,0.0092911421309803,1
0.321864166737929,0.0108359915907712,1
0.339271451468234,0.0105280732420766,1
0.339989576073417,0.00974295334127747,1
0.304004249768804,0.00710827399065415,1
0.354270623232771,0.00755642471822745,1
0.333853236080319,0.00799782301613709,1
0.28716890488481,0.0061337325808774,1
0.288980725821246,0.00697312861241028,1
0.295417173973812,0.00756185216765235,1
0.311914211823013,0.00504437405365586,1
0.420185780321014,0.00796074962781117,1
0.440789135426753,0.00636055090813279,1
0.355296722699012,0.00401548332859229,1
0.31824610317773,0.00776185200115846,1
0.262550797991765,0.00764285488368543,1
0.255755846023464,0.0075126764444984,1
0.259169386788289,0.00882945024607194,1
0.26714318135368,0.00836879243128676,1
0.269307455993406,0.00871759364531853,1
0.260357417941839,0.0140318810771856,1
0.138912448099562,0.00720426170923258,1
0.119912616078618,0.0174277814101083,1
0.122569669836066,0.0164507598630848,1
0.204294334113121,0.0256808721855052,1
0.298926781526173,0.0329668511586953,1
0.364240072902729,0.0404579978539782,1
0.312234449847843,0.0362279580571385,1
0.24632795523478,0.0336867056150506,1
0.209809084778633,0.0309888458989029,1
0.144840085282948,0.0302825035629187,1
0.130544805547859,0.0267444270068834,1
0.0627295827413662,0.0144139475100749,1
0.0333416597865081,0.00786895903465491,1
0.0362763058126707,0.0100040892835418,1
0.0358412403200591,0.0112796322381669,1
0.0295887733371645,0.0107317042941391,1
0.0315967846501641,0.0118828748451601,1
0.0250737013801292,0.00734468261606818,1
0.0258049393871203,0.00956195979300677,1
0.0185580163803265,0.00854109167047806,1
0.0154209240499468,0.00925548121982525,1
0.0155656724829773,0.00841871788777156,1
0.0143032382055005,0.00703995988118099,1
0.0131944814817189,0.00710577158928964,1
0.0133892251240935,0.006725777475624,1
0.0174958626346598,0.00903397318900661,1
0.0285239080641825,0.0177593939930443,1
0.0260901354082067,0.0113855567613263,1
0.0298686103619559,0.00635930590166306,1
0.0409827922540216,0.0100841431877438,1
0.0412475484176382,0.00868375223031622,1
0.039494545338215,0.0074244309382576,1
0.0426973671556092,0.00864378956646685,1
0.0364209787660641,0.00784551391158229,1
0.0316737463512212,0.00582649876093244,1
0.0500876877978623,0.00779268083804297,1
0.0791101146374911,0.0164013660539904,1
0.119427839691587,0.0259033197579774,1
0.130731260174569,0.0414582366029014,1
0.147983991404568,0.0476360402720147,1
0.191752400339091,0.0580165910017988,1
0.241160483236308,0.0717824910439257,1
0.254195915211421,0.0647286166170557,1
0.192513456506435,0.0504557270234468,1
0.134309321210414,0.035977895688941,1
0.130594804611848,0.038078767842395,1
0.155184452485576,0.0343865415949781,1
0.137371837172346,0.0342944254405604,1
0.0949566788919357,0.0233045574842604,1
0.07939721524469,0.020196083926326,1
0.186000116168821,0.023221780850649,1
0.289120419303058,0.0283707469604367,1
0.285282331992366,0.0239471939179241,1
0.246334787549087,0.0174788010089191,1
0.273614271915325,0.0214193491055873,1
0.27508564117422,0.0202110656718095,1
0.277934046076797,0.0202244558333105,1
0.312778987517124,0.0191021384060262,1
0.391847248620921,0.0251807393172529,1
0.454771156688341,0.0250298198346111,1
0.380101228754171,0.0263337957163196,1
0.192380224550782,0.0145547582515864,1
0.14290381644456,0.0129284139113486,1
0.152720096114009,0.0123588653464034,1
0.191604649974058,0.0163918182003533,1
0.172307952958829,0.0137218875887169,1
0.169706861784433,0.00784626886467873,1
0.222914012066742,0.0124636772908827,1
0.274977748726632,0.0154756371297918,1
0.353002226601492,0.0192637228276159,1
0.3721106642165,0.0256216791290289,1
0.307130648424385,0.0228722780619087,1
0.194678478999809,0.014832869982997,1
0.166183288028312,0.0159066261876548,1
0.169767667184989,0.014386078146543,1
0.0791754969644928,0.00768099283729768,1
0.0300541284178589,0.0154516055726259,1
0.0265530303279944,0.0152073941590356,1
0.0242247828398634,0.0206861779565336,1
0.0304127472558523,0.031981066393558,1
0.0247332764223132,0.0257657749359385,1
0.0229829632001657,0.0205461770983148,1
0.0231002571488791,0.0082703019609552,1
0.0495527107788103,0.0165558573707872,1
0.0687208435976124,0.0200061208927438,1
0.0667540278927909,0.015474486078898,1
0.0672992949511666,0.014235841204967,1
0.0696736589549069,0.0140141095574556,1
0.0660896819046498,0.013772433754804,1
0.0585679567605907,0.00959979865921306,1
0.0616274248516263,0.0101239554300181,1
0.0555396364610245,0.00983836937896757,1
0.0487461347482058,0.013262409626846,1
0.0397149550157646,0.00686979290965594,1
0.0675396057888492,0.0184899325915565,1
0.0625426416641948,0.0132446303538793,1
0.0500000303104626,0.0101368719371446,1
0.0537592324202846,0.00716913913148673,1
0.0568285803531198,0.00705018003782691,1
0.0581289719466898,0.00785315648640748,1
0.0686606520677072,0.0094377591751601,1
0.0733590865366815,0.00664771842533191,1
0.0889228536968533,0.00791032375705661,1
0.0872990628962516,0.00974469624584567,1
0.0672699627278274,0.00670382775682816,1
0.0692913942624493,0.00380714897575342,1
0.117975677003653,0.00893115354507397,1
0.12328095063603,0.0126883598309008,1
0.152326736784729,0.014842810479387,1
0.274027828717668,0.0220879387098191,1
0.543186030564523,0.0423414203028041,1
0.580221420041936,0.036213373425671,1
0.498655320770589,0.0340683797183871,1
0.438145790863955,0.0328390335869463,1
0.357704000552659,0.0253991909864894,1
0.300943436330473,0.0237465447791958,1
0.271790553342855,0.0211838056329333,1
0.178483577180162,0.0147835381885424,1
0.140701293910313,0.0122631697107868,1
0.19366932908073,0.0205893305239166,1
0.161583786427213,0.0165334510257823,1
0.154506019585187,0.0202221861957964,1
0.16581739911367,0.0165910839183367,1
0.182978874764028,0.0169810704058764,1
0.222033343853446,0.032009012970876,1
0.137057364143096,0.013569231893461,1
0.129814381513941,0.0140469343052773,1
0.182594421022302,0.017156806772444,1
0.21143816522008,0.0153210268456332,1
0.187414278837982,0.012841350613947,1
0.182024530964684,0.011815279668608,1
0.202921457273411,0.0153468765569395,1
0.18964853200846,0.0162741581909091,1
0.181407599284248,0.0158879421919483,1
0.152387492279363,0.0106137771632997,1
0.264593350497276,0.0235354647060772,1
0.393322448136937,0.0302521972734007,1
0.320105809631474,0.0288351269938201,1
0.267593450499237,0.0285197300963098,1
0.268791783488681,0.0275655575137457,1
0.19322897833054,0.0236131733740309,1
0.196577280048031,0.0225384555798715,1
0.180203311172029,0.0229130831350103,1
0.104703302413274,0.0131170689462843,1
0.0477465695652704,0.00580924464217373,1
0.0458478412860577,0.0092990580491948,1
0.0476624676316906,0.011134253296499,1
0.0342568291343515,0.00856571076303014,1
0.0332088209557468,0.0127135700064983,1
0.0338612078482376,0.0132429701649436,1
0.0234949803417881,0.0056763049674053,1
0.0289739838527794,0.00764537218147725,1
0.0290867053393987,0.00738319248584028,1
0.0249722718769848,0.0061633671505232,1
0.0257976259368209,0.00643263882849083,1
0.0275609362333737,0.0076787745413871,1
0.0270573689636784,0.00656814426820232,1
0.0386686097230189,0.00736816484252641,1
0.0462903747679564,0.00756907542489808,1
0.0441671257446984,0.00914534516136406,1
0.0419296655145785,0.00978120440743896,1
0.0392526168863902,0.00967580030033423,1
0.0393227349143357,0.00585940403905557,1
0.106293300849556,0.0143647456784113,1
0.102904921047747,0.00570440835899593,1
0.113871601942597,0.00662942673578525,1
0.106363771867897,0.00532045256705132,1
0.136625082304858,0.00958452054440746,1
0.145313932956554,0.00974655407390446,1
0.164711070739373,0.00734242619603769,1
0.237312814157773,0.0127219859919631,1
0.256814876898756,0.0154396263268187,1
0.232372775475954,0.014600758666211,1
0.27696016645102,0.0136578607355488,1
0.364758846203878,0.0268808922550741,1
0.264420392135726,0.0210983003985006,1
0.210356795111638,0.0140561253641607,1
0.211342919928743,0.0141937546998894,1
0.187203913931455,0.0143609487703622,1
0.175445147065978,0.0217225217546977,1
0.19101328688266,0.0235062179132553,1
0.202862129178664,0.0156854466801763,1
0.255242295414764,0.020465083512843,1
0.363985534836594,0.0399640826102434,1
0.44046776652759,0.035562895465495,1
0.44255703422137,0.0265250173663918,1
0.478986768759826,0.0293072739136658,1
0.508262598156767,0.0302820504360246,1
0.485331089142913,0.0239638290235177,1
0.456466868277392,0.0226109619071824,1
0.443423016537176,0.0196246265805111,1
0.443939384214794,0.0232357782867437,1
0.41447738650836,0.0210779403495632,1
0.342423783719651,0.0190362728169822,1
0.207984574154257,0.00967326791276245,1
0.224129474164576,0.0140109964823864,1
0.238572822178341,0.0165574154521502,1
0.220791846047665,0.0156204645010328,1
0.228535720482064,0.0233698783623973,1
0.232005472120032,0.0232776458098087,1
0.238328412969029,0.0232004908510186,1
0.282416015076418,0.0341713365568974,1
0.257946989291388,0.033062351746166,1
0.0819089113956337,0.0110893174252206,1
0.0508167748093615,0.0121842205212983,1
0.0628828953931532,0.0152662283706852,1
0.090995594663975,0.0205197572792597,1
0.13782105447352,0.0278430097249955,1
0.146436625186437,0.0227782460141371,1
0.132130225541348,0.0220244774088955,1
0.110558086858238,0.0186699790743736,1
0.129362635944559,0.0220173748921814,1
0.128061364330471,0.0266163709032917,1
0.0615079133178887,0.0146992376390968,1
0.0379365187895554,0.0125995492205904,1
0.0254233072272218,0.00481869711581865,1
0.021937449263242,0.00935835452864696,1
0.0200001920982368,0.00879658950882861,1
0.0206448210209594,0.0131834443712264,1
0.0174353089544438,0.00836669098059862,1
0.0198675520599163,0.0114112316645977,1
0.0255373142794702,0.0149215238986169,1
0.0272754018064782,0.0171618470176184,1
0.0262638077397964,0.0183508877955303,1
0.022000238534214,0.00821157199178403,1
0.0518990574245078,0.0179005358940954,1
0.0831435160713399,0.0253046188883678,1
0.0866650703272049,0.0234468653607954,1
0.0717545594911241,0.0248918580526996,1
0.0509579507519367,0.0222238580013619,1
0.0453854588348526,0.0225568464438588,1
0.064770235503895,0.0196603826438682,1
0.0673515236785116,0.00907269577777206,1
0.0715528530593665,0.0100153192709253,1
0.0642910636119149,0.0110133981112738,1
0.060135496294174,0.0125061383135195,1
0.0493516650696875,0.00739970409604384,1
0.0693449634949077,0.011754660409165,1
0.102691968544191,0.0112149068693745,1
0.209331705782413,0.0195430559684303,1
0.231181262008838,0.0195207353995814,1
0.303639174825624,0.0242150575937757,1
0.316925424436084,0.0354100963566136,1
0.264986866819544,0.0290968883271061,1
0.217719025161759,0.0233447423753232,1
0.145432025190422,0.0143524938434171,1
0.0897988183052333,0.00848997241706485,1
0.161518156975667,0.0145228429292056,1
0.198121455938308,0.01157678645638,1
0.222996057705534,0.0125460092760399,1
0.21288851662727,0.0115302572859395,1
0.21400016196198,0.0128969515667979,1
0.212650096576174,0.0104251212011257,1
0.219329489148342,0.00738454353262856,1
0.235955030007484,0.00843405851558567,1
0.209532808825177,0.00760246863943634,1
0.219610235658145,0.00747749950500533,1
0.183444051415848,0.00767743228881191,1
0.13605333963288,0.00884363656081332,1
0.163883259834697,0.0114099698595346,1
0.256798361811619,0.0219346521650437,1
0.299723085968255,0.0209863843181843,1
0.293825165740226,0.0233882783302772,1
0.292011277883951,0.0358140599408592,1
0.258213890882813,0.0328803435500604,1
0.209543268214545,0.0228659578040044,1
0.134918170621502,0.0167822180769651,1
0.12115503262056,0.0131059116626475,1
0.0997356305796541,0.0110722711303931,1
0.13095982078309,0.0192593605215473,1
0.10723975453379,0.0146400029457579,1
0.0876641238786829,0.0149342030009993,1
0.0886741075848221,0.0153055076642467,1
0.0847220290944474,0.019463577026488,1
0.0634581530264859,0.0149143505986668,1
0.0907302955615367,0.02032588893032,1
0.128085088217296,0.0276646443770522,1
0.183940257350486,0.040204433658051,1
0.25992784622439,0.0579631837178666,1
0.256205824411919,0.070807381294273,1
0.22950189938124,0.069651120508638,1
0.19417258671993,0.0629826116337864,1
0.160133609111626,0.031759094874069,1
0.133329760378778,0.0206691167673928,1
0.0733853154434957,0.00802362737814131,1
0.0567515534217326,0.00956555182495689,1
0.0521431449410212,0.0080954691417022,1
0.055730390849672,0.0101673541036602,1
0.0579407807946985,0.00847239217070162,1
0.0614893522591484,0.00863744859227469,1
0.065472018024912,0.00857771072536607,1
0.0654566586384143,0.00761873988557058,1
0.062408166807468,0.0129580212079431,1
0.0368609466725342,0.0107434705098895,1
0.0852107169472378,0.0308602839790131,1
0.112052440347917,0.020502701900519,1
0.105795519663846,0.0194842354081912,1
0.0883828295901731,0.0170377499215161,1
0.0909288157765247,0.0123640357664661,1
0.122182714547943,0.0118944045269213,1
0.101782790474074,0.00996182687107549,1
0.0880763133622045,0.00840124094154021,1
0.0851057287345761,0.00729412949878247,1
0.0952100154355651,0.0080136751094659,1
0.0826972857052312,0.00765329608137379,1
0.072957993160049,0.00766263486138463,1
0.0787982511082282,0.00798836511935055,1
0.074781270461404,0.00685717105104725,1
0.0861740472445133,0.0124329682166996,1
0.0828335684137795,0.0148687405303,1
0.0838072753851102,0.011341799954513,1
0.119739299140211,0.0197743875525202,1
0.149414456130184,0.0251357218361465,1
0.132599054511627,0.0221338126539316,1
0.110315241070708,0.0187168146494346,1
0.10104477214359,0.0188414850783895,1
0.106421707384681,0.0140087052951533,1
0.115521768923072,0.0152878575574842,1
0.119434815823478,0.0167032842283935,1
0.122683961173936,0.0206048139645824,1
0.121791883268937,0.019204276720241,1
0.156561734117182,0.0201126741647071,1
0.158738962125163,0.0163974362141919,1
0.156670265687734,0.015900209785994,1
0.153535124522605,0.0113439727663608,1
0.246597902849298,0.0164769258463262,1
0.304643771551378,0.0346445573255778,1
0.264636446005487,0.0169846120433401,1
0.225514184240857,0.0171048742182404,1
0.162896527708043,0.0129257721442673,1
0.158533847101865,0.0155216359268685,1
0.161365537639962,0.0155876851290663,1
0.159678571261509,0.0185543423258841,1
0.108297507162964,0.0119026329815603,1
0.0821076047286303,0.0101921705276691,1
0.0775930411772704,0.0133928106800124,1
0.0648665928298379,0.0098590561384688,1
0.118036867184024,0.0257549362021796,1
0.135375945455811,0.0238067923035516,1
0.170759871635651,0.0244614461928431,1
0.191357840629711,0.0261657869274319,1
0.187687776688247,0.0261735737505331,1
0.196560269849358,0.0239189195111785,1
0.198470674982146,0.0232191756594661,1
0.183783681717158,0.0220833145049382,1
0.156143471140507,0.0180943670256149,1
0.0950828532595363,0.0114267640462942,1
0.119925894837173,0.0148497155170708,1
0.121859124077666,0.0205676598545674,1
0.115043639855158,0.0242718116928778,1
0.101668633705104,0.016169931084011,1
0.0564537429126685,0.00874519431940567,1
0.0538800824706905,0.0127213182649804,1
0.060047083656566,0.0125627979783218,1
0.069225707748021,0.0130695940022325,1
0.0620879581090492,0.0121300521588939,1
0.0408221111879829,0.0069608168512905,1
0.0409806831238004,0.0112779501987787,1
0.0407481587904093,0.0108389102273503,1
0.0398106800558192,0.0104587041608447,1
0.0322111413243067,0.019536995156816,1
0.0133613980384403,0.0126343991134662,1
0.013444706250416,0.00796524741820297,1
0.0126937196945299,0.0122384520479169,1
0.0139908344059363,0.0106690340041412,1
0.0513180698165827,0.0276441302786449,1
0.0611926074546886,0.0290276038201044,1
0.0569538955990282,0.0284145118505875,1
0.0647111137833242,0.0238229971095112,1
0.108440334936547,0.0318228009751216,1
0.113856536439687,0.0341389114804662,1
0.0893179015722941,0.0194721190045986,1
0.0790467372882777,0.0134479926414686,1
0.0639333476831333,0.0111628337725541,1
0.0473979901160209,0.00913391227194618,1
0.0518133518708224,0.00825968719800262,1
0.0747134746488932,0.0137766316970921,1
0.0867463479465172,0.015891531040512,1
0.0926508029636247,0.020811578417666,1
0.0675638230805256,0.017350344289152,1
0.0538408392002319,0.0123282365395734,1
0.0519339527718216,0.0159443346683246,1
0.0497965862719039,0.0235475816562358,1
0.0364090156978862,0.0153255402202826,1
0.0286056852535966,0.00944487124362984,1
0.0340328335830595,0.0215144474051805,1
0.0470065819737094,0.0279773852522041,1
0.0496529789603327,0.016745351861297,1
0.0543334305633899,0.0203218155914698,1
0.0599445042696976,0.021545849217899,1
0.056409192569112,0.0169383136913391,1
0.0583380350879301,0.0183898171176287,1
0.0510834461574926,0.0171398878720669,1
0.0467625816029087,0.0162013702894746,1
0.0478594933329055,0.0182835545778017,1
0.0407485609837948,0.0187384325578244,1
0.0409985503569948,0.00702991490217747,1
0.0801036670689735,0.0185921433763758,1
0.0841979677037954,0.00991631802498359,1
0.0928411641049452,0.011202681958589,1
0.0965052692424457,0.0134777412075306,1
0.0941586619098649,0.0131012678622593,1
0.100302533727339,0.0126981149031744,1
0.111355047878108,0.012525963308865,1
0.110283319713414,0.0116855836350229,1
0.108794645991868,0.00946142763538791,1
0.0951874862496271,0.0163245598571111,1
0.0393579035890574,0.00474002310060214,1
0.0271689621436731,0.00757970302016811,1
0.0282727068371362,0.00838142531453693,1
0.0279878433047008,0.00803677650181416,1
0.0284958255952093,0.00819278712076252,1
0.0264906234496982,0.0109104960834173,1
0.0221182914294564,0.0165649764230149,1
0.0118520734514231,0.0119428545394123,1
0.00856893906722278,0.0147498602469401,1
0.00917825964685009,0.0157751611114819,1
0.00981316016919824,0.0102838430282996,1
0.016246904557038,0.0171773885471327,1
0.0177821773816638,0.0195393107068788,1
0.0232172280624722,0.0239663734907382,1
0.02902936930044,0.0307123488703316,1
0.0286106118197553,0.0317700094256303,1
0.0292524017186296,0.0256417267587094,1
0.0410942436274501,0.024645902180523,1
0.0438581609177676,0.0135627506744503,1
0.041000035841727,0.00911458900854828,1
0.0501154760982624,0.0122335614771348,1
0.0493520153947866,0.0108740408928865,1
0.0501797096778757,0.0111076087725602,1
0.0501440281588276,0.0113919640605769,1
0.0438595739518581,0.00894291801211566,1
0.0496554078294283,0.0105262527289996,1
0.0559833806775995,0.0134748371952245,1
0.0467272155857073,0.0148886178951627,1
0.0396405538520212,0.0170253363108292,1
0.0345743937745046,0.0240155423879376,1
0.0100436707342748,0.0108407968773698,1
0.00864207958666974,0.0133230496118542,1
0.00850734800306867,0.0142389661374588,1
0.0137491916220747,0.0219145305560584,1
0.0132447926147442,0.0141481031636694,1
0.0133157390698536,0.014338052170624,1
0.0137650814314853,0.0113889644410266,1
0.0129755502199495,0.00859741428639359,1
0.012293901979805,0.0102054929831331,1
0.0120166877743681,0.010067088811551,1
0.0120532377124429,0.0109228952112046,1
0.0121004664689283,0.0103638136751491,1
0.0123263316969688,0.00947160204506384,1
0.00797088086877854,0.00438765717300117,1
0.00790130913128528,0.0136619270255401,1
0.00586315214006166,0.00777043774441469,1
0.00621068282124769,0.0165117211238978,1
0.00545154494849818,0.0136605502398494,1
0.00525454928582479,0.0114706266743792,1
0.00637405540344895,0.014236828089943,1
0.00662211408611339,0.0131190789808534,1
0.0057883402209635,0.0146496938722358,1
0.00534225449296597,0.0142189130291476,1
0.00587637280940991,0.0138979437872421,1
0.00412775216095623,0.00811298807765407,1
0.00450941421733071,0.00905345970686917,1
0.00549254753439623,0.00911435783845585,1
0.00754706100564629,0.0180858488572156,1
0.00814829564611666,0.0216112628127411,1
0.00815341592468339,0.021505443856935,1
0.00920017419718303,0.0257033701901458,1
0.00952376681086863,0.02778083002656,1
0.0105293713654979,0.0340424756787185,1
0.00766938095747125,0.0364131356262964,1
0.0065183434970796,0.0437572819559029,1
0.00181866696102784,0.031448254271035,1
0.0014141799575465,0.0729282990268902,1
0.00145924184825048,0.0733956664609508,1
0.00139497199969134,0.0835441487715867,1
0.000315806182134013,0.0707704407376145,1
1.6022263731756e-05,0.369568737265774,1
1.23801596801206e-05,0.238804934223243,1
4.58407060355065e-05,0.389694987294105,1
6.78751244117756e-05,0.376652041919981,1
6.57138159771936e-05,0.32844013444578,1
9.93117708379891e-05,0.190102770284174,1
0.000189187275623169,0.214026613414025,1
0.000183013524609077,0.158944144567452,1
0.000192281677385769,0.163087578048845,1
0.000198673449304593,0.146020544191153,1
0.000234842587394218,0.107152857190094,1
0.000229498895876558,0.0781545973312372,1
0.000269074919296699,0.0619889123300433,1
0.000323987143681453,0.0561368161419957,1
0.000309414238750092,0.0541152141693274,1
0.000332388775307299,0.0653194719654065,1
0.00032848377647474,0.0658056282073397,1
0.000364532213568625,0.0761210493995978,1
0.000377013667866615,0.0792086513140638,1
0.000367592876159399,0.0848672300322447,0
0.000300953876250776,0.101901594914728,0
0.000272532777084425,0.125968899941853,0
0.000186960391652287,0.23190159963165,0
2.5903430782067e-05,0.37916277806608,0
1.32022508862554e-05,0.243689718309644,0
3.07267598737217e-05,0.375384307761421,0
6.08400030279834e-05,0.484356773957301,0
8.47734463765013e-05,0.364402220013248,0
7.73923363104113e-05,0.330183374582967,0
7.74031848918806e-05,0.347727965810647,0
7.52569950697197e-05,0.347779037309115,0
7.41560025124436e-05,0.343866870983094,0
7.03893125667239e-05,0.330106103367506,0
6.60238757038857e-05,0.321070287234832,0
6.60620282052037e-05,0.37498462450851,0
6.87865623999236e-05,0.541628313422121,0
4.85757173355994e-05,0.531540411424013,0
1.05754102578717e-05,0.514742853008136,0
8.05855225480883e-06,0.540133885680995,0
6.72675098661368e-06,0.476628235311168,0
5.35807779962002e-06,0.461537275419191,0
5.30852666287325e-06,0.484780839684854,0
4.0690583058325e-06,0.417730823851591,0
3.9689601501618e-06,0.427271779781092,0
4.98254571916365e-06,0.484487729421257,0
5.48490431005682e-06,0.518105205316499,0
5.45601168263432e-06,0.625361033594069,0
3.51264837810968e-06,0.490740240077702,0
3.69741036502451e-06,0.509178888743172,0
3.56550808942216e-06,0.501745419733485,0
2.43537101794484e-06,0.430588076094624,0
2.42385023260241e-06,0.441252888397677,0
2.61843504518918e-06,0.460222050176134,0
2.56424534133767e-06,0.468039543326374,0
2.2787032266794e-06,0.443230983580593,0
1.61364806345214e-06,0.365215788654196,0
1.44373753344072e-06,0.344544686936255,0
1.43031175949791e-06,0.365324011339036,0
6.38587515070526e-07,0.261800485895919,0
7.15136912371047e-07,0.310278885850374,0
6.83215194696351e-07,0.294845010477473,0
8.09334980632222e-07,0.329473902078538,0
6.57520087841897e-07,0.290042161665711,0
8.08103523621426e-07,0.312830369605786,0
7.15532856384914e-07,0.291456201444279,0
7.72726044528448e-07,0.317811167334585,0
1.04436497634192e-06,0.370009125023129,0
1.39828790249317e-06,0.413194267996219,0
1.2438373028685e-06,0.386026007963933,0
8.19561432106088e-07,0.309904213347646,0
6.4827605170687e-07,0.277452630091964,0
6.49965381220409e-07,0.287620829420495,0
4.3882688439972e-07,0.243963282565646,0
4.97754734089996e-07,0.282152779012444,0
6.81252734940911e-07,0.33934360714789,0
7.77017603454327e-07,0.360383369754607,0
8.91664022492537e-07,0.403829314306034,0
7.8170823601143e-07,0.38387632314115,0
8.74726059182165e-07,0.399823250798239,0
1.05032604387142e-06,0.455075431349258,0
1.03938423773969e-06,0.444736395430725,0
1.01953212648725e-06,0.433061019430594,0
1.20924459903654e-06,0.47708250406641,0
1.21631231823019e-06,0.480568296888096,0
1.08787282197595e-06,0.438335357612952,0
1.24724536133134e-06,0.469976543956893,0
1.08463053839604e-06,0.432056794604297,0
8.02720581770614e-07,0.369469213208547,0
8.21115144867573e-07,0.401825714271689,0
6.85488529775735e-07,0.359596937951744,0
7.10990548723067e-07,0.356869400505633,0
8.86504895701063e-07,0.387297250340529,0
1.46661977815115e-06,0.368797910449612,0
2.25376596140933e-06,0.388480776546848,0
2.24135987370295e-06,0.389435010476175,0
2.12864196281372e-06,0.375809635385507,0
2.07616956535817e-06,0.376523140672239,0
2.17284970469262e-06,0.386442809703916,0
2.21079053007323e-06,0.388659721106255,0
2.65122812420505e-06,0.430687515698974,0
2.75511928127327e-06,0.433035910776046,0
2.62804439302275e-06,0.412949851899916,0
2.26574812821942e-06,0.465458103926447,0
1.28600984509767e-06,0.394106306606015,0
1.28802674122772e-06,0.400435309024256,0
1.41355360693013e-06,0.399587225849908,0
2.17468460883162e-06,0.493254618460493,0
2.88738573053149e-06,0.566570183253876,0
4.83769564754182e-06,0.627581333356318,0
3.34880001175202e-05,0.520534669229975,0
7.09851091082085e-05,0.501858726716012,0
7.3297203645003e-05,0.482748602778905,0
8.25501984519644e-05,0.479007958683391,0
9.94700910672181e-05,0.383359992599422,0
0.00018409278965561,0.327842267759447,0
0.000169141981721554,0.207154658748733,0
0.000230168230364752,0.180894908107084,0
0.000278469441185509,0.190855174755061,0
0.000290969984062954,0.176032867639723,0
0.000324595691611759,0.157159271596307,0
0.00120537738729876,0.0709957188022021,0
0.00198542628197982,0.0633728535281124,0
0.00190763375296289,0.0628771800041957,0
0.0017256380917304,0.0590028208149018,0
0.0017397851687853,0.057355286828315,0
0.00150156260726085,0.0413541871282462,0
0.00140871805213053,0.0364399530923073,0
0.00127135149393073,0.0303829507827717,0
0.00112849273903309,0.0237586015038637,0
0.00104957503955259,0.0204850508937925,0
0.000812691041925259,0.0330726360357377,0
0.000724598825638081,0.0349250444870891,0
0.00114377172774735,0.0418646465864256,0
0.00118370033101361,0.0329610539605763,0
0.00156961617078928,0.0445305697674077,0
0.00213815809347698,0.067163461057913,0
0.00262131511472786,0.0855584132732553,0
0.00298008991890931,0.112037689781824,0
0.00322777293871323,0.141529682284982,0
0.00347320071480732,0.175221196752552,0
0.00330467847878697,0.175946085075677,0
0.00251268103507643,0.249535196065259,0
0.000777362762693189,0.155774250509673,0
0.000103605705522789,0.148281517125415,0
4.83374426853875e-05,0.132694808282768,0
5.51320543979919e-05,0.131626566261305,0
5.22463317271556e-05,0.132602352818898,0
5.63966052155806e-05,0.127178324197943,0
8.0702211279543e-05,0.156295659234799,0
9.98814063389809e-05,0.186597146461767,0
9.31810828845197e-05,0.202612981471888,0
9.62051520924401e-05,0.256576049352392,0
0.000102809332563709,0.281242642597351,0
0.000104082036034508,0.285686627231945,0
6.69863464655058e-05,0.40845096955564,0
2.32667597410602e-05,0.487400984598967,0
1.25994653401955e-05,0.392440248789175,0
4.34514926058897e-06,0.346598052805684,0
5.52616973743745e-06,0.43703534409636,0
6.07276784056751e-06,0.46398022613398,0
6.09499656427206e-06,0.466001985786867,0
6.52565950987183e-06,0.471595806591184,0
7.68953660670716e-06,0.545439012715744,0
7.54097642112928e-06,0.58291925172638,0
7.1535404142967e-06,0.798929781835635,0
2.60043500355274e-06,0.497450790304357,0
1.54714891068471e-06,0.390346948120133,0
1.63333022699851e-06,0.418903200650001,0
1.64229079567068e-06,0.414502896808668,0
2.12388190965347e-06,0.448754462037672,0
2.42834294057102e-06,0.470281977914093,0
2.32121623334205e-06,0.488686364598977,0
1.84378163055442e-06,0.426875784606982,0
1.6188437024461e-06,0.380627052513895,0
1.87948269311454e-06,0.410026896222099,0
3.04860085581393e-06,0.543348446940814,0
3.57878221917858e-06,0.596601169536704,0
3.48813569759413e-06,0.582268132636034,0
3.3995480848818e-06,0.598309192555716,0
2.69736295167959e-06,0.585211246820805,0
1.70732765843816e-06,0.467885127808162,0
1.41690106462054e-06,0.433246383300523,0
8.61067745186182e-07,0.349994706270015,0
6.8648668803824e-07,0.337002006290679,0
6.90042976559445e-07,0.335478084219794,0
5.7063052963694e-07,0.299903142466001,0
4.67953189918063e-07,0.300751924465803,0
4.12618994483472e-07,0.295559448412787,0
3.87857082622182e-07,0.2522992685964,0
4.70036566707678e-07,0.269551929391955,0
4.89267306659793e-07,0.278097416598433,0
4.46665437831627e-07,0.258119265475007,0
4.38194227509536e-07,0.256563985003142,0
4.19852773070725e-07,0.238547627216167,0
7.35052279828816e-07,0.320332344963174,0
8.54968120961047e-07,0.348358330123112,0
8.43024457928114e-07,0.334268873678945,0
7.08818404604833e-07,0.310186925002981,0
6.98331436195374e-07,0.326389996897638,0
7.24446480796753e-07,0.353966113632067,0
8.09396814284208e-07,0.37429546297446,0
7.95162555857991e-07,0.370949076088388,0
7.92728567087713e-07,0.37037395472552,0
8.34912489743634e-07,0.396627698761976,0
5.41001114419539e-07,0.328935925158391,0
3.37629189831588e-07,0.241106797553552,0
5.14237385493643e-07,0.299492796725974,0
5.70845999049996e-07,0.293608310904457,0
6.01950127899887e-07,0.291497987137935,0
7.74750527609654e-07,0.321327090311785,0
7.00270186728427e-07,0.290796196486362,0
7.02561540816825e-07,0.291226812046787,0
7.51210494233315e-07,0.304682090808352,0
9.82667130781691e-07,0.347174335333,0
9.98919138869954e-07,0.354190590573881,0
9.0034918483745e-07,0.35688420256354,0
8.87777891269482e-07,0.355535718263186,0
7.71632764865725e-07,0.350641029130967,0
5.64892423634767e-07,0.301746626898971,0
6.62737539320446e-07,0.310993734361571,0
7.46758471290318e-07,0.298768511468838,0
7.03455947522164e-07,0.276452105690044,0
7.89437442509688e-07,0.289373306315035,0
1.08960037075598e-06,0.343749170352176,0
1.24508080416427e-06,0.35335766259248,0
1.19203663510162e-06,0.337791327121275,0
1.18171392418486e-06,0.322866213651991,0
1.41601177910724e-06,0.360350975595992,0
1.31612577355846e-06,0.356706951653574,0
1.36509243055494e-06,0.389151115722666,0
1.26374546272266e-06,0.425504225890174,0
5.32405098750802e-07,0.301926604679279,0
5.95923053895258e-07,0.327439582363768,0
5.652115497681e-07,0.316106522744036,0
6.32277921971929e-07,0.349004994458336,0
5.6280079603576e-07,0.346708816083554,0
4.61860868133424e-07,0.31978495891585,0
6.67958973948354e-07,0.384035471691307,0
8.22536939515695e-07,0.427405197793898,0
1.00961835223822e-06,0.453830138943646,0
1.03126847607963e-06,0.450085140095436,0
1.15422706397615e-06,0.459182579962796,0
1.13946560728094e-06,0.456197639572957,0
1.17335376786043e-06,0.474890515572772,0
1.00224374086999e-06,0.447389651190613,0
6.717190669452e-07,0.359469310269997,0
5.88428758372414e-07,0.337605891122749,0
6.35731502141752e-07,0.336998810297914,0
6.62949689442366e-07,0.337198087773901,0
6.67762471913209e-07,0.347127092765962,0
6.43279001159634e-07,0.340543826979223,0
5.12674473553873e-07,0.310018377802615,0
5.16311373431194e-07,0.304507852862746,0
5.58909353946889e-07,0.305569653231339,0
5.23944225649671e-07,0.278730603932283,0
5.81352314184922e-07,0.280939819922028,0
8.9964056359874e-07,0.357195116661097,0
1.17469409762043e-06,0.406312751365434,0
1.11292749531528e-06,0.39429336355379,0
8.94594482379607e-07,0.341945906699292,0
8.07501973231016e-07,0.308370730937211,0
9.10591094724316e-07,0.321601176812048,0
8.25270992204508e-07,0.291160951336059,0
8.98909466017206e-07,0.304942584891387,0
9.4397064506516e-07,0.322378726991917,0
9.56693677656409e-07,0.348752542516413,0
7.57949224257121e-07,0.307743140226289,0
6.59123969317952e-07,0.291984718350488,0
8.26925990764029e-07,0.303637352528787,0
1.34638632827582e-06,0.197499560350215,0
3.21240031478765e-05,0.396116100593964,0
4.57381725633491e-05,0.263334587644814,0
4.53432982147585e-05,0.247026119205949,0
9.90171311153533e-05,0.146569235560897,0
0.000221090405362349,0.154643972576254,0
0.000209854208075464,0.140079385272242,0
0.000195192705573518,0.137767833672228,0
0.000193007965598961,0.135800220926262,0
0.000188264664521716,0.131350223079825,0
0.000157655398734315,0.102981615738545,0
0.000176426272712266,0.112678599458754,0
0.000192283700161787,0.121386040000783,0
0.000168254098940685,0.0976838267947989,0
0.000162905668708165,0.122115260154167,0
0.000137055570304468,0.144201193089724,0
0.000156886921761785,0.171073145755231,0
0.000176394826222245,0.18185197172896,0
0.000173661696865389,0.197687518049291,0
0.000138649122525861,0.187372650897311,0
9.1459268037671e-05,0.18367558940033,0
9.23397587571843e-05,0.206170451394015,0
9.07573961507148e-05,0.233756607917836,0
3.05017134522117e-05,0.238201045691523,0
3.77017747749603e-06,0.258278922840121,0
4.4558190740115e-06,0.290244323439592,0
8.68671605767523e-06,0.346439811587178,0
9.08165100703824e-06,0.296386649473723,0
8.95257961258894e-06,0.291968706396794,0
7.95539086760569e-06,0.271265875876736,0
8.09808027037293e-06,0.277342879302683,0
7.55424761094212e-06,0.288819303578774,0
7.02947337283512e-06,0.320212588163441,0
6.6750890652162e-06,0.350200369495058,0
6.44743880206678e-06,0.369600922714107,0
6.57522885530139e-06,0.381905721951299,0
3.49208916300877e-06,0.329698271118583,0
2.93138008940891e-06,0.410562393872188,0
2.93410911574257e-06,0.418175966585989,0
3.43029799794922e-06,0.469335099675228,0
3.46548030272351e-06,0.46685985327412,0
3.45776655463825e-06,0.460335134845949,0
3.4838092386929e-06,0.469305137813596,0
2.42529033077021e-06,0.38765965371204,0
2.2420463979464e-06,0.372280385503526,0
1.40922117330485e-06,0.282328400528545,0
2.4423851542959e-06,0.325671459917743,0
2.55140433165582e-06,0.296660681709528,0
2.67727412755084e-06,0.30184076271288,0
3.01902834273026e-06,0.30086877869446,0
3.7525894073078e-06,0.316658729731654,0
3.68871714154398e-06,0.314569736543199,0
3.63234011967191e-06,0.318638806881148,0
3.54191874086325e-06,0.314444518020424,0
3.52728171016712e-06,0.315681862663732,0
3.49511303723204e-06,0.311097751344854,0
5.50301483666957e-06,0.427559358006219,0
4.95187063240208e-06,0.400582248280751,0
3.6731259569021e-06,0.345994311377642,0
5.15005042696099e-06,0.3180639967264,0
3.39328386175116e-05,0.441960421390051,0
0.00028334011427498,0.23518219002745,0
0.000770814844111808,0.228537517271223,0
0.000779020681375378,0.134131482706986,0
0.0007570218582237,0.130979050776973,0
0.000739730167730516,0.125124428031665,0
0.000749670595697673,0.126266634412943,0
0.000744692087659082,0.127018793272644,0
0.000745383220975361,0.128410028898692,0
0.000759023147995199,0.128862783083176,0
0.000790657396185129,0.135816108616651,0
0.000651446724710174,0.231531142865869,0
0.000107072878569154,0.14008480501686,0
1.21379435139422e-05,0.434899669383936,0
1.12770074023587e-05,0.479314637398106,0
5.02425877666296e-06,0.364606007104651,0
3.82069452796286e-06,0.401605719710887,0
3.7594071364606e-06,0.404158181967514,0
3.6677947011561e-06,0.40290130809377,0
2.65705793747942e-06,0.432569322247459,0
1.10893154297412e-06,0.350978216509637,0
1.05871872924897e-06,0.344212573422432,0
8.03911733103352e-07,0.302847273198812,0
9.55014969874499e-07,0.323035767332561,0
8.87979419659773e-07,0.313290130867562,0
9.00622599590022e-07,0.311388580645015,0
1.39022145601568e-06,0.384329339889056,0
1.88547154785268e-06,0.458317767172804,0
2.21706863732449e-06,0.519034217986927,0
2.36179892995482e-06,0.531855474405888,0
2.3960675761352e-06,0.560841211829259,0
1.86163752011874e-06,0.519422136224524,0
1.59414931445017e-06,0.496091928602723,0
8.60695984579148e-07,0.390152392095456,0
6.86679775945362e-07,0.345952685993962,0
3.84834346441581e-07,0.260699902319826,0
4.08640681803774e-07,0.291200962125212,0
5.50813033849186e-07,0.332413568006279,0
7.1951600574598e-07,0.354613140614283,0
8.01893319583077e-07,0.362628779564581,0
1.07278114323132e-06,0.420302521961781,0
1.14057368149843e-06,0.426616545491407,0
1.17924816505658e-06,0.464199718218158,0
1.08728028109004e-06,0.469422017844673,0
1.29316358135015e-06,0.518159215746437,0
1.37425557082319e-06,0.51541945485396,0
1.24761939802372e-06,0.490792608453515,0
8.50590450139456e-07,0.410991374619297,0
2.46813384399295e-07,0.23465250780144,0
2.15122310039983e-07,0.247390433098608,0
1.95467838865364e-07,0.234577229112588,0
2.89061227118773e-07,0.269492346226362,0
4.48523007987227e-07,0.329896083984405,0
4.90444706643545e-07,0.348679219336268,0
4.64706733515015e-07,0.340742098309366,0
4.84542817333121e-07,0.363238486267441,0
5.24170980652583e-07,0.360445474267423,0
4.76594063435557e-07,0.332336682616767,0
4.8736819794657e-07,0.329103183134265,0
4.97763079736277e-07,0.322773076722402,0
4.82095741072084e-07,0.307436328594089,0
4.47149105968328e-07,0.31249835764109,0
2.83181055456055e-07,0.236316293699883,0
2.40860567679182e-07,0.205745512151922,0
3.41254898955942e-07,0.231813669734104,0
4.80098476178178e-07,0.266593785879116,0
4.52741827018822e-07,0.264540952708283,0
4.84645241173834e-07,0.262853269804461,0
7.58892282286799e-07,0.319468678541045,0
7.71244692313689e-07,0.312725685509871,0
7.42146458514653e-07,0.313743451966403,0
5.8755009459074e-07,0.274841233818185,0
5.76614737367493e-07,0.274768424066263,0
4.43143859611997e-07,0.245827262097077,0
4.35119141365903e-07,0.262153300389356,0
3.64599947687368e-07,0.252720748572788,0
3.6268737213583e-07,0.258502329169784,0
3.66744494270744e-07,0.282443175665601,0
1.52220699840705e-07,0.195800659625668,0
2.08597057854552e-07,0.243766282616902,0
2.33156872304213e-07,0.272428419948251,0
1.98965423351937e-07,0.271742811121493,0
1.82663341385991e-07,0.286313121343512,0
1.08089681005449e-07,0.250924401342215,0
1.00944385236145e-07,0.264314907694503,0
7.55554118611556e-08,0.227362732021838,0
4.4421599064835e-08,0.171234785958233,0
6.02289169780026e-08,0.191920722844306,0
6.53865263792451e-08,0.170510488663291,0
1.27185278389955e-07,0.213753916972437,0
1.23952573335892e-07,0.196052687809524,0
1.26305950750055e-07,0.190127861253753,0
2.90568754315047e-07,0.258418641629594,0
3.23600822292584e-07,0.250956118098589,0
4.14390168232692e-07,0.262379763606322,0
3.75091278593746e-07,0.225259974699742,0
4.84529255657916e-07,0.259116328357252,0
4.97534712506242e-07,0.262471876134278,0
4.64864636936115e-07,0.260520065527359,0
5.2150189123311e-07,0.276558164379434,0
6.65730591554616e-07,0.310342461581124,0
6.69314003426231e-07,0.307025183264231,0
5.40198414986393e-07,0.281810959960739,0
4.96435837467036e-07,0.277080935309216,0
2.99789176064576e-07,0.22818028117538,0
2.13011146041728e-07,0.214493461690644,0
2.17166993378663e-07,0.21284716377485,0
2.83252657307665e-07,0.248926355587188,0
3.17464591028083e-07,0.266249812190487,0
4.5357525360418e-07,0.317559119224309,0
2.96472255852594e-07,0.244743142904429,0
3.26737742088202e-07,0.267065666844954,0
2.98001026512126e-07,0.252723204903536,0
3.00042580233452e-07,0.261453454073229,0
2.96716460843183e-07,0.257363070605192,0
2.67049205706851e-07,0.237141216049263,0
2.88104986761449e-07,0.248934735133791,0
2.74749961138244e-07,0.234618940152363,0
2.62065432324151e-07,0.232754210664671,0
