Activity,Complexity,Tag
1.91115113906348e-07,0.217273889286119,0
6.16764424048825e-08,0.155650684395984,0
6.89954507993361e-08,0.162577575607131,0
6.30306440184504e-08,0.154374171628851,0
7.61274098887583e-08,0.172345621249585,0
7.56584055769695e-08,0.168658968656742,0
7.52466319444517e-08,0.164107283464903,0
7.56633773541261e-08,0.157811013960738,0
1.26744410218242e-07,0.190808630152017,0
1.50457025157628e-07,0.209206873052642,0
1.67784883872286e-07,0.207785288570368,0
1.82846054139203e-07,0.205543369566959,0
1.63157816598383e-07,0.194769301854299,0
1.59313307048956e-07,0.195020817513466,0
1.4713355785423e-07,0.183465556518648,0
1.58402035538087e-07,0.184221483153757,0
1.63668141902541e-07,0.181918139595435,0
1.9131221724963e-07,0.200733192232041,0
1.71925269404509e-07,0.190631594754337,0
1.37589623940152e-07,0.171653371975221,0
1.13709073416804e-07,0.16241414841411,0
1.00629211588829e-07,0.1674298382838,0
9.94381947499402e-08,0.160020682642938,0
1.14165151107985e-07,0.174614248206418,0
1.00193904877769e-07,0.164827923953037,0
1.14912574940554e-07,0.182605732398076,0
9.48014048895971e-08,0.162254734175213,0
1.01626550086478e-07,0.168221033035211,0
9.18164603686075e-08,0.163342185879056,0
1.00338749318937e-07,0.162741501835506,0
1.18195273671266e-07,0.172625823758778,0
1.00927076282488e-07,0.156858947523587,0
1.06527617523688e-07,0.169386519019584,0
1.06566618353384e-07,0.164775172131513,0
1.83876095882149e-07,0.201633926888559,0
2.87852197368982e-07,0.237464649333311,0
2.89616404872078e-07,0.241957768618282,0
3.11187288696263e-07,0.224163467416549,0
3.61423351459995e-06,0.479341933968076,0
2.1566284930315e-05,0.449393618250513,0
0.000134472132282099,0.541038617748146,0
0.000515353030380904,0.132946473377433,0
0.00279452747376381,0.149701208732459,0
0.00421227950424645,0.155996562887367,1
0.00517103627986534,0.169085341689822,1
0.00506227092897165,0.13139859972711,1
0.00444595929903141,0.123972025409439,1
0.00367317132493064,0.101880873073071,1
0.00288657829663662,0.0915295025527073,1
0.00241961065501965,0.0685769118172168,1
0.002816116116776,0.0771708379889409,1
0.00349962085891234,0.122260468769506,1
0.00335578468476128,0.258244849589176,1
0.00290048352871459,0.286135375993004,1
0.00184061226909828,0.206369498626694,1
0.00119664586012715,0.16332102182577,1
0.000909689394040417,0.126618991914405,1
0.000675803565274593,0.117756196697224,1
0.000498212242626128,0.0604548844072117,1
0.00119827021971464,0.100505396995615,1
0.00129541909360335,0.0640551302259436,1
0.0015511670865968,0.0492619149862164,1
0.00197171549159183,0.0504664017125627,1
0.00167643076899703,0.0361670542528304,1
0.00158866372025078,0.0344301523846814,1
0.0016315628280513,0.0313509260405728,1
0.00165560238584119,0.0296588539026324,1
0.00152237728089265,0.0263825752606556,1
0.00166325084352474,0.0317761605008002,1
0.0015892537037,0.0252986841960146,1
0.00164617959922109,0.0249366112567672,1
0.00172754005426105,0.035794655121741,1
0.00128347175455117,0.0284651588680428,1
0.00151684029531514,0.0287071984862317,1
0.00184192504100328,0.0300438824519304,1
0.00177369175082595,0.0324343069393891,1
0.00184381077906914,0.0350911209697323,1
0.00292664759483119,0.0417854760938572,1
0.00456517668976428,0.0429240733490399,1
0.00458050509581548,0.0412878175841068,1
0.00478686130495807,0.0492198991298659,1
0.00375608524986019,0.0421435286135998,1
0.00250616595594208,0.0283365810904318,1
0.00234521549968511,0.0346148495362824,1
0.00241868186959512,0.0334017457091938,1
0.00204492898752452,0.0286258240695332,1
0.00169042827504935,0.0256226874819035,1
0.00155557014050735,0.0341658027492561,1
0.000895886566982356,0.0335145045546147,1
0.000825517214731097,0.0519379473898556,1
0.000801711355768395,0.0563626501924162,1
0.00131937902904498,0.0653357265818474,1
0.00153951725946308,0.0587048902149121,1
0.00108119418157899,0.0439175013138145,1
0.000985986784018389,0.0584775102512658,1
0.00101992210773125,0.0569210177947504,1
0.00159921076522724,0.0645032781163688,1
0.00271557397923504,0.0669883626263801,1
0.002444416720643,0.0355306565797117,1
0.00441806494806822,0.0382417843224347,1
0.00482234989394427,0.0333229366047403,1
0.00476110032876801,0.0274922695454398,1
0.0104023190624575,0.0309428695640821,1
0.0114460885749786,0.0158913857568812,1
0.00974882960534522,0.0116146350933782,1
0.0091137745567176,0.00938291572897969,1
0.0091335159729393,0.00770396653389637,1
0.0107522895270528,0.00959345857735734,1
0.00959208887224003,0.00837681339781141,1
0.0105488636250308,0.0100437140218051,1
0.0109889353939346,0.00958243610723271,1
0.0115942936502457,0.00978416602212065,1
0.01051248633364,0.0102233595048781,1
0.00931740497688076,0.0139132298160157,1
0.00940642366610687,0.0154506709493339,1
0.0079517246156938,0.013544073653036,1
0.00872061825331544,0.0169596934819929,1
0.00816059542100851,0.0110072241382242,1
0.00876616959088462,0.0114835556457715,1
0.00873122006738906,0.011610582038456,1
0.00904331814500235,0.0102501440558895,1
0.00953229399205012,0.0117812970065908,1
0.00735672634643635,0.00648932809886208,1
0.00846979847786086,0.00955070850339435,1
0.00868597021507215,0.0100425383246376,1
0.00851626910663843,0.00972810174709877,1
0.00799328364482143,0.00894997512466866,1
0.00828340757312503,0.013345589621302,1
0.00757793540208542,0.010523484884214,1
0.00779825053187024,0.0112726223839416,1
0.00809402120524499,0.0147438690255761,1
0.00562759231213496,0.00835477117219488,1
0.00676803460381588,0.0159961506592983,1
0.00702196778987285,0.0134515275128859,1
0.00672578996661834,0.0146912170193799,1
0.00649448767478587,0.0159546756538896,1
0.00681975999756081,0.0185917891726369,1
0.00647208711228009,0.0183775652197646,1
0.00563839779362351,0.0196680567995957,1
0.00578932154568753,0.0220633570977787,1
0.00779094235123304,0.0274448368672835,1
0.00837089436113569,0.0208478176266513,1
0.0106410746544733,0.0136378768640026,1
0.0125281545636482,0.0108757425228115,1
0.0126068617669431,0.0109530250269105,1
0.0138825975916892,0.0119805262764545,1
0.0134061818168903,0.0112939229618364,1
0.00969352789517845,0.00655601726744134,1
0.016225660473393,0.0109914531517841,1
0.0170017132752267,0.0070654273086169,1
0.0169956139962366,0.00646287628126826,1
0.0198756509235689,0.00921962590127207,1
0.02400285730194,0.0157397439668792,1
0.0271589725745489,0.0266573089268232,1
0.0218792730435427,0.022802757680471,1
0.0361918447830657,0.017845442834907,1
0.0659788272932776,0.0307794219555189,1
0.0736658355563086,0.0348591145512131,1
0.104712490757313,0.0498908957643052,1
0.112832202028832,0.0754794141781883,1
0.116193770666235,0.0668759974098459,1
0.124562975369124,0.046687168045292,1
0.108930960445959,0.0446768294689497,1
0.0824845241567788,0.0342513482763594,1
0.0466448213849502,0.0195760742552961,1
0.0265435622018555,0.0148163128407338,1
0.0231935191373735,0.0138934852773156,1
0.0160170200707277,0.0105814446778631,1
0.0216402948049603,0.00937038679828236,1
0.0386791967786469,0.00430798808370605,1
0.107318078769506,0.0105983066935545,1
0.199162698642239,0.023871826864578,1
0.230615648668483,0.0227780097605101,1
0.232326711294909,0.0254287512281429,1
0.232280672784608,0.0255105988329159,1
0.226705093041922,0.024944304342876,1
0.215935393184757,0.0216050578511595,1
0.233946255455368,0.0211714665368692,1
0.279364181188923,0.0259895101759784,1
0.262255442918702,0.0382378746819506,1
0.241887793974124,0.0728722567866376,1
0.172632703777669,0.0593135209655695,1
0.124706934375339,0.0496049464017982,1
0.0925995202203691,0.0352545721830954,1
0.0697444266650608,0.0277117845230791,1
0.0500184322597047,0.023357952783189,1
0.0784573247686604,0.0325975016439824,1
0.0841767841886579,0.0288458613781752,1
0.0907317984670359,0.032382848124998,1
0.103850298353794,0.0357629053862123,1
0.103246689165483,0.0359624189920762,1
0.10161321038676,0.0336199584176444,1
0.0916076510921286,0.0337394387256195,1
0.0815936917309605,0.0352466988674773,1
0.0456194419660277,0.0224980717532912,1
0.0419627261965378,0.0215414738331195,1
0.0456638049891951,0.0249185797449141,1
0.030501971405955,0.0413408250274719,1
0.0179030488260051,0.0360188797869552,1
0.0116268101909484,0.0236352507989767,1
0.00625419581246731,0.0121666578878299,1
0.00415317170023701,0.0135078149444623,1
0.00451458132738237,0.0128593371389547,1
0.00483258401316728,0.0132236162157382,1
0.00499098371749431,0.0110368763021978,1
0.00502517985389729,0.0097340217691822,1
0.00493779773085546,0.0101800568536916,1
0.00485953696331859,0.00985097217948581,1
0.00475012190942477,0.00871049255760291,1
0.00470137352800658,0.00984158927340306,1
0.00529580678848776,0.0129346645389322,1
0.00390406742157505,0.00893686741535553,1
0.00382397049177203,0.00977446978014875,1
0.00356684782957377,0.00773275514072592,1
0.00362855252437856,0.00932569273638663,1
0.00433190476974419,0.0175091636537893,1
0.00886157068833083,0.0141312135712109,1
0.0192727722073186,0.0245726301926976,1
0.0194973229639876,0.0263828260709232,1
0.0194400342912559,0.0263811214937674,1
0.0218794525622626,0.0286652786489601,1
0.0214613640073231,0.0279434709125062,1
0.0239854061282365,0.0308909805370252,1
0.0223107414956816,0.0235480914735241,1
0.0195025040189336,0.0162732293402457,1
0.0190116002543675,0.0123996078168109,1
0.0275330718351413,0.0155683092308463,1
0.0318355832327264,0.0134143120028492,1
0.0301539339816869,0.0129198404226912,1
0.0270330806310976,0.0114439955758974,1
0.0268661122407539,0.0109263729749151,1
0.026124300724363,0.010044448887269,1
0.0284694955551551,0.0106123086573461,1
0.0372651744766147,0.016174350422738,1
0.0348887678112555,0.0198509983257843,1
0.0335990316425666,0.0197588764424152,1
0.0567499156493107,0.0354431494726399,1
0.0562123859654905,0.0277032673837707,1
0.0523898774823536,0.0176682281887773,1
0.0504462887525304,0.0149535555149577,1
0.0446509194186706,0.0156070969078987,1
0.0425086796915504,0.0102749428580833,1
0.0545331682487994,0.0133807931958105,1
0.0562112659919222,0.0109033300176005,1
0.0710700714584676,0.0135395071991584,1
0.0715489279088349,0.0143131866526905,1
0.0649711475548268,0.0137407242202665,1
0.0805228084561559,0.0136327786744437,1
0.131322968179626,0.0176485768003596,1
0.131725574620499,0.0155970852867028,1
0.162103199711737,0.0149137783226523,1
0.136913094653073,0.0102499083256187,1
0.0898797293370788,0.00349899982225475,1
0.162518169559363,0.00888207197833861,1
0.210896816931558,0.00855485256724742,1
0.193833472143214,0.00763555546416228,1
0.17933811742693,0.00679723041700464,1
0.162203345943238,0.00784127705242538,1
0.158696613763746,0.00988908136560179,1
0.123077895870466,0.00561815912449997,1
0.152243933666066,0.0106647459676684,1
0.161365323231014,0.0168752465087021,1
0.146079129211883,0.0195760503017143,1
0.125669515077681,0.0240833661573347,1
0.0930882744083557,0.0273689637797051,1
0.108784726074993,0.0319464989325799,1
0.105227771646986,0.0305658578334053,1
0.089811122910717,0.0247905820664508,1
0.0885470055638399,0.0238172408136027,1
0.0597908506290429,0.0212792060449844,1
0.0806899952900362,0.0301776271722918,1
0.0943998295038255,0.0304950143025295,1
0.0704231425392913,0.0314254345141129,1
0.0704479711070675,0.0430612856205125,1
0.0659248152064214,0.0414500790507513,1
0.0666880526446405,0.0426837068494701,1
0.0683819573219521,0.0479365089460608,1
0.044041352544047,0.0421243515435464,1
0.0349500236694863,0.0493350483826848,1
0.0129827487124332,0.0389703309672507,1
0.00937789489737524,0.0339477348708579,1
0.00668077785010119,0.0375749998485003,1
0.00636405847059726,0.0355835539782188,1
0.0039748569464477,0.0221399730427673,1
0.00312943513469763,0.0211993887992701,1
0.00314576470784634,0.0160236780050264,1
0.00340799926779133,0.0104405417128687,1
0.0041629623757175,0.011607183728144,1
0.00339497361214485,0.00973998510639462,1
0.00379145876076652,0.0139373125541211,1
0.00385114209902542,0.0136665279548993,1
0.00378089774178173,0.0138954659082644,1
0.00326531001468272,0.0111837987933867,1
0.0029064484653141,0.00919069624594096,1
0.00352946374966268,0.0115559959363271,1
0.00547144746419943,0.0233063223108486,1
0.0100491060379458,0.027330496107897,1
0.0163700464905217,0.0334938356134709,1
0.0201126356238034,0.0298827403644383,1
0.0233812785712799,0.0257108090292752,1
0.0218059213299953,0.0233223643581817,1
0.0268553973786323,0.0220919931145108,1
0.0222526460052731,0.0102556131291094,1
0.0198182157911209,0.00806435033377679,1
0.0167803786338124,0.00627441443861216,1
0.0163559801535292,0.00619629702232355,1
0.0303239751741515,0.00725575295537261,1
0.0505156615669611,0.0105433838998173,1
0.0500063061187524,0.0116695660372255,1
0.0524565824716555,0.0121640422236011,1
0.0774702982387635,0.0164496073487808,1
0.0813718185063179,0.0129450367577224,1
0.0704586873430569,0.0136464891706737,1
0.052968444319675,0.0097225699107318,1
0.049173104076462,0.00854404881437796,1
0.0467257238576665,0.00522136412639242,1
0.0730766282301219,0.010668748917244,1
0.125099711315682,0.0222057554264707,1
0.132883169864879,0.0181614026113894,1
0.130063535273005,0.0197881018577061,1
0.126748088165633,0.0204579385093432,1
0.130631983175248,0.0266024848513483,1
0.129449211301789,0.012123056285692,1
0.190068233261403,0.017803522811326,1
0.157009817057693,0.0136268492455943,1
0.174557599052956,0.0117533795770911,1
0.207073590596719,0.0150981646077022,1
0.22436228662879,0.0174020721943462,1
0.231345706154705,0.016797655665336,1
0.236102574878535,0.0163172297964377,1
0.211795725878997,0.0143985524265643,1
0.146989161733787,0.00779958663648034,1
0.180452008470045,0.015808013113226,1
0.204049206957029,0.0180965126596961,1
0.244083244553177,0.00994604472695489,1
0.289152344379596,0.0160729172319714,1
0.294185608442807,0.017964404710995,1
0.28296855923065,0.015896249727965,1
0.279756199419389,0.0148371466493839,1
0.293768450821431,0.0144683053718481,1
0.28832376752337,0.0146974472439739,1
0.281979206381584,0.0164290347327207,1
0.254119043066978,0.0150235155202946,1
0.209095170751035,0.01285038058793,1
0.186175996344768,0.0331319573293731,1
0.105167900030399,0.0223927001374989,1
0.0522529683315214,0.00849315743555391,1
0.0837235791219282,0.015474506511285,1
0.112283928120126,0.025595972322006,1
0.115481969139815,0.0365830878660032,1
0.114818548911933,0.0369802451628667,1
0.143457515703195,0.0425671628976779,1
0.144738321188673,0.0391675562722736,1
0.12272238472118,0.0332975550697413,1
0.108457323431332,0.0265703145981354,1
0.0918439818470009,0.0243031249956968,1
0.0448076440180274,0.0181484934042931,1
0.0463498808873243,0.0266785856107099,1
0.0478069501065452,0.0358912253023313,1
0.021283131940817,0.0215367661593052,1
0.0104498045387851,0.0336455446083618,1
0.0106141735579691,0.038987430099259,1
0.00997286366068204,0.0556334513304189,1
0.0045527733351129,0.0197376799394025,1
0.00357686104842884,0.0220295175662664,1
0.00681289897160061,0.0296866739176314,1
0.00707434499067401,0.0215914231903764,1
0.0117506855330825,0.0265663280092776,1
0.0120710652816519,0.0229355584139733,1
0.0174773292144917,0.0144774414741943,1
0.0275640638761685,0.0161231461659621,1
0.0264439581495035,0.0137695084675165,1
0.0229712673472554,0.0122784679348977,1
0.0198430376929593,0.0107106801271835,1
0.0197966661851771,0.0101315137802056,1
0.0205696599678715,0.010112192869383,1
0.0216239687042112,0.010796729231359,1
0.0227285675920517,0.00820352483156584,1
0.0240951332402534,0.00572543571249541,1
0.0223644018110742,0.00881159289182353,1
0.019135235517006,0.00564076186777125,1
0.0306663836921954,0.0127288122760714,1
0.0283192091911097,0.0107190281100969,1
0.0284126760679289,0.00978174528322638,1
0.0414485074264031,0.00382246521282538,1
0.148141044600224,0.0239845800021269,1
0.166823386574876,0.0172220150783521,1
0.160256771912804,0.0153735352933614,1
0.156243149972688,0.0154736665316012,1
0.132414605111554,0.0123240086057393,1
0.133461679892575,0.0139161539999699,1
0.13133928748274,0.0135444776352727,1
0.127562499413724,0.0122094647902192,1
0.118603885176173,0.0107302675460607,1
0.104926016494061,0.0163261242409063,1
0.0950485319503774,0.0126584530810789,1
0.113572474059395,0.0221924508165502,1
0.0889221902530986,0.0225024384384142,1
0.0480386974372873,0.0122136381127522,1
0.065615077237722,0.0167365211574508,1
0.069929748908725,0.0111114488502371,1
0.054730239569417,0.00811427651867168,1
0.0558754557148996,0.0107973559116972,1
0.0481659500364923,0.00986450538698602,1
0.0420561004887018,0.00698738495052354,1
0.0493475649925431,0.00689066984855361,1
0.0566802052650215,0.00808747243362779,1
0.0565812592398609,0.00724433070640191,1
0.12548233622924,0.0117263148802272,1
0.268724687412753,0.0262675137952034,1
0.376721645118185,0.0339484871676387,1
0.361999154822266,0.0295419878361167,1
0.359504246237168,0.0306508579096121,1
0.362254273894509,0.0262702779008725,1
0.35128488899072,0.0216028721623731,1
0.288448834094141,0.0215502641861764,1
0.201786126364897,0.0150026430794978,1
0.175368146933215,0.0083995011701444,1
0.260658961061968,0.0167549719106526,1
0.246477415841576,0.0145492832392071,1
0.229731871005744,0.0162476689739396,1
0.26576739395997,0.0133781826276214,1
0.294787821740822,0.0122370152909319,1
0.289684924487896,0.0129988164353031,1
0.295714218017726,0.0127605889762829,1
0.313239494144376,0.0150754833179706,1
0.369127729538568,0.016945033551098,1
0.414249630593305,0.0246422538453062,1
0.263145383094256,0.0175413766622462,1
0.233687411809966,0.0155281066941908,1
0.174339793879239,0.0104928446606386,1
0.190565508230013,0.0187350901776743,1
0.273532109690407,0.030701371354735,1
0.209620715535131,0.0267156328707817,1
0.135835665740638,0.0234120087876335,1
0.141227502059205,0.0222544951146755,1
0.153607058091528,0.027718932223731,1
0.165119704683999,0.0397417105522377,1
0.124792484418828,0.0336116878076241,1
0.0973795508422334,0.0274553896795964,1
0.0541001198134986,0.0159892502435942,1
0.0398916064109767,0.0114921613376519,1
0.0475880855340669,0.0183366438138055,1
0.0307192072388207,0.0188619473151042,1
0.0188580324226033,0.0127454508352359,1
0.018241357355311,0.0177073059637983,1
0.0179748739852071,0.0174488664082346,1
0.0206903472562345,0.0196586758383596,1
0.0211330593658409,0.0154536327332696,1
0.0172328828466833,0.00882042984074026,1
0.0162360644800092,0.00824380805152503,1
0.0182812296019793,0.00767725675199556,1
0.0184872517927696,0.00263879257901545,1
0.0247967290859053,0.00590572526821545,1
0.0243510900894294,0.00552357023520063,1
0.0231111487178421,0.00497475089990969,1
0.0220578252418961,0.00479691912102404,1
0.0217580173511216,0.00397942367978189,1
0.0257361740735811,0.00689598462873612,1
0.0242940399978101,0.00803268267802132,1
0.0213054172897896,0.00923170974378401,1
0.0166782719514721,0.00661809145303749,1
0.0183714642584107,0.01779623960083,1
0.0166011815971771,0.018100693479628,1
0.0191867772662294,0.0221504632730445,1
0.0214401567773996,0.0246113720927457,1
0.0197817805530043,0.0175052992283388,1
0.0125602378558451,0.00698130354807866,1
0.0340084161621482,0.0194203275863296,1
0.0389366815691836,0.0189498855188479,1
0.0340661433141372,0.0171587922516683,1
0.0305456761043978,0.0160159965207614,1
0.0308260141892359,0.0159486582073637,1
0.0288295108237533,0.0135559566021543,1
0.0250672726570509,0.0121084578290901,1
0.0244850600645953,0.0103307751665746,1
0.025125374612648,0.0148867536080545,1
0.025373951785374,0.0165083253014492,1
0.0743281659388183,0.0410259242122573,1
0.132503154170467,0.0670988869798355,1
0.158292269012804,0.0747395951142832,1
0.163276171020961,0.0752594359475263,1
0.145190850742913,0.0657007767454758,1
0.165293004787561,0.0440262939192113,1
0.285276491231133,0.0543543316759152,1
0.256402858812496,0.0100391642066888,1
0.237068195395589,0.00927025388935004,1
0.228647004513553,0.00959560377124096,1
0.231520725014446,0.00935337053424465,1
0.237528605262363,0.00795117223878746,1
0.275995495851588,0.00960677594137208,1
0.326407373585739,0.0119752339853583,1
0.34551169350003,0.0123861976112897,1
0.322037204830631,0.0144038087644311,1
0.136107587115529,0.00299251382241607,1
0.102132502572423,0.0126911481809755,1
0.0981204298724299,0.00880832179141928,1
0.226202489636329,0.0137196850728533,1
0.316854352412604,0.0163807652210687,1
0.364001229444891,0.0219640560475524,1
0.422624347707162,0.0257946973764856,1
0.340553166688539,0.0120645435554288,1
0.344149127666438,0.0124385548449489,1
0.34766566781988,0.0119962583420156,1
0.373720654493567,0.0127970111901882,1
0.421503538955407,0.0143492511139659,1
0.394581605750202,0.0145614636948621,1
0.34538946390861,0.0208117505571035,1
0.292339823728003,0.0159091720046447,1
0.347303587917957,0.0143953543450911,1
0.334846273314546,0.014402524044624,1
0.438716555385337,0.0330203600318928,1
0.45213323005406,0.0351039141647797,1
0.438341305058124,0.0297190155209658,1
0.419124371266305,0.0305241291501735,1
0.360812859387581,0.021693477733861,1
0.352789618994998,0.0185478642928988,1
0.308155437617871,0.0163438942848322,1
0.246774512145087,0.0156973217012983,1
0.335188326273074,0.0296001036175285,1
0.434880289019455,0.0368058560533487,1
0.460692388220647,0.037316207397939,1
0.417653576990553,0.0283739555968211,1
0.452172911901771,0.0345763803660812,1
0.509327136716583,0.0379434153191001,1
0.429108773899289,0.0686540502655043,1
0.281232446671937,0.0594872716895764,1
0.213584023010099,0.0494444959546734,1
0.098220335276901,0.024802335792291,1
0.0618966622894484,0.0258381117141456,1
0.0519671827853559,0.020353941354584,1
0.0498453103459619,0.0212584705382468,1
0.0404978912200529,0.0249159426820225,1
0.0262468450871707,0.0252520630300033,1
0.0174193119603,0.0199545698018091,1
0.00933232853763663,0.0130823908206938,1
0.0107872877672249,0.019915968847162,1
0.0104834773317826,0.0127446468699663,1
0.0115771943236874,0.0139327173076107,1
0.0108305525366402,0.0199079879645334,1
0.00738816068206263,0.018407820749923,1
0.00752515380455371,0.0161173586154557,1
0.0144883508945858,0.0203330902106266,1
0.0155738618713989,0.0105396524223816,1
0.0158581314004036,0.0056469579855694,1
0.0222058295065314,0.00892563061077846,1
0.0210806608282714,0.00796798940975954,1
0.0203893359929815,0.00962175699979762,1
0.0184193407506488,0.00658937240185227,1
0.0345173442117546,0.0138721806665062,1
0.0350658096897732,0.00854884493834993,1
0.0311993688991305,0.00779754036384459,1
0.0302097106923497,0.00857639337566844,1
0.0289014570473863,0.0114624702126888,1
0.0261635278857072,0.0111709563632998,1
0.0290421390693204,0.0145368989957656,1
0.0281633847938781,0.0126619070364833,1
0.0256595042070078,0.0105544539427997,1
0.0290599639846603,0.0119582442396329,1
0.0398838857655195,0.0142622109996211,1
0.0712446259643867,0.034590416547833,1
0.0723980462023196,0.0352898493547546,1
0.0744473413698512,0.0378292940923649,1
0.0602715308271488,0.0357071520856206,1
0.0451254981726327,0.03524469182697,1
0.0435923892422471,0.035690064900667,1
0.0453803506968537,0.0259852659297375,1
0.034177901745589,0.0171021626821155,1
0.026873969605995,0.0172077440813439,1
0.0259946647279979,0.021441995778537,1
0.0242837784416691,0.0201018682579698,1
0.0305423381609366,0.0156742170995631,1
0.0501266566762719,0.0199047114280946,1
0.0544434452424849,0.0134882829090194,1
0.0649300565468144,0.00344815709389827,1
0.11873832861655,0.00875497670203165,1
0.117926889226931,0.00935487980676547,1
0.118218559486757,0.00995924359794253,1
0.124602835233526,0.00879786731884365,1
0.139824899253693,0.0102185105976081,1
0.130557413856129,0.00942116750728004,1
0.17141832364223,0.013686015750207,1
0.211982874606313,0.0132928874006541,1
0.150985483341377,0.0101988882281641,1
0.105500166606963,0.0127073108529605,1
0.146879953572666,0.0140391563807495,1
0.159476082778513,0.00987332973535593,1
0.14873922664421,0.00875503929967622,1
0.163447630747294,0.00875448244856319,1
0.225240695760479,0.012834733917904,1
0.25694183921062,0.0148410012102794,1
0.211193185506987,0.00746719773543403,1
0.245153504808178,0.0121831990949982,1
0.258375236863993,0.00782135077940792,1
0.252411526470013,0.00521743268540813,1
0.245034055963099,0.00680823395714943,1
0.242417992289159,0.00777095008213677,1
0.371048035807081,0.0124002830630829,1
0.423857027348652,0.00937572984683986,1
0.35771410089177,0.00710111047956936,1
0.289086016492742,0.00473859587517527,1
0.288846383410673,0.00739369340239288,1
0.2624975704165,0.00643239726477773,1
0.241665187613431,0.0097393125273195,1
0.228180733835103,0.0120234669408787,1
0.223726476688168,0.0121559548462602,1
0.219375417664665,0.0155151505786836,1
0.180580714093884,0.0102108686332695,1
0.227775143900142,0.0453133480156745,1
0.322423918634484,0.0676795633486871,1
0.362009901093976,0.0400236329273401,1
0.342012747841601,0.0253080210998774,1
0.32326728443596,0.0233908908354771,1
0.310840024236952,0.0204418174464342,1
0.297957670408406,0.0191898285434826,1
0.277521934878199,0.0166273092690346,1
0.253070725980818,0.0148014495046823,1
0.275985365464629,0.0251534429624535,1
0.280072885785298,0.0237955089179394,1
0.190778353762571,0.0178218839267285,1
0.132880281715335,0.0164937198838925,1
0.222172946723046,0.0366165995138874,1
0.345748262591182,0.0530691044963899,1
0.394819049231559,0.06825220011469,1
0.369383977551255,0.0697766754008878,1
0.322391943035842,0.0614886226602695,1
0.258367187232395,0.0505076716809413,1
0.194452640997802,0.0508665644139463,1
0.1516658387242,0.0604985626028181,1
0.048413473023973,0.028661823532075,1
0.0176986307090676,0.016312918111164,1
0.00900157147216612,0.0122764989415662,1
0.00918853938500715,0.0113552087366285,1
0.00638879618036132,0.00365942685199589,1
0.00638011748327907,0.00484261788462218,1
0.00750991806911421,0.00565338139234158,1
0.0078622315352906,0.00633413695746382,1
0.00862067902540236,0.00618910678291998,1
0.00976402304267242,0.00497635124068411,1
0.00935820914251897,0.0054572425841551,1
0.00921495635150674,0.00752315994437929,1
0.00985110140283563,0.00771112304004047,1
0.00993314135176444,0.0073932154281918,1
0.00935215983154659,0.0100864074297636,1
0.00560857337081562,0.00877167056824466,1
0.00659647919850358,0.0110181705580062,1
0.00879885968815208,0.00932913908012578,1
0.00928467763371045,0.010071962599448,1
0.0105658737930408,0.00804517691961211,1
0.0162339517266209,0.0126958862452731,1
0.0187281925026111,0.0136603503784593,1
0.023914383679471,0.0167715820398764,1
0.0225169353451436,0.0177329664485718,1
0.0205784315453745,0.0158790700455453,1
0.0205654838208986,0.0155616632048772,1
0.0205137210010515,0.0163853684629833,1
0.0206661819656253,0.0169291111660961,1
0.0087815495372504,0.00546010485987362,1
0.00634216154867553,0.00216296760832543,1
0.0159738424029813,0.0133065583495194,1
0.0189981817230344,0.018618327698661,1
0.0199771433783069,0.0230676158523677,1
0.0303642276162649,0.00959975131487526,1
0.046252853790709,0.0138351056387442,1
0.0761864676634315,0.0105557349116276,1
0.138451620231258,0.0164015725722381,1
0.137922710969878,0.0169252077745043,1
0.135273655889088,0.0169120598851389,1
0.135422684346337,0.0197009505643369,1
0.151467114305466,0.0155979581685644,1
0.246042002698247,0.0242734393860973,1
0.267213177489767,0.0268324696677783,1
0.252013922170817,0.0215242482184432,1
0.242796995375752,0.0206688126608392,1
0.231584472668831,0.0225396512352698,1
0.232082397586931,0.0253261282263267,1
0.202090397405109,0.0186303932450998,1
0.192296762775885,0.0168535576619919,1
0.180311550638912,0.0150156039373098,1
0.186271948519408,0.018331036544441,1
0.174644892195439,0.0173731036679111,1
0.17585692655361,0.0155168519553555,1
0.190825428394988,0.020625385941292,1
0.186755027893106,0.0195629253163928,1
0.172436693283597,0.0247242153267697,1
0.143125784388712,0.0220879628005738,1
0.1458619377455,0.0296196190716829,1
0.128492477723047,0.0194094031817824,1
0.107320689869088,0.0161830878654889,1
0.206991794871096,0.00755999403522125,1
0.66104791915217,0.0282358185123285,1
0.736253305843753,0.0273242121187594,1
0.663197547106755,0.0237785197613411,1
0.614430429018348,0.0211416557556721,1
0.559786073339743,0.0185245592676055,1
0.649076418980376,0.0167085553649208,1
0.767942645459555,0.018644655033643,1
0.786153334196781,0.018976378137673,1
0.809082054777134,0.0193219300371145,1
0.771723126691589,0.0374725416418914,1
0.424607863604997,0.0250712957832338,1
0.273045051990562,0.0188011528853683,1
0.1631637560491,0.00490000970326752,1
0.209430811919686,0.00991594097277417,1
0.258620736626203,0.0157122693266833,1
0.240392168425507,0.0146681841257817,1
0.159310561615821,0.0101577307457795,1
0.159744390414746,0.0132083433163922,1
0.159038544290052,0.0119698608321906,1
0.192605182871525,0.013501391582384,1
0.210736744205657,0.00912410134777277,1
0.230467923814741,0.00627647018319462,1
0.228505444674976,0.0109405025441262,1
0.211764131196818,0.00944565916926327,1
0.239585378138189,0.00778703974139595,1
0.309172960633647,0.013911922505629,1
0.438981741067797,0.0196584234033578,1
0.511785290912704,0.0223011867850747,1
0.542145921640217,0.0256234601397401,1
0.444544721396562,0.0226904877910682,1
0.454026746258337,0.0306230700484791,1
0.46030889914151,0.0558722880839543,1
0.264558635616252,0.0347460773433748,1
0.0612773951464716,0.00711615944589919,1
0.04098343558142,0.0235699501398076,1
0.0340991008732391,0.0227663017461358,1
0.0404816070019966,0.029959560656002,1
0.0369591202813455,0.032440328111806,1
0.0279125039326282,0.023272807885413,1
0.0207589748813703,0.0129309010104857,1
0.0170506817024196,0.0122382746771585,1
0.0158112610905709,0.0122007958587018,1
0.0153973259557271,0.00834524747236486,1
0.0174887416182742,0.0135851612683915,1
0.0266852424874797,0.012735916672874,1
0.0409111681067375,0.0102959174669426,1
0.0410490567617502,0.00960303793020081,1
0.0417590362228811,0.00871357258321504,1
0.0409894315915163,0.00876519238287766,1
0.0409743225758491,0.0105379485896694,1
0.0379747008834473,0.00845016410001913,1
0.0353651828773,0.00631101391598241,1
0.0361678621103614,0.00887166406602706,1
0.0359808738145598,0.00833748433195905,1
0.0270035668285749,0.00965941202650055,1
0.0106267772390011,0.00774518933182332,1
0.00877777883771028,0.00629086139791012,1
0.0115506313314524,0.0157977161807536,1
0.0114482785972968,0.0127893678474302,1
0.0114487235409693,0.0131452847189401,1
0.0103285119424089,0.0160345406910935,1
0.00940051091847314,0.0207572849523131,1
0.0103807800669491,0.0174663113229675,1
0.0133211345401683,0.0232697417445891,1
0.0150253544597545,0.0291269699771358,1
0.0257983541150281,0.035973700649929,1
0.0423961599550642,0.0452966533044484,1
0.0319164166532031,0.0242857626689243,1
0.0250915770178793,0.0206096648349092,1
0.022651768822654,0.0184950338992264,1
0.0199127899817065,0.0176063024947154,1
0.0172151182954575,0.0153301857262732,1
0.015011182764175,0.0131671316698899,1
0.0214617973562588,0.0136658195754301,1
0.0261412015974643,0.0107635256977649,1
0.0266235654996156,0.0132843337893535,1
0.0209646323876658,0.00957682020416456,1
0.0491481909412974,0.0217610628509998,1
0.0773661997609593,0.030884655921021,1
0.129101874476383,0.0437225007689351,1
0.174553393278611,0.0551896043662772,1
0.224083601839614,0.0728877563816714,1
0.367708900471115,0.0714584457460439,1
0.428411048226064,0.0340651770215555,1
0.392374197967539,0.0317715643711238,1
0.29301427634873,0.0252226296807507,1
0.229232634658892,0.0208853740926307,1
0.210498751309778,0.0176785830354567,1
0.220583723434801,0.0187388889097739,1
0.220169688741887,0.0159118819278839,1
0.225735387429807,0.0155164233068635,1
0.238553410609843,0.0122001534444723,1
0.189776769101959,0.00947524783493791,1
0.178567671419287,0.0148461962100725,1
0.16822917247564,0.0109534599659235,1
0.183062622118105,0.00654496489347638,1
0.235131301747725,0.00994799776288801,1
0.290608658780074,0.0158536437775278,1
0.322823350802027,0.0175346034332504,1
0.320353684548706,0.0135120211992672,1
0.319207351053206,0.0139282535062007,1
0.253575371589949,0.0112329577399337,1
0.193504225596008,0.00740871125204194,1
0.19705639735238,0.00862098605101321,1
0.149133614417481,0.00607406456316428,1
0.191789460428025,0.0142569828732797,1
0.338696975469518,0.0231085992086009,1
0.382816056274711,0.0176518571956918,1
0.31452507644098,0.00981421066070358,1
0.286869870480274,0.0115708479975567,1
0.304518177581758,0.0105453001982139,1
0.375606865671524,0.0153081420516183,1
0.392827705183971,0.00466151107646895,1
0.648979976325225,0.0126465596214692,1
0.663298339724086,0.00678391362627775,1
0.662144524358473,0.00755933105382289,1
0.631446409952298,0.00706252861993029,1
0.623955551248808,0.00816079005694407,1
0.584744333167516,0.00804656218465429,1
0.58668514013532,0.00770817832552276,1
0.566590027341897,0.00613097634486075,1
0.468485586048529,0.003697322971823,1
0.452662434717667,0.00873189954160672,1
0.419355835597857,0.00865005972062135,1
0.42341759641807,0.0119340847899914,1
0.446918588675363,0.0152029798603574,1
0.525087330725428,0.0184091653861071,1
0.59744865326579,0.0189562789416595,1
0.596762764579046,0.0197866166677489,1
0.603422949735739,0.0143639954229907,1
0.754068373649976,0.0221022013863095,1
0.689398541751039,0.0225565367786784,1
0.616966670458145,0.017499982711542,1
0.392738243473935,0.00827847684846106,1
0.248792552197958,0.00627949350793262,1
0.268816087245377,0.006827299958787,1
0.276955069860426,0.00516713562521089,1
0.316596166710094,0.00757392870574318,1
0.287383287665803,0.00727314390585818,1
0.30815173317378,0.013237735846903,1
0.344746797811055,0.0172733674508373,1
0.406021762730866,0.0222853462802859,1
0.447522400029281,0.0318653230105022,1
0.33243359174094,0.0421597537579581,1
0.256375419679106,0.0369308779452158,1
0.105474337625258,0.0144868603483391,1
0.034026954380677,0.0397320180315767,1
0.0284205934864929,0.0314383572355463,1
0.0138155292376231,0.0128014626963178,1
0.00976783622958383,0.0141368897024363,1
0.00976209431530675,0.0179166609797505,1
0.00922339325758683,0.0155127268071702,1
0.00912645362049782,0.0138814522806957,1
0.0101822021997433,0.0144983216489582,1
0.0100620401863764,0.0148201045684243,1
0.0091747317404075,0.0108986869614894,1
0.00895103573409797,0.00798156953230246,1
0.0187164828006965,0.0141610721515147,1
0.0224863179207857,0.00857698217201126,1
0.0225540723395518,0.00878785397382904,1
0.0235261466949,0.00930054681397623,1
0.0231586123032139,0.00948165698797098,1
0.024752711675606,0.00980550311027314,1
0.0266871766533067,0.00980385246377692,1
0.0273147595937389,0.00905304785025582,1
0.0255513896688149,0.00757497207419153,1
0.031710207029397,0.0119660934713942,1
0.0280402167731115,0.00655738498777724,1
0.025887838348651,0.00821528175980221,1
0.0228422503597956,0.0070885364015977,1
0.0215266968007137,0.00400957827640874,1
0.0278739171248019,0.00597248912775972,1
0.0279048922929432,0.00615238892476808,1
0.032680439198232,0.00274595671003533,1
0.0495415231059592,0.00811311849097965,1
0.0515228715374351,0.0085172308189978,1
0.0791230640189108,0.0150911465852351,1
0.0755992182444126,0.0183198920271616,1
0.066157455818133,0.0159333561677381,1
0.0732341062001093,0.0199705733719347,1
0.142899031948698,0.0167163617806859,1
0.248372816103901,0.0126995617819331,1
0.209962677017489,0.0104157612280196,1
0.177552728182996,0.00975391057826239,1
0.174841456404509,0.00993378236107537,1
0.166157758981901,0.0100953039963751,1
0.193846370445794,0.00772958311280692,1
0.220622265505582,0.00822275026472622,1
0.206776851926066,0.00774149030142978,1
0.20563743493935,0.00678566401802862,1
0.260465793407867,0.0113278808467317,1
0.333622346207768,0.0253485452554834,1
0.539949159857137,0.0380118423760213,1
0.557176415055677,0.0244852551523945,1
0.471888096955607,0.0200949099195649,1
0.354919076322491,0.0142708883200371,1
0.31811629664684,0.0178273432765072,1
0.308747060654565,0.0176868735797305,1
0.335806364210881,0.0139017597126063,1
0.408924947269222,0.0177739396113543,1
0.440999288819161,0.0201283406592905,1
0.425842472965668,0.0241464484838616,1
0.243069650375473,0.0144032211293569,1
0.166950740736329,0.0152927524710265,1
0.186096366362619,0.0174218568206052,1
0.166775741721492,0.0168578845613016,1
0.144781768712109,0.0131791442893916,1
0.0855452101742264,0.00141417083353951,1
0.139376504286788,0.00779808077964727,1
0.373196994266573,0.0202154846221924,1
0.612053739394236,0.0306640826429441,1
0.66179911155912,0.0135554835392151,1
0.704582348327816,0.0124186044439842,1
0.760746009512031,0.0147005622814634,1
0.759085313643021,0.0138879659640523,1
0.768260201678757,0.0119648185128816,1
0.693220689516827,0.0079349199900314,1
0.676071147577925,0.00999922954394914,1
0.704868517759369,0.0126291601992074,1
0.550613538272013,0.00954864414818133,1
0.344847320620536,0.00408699643143171,1
0.272954288142037,0.00557887252575474,1
0.26068963777499,0.0063319990478992,1
0.213333094511711,0.00435935589900504,1
0.202718739499233,0.00525653516149775,1
0.173894601713501,0.00768662714331116,1
0.162585117931409,0.00892555301873184,1
0.213371896369228,0.0147854539689804,1
0.212866038318986,0.0120101558236408,1
0.20989326784854,0.0142012513509711,1
0.251960647341946,0.0161946697812596,1
0.256474331894746,0.0191898413669181,1
0.222274025385942,0.0181581987205393,1
0.2173856544977,0.0178648045793845,1
0.166545722410676,0.0111376504641303,1
0.197942410048704,0.01274356319054,1
0.212982248182723,0.0177129310193341,1
0.198950446694464,0.0164966793683637,1
0.192771815655421,0.0159201309634063,1
0.207581042614848,0.0126692137536948,1
0.188398930095335,0.0139511952680389,1
0.181976150931694,0.0106716274065879,1
0.169762153805586,0.00818066665820999,1
0.149272856917355,0.00619654186105803,1
0.144715729356265,0.00732939168502919,1
0.125550557787017,0.00591041301411622,1
0.179584606846905,0.00863026457345393,1
0.188210862922233,0.00672435182308924,1
0.175269692717577,0.006402703268279,1
0.201251643379931,0.00881699734936042,1
0.22596365702806,0.00980548840554926,1
0.25182308857871,0.0148530460803141,1
0.289324759720942,0.0196986791076265,1
0.404884551817574,0.0271915371450309,1
0.417283585003015,0.0250783859748363,1
0.397236549563837,0.0255081925269654,1
0.220029431888879,0.0173170821958906,1
0.190705199059008,0.019251754337165,1
0.0846947976784244,0.00820060564025249,1
0.0670751074692069,0.0115738933106897,1
0.0534431584323694,0.00900876584996585,1
0.032963679381211,0.0034319169396278,1
0.03246708617362,0.007370038039191,1
0.036392122345762,0.0102894161160509,1
0.022429591693382,0.000867118788761959,1
0.0425780150174555,0.0137178695281809,1
0.0438071222122243,0.00893868330594748,1
0.0430918444124767,0.00864744813399286,1
0.0443996390235302,0.00885954406317344,1
0.0479752433330874,0.0100417104053922,1
0.0507908879111606,0.0106744391171306,1
0.0519960161270344,0.00867786256434921,1
0.0574319660666383,0.0106993272522866,1
0.0521261310866228,0.00801398389263574,1
0.0508840654231468,0.0155485951105035,1
0.020226468576782,0.0066704415239975,1
0.020429518525721,0.0144767878345163,1
0.0198021813173634,0.0132920793036696,1
0.0195103819798169,0.0146348690301497,1
0.0179396677259891,0.0134657489203605,1
0.019432276172078,0.0153910714333459,1
0.0194450039842437,0.0322236300691284,1
0.00522950207983729,0.00716865408852754,1
0.0167897244081568,0.0207399948673207,1
0.0303055372171438,0.0186640838930167,1
0.0303652574574795,0.0197457686615864,1
0.0374502948540836,0.0134948376130303,1
0.0502169218728942,0.0259427432630249,1
0.110929005136606,0.0288469689745368,1
0.132724709498683,0.0215126547764489,1
0.122052912247873,0.0202194166268003,1
0.0965055346418062,0.014138430543245,1
0.0755977354575054,0.011043935491487,1
0.0813296565660156,0.0129912331106214,1
0.0896929400324595,0.0156542253047069,1
0.0832738284127114,0.0139741452289491,1
0.0789512699071973,0.0155203369998317,1
0.0790207655922505,0.0129460137837722,1
0.0560530745387677,0.0174268340650015,1
0.0395886056505468,0.0228082716151046,1
0.0264925388725419,0.018401370502945,1
0.0177965961404551,0.0162920190311282,1
0.021093192571334,0.00302588341489612,1
0.0952638588832142,0.0209091191912338,1
0.203487037303391,0.0441299136046922,1
0.221527628930244,0.0391150865704199,1
0.277401621969517,0.0367012546395919,1
0.386420877866577,0.0476916830355566,1
0.348574632055805,0.0396131562894606,1
0.303529011188918,0.0329732461636146,1
0.259375281123861,0.0183680476863725,1
0.184199730248742,0.0131126636776038,1
0.117056416365128,0.00827178079222521,1
0.129477209379602,0.0112497945969295,1
0.169405460365925,0.0142778209993674,1
0.203439250664535,0.0163180122795632,1
0.210750760059003,0.0211990148719031,1
0.149983251950335,0.0142770848403135,1
0.137352482490832,0.014181204344167,1
0.0999693487261701,0.0108446514207886,1
0.0784873056102067,0.0160261588157473,1
0.0865918385435748,0.00820570353063557,1
0.0958926852685383,0.00972963445555956,1
0.105096403911033,0.0119959998747897,1
0.101789338181398,0.0108635512274653,1
0.124944109043864,0.0066816035707506,1
0.33200547402111,0.0213199688882878,1
0.41837893247598,0.0105644136151747,1
0.431398476492244,0.00502869538506506,1
0.506726403579819,0.00860968620349351,1
0.503498897248235,0.00464946888249769,1
0.519187721706233,0.00729613943530326,1
0.476567715932729,0.00422602893674568,1
0.47913179848592,0.0049659730936064,1
0.476636637533303,0.0010054584860512,1
0.576708078228226,0.00627009312762491,1
0.451808596646191,0.00356362706683745,1
0.359669145620901,0.00381728823368779,1
0.344841758957156,0.00616201498123978,1
0.270758400282478,0.00311531911176758,1
0.264544821633299,0.0050799742007804,1
0.285420381625829,0.00658545965526757,1
0.308226095338058,0.00382411016748003,1
0.354333084716689,0.00578342569863902,1
0.345524806436439,0.00824726946674336,1
0.293761626328642,0.00627895021625343,1
0.312907506643276,0.00826694850442581,1
0.317011800523203,0.00803484449944752,1
0.32689571236473,0.00984016119383486,1
0.335198726890596,0.00639891456291096,1
0.363711349090358,0.00874068357997087,1
0.381989032912792,0.00538185328054719,1
0.409812633869667,0.00916733953250211,1
0.273738034993082,0.00378899685307374,1
0.223672740754034,0.00384173248017084,1
0.277799744872467,0.00433393147771954,1
0.452450568478486,0.0104227408009473,1
0.744265392031083,0.0184296081458843,1
0.811409072000018,0.0115986259880584,1
0.780846289876829,0.0125699002705404,1
0.800692109717508,0.00830311257090166,1
0.66494412299997,0.0110248879064645,1
0.474061057576728,0.00794976410117968,1
0.471656323705223,0.00830404600258206,1
0.459730899314271,0.00742445638679683,1
0.442870517566544,0.00645885081680814,1
0.489540951036327,0.00845012903030162,1
0.404783088433701,0.00662454351152613,1
0.382679836554031,0.0114756754266704,1
0.340421668633909,0.0103080210631686,1
0.319899020031928,0.0166026740078904,1
0.319517046256667,0.0123962628343971,1
0.299056772686029,0.00680621294556992,1
0.424803077485136,0.0109255165126929,1
0.402192458542082,0.0123474055758685,1
0.487756475803132,0.0182640722757348,1
0.504978328360142,0.0132952562753609,1
0.460124034806587,0.0119448764830432,1
0.374906478801764,0.00849933061127084,1
0.332304264874211,0.0067230175704579,1
0.381144991397193,0.00741102700751418,1
0.328623193273846,0.00604873617689829,1
0.292186141623255,0.00746583348090663,1
0.273078442238127,0.00895604893346351,1
0.30660283831397,0.00903897403246861,1
0.292926368216195,0.00961849999323785,1
0.25264849552981,0.014492642836589,1
0.257635218827051,0.0152102535598177,1
0.237356367186417,0.0107566286055391,1
0.235710136522625,0.0109640466351271,1
0.278528318830213,0.0152226849557541,1
0.327626844825517,0.0256489269774377,1
0.278213406830032,0.0218645072536892,1
0.24284859532725,0.0175578240452489,1
0.269494741233135,0.0229058584224805,1
0.293713696340966,0.0269231979394038,1
0.262139923244693,0.0216895636053575,1
0.133060847968682,0.0100718404098647,1
0.0550460523450249,0.0193745659298371,1
0.0540085485019599,0.0190942537493297,1
0.0424424477281755,0.0167817286851353,1
0.0421812571922682,0.0165539173736533,1
0.0248733525532026,0.0164247994201246,1
0.00397900184889471,0.00409616955959208,1
0.00649157138321548,0.0134267521387102,1
0.00704556710795439,0.0135802441107379,1
0.00785927597585083,0.0174017551324393,1
0.00675066995892204,0.0142534591724009,1
0.00699462120876678,0.0131590623717665,1
0.00664594219543882,0.0110122434483716,1
0.00604971461781966,0.00805930318078277,1
0.00628497701898658,0.00756561417160598,1
0.00656596153318575,0.00702276150209161,1
0.00645930153778639,0.00398201695435699,1
0.00868081784076178,0.0100715041186626,1
0.00887386832664824,0.00898472159997645,1
0.00866900013958364,0.0099116339605328,1
0.00876921400393702,0.00918899622268316,1
0.0085562318253985,0.00981758001071801,1
0.00878071278991701,0.0087647313095863,1
0.0101853196609078,0.0113673021180043,1
0.0104737704456625,0.0132613863820098,1
0.0121593687200783,0.0186673835799572,1
0.0115894734879857,0.0177117260794003,1
0.0128153839215234,0.0172537855512968,1
0.0179667312368636,0.0274703696382451,1
0.0233801299617114,0.0344721687449059,1
0.0352901414913649,0.0509679491822752,1
0.0457169905584256,0.042374006741651,1
0.0453502211730962,0.0372972581353642,1
0.0382795777008985,0.0283244058025589,1
0.0377304771598853,0.0284432905946831,1
0.0282192690761211,0.0252842463851579,1
0.0464031588929406,0.032124886912812,1
0.0595371151018424,0.0305557953094263,1
0.0591278145617641,0.0224753764564776,1
0.0642089286927697,0.0188424393817716,1
0.0847511818643533,0.0259884611067349,1
0.0983614665279584,0.0310257322359432,1
0.101701983637798,0.0343832960076551,1
0.121550964379274,0.0450186140070651,1
0.137659699804973,0.0453584546654862,1
0.134505291444997,0.0426210097253152,1
0.0900420109823606,0.0445893167377495,1
0.0431364599248059,0.0265564583224624,1
0.0173844834120749,0.0170519172276797,1
0.0249959959268532,0.016536874748513,1
0.0449737264426536,0.0230419317681067,1
0.0445848769564603,0.021304262236317,1
0.0806480585998545,0.0124931414047898,1
0.140687075692946,0.0165143176342828,1
0.119946875593448,0.00860742276939311,1
0.116491605924321,0.0079038397482397,1
0.109483635727673,0.00710921299808471,1
0.105861692467519,0.00652401006728103,1
0.0967849238220948,0.00515471984554992,1
0.092966879221899,0.00606473285725897,1
0.106112851033237,0.00689789219090963,1
0.13276779831348,0.00940404604540588,1
0.142281900816862,0.0240649846286619,1
0.0750835397817176,0.0166528725904959,1
0.0825707745720849,0.0350906118018809,1
0.0918243653209374,0.0470014120851012,1
0.0787685149750165,0.046098124122745,1
0.0658062635778603,0.0411121154326969,1
0.0524523216740999,0.0580806606844603,1
0.0108172792245098,0.0256704172124646,1
0.0013913174316306,0.0527645445023047,1
0.000376215261324495,0.0319795388984319,1
0.000358412453267891,0.0449339382160828,1
0.00110253444521089,0.0475303966527713,1
0.00155859298455416,0.0449012723386539,1
0.00234551349927965,0.0505529856151654,1
0.00250383255077473,0.0365905138746933,1
0.0025311288468847,0.0374298438305721,1
0.0023238254002848,0.0384400669188046,1
0.00209994253171954,0.0318446047976042,1
0.00184170231510925,0.0253841963937399,1
0.00149368424442279,0.021613139737505,1
0.00130661921796904,0.0163463907501173,1
0.0018594003427413,0.0270520565939022,1
0.00216573071216619,0.0222685926566257,1
0.00165075820127982,0.0189544414568292,1
0.00169984055044867,0.0233050907420948,1
0.00248380168044906,0.0330756416989361,1
0.00312311487402344,0.0401488959410054,1
0.00362032034160839,0.0494453693944621,1
0.00388488833876107,0.0644076672871813,1
0.00333023104504721,0.0568922637992431,1
0.00223216993357344,0.0479977323892899,1
0.00216407652500931,0.0639895335027306,1
0.00195846892894837,0.157050563888295,1
0.000383451913998089,0.11874480895806,1
9.30386266067071e-05,0.280657122308689,1
7.3340487826921e-05,0.310055176717695,1
7.17952834616102e-05,0.303871328144703,1
7.09557486184979e-05,0.295567350071223,1
7.57788524027891e-05,0.326415337653356,1
8.10572159656773e-05,0.537929824649454,0
4.75074819656981e-05,0.461946556231433,0
1.48285017024381e-05,0.447869466348036,0
1.51956959503215e-05,0.604396617439262,0
1.4988511168773e-05,0.632475175590299,0
1.58414492601963e-05,0.667442962450128,0
1.23672156871022e-05,0.722833599947481,0
5.3134729273621e-06,0.511501255698687,0
4.10045928907235e-06,0.327720160422134,0
7.91945754506879e-06,0.392009017260438,0
7.94606483915278e-06,0.359292223433786,0
9.60208868099678e-06,0.40496285198592,0
8.74330499496034e-06,0.368997771155366,0
7.79685926554748e-06,0.347436889831976,0
7.485542931613e-06,0.338046775041585,0
6.94689849525345e-06,0.309438633146507,0
7.56092358057283e-06,0.324595854772053,0
6.17801868215537e-06,0.292069009041908,0
7.23998851509906e-06,0.399055201991452,0
6.53688155733123e-06,0.469759071366318,0
7.04502756583604e-06,0.527297172755893,0
5.06917714385636e-06,0.489721717210902,0
4.48722985426855e-06,0.483836128481811,0
4.50417278694734e-06,0.496627833515866,0
3.95629100959836e-06,0.494806973793911,0
2.91609435656717e-06,0.443856132547721,0
3.55921527616341e-06,0.501971958377179,0
3.25174455661774e-06,0.471836372958026,0
3.09279617801209e-06,0.505975067815547,0
2.62076195473992e-06,0.430708175691154,0
2.89446602109584e-06,0.452474692013249,0
2.64012415418319e-06,0.429587131607039,0
2.88441198284548e-06,0.461792553226917,0
2.85334224255343e-06,0.451681263408268,0
3.26252160175064e-06,0.482498290708396,0
3.90364983306245e-06,0.595323985037172,0
3.02455301233855e-06,0.505154469518877,0
2.4039305997e-06,0.450723258982567,0
2.72226409991353e-06,0.467896543538123,0
2.47159681825549e-06,0.479372011337517,0
8.16174782415342e-07,0.297607118440798,0
7.14426258062618e-07,0.28755810599613,0
1.0647291692657e-06,0.291800428004886,0
1.97901081499233e-06,0.382086162917054,0
1.88543975922313e-06,0.366286389880973,0
1.90718156169757e-06,0.356907460208487,0
2.00628653689407e-06,0.346021892439859,0
2.37005180531439e-06,0.386165395398322,0
2.18108273139678e-06,0.36916300900518,0
2.18026249864985e-06,0.376067750457946,0
2.25448560740362e-06,0.378543609091762,0
2.49083339746261e-06,0.401022132111128,0
2.62360415401454e-06,0.489573777967343,0
1.86660666735328e-06,0.421516616257756,0
1.78269710040693e-06,0.413901488298875,0
1.23633458767312e-06,0.344639835745748,0
1.08317910284267e-06,0.353550514104807,0
1.05844009213025e-06,0.332303765888494,0
1.04195091697997e-06,0.346881145450514,0
5.60968489181035e-07,0.25451269342786,0
4.28398260974424e-07,0.235399177868341,0
4.24554303844682e-07,0.236028571997939,0
3.91257980773964e-07,0.233671788145909,0
3.49911356130998e-07,0.234005404545608,0
3.47640358809722e-07,0.240481901986978,0
3.09027880151171e-07,0.245652250190416,0
9.39412874414753e-08,0.157217721387055,0
3.35866748566738e-08,0.113933188450972,0
2.22487027765585e-08,0.108179253728387,0
4.29579223775064e-08,0.132520722461088,0
4.65751664689006e-08,0.131197763094189,0
5.53542200883931e-08,0.133443207820479,0
2.84142478222471e-07,0.24842285579191,0
4.11499521870364e-07,0.28795291916482,0
4.4935750572439e-07,0.292970691424984,0
5.09494906889409e-07,0.310184121953069,0
4.68427033219034e-07,0.307112670147663,0
4.50946375219757e-07,0.288501148944183,0
4.81077885920347e-07,0.292279449403659,0
4.20746695930151e-07,0.28194061872506,0
3.94956982978602e-07,0.281861343951215,0
4.4599315936437e-07,0.285568115667593,0
6.43831331309979e-07,0.338524286036842,0
6.58371127879057e-07,0.316493278049007,0
6.52525975201744e-07,0.319750573675647,0
6.98712680148795e-07,0.32060999525866,0
7.56491912166389e-07,0.306759174672874,0
7.8919383165703e-07,0.320779399671306,0
7.38971811401668e-07,0.312656270543102,0
6.8102298654106e-07,0.297622815321711,0
6.26277753912403e-07,0.28532609304053,0
5.91229487055576e-07,0.290008040237042,0
3.05115864916351e-07,0.219290946622935,0
2.58549647646331e-07,0.219260089770433,0
3.14934461897354e-07,0.246998694052996,0
2.16382790256435e-07,0.221554848232634,0
1.00471330043117e-07,0.174832775577403,0
9.44023369098136e-08,0.178575136923394,0
9.47594209936064e-08,0.176357554210026,0
1.14441029498218e-07,0.197751801858602,0
8.79823363092409e-08,0.17345849624806,0
1.08561405832618e-07,0.186718863825819,0
8.02002897355866e-08,0.152188813340561,0
1.85802935740241e-07,0.221165191434521,0
3.21439203677465e-07,0.274966660837799,0
3.54246414359894e-07,0.252138827775837,0
3.65911750344799e-07,0.246003957235852,0
3.73368421724526e-07,0.241582967004253,0
4.38081073197082e-07,0.246701681586271,0
3.62557016087282e-07,0.213453109547945,0
3.29444980223175e-07,0.20943172440391,0
3.70234323888834e-07,0.227131709343474,0
3.74394596529684e-07,0.240021615327894,0
3.802493613095e-07,0.246102557695362,0
3.55404617469549e-07,0.243107419981934,0
3.11896043150946e-07,0.248099857190158,0
2.96019611914254e-07,0.25595937753709,0
2.7913004297695e-07,0.250109902321903,0
1.43452343563419e-07,0.213759395486865,0
2.81734038883794e-08,0.130807874769174,0
2.15707733402483e-08,0.117937507528063,0
3.04078310265699e-08,0.123334367246302,0
4.92647874267779e-08,0.138364690873649,0
1.04623426872644e-07,0.193385877484233,0
1.45118330846685e-07,0.231603659947726,0
1.50479121944991e-07,0.239453443416057,0
1.54199226581562e-07,0.251897607077857,0
1.78414322465592e-07,0.258899997854527,0
1.861959271035e-07,0.254523425608816,0
1.67463154648274e-07,0.238226310358863,0
1.72160931641741e-07,0.237127270993498,0
1.5625566409754e-07,0.230791226371127,0
1.46924190793962e-07,0.237173917101465,0
1.12624563093006e-07,0.199427012288407,0
7.07190002136844e-08,0.158850036251817,0
6.70677270697499e-08,0.155390906897559,0
5.00040354480216e-08,0.143988121362801,0
6.21290950940223e-08,0.151578436555671,0
1.19236032356083e-07,0.197850693233701,0
1.502774887603e-07,0.22281448029581,0
1.57280955031203e-07,0.220127056234911,0
1.67880341993696e-07,0.238498896951109,0
2.12120209490092e-07,0.266211264858197,0
2.76472241392876e-07,0.2967316023744,0
2.69945402825401e-07,0.293114544047651,0
2.61864497202656e-07,0.293873826424072,0
2.66860138889781e-07,0.296543617713343,0
2.65200780642725e-07,0.297122275194561,0
1.85678309859511e-07,0.239925145342861,0
1.24577157313636e-07,0.192090156681879,0
1.79840891057776e-07,0.238705995300134,0
2.0598448405895e-07,0.236760494563857,0
1.75297239156169e-07,0.221443400588804,0
1.20246739410087e-07,0.186833297694197,0
1.26092113055273e-07,0.186213081663882,0
1.28028344047994e-07,0.188806035260733,0
1.43658285621646e-07,0.191090538919557,0
1.36613387874435e-07,0.186769184737007,0
9.30367554507533e-08,0.161892692658713,0
1.41741057866058e-07,0.192616111444262,0
1.23054246728548e-07,0.171181190128652,0
1.56312673808938e-07,0.198635390161244,0
1.68856578059412e-07,0.194365604827645,0
1.78364273242214e-07,0.198316334651105,0
1.60275069718949e-07,0.193125978756419,0
1.6211131274885e-07,0.194188047487364,0
1.55691201664341e-07,0.200722631687815,0
1.4741473947343e-07,0.204178909421156,0
1.49686289214391e-07,0.205608491594433,0
1.33997570186352e-07,0.208053239582758,0
1.46216209726837e-07,0.233362420260226,0
5.87018833739536e-08,0.147609539854472,0
3.9552807444801e-08,0.140631765351753,0
7.00422861006787e-08,0.170290720378227,0
7.58534097254517e-08,0.171944094400773,0
7.84970693656131e-08,0.168260781771594,0
1.29582632071138e-07,0.198623369913393,0
1.34925635255617e-07,0.197567384307039,0
1.45951048278476e-07,0.20956287341075,0
1.56174679371853e-07,0.216135343629579,0
1.47750168705607e-07,0.194553692399496,0
3.95675680987598e-07,0.289929306597567,0
4.11234912841687e-07,0.274168736680526,0
3.41195499323365e-07,0.247436693527722,0
2.58200849857799e-07,0.214985882136859,0
2.29254168895636e-07,0.20079046577009,0
2.62639652503366e-07,0.210571666169062,0
2.82790707255513e-07,0.218237850730205,0
3.75732777972414e-07,0.249047279072007,0
4.71253654258565e-07,0.280028782240558,0
4.97698205503628e-07,0.305357799150569,0
2.46842217281499e-07,0.235004710326894,0
2.60625419851252e-07,0.263079181811939,0
2.07892762615657e-07,0.250853845575596,0
1.98028646252683e-07,0.241185845363041,0
1.14128912376709e-07,0.191083355404726,0
1.42732430231118e-07,0.204991344179038,0
2.13238859350366e-07,0.222243439121183,0
1.9598867084329e-07,0.20752930541988,0
1.58420596839473e-07,0.181205340855719,0
1.74998159139205e-07,0.183991854238141,0
1.83154856742607e-07,0.176860015040602,0
2.45073700904866e-07,0.188863393014167,0
2.51805155723326e-07,0.183316519816911,0
2.48975109681755e-07,0.186569750805721,0
2.50113536166718e-07,0.179835442749985,0
1.24567534162739e-06,0.359591264468406,0
1.46664233139024e-06,0.361239633148312,0
1.58215107765386e-06,0.360967999452624,0
1.7917197711071e-06,0.371557723433612,0
1.76734524690224e-06,0.366756091343971,0
1.5881967586765e-06,0.352370982902897,0
1.55178832407352e-06,0.360293593588274,0
1.4854012885385e-06,0.361528800765335,0
1.5940373815124e-06,0.366924779151553,0
1.68056221372715e-06,0.388565016533966,0
1.077058292743e-06,0.353684306200941,0
9.3528806711762e-07,0.37750797883143,0
7.71495630786161e-07,0.390562074357697,0
2.50235510432965e-07,0.242430436396096,0
2.28900178362074e-07,0.240530602011767,0
2.14342262427359e-07,0.238084398630031,0
1.26994545851196e-07,0.191428581107785,0
9.57496885192988e-08,0.165033967291269,0
1.72650927901525e-07,0.217667793263691,0
2.31770440556647e-07,0.248697066106213,0
2.30106994403928e-07,0.23354839436961,0
3.10866332859809e-07,0.249377822772854,0
3.17445872265145e-07,0.253338997664266,0
2.83400578586744e-07,0.234084179303177,0
2.99830313379015e-07,0.240628116401222,0
3.051946399633e-07,0.240249035992377,0
2.92705093809739e-07,0.233032048425928,0
2.45516410039693e-07,0.208746778339106,0
2.23787313217985e-07,0.200769185255624,0
2.37960192632893e-07,0.206820436794864,0
2.39251197434601e-07,0.20810987952218,0
1.76815730383785e-07,0.195507744982036,0
1.38405326845674e-07,0.175164304189948,0
1.4101893485502e-07,0.183433600389425,0
1.15251429174772e-07,0.168375071644382,0
1.40621192682479e-07,0.186869850601789,0
1.46933802896465e-07,0.195461842182984,0
1.25587532915829e-07,0.193532554105219,0
8.67492250904245e-08,0.166943051046653,0
7.48938567341944e-08,0.159777625803301,0
7.74598461667735e-08,0.167308020196767,0
7.14168167586213e-08,0.156634504975664,0
7.81562264205321e-08,0.165193257595162,0
6.31427852143199e-08,0.14796428302995,0
1.6586688272914e-07,0.213221989507862,0
1.77920569751957e-07,0.208108678852552,0
2.16526419374298e-07,0.2155384783068,0
2.63590808715424e-07,0.233804305420302,0
2.43479086244784e-07,0.229868773815617,0
2.41448833421832e-07,0.234426762104388,0
2.45906197368784e-07,0.242514911563937,0
2.20914399408928e-07,0.239788870440512,0
2.3096048281584e-07,0.23234118360475,0
2.32926213019692e-07,0.236285323697801,0
2.14143391341088e-07,0.240820373435002,0
2.42752543876274e-07,0.269983903542369,0
1.94447198956817e-07,0.261496466151661,0
6.75586072010287e-08,0.165988240128599,0
8.46656085259896e-08,0.174282221671053,0
1.00012711221389e-07,0.178768464142806,0
8.95139751253375e-08,0.169065475965344,0
9.00072859032262e-08,0.165594961582166,0
1.90816365341194e-07,0.241270394524433,0
2.20811428379815e-07,0.254023916576064,0
2.4398289299667e-07,0.270635840374971,0
2.37573609337969e-07,0.261002286748397,0
2.42196699190147e-07,0.2614107253641,0
2.46950933475327e-07,0.259983762173842,0
1.98224865724469e-07,0.242486693297682,0
1.23636386591637e-07,0.183276230997284,0
1.09694639572552e-07,0.17383088916233,0
1.13405021622683e-07,0.175380750805555,0
1.05017081139523e-07,0.172099790324825,0
1.2190311459085e-07,0.174909674826015,0
1.52403310188599e-07,0.193560649096378,0
1.78192802172274e-07,0.21091433397631,0
1.87680831214322e-07,0.222901324060009,0
1.80108262184874e-07,0.20782016117086,0
1.83053763940419e-07,0.213498370232424,0
1.73552476825953e-07,0.223579939597435,0
1.59955881625484e-07,0.211960210332959,0
1.4891290165667e-07,0.211696035809175,0
7.27342272212291e-08,0.155713068225374,0
6.94182728255353e-08,0.155485936645173,0
1.51795979987915e-07,0.21387240940702,0
1.52026338996179e-07,0.204138335391774,0
1.34272343737217e-07,0.187575776452249,0
1.9416347620707e-07,0.236273987181226,0
2.06958399961993e-07,0.234005088726854,0
2.2754166787497e-07,0.230965515097272,0
2.39431838671297e-07,0.227977219368073,0
2.45331680897334e-07,0.225452642627495,0
2.56654185226295e-07,0.22542895148148,0
2.44624252249894e-07,0.230734825954634,0
1.24611628301923e-07,0.165417216976996,0
8.01764252052341e-08,0.140422889172947,0
1.02710176538781e-07,0.164539878061125,0
8.02969631803014e-08,0.152403901742363,0
8.64868257404838e-08,0.164109288444956,0
9.81953609446837e-08,0.185111100523274,0
1.00696827758162e-07,0.199000107553918,0
1.42629348718068e-07,0.2232727659976,0
1.12272008850623e-07,0.210568529391147,0
1.05649049258118e-07,0.202872817912659,0
5.16843856430741e-08,0.151516308466933,0
4.98088103316657e-08,0.158609572331817,0
5.14164620962922e-08,0.148118443316303,0
2.14687856181723e-07,0.231648023373877,0
4.06489738239326e-07,0.285712639612551,0
4.26839664077744e-07,0.283732292832152,0
4.21703818274798e-07,0.276650173236554,0
4.14679360055899e-07,0.279911632102581,0
4.23368258782949e-07,0.279660083118375,0
4.26998319011014e-07,0.278023894998192,0
4.25846523969695e-07,0.275181906599869,0
3.87091410548714e-07,0.249198830205815,0
3.53468938896512e-07,0.241462237346226,0
2.6552726067602e-07,0.232917926165475,0
1.3619564810933e-07,0.185104573259967,0
1.06045907559165e-07,0.161261173939005,0
1.14324247977002e-07,0.169986828782609,0
9.07873024971554e-08,0.153796236605093,0
8.83251679651847e-08,0.151980742797971,0
8.50633506985313e-08,0.154843490713581,0
8.80900581476379e-08,0.157276974889263,0
9.41813690361793e-08,0.16511707315343,0
9.1204489842577e-08,0.167811378547737,0
8.76702191877327e-08,0.165004470372708,0
7.62532510927931e-08,0.153500223749064,0
6.57502061232053e-08,0.156922428844665,0
4.83229118654117e-08,0.144903092482217,0
6.64307871739991e-08,0.176995030369778,0
3.96986462413998e-08,0.145177534871898,0
4.10088752481147e-08,0.1452172974576,0
5.37145279820895e-08,0.170519242416884,0
4.68132593527416e-08,0.166157152773577,0
1.5285452658656e-07,0.238094673875169,0
2.08074398207784e-07,0.250767490739353,0
1.99257780049773e-07,0.253803628098701,0
2.08858723675249e-07,0.245527579212819,0
2.18005136384658e-07,0.252366122007351,0
2.13962197684708e-07,0.244550450189851,0
2.13913584752508e-07,0.246363159581131,0
1.81510082375209e-07,0.228562824453393,0
1.34431440606233e-07,0.193037689367944,0
1.21743465302149e-07,0.184653979943571,0
6.29599342988874e-08,0.149379074757752,0
2.58531307312818e-08,0.118901916825296,0
2.21520293318435e-08,0.116414501365448,0
6.56230391119283e-09,0.0975862612717439,0
1.64390154429641e-08,0.108544190750444,0
2.67564473986991e-08,0.111724800605352,0
3.16386220827133e-08,0.115592095542346,0
5.9197182862705e-08,0.141001241480415,0
7.42265337558188e-08,0.14532944233944,0
8.31020398521529e-08,0.148166345265501,0
1.00195230685011e-07,0.156332218099051,0
9.97492070320805e-08,0.15602981186195,0
9.95460270722739e-08,0.157898862104179,0
9.79135164218632e-08,0.154810901544032,0
2.3223270534829e-07,0.219724233285483,0
3.16693808107231e-07,0.268235432316161,0
3.39804285590964e-07,0.288079817041336,0
2.75100472833353e-07,0.26275208060131,0
2.90833385436119e-07,0.290115859375623,0
2.85931986547099e-07,0.285972100514016,0
2.28705174213591e-07,0.262432690661913,0
2.79633849728836e-07,0.277915483924618,0
2.73710253456383e-07,0.252456802797787,0
2.21536976392893e-07,0.235164305057868,0
1.97950865561163e-07,0.234393647716459,0
1.83794006317094e-07,0.229459401693308,0
1.82346114325105e-07,0.225336802596959,0
1.99180441294002e-07,0.245607511999943,0
1.81391533111005e-07,0.231490896451902,0
1.78293563522652e-07,0.237008562719003,0
1.80203609822347e-07,0.24218901458854,0
1.09659284712771e-07,0.204643570273225,0
2.96095845830659e-08,0.134157506117677,0
3.32472682027712e-08,0.138733380378344,0
4.19401443515465e-08,0.149616404989336,0
8.08051892896606e-08,0.187558526675591,0
9.07731605532429e-08,0.186723656597646,0
9.19746733661297e-08,0.18606000277092,0
1.03554273816064e-07,0.195710716517704,0
1.02705757181308e-07,0.200682800370873,0
8.99691689450244e-08,0.195259443230286,0
9.96979424853975e-08,0.192563643036969,0
1.53230613907486e-07,0.24172178775932,0
2.01529771726482e-07,0.271342126889347,0
2.01276873995107e-07,0.273796419911481,0
1.6468249492646e-07,0.254547958129726,0
1.49581550442288e-07,0.239100115062362,0
1.52219354433798e-07,0.236237822099435,0
1.17855867017363e-07,0.21115882591139,0
8.14124090064076e-08,0.170785483813919,0
1.1396815824864e-07,0.184722102647086,0
1.12293221766492e-07,0.192714838491342,0
9.2279609031745e-08,0.169267004490312,0
1.33737601483021e-07,0.187401736520309,0
1.69398833221311e-07,0.19709143956262,0
1.95879070777967e-07,0.215079104446989,0
1.94206896394239e-07,0.21961011821193,0
1.94954541194681e-07,0.220008300315083,0
2.20696525085525e-07,0.224584970232409,0
2.66308713561127e-07,0.246211721107612,0
2.63007011593283e-07,0.241484618469382,0
2.60499026227533e-07,0.240275666761974,0
2.54179234557654e-07,0.243873725895586,0
1.69919433531594e-07,0.213349073850178,0
1.73390728342452e-07,0.220630597319568,0
1.69722661640122e-07,0.215159186827787,0
1.62967231807373e-07,0.210720278379034,0
1.79967284681495e-07,0.2206533046801,0
1.99747886793494e-07,0.246183847976185,0
1.5481406968995e-07,0.222213886432585,0
1.37212100328048e-07,0.221357476188805,0
1.34500382582807e-07,0.213674236645109,0
2.14570411756887e-07,0.255975498776947,0
4.12262413454087e-07,0.345929317200971,0
4.36270020504774e-07,0.338281526793744,0
4.74782621684442e-07,0.330903565154994,0
5.01954046749826e-07,0.317226702519016,0
5.73552057164828e-07,0.328713886462018,0
5.25584351156283e-07,0.299988200050196,0
5.14946184331968e-07,0.294106632301925,0
6.61135767430033e-07,0.325147911690862,0
7.72571744330761e-07,0.348398769329464,0
7.24863012670115e-07,0.350435292755258,0
4.44496212504434e-07,0.276419877875858,0
3.63861610413219e-07,0.259318274857874,0
2.46971262519701e-07,0.22187893038045,0
1.48228674635962e-07,0.186320111102581,0
1.30082019465551e-07,0.172716517523385,0
1.78664789550357e-07,0.213954629042069,0
2.08833975273402e-07,0.240160360246585,0
1.58686310707518e-07,0.211481581848991,0
1.21752304017094e-07,0.1776645134594,0
1.63595664439989e-07,0.2057213401115,0
1.78046079504181e-07,0.20538406454805,0
2.0657667796029e-07,0.214965885937678,0
2.17958733131195e-07,0.218090311243056,0
2.07791117393785e-07,0.203621809643714,0
1.97130301362422e-07,0.196455500961595,0
1.87623711018988e-07,0.189995934415343,0
1.87597747293836e-07,0.187902798624693,0
1.71085591484699e-07,0.182042984319462,0
1.56818137819876e-07,0.182455426646441,0
1.39573915445389e-07,0.170843232556429,0
1.28368082153707e-07,0.167274447771045,0
9.86390644349418e-08,0.151517440440299,0
1.65315346916548e-07,0.191825846751036,0
1.57138983172393e-07,0.194020993297993,0
1.45588660965715e-07,0.197306458861978,0
1.38414276044556e-07,0.19282436167372,0
1.46873368183026e-07,0.199458690644248,0
1.55278433676392e-07,0.197776426232306,0
1.75607146598942e-07,0.199556453312463,0
1.50299585547663e-07,0.178803263894687,0
1.60656791720652e-07,0.188751598413863,0
1.73277592791152e-07,0.196881405172446,0
1.47212222417244e-07,0.188815454777373,0
1.41472029479908e-07,0.182378508729881,0
1.83347651212353e-07,0.203403510403081,0
2.00114693463728e-07,0.207999467671539,0
1.86149523850036e-07,0.204624304552373,0
2.85291179713559e-07,0.239355736067435,0
5.05927601537456e-07,0.316758504842537,0
5.03033364328594e-07,0.324961907998774,0
4.68040781375921e-07,0.309742529447436,0
4.49638576859653e-07,0.306973872958913,0
5.05733481260468e-07,0.318526741378116,0
5.54465404659976e-07,0.329921799734472,0
5.64439342056147e-07,0.326084200762405,0
5.69561377366992e-07,0.321121767496362,0
5.69036357699237e-07,0.311921588602784,0
4.92777692893539e-07,0.319142182546397,0
2.46956347188231e-07,0.237402914435274,0
2.22042219435958e-07,0.228280066462288,0
2.39344003941529e-07,0.23385317642711,0
2.96456686368304e-07,0.262229601795706,0
2.85974854314584e-07,0.264304042332888,0
2.76017158057127e-07,0.278534657974913,0
2.21491125559114e-07,0.25108758269286,0
2.06375044775599e-07,0.245914918095147,0
2.58452421781932e-07,0.278543658154299,0
4.46553975827654e-07,0.347435384121458,0
5.05546210987563e-07,0.369100321885286,0
5.16046604342667e-07,0.362588735498078,0
5.14499829227226e-07,0.367064886173978,0
4.50031899674722e-07,0.328699709634643,0
4.03701234157997e-07,0.298436762376311,0
3.54537539533407e-07,0.264114325043034,0
2.98748565153639e-07,0.241488267441279,0
3.0267726346292e-07,0.246973382772596,0
3.29268205924267e-07,0.258771318408658,0
2.65223208881899e-07,0.239573922796733,0
2.53345854222242e-07,0.237063242852769,0
2.59084831836273e-07,0.242532231663044,0
2.46767972075958e-07,0.242873616004083,0
2.91757583567595e-07,0.270515555437888,0
2.83216291380133e-07,0.27808467119314,0
2.72938523157715e-07,0.290001978622593,0
2.65333692818715e-07,0.295730266297443,0
2.47829170289087e-07,0.27676111948693,0
1.92813804434912e-07,0.242141765450754,0
1.39800959935548e-07,0.212724917868908,0
9.89316258996333e-08,0.182265057721388,0
1.04109013662823e-07,0.189387412136386,0
1.13413528885818e-07,0.19324515600229,0
1.06156391495982e-07,0.1877692328663,0
1.09311812731481e-07,0.193420016261881,0
1.26707287615471e-07,0.203029600428088,0
2.1190819081534e-07,0.262296850884514,0
2.37588966605187e-07,0.290661589120411,0
2.58125389328953e-07,0.297539697864166,0
2.98382200419153e-07,0.30272756733711,0
2.89398862000485e-07,0.300491854655896,0
2.87059254154444e-07,0.301904143878409,0
2.30875962604175e-07,0.263944379550781,0
1.9781386547951e-07,0.245372304440975,0
1.96488942109198e-07,0.226750493918877,0
2.01674726651586e-07,0.231163631729922,0
1.69217639564931e-07,0.211729519350157,0
1.84219148505967e-07,0.220280351605745,0
1.66566025081319e-07,0.210184635580287,0
1.26854894155059e-07,0.188202527534365,0
3.47219635978322e-07,0.282412107748198,0
4.03618923625069e-07,0.285204891325346,0
3.77260218398912e-07,0.272348470718812,0
4.32876064449688e-07,0.280986237140185,0
5.28143159132969e-07,0.312314188781773,0
5.85606296607329e-07,0.325785721325473,0
6.18853675294037e-07,0.344956618367355,0
5.92298971563965e-07,0.34118873610768,0
5.83891696391862e-07,0.349835739717202,0
6.12321312529722e-07,0.334908638548615,0
7.16611077913178e-07,0.36764756866105,0
6.57633095181117e-07,0.355652739898947,0
6.40783742396814e-07,0.358480153430884,0
6.02017138646405e-07,0.37850142264226,0
5.1575835175151e-07,0.340518348711951,0
4.57973485053139e-07,0.32079394277962,0
4.17464770586997e-07,0.299290139486892,0
3.95750810064633e-07,0.282141843426291,0
3.5666325047777e-07,0.262171439999795,0
3.33076366258482e-07,0.289278907104766,0
1.201171417522e-07,0.195429474746063,0
7.27377627072074e-08,0.172329444791749,0
8.57769664464336e-08,0.177833415077526,0
1.01148044156123e-07,0.184000780456991,0
7.82172135536551e-08,0.180741620819265,0
6.73411748133726e-08,0.177389578194587,0
7.42845378226479e-08,0.184424202682015,0
5.90071504913796e-08,0.174805641266593,0
5.10160683092669e-08,0.17560947530004,0
5.51606522310896e-08,0.161132141719964,0
5.86908349802719e-08,0.161645627670256,0
3.5358284783537e-08,0.138408117582671,0
8.42356050438971e-08,0.180707651157881,0
1.63118373832939e-07,0.223838662399703,0
1.66383947553444e-07,0.219046881182569,0
1.67393770735953e-07,0.216452644728967,0
1.54542279205379e-07,0.215098408181775,0
1.34257317921809e-07,0.195709472227208,0
1.18766254656737e-07,0.178839122923452,0
1.09531012862126e-07,0.184414146293023,0
1.06434811016761e-07,0.179243364183208,0
1.08617973608269e-07,0.170718836886551,0
8.03699930625382e-08,0.167266896673863,0
7.61355857000829e-09,0.0993287527108173,0
1.55975697801646e-08,0.10530764751914,0
2.56516080305274e-08,0.112306786472582,0
3.18507512414022e-08,0.115706967531875,0
5.2442747385387e-08,0.141538125780359,0
6.12495324730209e-08,0.152556963297242,0
6.59632191533887e-08,0.154300541822004,0
6.22279782174738e-08,0.156182324255575,0
6.4353689161836e-08,0.161148705937269,0
6.28724310209282e-08,0.151451745503855,0
7.13106416953398e-08,0.161885180378672,0
6.65244775524201e-08,0.160821067625575,0
5.09711013469823e-08,0.149026675690383,0
6.54275930276991e-08,0.16847703026768,0
6.30089891668342e-08,0.16283090654196,0
6.9762982708405e-08,0.160615683100749,0
1.38392068773255e-07,0.198500278178034,0
1.42027100778477e-07,0.195093263163526,0
1.50098946718403e-07,0.205963825953051,0
1.45438292327707e-07,0.200185902037919,0
1.53444068873417e-07,0.189311108137006,0
1.58535500133762e-07,0.187554324350737,0
1.61613140677742e-07,0.18502981883708,0
1.9766946297409e-07,0.199141175810433,0
1.91075229205157e-07,0.193562051880703,0
1.97218136092191e-07,0.201025084038262,0
1.4417535044595e-07,0.185299325530802,0
1.42762813313743e-07,0.195552332160183,0
1.47450867720769e-07,0.198454605330434,0
1.3596584152075e-07,0.194028986863885,0
1.08072624896139e-07,0.186593499063884,0
1.02103840693528e-07,0.191158243208326,0
1.0651435945127e-07,0.198095147908194,0
5.77614441037657e-08,0.154654344521543,0
2.05827044448986e-07,0.256082703389866,0
1.98293807701043e-07,0.241337417391624,0
1.87146420411938e-07,0.221913208619065,0
2.03935559450676e-07,0.228077651403098,0
1.74539761285351e-07,0.214799223988872,0
1.7922251246341e-07,0.223528512225624,0
1.64651559424151e-07,0.215108235063335,0
1.20515767796237e-07,0.189283758640421,0
1.17263673116023e-07,0.190009328099558,0
1.41452584307028e-07,0.204156465966018,0
9.96896561901361e-08,0.174247109791945,0
1.01567883116028e-07,0.187799430947599,0
8.33380335411943e-08,0.173967481689293,0
1.0002762655286e-07,0.189701247144335,0
1.32793295275045e-07,0.204087021890043,0
1.39972541489425e-07,0.206140903558285,0
1.19851980303839e-07,0.191753017102952,0
1.22501827044462e-07,0.187846481369991,0
1.21463278038381e-07,0.193178255916139,0
1.20925110782144e-07,0.209284402675693,0
1.2030805799502e-07,0.208814309052595,0
7.65776319312883e-08,0.161432319162992,0
5.68510564643924e-08,0.143375362456682,0
1.45595621453735e-07,0.198195434904669,0
1.82284243320488e-07,0.205084359054189,0
1.76484278573333e-07,0.202036308159004,0
1.68036787248229e-07,0.198721479485853,0
1.79980100818166e-07,0.206426620421542,0
1.69556493799149e-07,0.195854297538792,0
1.61789914976649e-07,0.187135308193919,0
1.98258563325199e-07,0.20929738625103,0
3.27714691288681e-07,0.27559933889355,0
3.72528743804716e-07,0.297345274074394,0
2.53427943787297e-07,0.249520947215172,0
2.11218329113853e-07,0.248742256746694,0
2.33557628718602e-07,0.253263977080703,0
2.73067568395917e-07,0.269057660433432,0
2.74244995710578e-07,0.262356674614241,0
3.24283170695076e-07,0.27915847654544,0
3.34788314859464e-07,0.292934697972843,0
3.04893239783662e-07,0.306690176646758,0
1.4932113980321e-07,0.218816792701842,0
9.69315351914322e-08,0.180589618504328,0
9.04199434072383e-08,0.181469458600214,0
7.61207808525493e-08,0.163346146459192,0
1.41784478053227e-07,0.203802987511495,0
1.64223323685048e-07,0.208450367229991,0
1.5593249858235e-07,0.209402278097468,0
1.54138791868123e-07,0.211409781024335,0
1.64381426198633e-07,0.208588397146881,0
1.6809368647569e-07,0.205094816589474,0
1.65504937352127e-07,0.209247042479033,0
1.17430172408806e-07,0.181871619853608,0
1.02038986622617e-07,0.178664219408358,0
9.75480355588722e-08,0.181026521178154,0
5.50404457078325e-08,0.147151838442341,0
4.14761118169145e-08,0.142822709100105,0
5.99131187732801e-08,0.158300521897601,0
5.86863051388624e-08,0.152827264931179,0
5.33547922838128e-08,0.153090724148165,0
5.20936181450448e-08,0.14613722132629,0
6.2851991492617e-08,0.14654899126337,0
7.55709022990104e-08,0.155353603027702,0
1.20071290918421e-07,0.183649941616739,0
1.19157367793069e-07,0.175493688610578,0
1.32287278844422e-07,0.181456519294544,0
1.31643709912462e-07,0.174313257523751,0
9.25130615902397e-08,0.15318877466764,0
6.51633154508323e-08,0.134211753113653,0
9.07911694349441e-08,0.147120824175482,0
5.34493665337283e-08,0.121081477088264,0
5.49547101728623e-08,0.123973351421631,0
5.43217476988368e-08,0.124238172915612,0
5.09220464790355e-08,0.120647105267949,0
8.12017161388974e-08,0.147690191665367,0
6.61639684665856e-08,0.144948342978343,0
6.35110281757316e-08,0.147142792842173,0
6.5295896175013e-08,0.147549780528871,0
6.32382433357301e-08,0.148401860576129,0
1.00565904293033e-07,0.177904698825626,0
1.34942318330076e-07,0.185969023116801,0
2.20854738083047e-07,0.227422624762309,0
2.2263297704612e-07,0.222867238881572,0
2.19966447231037e-07,0.224361679529101,0
2.01240303812021e-07,0.215270946855523,0
2.1853269718296e-07,0.218241673693502,0
2.28015754447852e-07,0.222686243453874,0
2.27972997164304e-07,0.222666207315179,0
2.21926432270174e-07,0.228040274952432,0
1.17409511912622e-07,0.176792272776246,0
9.4903050111469e-08,0.179261656865468,0
3.95531388966114e-08,0.135243486242342,0
3.65038927243943e-08,0.134307778365872,0
3.26727517313218e-08,0.132313852179409,0
2.66261868371918e-08,0.127512312814525,0
7.53401013549991e-09,0.103834572706015,0
3.52653677926735e-09,0.104185571103468,0
1.13064841581223e-08,0.118474410322125,0
1.11628550402601e-08,0.112464120833236,0
6.90524605107334e-09,0.100378776495893,0
4.29383667206897e-08,0.150805582406205,0
6.8918112043564e-08,0.175688654346408,0
7.25869521334519e-08,0.178961731173231,0
9.68639190221e-08,0.1874438411825,0
1.46248029100641e-07,0.209652605731031,0
1.39291960438631e-07,0.208358030228763,0
1.19167863767067e-07,0.194346983361213,0
1.04164145147295e-07,0.180347163067509,0
1.03454396337181e-07,0.168475547043966,0
9.66927794039702e-08,0.16465477262517,0
9.80654318349868e-08,0.163272903051082,0
1.53340655908556e-07,0.191842053413469,0
1.8765696668397e-07,0.200620027499533,0
1.8154234368476e-07,0.204853436017881,0
1.57422374470329e-07,0.201747613944065,0
1.56722679698466e-07,0.204082423169635,0
1.54987308502879e-07,0.197605538457268,0
1.24829613109264e-07,0.18414670562091,0
1.13060311739814e-07,0.188377025980215,0
1.02245812552338e-07,0.188078135210472,0
9.37283848952288e-08,0.184228777683555,0
4.15727852616292e-08,0.14617189898209,0
0,0.0911410711156752,0
5.15367791034862e-08,0.160994397382347,0
7.97692918980628e-08,0.182184606534783,0
9.53687399051532e-08,0.192568938299091,0
1.09365728892647e-07,0.190309430683537,0
1.39990218919316e-07,0.212184579396555,0
1.41620077955243e-07,0.209923118616646,0
1.34569435043318e-07,0.208450751480411,0
1.53902356243334e-07,0.21458451458836,0
1.53439980967754e-07,0.211041522492251,0
1.50656338179645e-07,0.215898176909411,0
1.27053875725266e-07,0.207978381456477,0
1.06643957109156e-07,0.191361954774691,0
1.1721240856934e-07,0.184208295271656,0
1.18269850328617e-07,0.184940870581617,0
1.1279073093398e-07,0.178480928632179,0
1.05899295375009e-07,0.176280787729491,0
8.92222975321404e-08,0.166224196299032,0
1.31199674970394e-07,0.197016102446841,0
1.78216777186563e-07,0.222943379763196,0
1.87242762404843e-07,0.215777378286697,0
1.85607600139948e-07,0.204817550617937,0
1.64013404205095e-07,0.183064099617832,0
1.31125761216663e-07,0.169957492777954,0
1.11986407873951e-07,0.159471361415525,0
1.09908425990293e-07,0.155166151204352,0
9.38963204791904e-08,0.144843066097161,0
9.00080592907842e-08,0.140582215152933,0
7.63094874166329e-08,0.134303438334922,0
5.42767807365522e-08,0.115897017151022,0
3.84677447013196e-08,0.106348951944332,0
2.56091821987896e-08,0.10346997251599,0
1.77126742665926e-08,0.100643189998491,0
2.13886958123735e-08,0.111042981900897,0
1.06275603663807e-08,0.104185755908835,0
2.1292906239153e-08,0.128344994279603,0
2.25899876573866e-08,0.127242987487621,0
2.64056608993046e-08,0.132610646972824,0
3.85137060190355e-08,0.148813799415312,0
1.30039593633814e-07,0.233717938525648,0
1.41953187024746e-07,0.228908577318163,0
1.45924421649703e-07,0.219804928640026,0
1.4223702025843e-07,0.224960735763172,0
1.46228141992013e-07,0.236376478442955,0
1.41793316768172e-07,0.219168201770441,0
1.21633865236826e-07,0.210369940344245,0
1.25915338756366e-07,0.217129262084969,0
1.41514013375898e-07,0.213223263293914,0
1.59344794970948e-07,0.218136006134106,0
1.08680728484381e-07,0.189690444373029,0
1.01379949939502e-07,0.193942068415593,0
9.6514237362074e-08,0.190095475403712,0
8.42894107211272e-08,0.176352336963615,0
4.87984347294727e-08,0.140248566464465,0
4.56377102650069e-08,0.144706169041109,0
4.52364326064868e-08,0.141711568593155,0
7.62859543380908e-08,0.170189655768811,0
8.42024598628518e-08,0.171675727662958,0
8.39019435547092e-08,0.172867296010013,0
8.42080945436296e-08,0.179572923919836,0
8.5412811390684e-08,0.177319346055189,0
8.13593767167355e-08,0.165088754033168,0
8.51915120652395e-08,0.168259054766402,0
1.34701573831751e-07,0.193567976259101,0
1.66209272449336e-07,0.196455120602308,0
1.9196584021984e-07,0.205307542988116,0
2.08060587715682e-07,0.212048649284887,0
1.87255247089703e-07,0.210305548779587,0
1.74424968474998e-07,0.20341880482218,0
1.74028883561508e-07,0.200834674073995,0
1.73324437980362e-07,0.20033520426376,0
1.94175518956184e-07,0.217059038872625,0
1.84551373703976e-07,0.208955937938039,0
1.91234326074173e-07,0.216709225618427,0
1.45657492458353e-07,0.189580637974378,0
1.4485504762525e-07,0.191652371429637,0
1.25717351541589e-07,0.184648112927171,0
1.07791553760876e-07,0.180408866330571,0
1.05391842653208e-07,0.181263428630071,0
1.07150746927337e-07,0.18551855815761,0
9.08040960555516e-08,0.17140312211155,0
1.03271434937812e-07,0.173483873476912,0
1.41474681094391e-07,0.196131177703965,0
7.36484817983914e-08,0.149356339313643,0
5.88392149074174e-08,0.145249041653386,0
1.0836662265201e-07,0.180827227101939,0
9.27259641364864e-08,0.161735856635753,0
7.82534522849312e-08,0.142601398141195,0
1.44472220784178e-07,0.184431889465829,0
2.13462810290294e-07,0.224030895481742,0
2.32941570286909e-07,0.236292784763408,0
2.53756743983264e-07,0.264614365721497,0
2.29545404553086e-07,0.245805792287803,0
2.38534819588278e-07,0.263391903154379,0
3.11385165427103e-07,0.286666929087098,0
2.4079211690139e-07,0.237132678947228,0
2.53012524184865e-07,0.241233303403941,0
2.40885475828001e-07,0.237079110288316,0
2.10351582629523e-07,0.21984695360232,0
1.78682466980248e-07,0.203533434336053,0
1.62090541768729e-07,0.191862562086658,0
1.16308539482238e-07,0.161147139520574,0
8.76923159750961e-08,0.149556122919607,0
9.33844483999168e-08,0.153676851551483,0
4.9315499553777e-08,0.127067515322468,0
3.97516785310719e-08,0.128381208752526,0
3.65612338876024e-08,0.127131064283074,0
4.51768817645425e-08,0.141519593697231,0
7.50379277878041e-08,0.165356850555361,0
7.190283559668e-08,0.157182742343955,0
7.39003851743346e-08,0.151403579831754,0
8.22839063000217e-08,0.16323774673059,0
9.99941499200042e-08,0.180073127286064,0
1.19450371193509e-07,0.191755695690309,0
1.26847049795545e-07,0.186668131486195,0
1.36990801002603e-07,0.197496538992334,0
1.3381991201595e-07,0.211632332929718,0
1.08861038269267e-07,0.193073691285693,0
1.19894406135577e-07,0.204846056777738,0
1.224290181301e-07,0.20674227651298,0
1.31453677541137e-07,0.206276365242422,0
1.32374782122382e-07,0.203642439801451,0
1.04964048849851e-07,0.179612856228144,0
7.68742813016424e-08,0.161474999626285,0
4.27930803437749e-08,0.133953709953407,0
4.88152282878688e-08,0.145426192348505,0
5.47247931003459e-08,0.146222795386007,0
6.08351072260195e-08,0.149628246122746,0
8.23366071378836e-08,0.177714589688142,0
9.87081168954522e-08,0.199079101037781,0
1.02645764403616e-07,0.19855455854283,0
9.3418146000646e-08,0.179436073532008,0
1.0114572399345e-07,0.18705499714802,0
9.43284231560826e-08,0.17851595319463,0
9.89272065421609e-08,0.182164769933642,0
9.17501700065172e-08,0.168193569828954,0
9.083713075266e-08,0.167484679484179,0
8.61110698713686e-08,0.1691873482297,0
9.50425913236691e-08,0.170083255826618,0
8.55807469746462e-08,0.156354216067281,0
8.45515891031941e-08,0.168126255217275,0
8.99117172978794e-08,0.16989446962039,0
8.48848086566347e-08,0.16818196042819,0
8.82544582456218e-08,0.168063454799461,0
1.04815668922706e-07,0.172893310743524,0
1.11718594811106e-07,0.17523088977719,0
1.21936259771895e-07,0.172729406401852,0
1.48003287404855e-07,0.186189860430827,0
1.54708336562416e-07,0.19059706640792,0
1.4440515703453e-07,0.184099087458111,0
1.43200329703539e-07,0.176866014086097,0
1.45891386952595e-07,0.176331786660195,0
1.82015546386148e-07,0.19123359092988,0
2.00757709976003e-07,0.209593336664585,0
2.15863515753395e-07,0.225227416742205,0
2.22171706609908e-07,0.221478391655394,0
2.80317082394113e-07,0.258348749766134,0
2.77137465176452e-07,0.247597015268911,0
2.4859758606965e-07,0.243787985348679,0
2.43592221796085e-07,0.247799492848759,0
2.79426139927619e-07,0.270059812307721,0
2.95946582032018e-07,0.287678878637181,0
2.75974621741451e-07,0.28245608595328,0
2.71998083887528e-07,0.272336371643438,0
2.66520842719816e-07,0.266106894561608,0
2.70295747389048e-07,0.266751442913517,0
2.22942332069208e-07,0.250032546375266,0
1.82907372724136e-07,0.219253242491933,0
1.514910443223e-07,0.201014411396989,0
1.76751207764684e-07,0.214561016893915,0
1.82934772740467e-07,0.216471705226396,0
1.74177926392275e-07,0.211568031423859,0
1.9539647694195e-07,0.224887426708685,0
2.91914470757875e-07,0.267957814132312,0
3.63589267508965e-07,0.289666451283198,0
3.42541635609545e-07,0.285052380895611,0
1.99575421368122e-07,0.219194987901598,0
1.47841207469544e-07,0.191195312566922,0
2.61018300730574e-07,0.237725968566973,0
2.69666430884938e-07,0.238800922090952,0
2.67346268211777e-07,0.240457044263346,0
2.87797286852383e-07,0.24648277576669,0
2.84915976264128e-07,0.242474324344128,0
2.35599371870983e-07,0.216044449107984,0
2.07915743274514e-07,0.195475708477507,0
2.58292772493231e-07,0.209777418664244,0
2.47348675647869e-07,0.204407006555247,0
2.52494575489066e-07,0.215116365764897,0
2.04035547413495e-07,0.195579574908851,0
2.01825868677152e-07,0.20303042287722,0
2.00930396369248e-07,0.209639441970917,0
2.01929171158076e-07,0.206589478913922,0
2.06656999782356e-07,0.210015230368492,0
1.63988987255058e-07,0.203691006094302,0
4.48758130367157e-08,0.133798954486411,0
3.59292657690082e-08,0.131444553913225,0
8.79645483954135e-08,0.194196777604489,0
1.21229162576265e-07,0.209758043123727,0
1.18142572833404e-07,0.203525928507506,0
1.1946838007521e-07,0.201077441461062,0
1.23487454244808e-07,0.20061823411169,0
1.10682365967697e-07,0.196070401126211,0
1.52730232157641e-07,0.22084467735215,0
1.52803593491688e-07,0.204569133279075,0
1.82969243728754e-07,0.216350400706108,0
1.98628021609916e-07,0.219034424656634,0
1.59532617663538e-07,0.18524558480538,0
1.40000383441503e-07,0.179474534121139,0
1.48711378955916e-07,0.179966281836238,0
1.54367162165524e-07,0.183098033346846,0
1.81095436160335e-07,0.19502690306653,0
1.9127818819709e-07,0.198127401878024,0
2.67423165031802e-07,0.235744437850191,0
2.82838878251965e-07,0.233857437160818,0
3.49720439888179e-07,0.25307977294434,0
3.9633582251008e-07,0.282348389848996,0
4.0162844501937e-07,0.282666746133068,0
4.02713949698599e-07,0.281685644566011,0
4.15197640203508e-07,0.279856364660978,0
4.26929266550503e-07,0.281009036680742,0
3.934526336949e-07,0.275225298129735,0
4.05771150714267e-07,0.273728412305475,0
3.50070121548205e-07,0.248444050137614,0
3.27076646553562e-07,0.252425789519716,0
3.38888594722623e-07,0.255554965799022,0
3.23063759484425e-07,0.237563256847953,0
3.17817982164346e-07,0.243038029584029,0
2.23425478324909e-07,0.206436665536162,0
2.18708587610373e-07,0.218325664283372,0
2.28361348202217e-07,0.223015430623508,0
2.39726278362915e-07,0.225500901724199,0
2.18452817296642e-07,0.22986001917203,0
1.23136999197224e-07,0.182945607997165,0
1.23160421791829e-07,0.185607456723639,0
5.85961502464196e-08,0.142880967135803,0
3.59195431825682e-08,0.128677754851477,0
3.01699591106027e-08,0.119883745093613,0
5.85896316941472e-08,0.15033919599991,0
1.41328289878109e-07,0.21343278601002,0
1.45802447383457e-07,0.212707953256187,0
1.56621918348089e-07,0.219760184977598,0
2.05154418241643e-07,0.253190322541353,0
2.14184601849521e-07,0.242939513085443,0
2.29507840014568e-07,0.251161430789577,0
2.53325967113615e-07,0.24926412270835,0
2.77363183859369e-07,0.260307719820034,0
2.77531671863016e-07,0.267408522174934,0
2.41676872267422e-07,0.266339302299026,0
1.30644603671825e-07,0.191986030092467,0
1.18192953508592e-07,0.182244783903128,0
1.2139698767629e-07,0.17931797084385,0
8.83270461921107e-08,0.153057095246321,0
9.38201970467238e-08,0.1591272711624,0
8.72584455552149e-08,0.155356237938173,0
1.18914303132071e-07,0.18626684118321,0
1.1366929919955e-07,0.18742756726026,0
1.18052086489151e-07,0.196775572533813,0
1.02639577303155e-07,0.185160442212744,0
8.31683302142432e-08,0.165234429069202,0
7.96234531014644e-08,0.178709166238665,0
3.2634192837373e-08,0.137948673210739,0
2.36099753620827e-08,0.125856392488951,0
1.09754742834181e-07,0.217917370864337,0
1.70409429791378e-07,0.269752977290823,0
1.47868938937685e-07,0.258333396794118,0
1.10856930587869e-07,0.22735849021164,0
1.28832114688339e-07,0.223443600210814,0
1.43698833226458e-07,0.234599871908821,0
1.51852547763565e-07,0.267072157743288,0
1.58519700930797e-07,0.245475257030117,0
1.56487680364856e-07,0.234899366640618,0
1.58754368812598e-07,0.2503323646476,0
1.08610018764818e-07,0.22056485724524,0
7.39716473135815e-08,0.180426624590195,0
6.58898578193421e-08,0.168883356016533,0
6.55866898967161e-08,0.162481205395426,0
8.78563846212695e-08,0.184201113535953,0
1.27180711284733e-07,0.214057885185467,0
1.32679717787997e-07,0.200735408045058,0
1.1023380118422e-07,0.191167042871826,0
9.99919402412678e-08,0.183000072397493,0
1.00327811409192e-07,0.180283824867311,0
9.74799774537925e-08,0.181023743689545,0
8.79783588875155e-08,0.177814666647054,0
9.36230937034419e-08,0.179602143838048,0
9.63309445108942e-08,0.183357942436048,0
9.07179185848344e-08,0.167432988672329,0
1.18175386562638e-07,0.17261290296707,0
1.63733216941326e-07,0.200081122705094,0
1.74139367498326e-07,0.199531793392722,0
2.98767899842582e-07,0.245923298184002,0
3.57088392666642e-07,0.233428488492702,0
4.23283407119474e-07,0.230752011869053,0
4.47058224515287e-07,0.221843617985439,0
4.74391398064172e-07,0.231742823428847,0
4.89210056089776e-07,0.232995182191981,0
5.63012773463963e-07,0.245177624008442,0
1.05884755688923e-06,0.33752587504008,0
1.03080143049607e-06,0.333609598868545,0
1.56818071529514e-06,0.393626665603577,0
2.68984977011043e-06,0.515640763364158,0
3.27651870122207e-06,0.60438814645393,0
3.18581801813137e-06,0.521954564691434,0
3.43193767046609e-06,0.549537658654257,0
2.9990603906931e-06,0.512405283194642,0
2.68999384116404e-06,0.490816646257296,0
2.7304512910835e-06,0.515957926882148,0
3.01191486528997e-06,0.549085070656346,0
3.536801952321e-06,0.610432685128581,0
3.34677676245136e-06,0.604979161346161,0
2.32097572445169e-06,0.502708613579636,0
1.18859237937962e-06,0.354382504239243,0
8.2974364614767e-07,0.359499077883731,0
8.3901501618962e-07,0.366168371220901,0
8.85437604341775e-07,0.380411157758933,0
9.15625019914395e-07,0.376461856732401,0
9.70999569047163e-07,0.372979080785519,0
9.66182469401935e-07,0.372359107399914,0
8.64025817386606e-07,0.346189104027355,0
8.2729918904559e-07,0.362255579108334,0
6.26523359703949e-07,0.314383341276254,0
2.18205775213919e-07,0.188913692423618,0
2.00301963736632e-07,0.188126870746968,0
2.0715638717677e-07,0.197200356433062,0
2.13834920189494e-07,0.20009259180022,0
2.10840474049938e-07,0.205080979347853,0
2.00174796725356e-07,0.20930412609986,0
1.55738599273235e-07,0.19855200854105,0
1.05013214201735e-07,0.163755410798666,0
1.19797732690862e-07,0.178851400540437,0
9.79231285243664e-08,0.175887010299553,0
9.99658660321791e-08,0.180190813900144,0
1.15817106931276e-07,0.18887982780863,0
1.30970310317562e-07,0.199473026061247,0
1.36779003295725e-07,0.203398775507092,0
1.39740083286362e-07,0.202445938222179,0
1.55912169537975e-07,0.206515601995372,0
1.88719711672214e-07,0.216666979462717,0
1.98872854013902e-07,0.211120769551274,0
1.78354219203964e-07,0.198498980963764,0
1.27314617816155e-07,0.169756749379621,0
1.21501284512646e-07,0.169276555309195,0
1.55711530708715e-07,0.193047961568266,0
1.51088882792285e-07,0.190384682275515,0
1.56491215850834e-07,0.195936304661272,0
1.65730214099297e-07,0.206601101684773,0
1.31848768099195e-07,0.184926183135939,0
1.32580724180609e-07,0.194605899904439,0
1.18664609434865e-07,0.200918093886917,0
1.367000072809e-07,0.20364908595589,0
1.6694122853075e-07,0.205890690162302,0
1.52967109718177e-07,0.20485664819411,0
1.14732707091415e-07,0.17753702460467,0
1.59638240307135e-07,0.195284040492755,0
1.56154018875669e-07,0.193301126690701,0
1.43358542701061e-07,0.178007697805592,0
1.65385504216427e-07,0.191863787235091,0
1.46155995981272e-07,0.182904463794433,0
1.35141299900284e-07,0.170251313968788,0
1.58342816147953e-07,0.192386774739235,0
1.39815101879461e-07,0.183666477609822,0
1.9594005791109e-07,0.203654950643969,0
2.03064614576746e-07,0.205900476650593,0
1.65199559750764e-07,0.194644644852384,0
1.95450393103117e-07,0.217506217521385,0
1.93132108656882e-07,0.213391266484343,0
1.73592251043207e-07,0.205599734053054,0
1.6732792230961e-07,0.197069808597699,0
1.68327912421742e-07,0.200150562958327,0
1.48688287813122e-07,0.191378202287711,0
1.58360604061781e-07,0.203630839653111,0
9.15266610023361e-08,0.170913825693708,0
8.72619810411931e-08,0.166030264799761,0
9.41871142008935e-08,0.170239248145784,0
6.99447287844696e-08,0.148176293218318,0
8.76606070852295e-08,0.152900504729259,0
1.12180528150938e-07,0.162252036290964,0
1.06997505706971e-07,0.16735458624917,0
1.10956697582815e-07,0.172283850098716,0
1.01178427238748e-07,0.167899957982593,0
9.96140851773532e-08,0.164524578293376,0
2.35812384901167e-07,0.228162534380332,0
2.82404786864211e-07,0.244132524616274,0
2.63689691838876e-07,0.23621757298515,0
3.15891694725938e-07,0.244954826041613,0
3.83022950059358e-07,0.286809542090514,0
4.3607302764543e-07,0.323612196473594,0
4.53328740349346e-07,0.311782953811284,0
4.93871594351966e-07,0.318594733370043,0
5.10897058531556e-07,0.316688777552913,0
5.08441663519731e-07,0.319597655929891,0
3.63151751119169e-07,0.28367718551568,0
2.76388384084832e-07,0.254950670661738,0
2.61701533395851e-07,0.260050155792742,0
2.61878307694759e-07,0.269270880519889,0
2.3603688826078e-07,0.251325150441284,0
1.40668037871689e-07,0.206603098283367,0
9.45039821316853e-08,0.188248709042538,0
6.9845182757397e-08,0.172823265220871,0
6.93909832931414e-08,0.172381002677932,0
7.84346459413115e-08,0.181171340779083,0
5.93112022855001e-08,0.156156706502053,0
8.06174770810082e-08,0.186653371866056,0
1.05866150193963e-07,0.199307230712342,0
1.07832322333562e-07,0.206739105423345,0
1.30841265079359e-07,0.220852508092071,0
1.34118218645357e-07,0.208137162565657,0
1.41728794149071e-07,0.209995939893228,0
1.52936174215868e-07,0.21396778267112,0
1.4026499247018e-07,0.212483719690982,0
1.44479402240071e-07,0.210567768464885,0
1.59627191913453e-07,0.22036480864141,0
2.86947886346133e-07,0.283805063087127,0
3.00891953527892e-07,0.285961113940081,0
2.98354247983138e-07,0.29810209371532,0
1.7952800054871e-07,0.236566187738211,0
1.66667117883506e-07,0.229737718342133,0
1.93938088975963e-07,0.243108329996081,0
5.15777796924391e-07,0.369474251929486,0
7.00471584422924e-07,0.387514832231407,0
6.99049435188214e-07,0.378541941729813,0
6.96877431474325e-07,0.386726437720645,0
5.37575504270861e-07,0.340345269182371,0
4.89810204834566e-07,0.313373226863806,0
4.77475225708614e-07,0.29989277023705,0
4.38126150643303e-07,0.296443455295542,0
4.36853044239359e-07,0.296014877946287,0
4.5596709676054e-07,0.309783071611742,0
2.68627881878856e-07,0.2563617641478,0
8.38246047989372e-08,0.161053789098846,0
8.04305382599135e-08,0.161795162403133,0
7.46180888278988e-08,0.152081186043657,0
6.28326568036741e-08,0.1492622978097,0
6.02884327066483e-08,0.15712589558115,0
7.60752614705806e-08,0.179238380093251,0
7.61738131422216e-08,0.16617802320766,0
9.93293680721753e-08,0.179513297327382,0
9.9476974611763e-08,0.174087448392511,0
9.66182027466185e-08,0.166928025113103,0
1.73948561739442e-07,0.206137387524261,0
2.04996205244121e-07,0.215491724552545,0
1.81433958942743e-07,0.20745822038703,0
1.92352975934447e-07,0.212984553933082,0
1.94089231001529e-07,0.216656152994908,0
2.10282309201138e-07,0.216792908633068,0
2.34062319341982e-07,0.228193611268109,0
1.81014119982838e-07,0.212380513615514,0
2.04558688854324e-07,0.231097852694496,0
2.1866704565013e-07,0.242066313998847,0
1.9878756041468e-07,0.255159651480383,0
1.76888207846337e-07,0.268259567937581,0
1.55786659785752e-07,0.25950262059965,0
1.51024470657121e-07,0.245513431913827,0
1.30221229225941e-07,0.221574835215359,0
2.65381311395483e-08,0.128855604633924,0
1.73714998697011e-08,0.123816276410898,0
2.06322122969863e-08,0.133786340178035,0
3.7388206154679e-08,0.157899239260137,0
6.39037985711166e-08,0.191151480964796,0
2.17525083679188e-07,0.296753661654505,0
2.98098477669406e-07,0.330159751410931,0
3.24800677455128e-07,0.308207612965142,0
3.39064595633973e-07,0.314486683479137,0
3.12286824835468e-07,0.305143241603557,0
2.88063000720429e-07,0.266881754920537,0
4.12731638733749e-07,0.312753968121289,0
4.89783688689731e-07,0.327859276661304,0
4.87574341405198e-07,0.32328422861081,0
4.72816007609096e-07,0.326103840507979,0
3.07920499652453e-07,0.258354957540672,0
1.76194368723125e-07,0.19948243518993,0
1.70989249491794e-07,0.210303157323363,0
2.45441833382341e-07,0.252710538812031,0
3.27108023991619e-07,0.297813347463408,0
3.31838504230383e-07,0.293622077789426,0
2.69917118937576e-07,0.279590638084087,0
2.10573986794335e-07,0.256183164920633,0
2.32370257849628e-07,0.268541249700222,0
2.92846071313118e-07,0.316094064514955,0
3.52145451817379e-07,0.372031793060576,0
4.23007528729241e-07,0.384446753021975,0
4.253763043346e-07,0.365506763111702,0
3.16511730579356e-07,0.312294697076372,0
1.74657868613809e-07,0.234879846209214,0
1.83278598751842e-07,0.253751245576066,0
2.32933725927395e-07,0.273196473828163,0
2.33098015541443e-07,0.273215189376184,0
2.28790025877067e-07,0.280565561151202,0
1.99884776391211e-07,0.259322772397044,0
1.46672287418018e-07,0.220850501841142,0
4.1023127675964e-08,0.126797341854577,0
9.74069475715565e-08,0.179552975746584,0
1.32260762699586e-07,0.214309322983075,0
1.28289970010377e-07,0.207460304408406,0
1.26653923873988e-07,0.21366471394951,0
1.34250246949853e-07,0.219270982023261,0
1.44002111633021e-07,0.211513358204891,0
1.36056990768624e-07,0.19552678147137,0
2.34703126175522e-07,0.239216258524167,0
3.12784002551145e-07,0.279825616030287,0
3.35062867442454e-07,0.305983534394337,0
2.41064901741392e-07,0.273556829707553,0
1.79018890567856e-07,0.237455276601639,0
1.7016636513038e-07,0.221547872353938,0
1.42081900811139e-07,0.207025222989414,0
1.55670872619967e-07,0.209429732298424,0
1.84324329213817e-07,0.212775102228592,0
1.68872377262378e-07,0.205609916828939,0
1.43050071549467e-07,0.198683161502888,0
1.05421010412527e-07,0.175934613237857,0
9.15098674439397e-08,0.163094819224032,0
9.88636782784907e-08,0.173626294181305,0
7.31885371694217e-08,0.153354796230218,0
9.51221397581775e-08,0.166398781373096,0
1.12798685777431e-07,0.164702563628609,0
7.29410531509511e-08,0.138899204944895,0
6.47214901875007e-08,0.141562519229284,0
5.7139530023422e-08,0.141308685091139,0
7.27159973716546e-08,0.148414780763561,0
9.37512550701498e-08,0.150090213222543,0
1.03236080078031e-07,0.15091354336261,0
1.02961748462914e-07,0.147348590367233,0
9.85848168219643e-08,0.144573342513662,0
9.85476942191937e-08,0.155715995489918,0
1.07169418712659e-07,0.174531398235015,0
9.99044369633086e-08,0.174450842092323,0
9.19663870708684e-08,0.16840232869105,0
8.7382960952008e-08,0.167366938763331,0
5.26747636527031e-08,0.137149441245225,0
6.91567573470891e-08,0.160597067427508,0
9.27981101472281e-08,0.186757152459764,0
8.85947487710187e-08,0.186609109437922,0
1.01644227516369e-07,0.198081837905582,0
9.95052584995884e-08,0.182715728078496,0
5.9108906197188e-08,0.143208044966539,0
1.16675898572156e-07,0.175087540396347,0
1.32302746595577e-07,0.174776704544442,0
1.37159068038376e-07,0.168526933798392,0
1.25628632940325e-07,0.168609165516151,0
1.22198659121836e-07,0.166521945019003,0
1.3490088685377e-07,0.166361991507536,0
2.9890368460093e-07,0.227032208026706,0
3.55341862593437e-07,0.235803649362273,0
3.52905028882997e-07,0.232932578590472,0
3.60508975350502e-07,0.236341418208359,0
3.26402694538977e-07,0.232117784667492,0
3.01011165695718e-07,0.227335742527004,0
3.03872257723535e-07,0.232608108693891,0
3.32653765200156e-07,0.241019317330311,0
3.17109227709663e-07,0.229822999842016,0
2.61157068555215e-07,0.218116828360023,0
1.67906416202785e-07,0.1871277228512,0
1.20285961207657e-07,0.170578148946979,0
1.28088005373875e-07,0.191619910838448,0
1.24762770327489e-07,0.181520879483254,0
1.37696130455244e-07,0.195275647367622,0
1.52516003804152e-07,0.198959891249196,0
1.77240099185099e-07,0.202441250722953,0
1.37386775432156e-07,0.176849669125717,0
1.21311362625257e-07,0.181813984264217,0
1.15227675128356e-07,0.182826059333408,0
1.188126579102e-07,0.188278327895895,0
1.1019667858145e-07,0.174179113294766,0
1.61450176870936e-07,0.204113984197349,0
1.75721497473547e-07,0.221692389646231,0
1.49159501803647e-07,0.202367953054939,0
1.18221789816102e-07,0.190596963828579,0
1.59514056362152e-07,0.233624104181618,0
1.84039612108639e-07,0.244568744301081,0
1.81480804131953e-07,0.231543926517631,0
2.30005459665993e-07,0.255051143512128,0
2.14469650406509e-07,0.233587422375572,0
2.09569356356857e-07,0.240448127435842,0
1.90403155417498e-07,0.227013599466464,0
2.19614555892275e-07,0.242563927989852,0
2.82175532695315e-07,0.277335023512449,0
2.8903525936442e-07,0.276551827929837,0
2.31507599270959e-07,0.239624272650219,0
1.56443486790129e-07,0.192158862400992,0
1.54886989088249e-07,0.192497250604068,0
1.47838997790808e-07,0.182748165990566,0
2.00842009219795e-07,0.202510444784501,0
1.76373794636516e-07,0.173717903725551,0
2.17467300580233e-07,0.193899622335785,0
2.18241019589763e-07,0.196164378748056,0
1.86850875880952e-07,0.1877329506269,0
2.16944490591214e-07,0.195967891423265,0
2.32168182729189e-07,0.195622928914629,0
2.48159185808359e-07,0.208626554531755,0
2.58262389410606e-07,0.208756263190611,0
2.51757426662621e-07,0.210093079436716,0
1.722484349197e-07,0.193121943695318,0
1.43783684889933e-07,0.194172260267779,0
1.1525949450216e-07,0.175235999777898,0
1.12630750193469e-07,0.171095342054607,0
1.76339434132166e-07,0.197144029915355,0
1.41534231936336e-07,0.18619899553797,0
1.15887043263281e-07,0.188929970101407,0
1.13254763468612e-07,0.17884471143582,0
3.01254230356715e-07,0.259339892736806,0
6.92672302355126e-07,0.39192132673893,0
7.38584123267377e-07,0.375475989632192,0
7.97321803436859e-07,0.384200911070326,0
8.18291654644759e-07,0.371282717887538,0
8.61861326580422e-07,0.388146834991023,0
7.78891425516702e-07,0.383416209873679,0
7.9623287375559e-07,0.395714677849863,0
8.18354520004808e-07,0.409773728818494,0
7.75331080652771e-07,0.383024947968838,0
6.95736684826687e-07,0.388672288544048,0
3.71672272326509e-07,0.2817276172062,0
2.98897828952279e-07,0.270264240805168,0
2.36454959477695e-07,0.238812531098484,0
4.01959896829822e-07,0.32547217310867,0
4.26440485614024e-07,0.309519397326479,0
4.61635033203198e-07,0.307835145775872,0
4.93842868528393e-07,0.290828595093577,0
5.8086973975204e-07,0.309824294548251,0
5.41169657219461e-07,0.305696772626535,0
4.27913015523924e-07,0.272921432213663,0
4.07329416159137e-07,0.264142571933171,0
4.05610396586198e-07,0.25403885691107,0
4.33925661849451e-07,0.26791514553246,0
2.71874894297976e-07,0.218493338769596,0
2.38189999221472e-07,0.215126542826273,0
2.15601005919517e-07,0.211912169113587,0
1.94412396516719e-07,0.219904985155257,0
1.12468117838474e-07,0.17842131796044,0
1.04530067946033e-07,0.181165369362172,0
1.35254324967648e-07,0.205617622843043,0
1.26828488494159e-07,0.189632207443643,0
1.68000106581206e-07,0.223403471720808,0
1.62278806397065e-07,0.213372648868277,0
1.65318329982843e-07,0.212119671338114,0
1.58972132652064e-07,0.202617107639313,0
1.54822355985211e-07,0.19496967540307,0
1.46687202749489e-07,0.19019310817037,0
1.50540551013861e-07,0.185408917416499,0
1.5105087631802e-07,0.192728733263035,0
1.34953808659505e-07,0.184258904694679,0
1.37337720564209e-07,0.197722280690808,0
9.51372760575214e-08,0.167235748885721,0
8.77291071260562e-08,0.179196622421512,0
1.07925570776236e-07,0.190707822650068,0
1.12249028191765e-07,0.195822814233055,0
1.05268984515466e-07,0.189440040097926,0
1.46955899683828e-07,0.213633226384817,0
1.30437225322419e-07,0.212630588445733,0
1.33755278912912e-07,0.211357549893658,0
1.30193276789927e-07,0.20539073299985,0
1.46574177682125e-07,0.216639364063549,0
1.60135418022812e-07,0.233390053424338,0
1.48524771586632e-07,0.214448036365388,0
1.2138693363804e-07,0.195937200491666,0
1.33199876162532e-07,0.199720229738254,0
1.60020956664269e-07,0.226667349617359,0
1.51142025565894e-07,0.231816226813776,0
1.95521655242364e-07,0.247336168628057,0
2.13816358888109e-07,0.242741606736533,0
2.18665277907141e-07,0.235343176363874,0
1.88231925091167e-07,0.219246494410534,0
1.54981452854228e-07,0.197602099849809,0
1.58105938587417e-07,0.21092786848552,0
1.5575097347416e-07,0.212491263459889,0
1.66775502625524e-07,0.223310782780506,0
1.64495556105364e-07,0.224953673511487,0
1.13831600102734e-07,0.187542733317658,0
4.40653028762248e-08,0.135210143591992,0
3.2322738619485e-08,0.128023649549488,0
4.73352959542028e-08,0.151118827611323,0
4.62127791561403e-08,0.157756524988452,0
4.76057606315311e-08,0.155937997698187,0
5.55928653919183e-08,0.158272457558205,0
6.82984076419565e-08,0.161875287779199,0
7.17677137419529e-08,0.16218107912638,0
8.38651524037493e-08,0.160013601504494,0
2.0255141669023e-07,0.233451329495896,0
2.25702773230585e-07,0.229886494965635,0
2.3654610872557e-07,0.232172033286691,0
1.77758047880899e-07,0.207890850834987,0
1.94250095613535e-07,0.214059764670353,0
2.13520814357123e-07,0.213787421773115,0
1.83599444104359e-07,0.194184274715831,0
1.775635961521e-07,0.198918471101694,0
1.62923038232646e-07,0.197296509246601,0
1.58917332619403e-07,0.195271168578711,0
1.1073539825737e-07,0.165424311343405,0
1.31312258102011e-07,0.183220883686965,0
1.69990474702967e-07,0.222081244757234,0
1.74347629719226e-07,0.21906423957765,0
1.39646834843688e-07,0.183652676346436,0
1.24342047496089e-07,0.186399160563536,0
1.19927109380875e-07,0.186171711140451,0
1.15343462294141e-07,0.182906959974228,0
1.1322117635182e-07,0.181339417472318,0
1.00515523617844e-07,0.184069177210388,0
6.19902167854431e-08,0.151892349138375,0
7.389950130284e-08,0.164178228515616,0
6.17605206808004e-08,0.150490400838172,0
5.58358195689792e-08,0.13803554999212,0
7.47273574414111e-08,0.162043926242371,0
1.11999665946369e-07,0.187848431596456,0
1.20155258710402e-07,0.188968693896024,0
1.11219317900629e-07,0.177331010230091,0
1.2267860134337e-07,0.178168858181439,0
1.61458463166198e-07,0.187165672102892,0
1.1634356289021e-07,0.156422464362422,0
1.18912093453335e-07,0.156241511344565,0
1.5935098207141e-07,0.177700902630463,0
1.56557506212925e-07,0.182314543174507,0
1.42698401178579e-07,0.180836627991544,0
1.22656504556006e-07,0.1755023991919,0
1.13386460321298e-07,0.178894821263956,0
1.17972096118895e-07,0.177011818489897,0
1.15419917178418e-07,0.183047046605377,0
3.70959761417975e-08,0.12769286208926,0
5.32133728446869e-08,0.147362308883356,0
6.41000180429039e-08,0.158065330721762,0
3.39168008598834e-08,0.12872846751907,0
4.71766410209333e-08,0.149321320390505,0
8.15785768473809e-08,0.157000759876422,0
2.08794311540085e-07,0.227261922510801,0
2.22821241674456e-07,0.21771229915186,0
2.12479945188369e-07,0.212896124230671,0
2.07833101289775e-07,0.215669857392327,0
2.04358933896559e-07,0.222003550607059,0
1.99898586883313e-07,0.225543475096167,0
1.96929220597414e-07,0.219597817245261,0
2.04274966104578e-07,0.216805009087497,0
1.68881215977323e-07,0.191345527238159,0
1.46475626010484e-07,0.190662036821844,0
1.2644212616711e-07,0.182931526694371,0
1.35075009538194e-07,0.199175390123217,0
1.46346912224092e-07,0.202005699735567,0
1.43858813966969e-07,0.208091035710233,0
1.44344943288965e-07,0.202232146116452,0
1.67233348059695e-07,0.207468030217165,0
1.6730847713673e-07,0.21334616944914,0
1.43496095202398e-07,0.201975438855786,0
1.23669531772683e-07,0.188730131024654,0
1.13444464388127e-07,0.19176736958339,0
9.45008885814542e-08,0.17578901090823,0
1.31807336622889e-07,0.196995112034203,0
1.28387195874776e-07,0.19191061464305,0
1.50852005231749e-07,0.206435393178309,0
1.59682433881862e-07,0.208750614054187,0
1.39991876178368e-07,0.196743426724292,0
1.41342100370211e-07,0.194664942392679,0
1.65247620263279e-07,0.209692509471262,0
1.77096801519048e-07,0.210307034258363,0
1.95753671509679e-07,0.21501402398308,0
1.81081404700359e-07,0.221491059830972,0
1.30141128371749e-07,0.198906809525875,0
1.45637163413978e-07,0.22795784685571,0
1.30746690829444e-07,0.20578002804546,0
1.38505314808493e-07,0.211167856001419,0
1.48067810023956e-07,0.212492580487001,0
1.73122915279608e-07,0.226640597026639,0
1.80795914207623e-07,0.221126877914313,0
1.73273173433679e-07,0.205550725564425,0
1.89013157008401e-07,0.208655052518318,0
1.94737219290962e-07,0.209029619349724,0
2.0000907082013e-07,0.204568125586839,0
2.01703783926969e-07,0.200787076357226,0
2.04187462826619e-07,0.204376575309333,0
1.76459530171486e-07,0.188457247440786,0
2.03493623703407e-07,0.199522639486493,0
1.86331159442164e-07,0.193364822041077,0
1.3513411844439e-07,0.172430633756309,0
1.0087183431408e-07,0.167679965954392,0
9.97421360601243e-08,0.164615813094096,0
1.0556740162881e-07,0.166301909982153,0
1.11409239788018e-07,0.175254674159735,0
1.18923915234575e-07,0.182743152601605,0
1.1399456390954e-07,0.182048695184391,0
1.05078952144141e-07,0.190145149048763,0
6.95496382264111e-08,0.169198608806007,0
8.52498475838787e-08,0.177380538855782,0
8.77702071505521e-08,0.176322287157041,0
9.47641718028896e-08,0.176133147089399,0
8.70806769008761e-08,0.170199368839068,0
8.52130564329186e-08,0.163418137241754,0
1.23385809022936e-07,0.188715647059905,0
1.14279170530781e-07,0.169957160985851,0
1.23782225388236e-07,0.167520672177581,0
1.2644212616711e-07,0.167118158134793,0
2.11006531406975e-07,0.195870126327916,0
2.3843306388247e-07,0.199089649181232,0
2.36397618314487e-07,0.201827549237929,0
2.27505760595504e-07,0.197165292129899,0
2.25805302323951e-07,0.205406164455517,0
2.14301714822547e-07,0.211605700230225,0
1.77030179705147e-07,0.197506127056627,0
1.64793310315088e-07,0.191288528158435,0
1.69762546341313e-07,0.194776575757719,0
2.0551238619693e-07,0.20992472862309,0
1.13218524737336e-07,0.160941399123446,0
1.76587691538194e-07,0.207893506465857,0
1.82980734058183e-07,0.211078991139641,0
1.82877873513006e-07,0.219236699481875,0
2.08538430742416e-07,0.224514685508205,0
2.16963493828346e-07,0.214952474590851,0
2.16548516161661e-07,0.207830062626593,0
2.05511612809372e-07,0.208326526936183,0
2.43259002242644e-07,0.215377594727946,0
3.0854230324886e-07,0.241539119552568,0
3.01431004655623e-07,0.252298630453894,0
2.7366871149614e-07,0.240692226190752,0
2.59964725909085e-07,0.234765924688496,0
2.54063447391869e-07,0.22946310960965,0
2.05878419479605e-07,0.211185308767255,0
1.73459780802963e-07,0.211161207180607,0
1.83800635353304e-07,0.211304033912221,0
1.23893924648359e-07,0.174322944956417,0
9.31140942065251e-08,0.174828046001967,0
8.83098106979672e-08,0.163503907537312,0
1.03545103649308e-07,0.167157057148072,0
9.75793025129911e-08,0.172656904126046,0
9.95013915617999e-08,0.179646268097214,0
9.02857054240056e-08,0.16976232998007,0
8.22371715947479e-08,0.16586291539648,0
8.44808793836311e-08,0.165278830245199,0
7.76426970822057e-08,0.170431938326728,0
1.41129418791838e-07,0.204390414546748,0
1.9443007394661e-07,0.208873541493616,0
1.83655128008515e-07,0.2058485772246,0
1.86632891073612e-07,0.202478113338059,0
2.3642667558987e-07,0.2155123445077,0
2.52539321483476e-07,0.213540959377151,0
2.63018501922712e-07,0.214655890488855,0
2.71699335322374e-07,0.218088585299886,0
2.61901730289364e-07,0.21417748490854,0
2.58919105931047e-07,0.212984117952891,0
1.79023309925329e-07,0.188068088399514,0
1.34834596491679e-07,0.176632743030934,0
1.76042342826064e-07,0.201799187043207,0
1.65946873099396e-07,0.209542648482857,0
1.26377714031945e-07,0.182689308069656,0
1.08489038854003e-07,0.178313877867539,0
9.61758250636025e-08,0.180085615507202,0
1.00191695199034e-07,0.180225456615346,0
9.16264279972817e-08,0.170820090249715,0
8.63560127592923e-08,0.160376821715253,0
8.14195904623008e-08,0.162528414364151,0
8.44711567971911e-08,0.165858097247465,0
8.26507129702548e-08,0.158590172429783,0
7.62224260744211e-08,0.143882568468584,0
1.3347244003466e-07,0.184654800789289,0
1.28413712019612e-07,0.176791290066704,0
1.47871701036106e-07,0.186113778407148,0
1.3462732862621e-07,0.180756808631755,0
1.4168194895986e-07,0.187198753571237,0
9.56648368558231e-08,0.159569605587846,0
6.94253437974918e-08,0.132375773488197,0
9.75820646114117e-08,0.158724167249645,0
8.7705574047514e-08,0.162643151692477,0
6.88646378181446e-08,0.158406113808248,0
4.88682605775411e-08,0.14831880117582,0
5.48352770371631e-08,0.155996892368379,0
4.28623537721594e-08,0.150560151705155,0
4.00481069335523e-08,0.142673179114215,0
7.01798386020161e-08,0.167090943631764,0
8.04946189432676e-08,0.167104338314334,0
8.66101258139719e-08,0.178547088188092,0
7.9037446300586e-08,0.168684816383194,0
8.98636567853638e-08,0.175000392142809,0
8.25067524005819e-08,0.16608689543304,0
9.92150171975695e-08,0.17393312668015,0
1.23672956774724e-07,0.183547758064279,0
1.24594503291716e-07,0.174335400129785,0
1.21993600935103e-07,0.174931048739855,0
9.06232338509819e-08,0.160169096155582,0
1.17411721591358e-07,0.182341657939479,0
1.33999227445405e-07,0.184983998701597,0
1.21202646431429e-07,0.174423453237853,0
1.19322651762548e-07,0.175526634197153,0
1.20749993742289e-07,0.17526441986513,0
1.14200505967767e-07,0.182069193574611,0
1.07230295361845e-07,0.175828340735345,0
1.16186675699929e-07,0.192068861821986,0
1.13394525648686e-07,0.188585346321175,0
1.18012754207643e-07,0.193390953594553,0
8.46783141787235e-08,0.18350968902871,0
4.3321193561761e-08,0.15104886296781,0
4.69782118704095e-08,0.15860440576924,0
4.3950510065872e-08,0.155009823391411,0
4.19025798130287e-08,0.152674389548457,0
3.85340350634097e-08,0.14227085167886,0
3.45814722237754e-08,0.140816954237682,0
2.92910593932219e-08,0.13083570944198,0
2.4058871597371e-08,0.114476414741015,0
1.28700417835653e-07,0.201870304164296,0
1.6033473104483e-07,0.209334096480471,0
1.58445455725256e-07,0.205112407637693,0
1.53154600958956e-07,0.204831206171451,0
1.41050864712761e-07,0.203155805961554,0
1.11831398910596e-07,0.189002207279438,0
1.13279180418649e-07,0.193145078770535,0
1.01874917976443e-07,0.187580153490427,0
1.03188019565515e-07,0.186997864453347,0
8.94915468861639e-08,0.187392379023801,0
5.47310906847444e-08,0.15267345872485,0
5.05645204594951e-08,0.149148480253657,0
1.34735160948544e-07,0.233267592396898,0
1.94573703064473e-07,0.255373555403651,0
1.89103311900844e-07,0.239770908846574,0
2.11161761338203e-07,0.231620825620773,0
4.20035068893112e-07,0.328874188002382,0
4.97940054841321e-07,0.334352766490177,0
5.02801348061278e-07,0.324537281900632,0
4.93558151423215e-07,0.313191988318767,0
5.23055705294348e-07,0.330995609612938,0
5.44482076129177e-07,0.34549691854337,0
4.75783495668069e-07,0.30783307865276,0
4.26346463783793e-07,0.292556578384726,0
4.58427021613775e-07,0.296858275937378,0
4.30279249998737e-07,0.304650703932598,0
2.09499530508788e-07,0.21185599136039,0
1.217493209508e-07,0.172540190826908,0
1.24819890522824e-07,0.179091932019805,0
1.29487173949728e-07,0.182068838273692,0
1.14775022439216e-07,0.177325951986188,0
8.9259972554595e-08,0.152659865490833,0
7.75818093846259e-07,0.312181133322122,0
6.82517834206197e-06,0.754038738167364,0
1.09908314401517e-05,0.827274556889752,0
1.46250680715124e-05,0.842502296072995,0
2.14310640819803e-05,1,0
2.38328248876451e-05,0.861979071275509,0
4.78913659170771e-05,0.812060284769234,0
7.65385399523439e-05,0.802967555482527,0
7.41782964690045e-05,0.567331854323723,0
0.000100155676441276,0.524501755286461,0
0.000121098436987868,0.532495026896095,0
0.00012474880416352,0.327393426218172,0
0.000105244405816946,0.290290384779677,0
9.2339260524556e-05,0.268613664101034,0
8.9383753343692e-05,0.267015147457238,0
8.37850846947376e-05,0.263473375537685,0
8.35692957556418e-05,0.269531624182637,0
8.80961789577374e-05,0.250587573677232,0
0.00011665122485745,0.339286869464577,0
0.000124351523040446,0.445077300827829,0
9.17245050299303e-05,0.426238729222081,0
5.8679105011184e-05,0.550727762689772,0
5.14884930932558e-05,0.52626683238813,0
5.01401406097867e-05,0.485092630427777,0
5.01116909960562e-05,0.452990384197963,0
4.79084645216229e-05,0.395584167064828,0
7.06395330953532e-05,0.315248015088918,0
0.000126373686229545,0.575766843707745,0
0.000143381335095291,0.436597729434236,0
0.000127171468640514,0.388904395708708,0
0.000112093619718495,0.275761753956361,0
0.000161036418504978,0.222747007774104,0
0.000155441629057529,0.130727218126803,0
0.000174057297267959,0.13983189354985,0
0.000200759543567419,0.152737155187165,0
0.000210709995172172,0.163639810571719,0
0.000221531286470147,0.200165735834398,0
0.000199262293981496,0.185277576023521,0
0.000191726079028553,0.201354293114634,0
0.000194735336534195,0.203896026405866,0
0.000194083518981996,0.253832120092035,0
6.41059575488634e-05,0.246147160441908,0
2.93987768122612e-06,0.250169771686269,1
2.83450915068358e-06,0.334469410763258,1
2.67954206074114e-06,0.345838297696023,1
2.45371289388683e-06,0.344105994009722,1
2.46618310535145e-06,0.343416758563489,1
2.5679029038806e-06,0.351672196378199,1
2.086309610395e-06,0.335476352840477,1
1.71770879151201e-06,0.343016953994134,1
1.7084651529382e-06,0.349865441647664,1
1.78557244486259e-06,0.343559438224029,1
1.63357914056352e-06,0.334470741270062,1
9.25318880530734e-07,0.259216705743512,1
9.06658143602313e-07,0.254485662661188,1
9.69827886897217e-07,0.262478276305068,1
1.11621921366391e-06,0.294082213139013,1
1.10355289321144e-06,0.299523373834371,1
1.34825481566892e-06,0.342641649023142,1
1.51587982928463e-06,0.367410880479099,1
1.49709756002571e-06,0.364517714452308,1
2.93985779411749e-06,0.49981152566794,1
9.31523393260938e-06,0.307852887254655,1
0.000117584527749191,0.344255459760559,1
0.000580083379612394,0.389823607189747,1
0.000986737426800456,0.378448190907727,1
0.00119113476767555,0.404660925487495,1
0.00116403668759259,0.277144313415746,1
0.00113807160879136,0.265075465844188,1
0.00104616882146727,0.255257652321485,1
0.00088826592506619,0.221282160495427,1
0.000605544939251425,0.141625282868037,1
0.000475153551173261,0.112451654363366,1
0.000551087579149182,0.120577193389675,1
0.000598238428468452,0.142961193950872,1
0.000599605459808216,0.130040713263168,1
0.00066807971114288,0.0692349736484911,1
0.000739574611319007,0.0735859575816803,1
0.000690676171833157,0.0712914212181813,1
0.000714205500108463,0.0655710663567388,1
0.00115051434466864,0.0704042946486892,1
0.00273660007295388,0.0900722624331838,1
0.00291405307468522,0.0417476967622857,1
0.00308077932533946,0.0424009978966652,1
0.00327375668223959,0.0343200717376506,1
0.00442529933593159,0.0410229309600305,1
0.00789304319736995,0.0589726062211847,1
0.00848588300117319,0.030115588097114,1
0.00818795061787294,0.0279517763758409,1
0.00773896403025753,0.0265350633080151,1
0.0078145070166907,0.0264469451411492,1
0.00766259146921862,0.0252203232779076,1
0.00729275025214876,0.0299792567905499,1
0.00600180731824066,0.0207620544640585,1
0.00668453026245056,0.0264826648599374,1
0.00706645482761334,0.0316897966194409,1
0.00440468215375888,0.0205903614036289,1
0.00315353743565234,0.026272988202012,1
0.00356134310298565,0.0247202403525667,1
0.00359445797530387,0.0216978087400429,1
0.00376840068216805,0.0237255379411617,1
0.0037048026683316,0.024022115365574,1
0.00190507778800177,0.0124056887537978,1
0.00192334746869308,0.0160504505668455,1
0.00191775804799158,0.0171969032294457,1
0.00189800449533038,0.0173100480811069,1
0.00189736976599723,0.0182208086733196,1
0.00189589654136434,0.0226554200432565,1
0.00194250012750582,0.0288937481723004,1
0.00166721086679221,0.0398900794190662,1
0.00135522202111176,0.0401483154280651,1
0.00127555059577444,0.0296044835663754,1
0.00123138968805414,0.0309527918479561,1
0.00100703744483494,0.0243858449998779,1
0.00274997297806699,0.0373048121222438,1
0.00412548880348614,0.0453551966902126,1
0.00424045937420723,0.04643034265222,1
0.00360074353816625,0.039405657239577,1
0.00319400006417489,0.0360550739725217,1
0.00308021182327219,0.0324385217118844,1
0.0028772829156731,0.0333774256907509,1
0.0025492978800241,0.0387682241412623,1
0.00250068565624754,0.0399851649165472,1
0.00286855016863363,0.0450852562852142,1
0.00332210758543136,0.0162500721444473,1
0.00616390100228304,0.0290864562689247,1
0.00715508583886968,0.0293848648322471,1
0.00680281837047071,0.0266224452739599,1
0.00673074723060516,0.0263767442767896,1
