Activity,Complexity,Tag
7.05463915330102e-07,0.187688672552801,0
2.43174760113668e-07,0.192333701404617,0
2.45655994002013e-07,0.195267439089643,0
2.41351892101319e-07,0.191829549681597,0
3.1677863449578e-07,0.206336340587296,0
2.79127694545412e-07,0.216009248732836,0
1.71276355010704e-07,0.194688704457234,0
3.33193465317553e-07,0.227748897396715,0
3.37228249859431e-07,0.214530568569299,0
4.03803594255516e-07,0.231469257024519,0
4.56333696300373e-07,0.23322451756339,0
5.04284470275308e-07,0.237186279003732,0
5.00552590014592e-07,0.229976727148253,0
4.91789046697354e-07,0.232588803562286,0
3.45091943548804e-07,0.206199642815403,0
3.99432474005141e-07,0.210541058391292,0
4.17184872910359e-07,0.200814574048198,0
5.92522291119777e-07,0.241529047951804,0
7.69934634754154e-07,0.27773708167757,0
7.32986532252886e-07,0.264267496648018,0
7.06817343904655e-07,0.269910771635414,0
8.13039251220528e-07,0.284652103704288,0
8.06003257473978e-07,0.277271416453637,0
1.08293365202088e-06,0.311432181270531,0
1.4961286784475e-06,0.357786982937462,0
1.52255661049381e-06,0.353512542545095,0
1.36080090400824e-06,0.346482538564089,0
1.4898118491262e-06,0.35325719513609,0
1.47286538086228e-06,0.342667064881833,0
1.56267929913686e-06,0.354864681281192,0
1.56087306909067e-06,0.356144041527017,0
1.03107295599779e-06,0.295023634455946,0
9.20752355690577e-07,0.272542768737462,0
1.00805860592497e-06,0.275130957785675,0
1.06469097734641e-06,0.272004976221526,0
1.22180826765794e-06,0.298734485059223,0
1.38460392477616e-06,0.317501261385992,0
1.157797191486e-06,0.28489168190027,0
1.22436647157666e-06,0.30254732840824,0
1.22677353434482e-06,0.303243240741615,0
1.09351431003507e-06,0.283209628777247,0
9.34647389861312e-07,0.267482547821476,0
9.63713294766913e-07,0.278288411998338,0
7.84257124709751e-07,0.260484126981465,0
7.31769939287893e-07,0.266351101571571,0
5.76935004745817e-07,0.218663173723975,0
3.62368683215791e-07,0.178615919344456,0
3.30720939149818e-07,0.178816001071518,0
2.44684927659172e-07,0.157893924664723,0
2.32116732416133e-07,0.157171985761625,0
2.59246724436488e-07,0.166882203952023,0
3.9918368198776e-07,0.195022250421463,0
3.77150038948446e-07,0.187882340763207,0
3.76645457638195e-07,0.189333598921586,0
3.62165762226615e-07,0.191026645575265,0
2.47019374257261e-07,0.179670114784287,0
8.99686358103866e-08,0.133333354204517,0
4.50452097514473e-07,0.210031167327392,0
6.00458289989201e-07,0.213640037531659,0
5.94703108647133e-07,0.208440907868672,0
5.94108340230581e-07,0.212646499912628,0
6.50779585404747e-07,0.219838310371063,0
1.19490249944325e-06,0.287765872822119,0
1.4863635917653e-06,0.297647796021513,0
1.60227454870306e-06,0.307135836024439,0
1.65214864046737e-06,0.30213233834738,0
1.68684719664647e-06,0.311224479375008,0
1.26042078875548e-06,0.282139015351259,0
1.07554204118449e-06,0.280514188932498,0
1.01460743380248e-06,0.280889192146553,0
1.24885693578761e-06,0.2823403551504,0
1.60117986382659e-06,0.296726298047189,0
1.46673156916876e-06,0.282359535826766,0
1.29764116302077e-06,0.289313377333519,0
1.26328998269593e-06,0.289483085936601,0
1.20474424516581e-06,0.293997086998266,0
1.17661379824556e-06,0.284743214309375,0
1.19896169670183e-06,0.2854296317013,0
1.22643066784587e-06,0.286652104468726,0
1.22123791195809e-06,0.286946391354961,0
1.23471062167932e-06,0.2867593293166,0
1.46365276795367e-06,0.318411997098534,0
1.10524532013962e-06,0.288442537349643,0
9.63753723469737e-07,0.27223729655414,0
9.5575630407102e-07,0.267341807731274,0
1.01553091867199e-06,0.276080539537398,0
9.79885397876729e-07,0.273539475037606,0
9.38460127527679e-07,0.277089945527965,0
9.4595078868599e-07,0.266427174849177,0
1.28306817060267e-06,0.299163536881066,0
1.1269636192969e-06,0.291994614583802,0
4.73226518785539e-07,0.19916111578489,0
6.14652341065826e-07,0.201504966882992,0
1.30141409396436e-06,0.283265963467914,0
2.16266690572818e-06,0.355322218013205,0
2.21115460397563e-06,0.33706074905285,0
2.25923552727466e-06,0.33727998662147,0
2.31790441685338e-06,0.338255478692916,0
2.49601524407655e-06,0.350352982396096,0
1.73444033209643e-06,0.292695129978095,0
2.60768243117784e-06,0.335283466967772,0
2.93955154548787e-06,0.333360864617446,0
2.21180643906116e-06,0.294250981938637,0
2.35292360374489e-06,0.294431457879442,0
2.85214733339664e-06,0.318412930809504,0
3.78267037358982e-06,0.236057209680125,0
3.4019251344952e-05,0.39346937579705,0
3.86324337886381e-05,0.258759284239077,0
3.85249828487563e-05,0.252703634273607,0
3.76616659962183e-05,0.242945666890239,0
3.90800914853123e-05,0.24626375019153,0
3.94390633800158e-05,0.243147095666652,0
3.79298171424519e-05,0.23735100680806,0
3.90545393011672e-05,0.235762778974601,0
3.57446047041086e-05,0.217006694193655,0
3.51139642105309e-05,0.239581906546191,0
1.40554988021449e-05,0.21601279099809,0
1.38453099761607e-05,0.399587603376397,0
1.52785479199895e-05,0.354955100887665,0
1.45447259130433e-05,0.374275886688664,0
1.17968361184903e-05,0.341218490807528,0
1.25647350125622e-05,0.334095971794572,0
1.51415070570156e-05,0.377992402463031,0
1.30761804945728e-05,0.371527086671749,0
1.28556885691688e-05,0.380939323148956,0
1.50156991536264e-05,0.385672400887597,0
1.49301935356178e-05,0.35104485579041,0
1.35182627621375e-05,0.358830721290282,0
1.48263415277625e-05,0.386541236547653,0
1.57673537949035e-05,0.354795465973595,0
1.70944609514928e-05,0.358018921881273,0
1.81234079797021e-05,0.328948810320963,0
1.73879266854949e-05,0.29537193370717,0
1.94452349922075e-05,0.284287686262066,0
2.13230238423935e-05,0.281000127253365,0
2.98008104017834e-05,0.325556094540195,0
3.20569427151263e-05,0.352471464624524,0
2.85934045485167e-05,0.323808181585236,0
2.03230976255367e-05,0.232071864971364,0
2.49214994909652e-05,0.235889431909937,0
2.52379225083711e-05,0.232484728116928,0
3.24338515813129e-05,0.20544301895746,0
4.53893523979547e-05,0.219575096879265,0
5.93792710237731e-05,0.24219543978784,0
7.18542810612069e-05,0.253968467411096,0
0.00012910098792489,0.282510305112219,0
0.000224490705387104,0.316894411348377,0
0.000200986039116321,0.18432181731875,0
0.000171757137343058,0.152765573997954,0
0.000167852645180682,0.124723573436105,0
0.000154222232419435,0.109489870311906,0
0.000140610673272759,0.107359434051484,1
0.000145863448835273,0.107307834186432,1
0.000151225695528851,0.102237056598425,1
0.000164445295447238,0.106438940229679,1
0.000152126070107873,0.103331992093665,1
8.98917707391416e-05,0.0817415896988359,1
8.24837110185199e-05,0.100296257933543,1
8.08567878671798e-05,0.0887483315826613,1
0.000209498172346681,0.137857607797865,1
0.000415160564221337,0.125176034749165,1
0.00132699637992215,0.151366307374648,1
0.00137193863145107,0.0866937453136127,1
0.00132953188359072,0.0740655715252746,1
0.00141134532232477,0.0651853461982675,1
0.00133090721130513,0.0606786322961669,1
0.00112793031187608,0.05157723495579,1
0.00100207634511136,0.0461618061112311,1
0.000906791572009449,0.0445666719223117,1
0.000921451316182573,0.0427742039264152,1
0.000943768864034156,0.0493987757570828,1
0.000478032852622364,0.0369313000381093,1
0.000646687484624389,0.0484775522595003,1
0.000755392693445765,0.0503389446665649,1
0.000703344449136756,0.0564761431333789,1
0.000612734458604564,0.0555846294045012,1
0.000724504725214495,0.0625460393567884,1
0.000678645663905891,0.0571279883517824,1
0.0010104689919325,0.0294898624444568,1
0.0020015085219757,0.0309627336210723,1
0.00208486869212958,0.027575567959574,1
0.00194535946636682,0.023917446034615,1
0.00288439507595386,0.0221484841267845,1
0.00423322432282433,0.0254551650136496,1
0.00394853277966034,0.0236068547225118,1
0.00368753236523139,0.0197721777674413,1
0.00371451680148198,0.0192734295763886,1
0.00348452855505828,0.0184243852339687,1
0.00329424371913089,0.0256214926922714,1
0.00303107338861881,0.0305542728294224,1
0.00254878164675808,0.0315144404274408,1
0.00201817765633552,0.0289003278293831,1
0.00161102839721736,0.046334679244603,1
0.00180585147367949,0.0638539419650371,1
0.00243320911040592,0.0738733130052325,1
0.00287578156308632,0.10554547331508,1
0.00266823123848895,0.10233592194286,1
0.00330093768247516,0.0803949580683873,1
0.00357726260790535,0.0769183703165083,1
0.00420875250930696,0.0753327913034138,1
0.00647433460821112,0.0607782082589587,1
0.00551811800423256,0.0416386853230543,1
0.00444052714647939,0.0383925034726611,1
0.00433333264446022,0.0322146412837111,1
0.00440182484753841,0.034071773492711,1
0.00445978621118247,0.0329649725807134,1
0.00452289324122719,0.0208666052610383,1
0.00540586672422468,0.0203737581446021,1
0.00537321674717337,0.0179736935370197,1
0.00862027756401177,0.016934341642632,1
0.00960974908827424,0.0115574249764141,1
0.0102212641526712,0.0127346581976229,1
0.0105895703687162,0.0127302764589692,1
0.0102952184890171,0.0137558272693534,1
0.00939641346792704,0.0121478779087554,1
0.00921775878524125,0.0121178764166517,1
0.00912350010412365,0.0150204654678521,1
0.00827005964113013,0.0143640504742769,1
0.00894800425515757,0.0166611422675457,1
0.00482959736625325,0.0182144262019102,1
0.00161925339351616,0.0219552788714211,1
0.00168816880270057,0.0179597513572979,1
0.00326467011073072,0.0271207841316532,1
0.00329748807230766,0.0174358524968559,1
0.00385046068944892,0.0113343709413524,1
0.00616891299592748,0.0173814370539974,1
0.0063606132457166,0.0198917991587436,1
0.00530899320930487,0.0188638418469359,1
0.00560365542019339,0.0212452075581512,1
0.00579887360838966,0.0217389014551583,1
0.00447400650048722,0.0145021962005504,1
0.00346295050664748,0.0126344952224911,1
0.00378236152240197,0.012942308938686,1
0.00338570209619567,0.0176828569883611,1
0.00450034498667195,0.0471522667136772,1
0.00382117116219236,0.0307614676608232,1
0.00406157006066947,0.0326744523572622,1
0.00384669398514755,0.0296388863373504,1
0.00464460206724137,0.0279441044619663,1
0.00415376047512495,0.0150101233841634,1
0.00462752094885027,0.0137544984812487,1
0.00443515208621945,0.0122073740979416,1
0.00476997367759774,0.0153997651046714,1
0.00451506233956967,0.0136981141349724,1
0.00356834212922697,0.011229609418199,1
0.00369945595777283,0.0147297234320569,1
0.00352737912190997,0.0149679332058848,1
0.00344726660189357,0.0156504520809106,1
0.00168607189650088,0.00875351776772097,1
0.00156382501669843,0.0169861604217658,1
0.00178752671940858,0.0274958572140076,1
0.00149991658542657,0.0171403746694595,1
0.00226065350991396,0.024678486899598,1
0.00237078865567558,0.0169766796621624,1
0.00268562481959502,0.0188136175523703,1
0.00267668085230677,0.0171480979981559,1
0.00282982297253116,0.0138136122134981,1
0.0032683940196952,0.0172018272411742,1
0.00364122538110712,0.0185796404956017,1
0.00344711274517815,0.0173800300815911,1
0.00304578720167261,0.0169995881977625,1
0.0030003843277395,0.0285257048931317,1
0.00190401916548898,0.0210028172303665,1
0.00172512395985498,0.0289059825647206,1
0.00164050495014111,0.0290169829305105,1
0.00156742594605827,0.0280127298569415,1
0.00136016963033898,0.031974659453081,1
0.00125226063947404,0.0247934876036726,1
0.00101383571517346,0.0250384032340676,1
0.000840485289182886,0.0261808844901968,1
0.000764757591948215,0.0273301763454729,1
0.000868910863301328,0.0244779971940179,1
0.00411583943785279,0.042572634008472,1
0.00580537291048423,0.0441753356616769,1
0.0111563699565965,0.0526324157278167,1
0.0112505499914476,0.0404172763931418,1
0.0114896589132662,0.0291305975067917,1
0.0169753358683644,0.0412287121700968,1
0.0222530636376799,0.0432074050562483,1
0.0345822648955253,0.0531371740682337,1
0.0304124475320963,0.0339582356512477,1
0.0235502378236818,0.0287367809777641,1
0.021800358432852,0.0277421406967522,1
0.0194560419618589,0.0230006181413659,1
0.0198082355169603,0.0197328235728459,1
0.01967754475924,0.019815834293752,1
0.0221624535443655,0.0126393290495907,1
0.0243767538920243,0.00909335329036354,1
0.0254100841255562,0.00827257774207665,1
0.025951320913025,0.00856553998453045,1
0.0271994882506753,0.0107708650907231,1
0.0408126093411584,0.0142836921728067,1
0.0518443585533692,0.0165343368479882,1
0.0524652192429729,0.0127450285447669,1
0.0491946312441862,0.0103778611207227,1
0.0345204795214486,0.00585510471840943,1
0.0328093474979227,0.00855544188603934,1
0.0296573734186948,0.0101912943995398,1
0.0274033457489834,0.011389129368209,1
0.0310200688547895,0.0119878358805695,1
0.0335303546651501,0.0138324264197428,1
0.0507147205127159,0.0189017305969921,1
0.0499436206112564,0.0115510948639046,1
0.0437034493724566,0.0128125027411635,1
0.0326488448528025,0.0108755747389445,1
0.0902443997889645,0.0184321154355787,1
0.0965524136961502,0.00623091167766683,1
0.092118990639814,0.0049419518075768,1
0.0888740555621486,0.00368664347206956,1
0.110194292254123,0.00516800411216785,1
0.12120156486357,0.00387423344269333,1
0.115626463663183,0.00321846354758048,1
0.12503026535542,0.00482684721221827,1
0.167497176120844,0.00798877573725385,1
0.198359802961359,0.0101303710178454,1
0.151717920352648,0.00983915319179472,1
0.139557374486087,0.0166844982449934,1
0.145961392390355,0.0219075473420141,1
0.100318943975745,0.016066280173725,1
0.0959279992826729,0.0188440233658919,1
0.0774986349763098,0.0348350265856726,1
0.025885635500785,0.0169425686137181,1
0.0149686743387576,0.0111912085643537,1
0.0161990517604438,0.0133799669404134,1
0.0188771965528733,0.0129225429399936,1
0.0186170498321772,0.0122272902640144,1
0.0210207625447641,0.0161008711783219,1
0.0136519818714941,0.00550037177106953,1
0.0136469802906579,0.00323063492554908,1
0.015410884354026,0.00218259003541633,1
0.020694038417808,0.00530140080368269,1
0.0215682731216237,0.00590310072239181,1
0.0194139345387845,0.00503909111735328,1
0.0195106605312337,0.00490753034830794,1
0.0236207555610607,0.00799054917897058,1
0.0234961259430412,0.00701616101134216,1
0.0207036839628803,0.00530934795186821,1
0.0198265693571157,0.00689967287129532,1
0.0185366363808003,0.0102882533286855,1
0.0157045018083975,0.0126145796480903,1
0.0118596124150007,0.00941984893778738,1
0.010475624784593,0.0104130643728791,1
0.0104502316315707,0.0112103536315387,1
0.00979179495309973,0.0159938703385279,1
0.00564928356270315,0.0109291273903489,1
0.004535377620772,0.0152809111939032,1
0.00506602845220065,0.016489649069492,1
0.00575451014660998,0.0209692614801666,1
0.004904641808614,0.0191212070663909,1
0.00484399165898452,0.0189997312561234,1
0.00495576259546696,0.0232223585713798,1
0.00706936783152236,0.0306803212838432,1
0.00735733004119534,0.0329357973564557,1
0.00589361158655126,0.0295873768344819,1
0.00735266765375492,0.0249960903751843,1
0.0186697571960465,0.0363015981076694,1
0.0274517711111469,0.0280426874902797,1
0.0273657208563132,0.0219525939618522,1
0.0410789414582404,0.0257025705142819,1
0.049717777203301,0.033464406325954,1
0.0507215644768103,0.0326412611304729,1
0.0440423746724733,0.029613517008871,1
0.0332102937250328,0.0210008496737802,1
0.0199747477530082,0.0111010932290658,1
0.0154754061611803,0.00713946803118047,1
0.0151459578050171,0.0076451121196847,1
0.0381004006141821,0.0141512555412445,1
0.0636303764224445,0.0221433631353577,1
0.0669738992703988,0.0229668052109845,1
0.0639454065418218,0.0216221774985994,1
0.0611665302785459,0.0196569177198529,1
0.0718449724996354,0.0160618733605534,1
0.0905961326468686,0.0185105252724684,1
0.0887834042012358,0.0179965679144328,1
0.0896353154043844,0.0181385751646537,1
0.0934868272359084,0.0153515185660426,1
0.120575629849299,0.0261851062307004,1
0.112873430000373,0.0114893575178414,1
0.125703794899621,0.0113364600731204,1
0.126796623253989,0.00974115472826755,1
0.125222529321117,0.00854514950114969,1
0.155809181323111,0.0131843679622697,1
0.123085439988293,0.00808434658174476,1
0.124024205769253,0.00736027414945733,1
0.135791737485057,0.00842733417324745,1
0.136714822079316,0.0102572598046692,1
0.10758254977544,0.00751688873986802,1
0.0943269795698443,0.0106056956937146,1
0.0966245282711947,0.00876492614805689,1
0.120510574201182,0.00796737008297949,1
0.160416984652782,0.0131061599036456,1
0.130754089441272,0.0131114539439584,1
0.140770685810511,0.0155360010805144,1
0.152788188405019,0.0185271179967267,1
0.167300552238469,0.0205107973289258,1
0.167640588771763,0.0204125965085194,1
0.163321726423974,0.015855117820789,1
0.14249258559982,0.0155867389421823,1
0.0439277199723234,0.00339317305379257,1
0.0450026659302255,0.015779089360887,1
0.0515451243470889,0.0160863774921378,1
0.0500782625004682,0.0142322668292553,1
0.0443292208743944,0.010477283713033,1
0.039942209568812,0.0062996130686608,1
0.0391142281621356,0.00586481376512886,1
0.0348034829415794,0.00255427831737482,1
0.0349069019592714,0.00501136212651142,1
0.0309866667418398,0.00506634943598732,1
0.0303639540058959,0.00505918941960835,1
0.028732321261629,0.00566354409027936,1
0.0239390917953001,0.00433651453701696,1
0.0252212093428,0.00589161305170371,1
0.0233991003627084,0.0063748771315202,1
0.0216535386938983,0.00969118111712552,1
0.0199312599773982,0.00952037381327855,1
0.0183535062892263,0.0146942282051648,1
0.0127953062116475,0.0114342349679224,1
0.0122055628402847,0.0126748782435083,1
0.0252956876012366,0.0141637451407317,1
0.033799670423144,0.0107225835534745,1
0.0334607733633537,0.00989902479485032,1
0.0280999920586463,0.00807983030224047,1
0.0230165178312623,0.00694274460174388,1
0.0229829915675196,0.00687991768851199,1
0.0229993559221729,0.00699513998909619,1
0.0209524845859773,0.00653599480029907,1
0.0230329249773651,0.00808271103350685,1
0.0311141671959827,0.013058185089422,1
0.0283621713193154,0.0194287220965284,1
0.0298001727308939,0.032303957746116,1
0.0309918872655602,0.0234757250588074,1
0.0278207446016881,0.0193924214728726,1
0.0347949147385586,0.011247110536849,1
0.0407964823973761,0.0125878111679608,1
0.0455752138881444,0.0132305868376709,1
0.0382055136144258,0.00686959264441813,1
0.0432476154557805,0.00638215220366317,1
0.0478751312243145,0.0061558025612072,1
0.0480765872385489,0.00557970092072673,1
0.0636913427360367,0.00972549614897934,1
0.0645083635836421,0.00800197991900886,1
0.0537202570129228,0.00556912752751295,1
0.0507544656824859,0.0073638331850347,1
0.0552050712715258,0.00856427180223367,1
0.0529882076309075,0.00674813995815289,1
0.055723986133181,0.00916635538717565,1
0.0407182690375997,0.0073273179834878,1
0.0417197146025829,0.00822776785092454,1
0.0504278323288522,0.0137730284461625,1
0.0355518542385282,0.0059600784610818,1
0.0366319910503032,0.0127132566662336,1
0.0453572399010706,0.0156009510450524,1
0.0491236858692488,0.0183930152807654,1
0.0490867568074225,0.0191307380647776,1
0.049735167933095,0.0245148554129801,1
0.0502086335932556,0.0198422988639084,1
0.0569645474659618,0.0228930420872458,1
0.0565234336673512,0.0237583804130182,1
0.0431239517900284,0.0196685345477749,1
0.0409196409122398,0.0208696287450562,1
0.0623368326252651,0.0205846469464192,1
0.072533866799434,0.0247337920308113,1
0.0933095720863788,0.0274744109548435,1
0.112709326764717,0.0295334304135955,1
0.110122711613493,0.0272891147607454,1
0.11611212574883,0.0346383446412613,1
0.123359248383244,0.0386745831422542,1
0.106969532216866,0.0358164738426222,1
0.0718214400950761,0.0250464955851969,1
0.0259285034480916,0.007942466122043,1
0.0327597938664483,0.0190826645275858,1
0.0343796494423831,0.0124103722924,1
0.0363062459118497,0.0123020758839678,1
0.0479471846579433,0.0147098778073793,1
0.0418922300685686,0.00970087367328045,1
0.0385919139682252,0.00774110396370645,1
0.0318119852026917,0.00455540420778666,1
0.0371759816567468,0.00673748413762382,1
0.0495758703509848,0.0103772086119102,1
0.0536297521424603,0.0107448060880448,1
0.0444250700691956,0.0099591535877495,1
0.045492582958648,0.0125645259329762,1
0.044997234786647,0.0183185880435375,1
0.0252878059128871,0.00763672593779371,1
0.0345422340733347,0.0153702499803424,1
0.0309978492824783,0.0105628192552314,1
0.0323914340220399,0.00593613399286879,1
0.0770315716880964,0.0129537597563194,1
0.0864174502300249,0.00756125160365971,1
0.0801406134977961,0.00709135553612333,1
0.0801369372051358,0.00669573065942456,1
0.0725704036760977,0.00539799310966812,1
0.0710076979079781,0.00557530376632014,1
0.0739181058901536,0.00575885386436389,1
0.0726998720527067,0.0055394847976856,1
0.069016514977931,0.00675944779306374,1
0.0720349921562372,0.0105640517666467,1
0.0505480868971071,0.0107758698422004,1
0.0380556106333195,0.0149354926594827,1
0.0720808702750143,0.0197819350019727,1
0.0854642347136539,0.0128073290093965,1
0.0789235469912508,0.0131361507538908,1
0.0565237302597789,0.00889053266586517,1
0.0433711756571739,0.00644118228893294,1
0.0437667838520509,0.00683264653876634,1
0.0422147595257258,0.00645713139486974,1
0.0395190387363282,0.00635703891367888,1
0.0387220509080731,0.00722614591699252,1
0.038003736363204,0.00774937706738576,1
0.033091449543797,0.00974226558602857,1
0.0662695865431003,0.0595667445950506,1
0.106573427110159,0.0480647779482972,1
0.108610899875096,0.0234644016802738,1
0.105680369422422,0.0233301300557216,1
0.0946149467478939,0.0188155319124797,1
0.0865271129251878,0.0165576324960622,1
0.0927195275095178,0.0143245719147364,1
0.104779272531134,0.0164765036527186,1
0.111339939086452,0.0179379890381281,1
0.110447250811167,0.0158860206123599,1
0.0943250548428037,0.0133126233891107,1
0.055884867694608,0.00767461488071394,1
0.0624239615301742,0.0155489688601768,1
0.0610600238725823,0.0126822687011441,1
0.0740725175291798,0.0147730206301415,1
0.0721092193713996,0.014577665997608,1
0.0610289064008678,0.0164310212459741,1
0.0380993989742547,0.00928443023393004,1
0.0436004316614199,0.00752617897951821,1
0.0433624465981407,0.00688947204840364,1
0.0529601221145816,0.00884931464187365,1
0.0600854769693807,0.00622764548550209,1
0.073218389193577,0.00978235821741773,1
0.0907963035152081,0.0159140764632607,1
0.0866677714106885,0.0166921450262539,1
0.106577054685143,0.0208707499755106,1
0.122711453040517,0.0230197149881046,1
0.114007330805667,0.0175092292593898,1
0.118078832022468,0.0182337923434734,1
0.11226083476998,0.0245499678375164,1
0.0419934950039235,0.0065550831847237,1
0.0216586546254545,0.0104518045396659,1
0.0297889653931551,0.0141277727209821,1
0.0343770354866612,0.00617892964305876,1
0.0439370686307714,0.00810839978304056,1
0.0439679579012734,0.00767027710527904,1
0.0388669682818791,0.00532631084086038,1
0.0425858201684202,0.00841420033439396,1
0.0438693721867839,0.0112944220715572,1
0.0537761240321475,0.0138309077905207,1
0.0554955977579751,0.00910700838032407,1
0.0682486903807747,0.010227401395173,1
0.0608715722982648,0.00383244722525745,1
0.0608705502034352,0.00747095759557186,1
0.0619165155429573,0.0068084592709864,1
0.0614694857040379,0.00613789126639654,1
0.0606342448770323,0.0058258278945359,1
0.0605294800823642,0.00572607458163471,1
0.0572754108974894,0.00534827747709412,1
0.0444571210066934,0.00344894934760911,1
0.0383828245504339,0.00434786837228003,1
0.0304560073423251,0.00303606505634335,1
0.0263004482480128,0.00654550338784967,1
0.017399222388405,0.0031573081896893,1
0.0157140181372713,0.00528053784888124,1
0.0154125220574909,0.0080369617223553,1
0.0143052718803107,0.010403758965309,1
0.017741300363606,0.00952481611873135,1
0.0274513345309148,0.00846859502887733,1
0.0300481133347211,0.00865451257198792,1
0.0335613890574353,0.0126200318066036,1
0.0349396457324682,0.00818923362754778,1
0.0415146197595677,0.0127837780950869,1
0.0819891598136503,0.0191378601487437,1
0.106413091348037,0.0136001276193944,1
0.100807185923123,0.0119000360359944,1
0.116206133486968,0.00669950469430198,1
0.188508873998272,0.0125943862558111,1
0.191948057754918,0.0116202359021983,1
0.171033577301969,0.00848542640228664,1
0.168524146806688,0.00875238668668249,1
0.164413507116245,0.00968259530852961,1
0.156078985773158,0.00480377778524895,1
0.172769295626568,0.00758920998833489,1
0.180523793587535,0.0109293693535022,1
0.146253894633109,0.00865174648673,1
0.139015401963556,0.0158346842669201,1
0.115748579759241,0.0150263445825167,1
0.125184167168134,0.0192925948417132,1
0.12203582213674,0.0246362427948967,1
0.0861596605348909,0.0190783900482402,1
0.0603347214111581,0.0114684896132647,1
0.0576897228812758,0.024335638332738,1
0.0821030679127468,0.0178419655832607,1
0.127040507512958,0.0243233580311117,1
0.121705932623193,0.0171719559349786,1
0.11714648174874,0.0139099520201042,1
0.116683105298236,0.0117714689379975,1
0.0776296739483135,0.0073637510923416,1
0.0606113691663111,0.00544012445868652,1
0.0905023433568299,0.00501867783446104,1
0.177792835555149,0.0141530348782706,1
0.20584661309167,0.0136857692804464,1
0.196250725494183,0.0200355304119657,1
0.138536480240498,0.0134587273151609,1
0.128142928909353,0.0143572137015381,1
0.124642141069486,0.0135256648851208,1
0.0958558008379734,0.00941724386339328,1
0.101058263989591,0.00912931244208423,1
0.0710210307911432,0.00512218280542635,1
0.0751027688472078,0.0114726065468538,1
0.0760080419928652,0.0101446205534562,1
0.0732565394404469,0.0126171998103051,1
0.0733348584099468,0.0118392713857068,1
0.0694029258419492,0.00382925322947732,1
0.0952239761872234,0.00720614855012913,1
0.0921219926680108,0.00908327128143951,1
0.0660152317204721,0.00673270331006463,1
0.0669049791022896,0.00680691706625214,1
0.0693332331845777,0.00518625516994438,1
0.0795245156098014,0.00695941191138084,1
0.0836064165604179,0.00836191416487956,1
0.0906920251139098,0.00927468810311518,1
0.0957303038499683,0.00930990393871929,1
0.0862707080462293,0.018515152044832,1
0.0359614388818093,0.00884941036278712,1
0.0340285157170185,0.00753093753217078,1
0.033795810241462,0.00763885422706727,1
0.028494657537653,0.0111713102167071,1
0.0201824809308752,0.0160916013958607,1
0.0169673233709255,0.0155600737714841,1
0.0173275989309797,0.0154536203858603,1
0.016500459674553,0.0117100980164331,1
0.0163318058250019,0.0175627366186075,1
0.0141430138117396,0.0132659233734118,1
0.0132402669182641,0.0108082129041622,1
0.0130114172330551,0.00964714899818792,1
0.0150260477961354,0.00983564122007611,1
0.0148523474381081,0.00872153705914524,1
0.0148364401263638,0.00726783578288856,1
0.0161316538306468,0.00659487847907834,1
0.0132007397461241,0.00459828725614124,1
0.0134561608156127,0.00459856228683927,1
0.0288561968532419,0.0127733149388002,1
0.05253802235288,0.0258154743555572,1
0.0724001919520433,0.0340988846956615,1
0.0702376373670477,0.0309272394381878,1
0.0867083169812307,0.0335557643832338,1
0.0879487811632166,0.0225088672775626,1
0.0793286939083047,0.0219636409212964,1
0.0519037841477561,0.0149824600906193,1
0.037979909175246,0.0100435006934177,1
0.0334990270666521,0.00971292889999804,1
0.0357416973944537,0.00862662656329441,1
0.0604458033605985,0.00807559047624648,1
0.160466699916345,0.0208384279609083,1
0.169466087887979,0.00890532825331142,1
0.174968000407899,0.0102533876380991,1
0.171284715352348,0.0125399304764067,1
0.18299228311303,0.0113941988458433,1
0.198318753461342,0.0110849847465225,1
0.183544845731966,0.00983951151925226,1
0.173269896814216,0.00634706664774858,1
0.21129401090262,0.00972469694073785,1
0.217964864632486,0.0149439789267184,1
0.142420660072189,0.00391962213657476,1
0.245017122348158,0.0159736485516972,1
0.281092326614655,0.0126584086480772,1
0.292573857592385,0.0139589776276968,1
0.300204564696568,0.0180890311582184,1
0.337027633468031,0.0198291139059918,1
0.382874288880087,0.0180272684935955,1
0.330296415175492,0.0192227756802538,1
0.249809524019381,0.0114705456213236,1
0.179218616015635,0.00494799724731031,1
0.125790743117773,0.0032728275633672,1
0.136326783805758,0.00568302291627769,1
0.143816580406835,0.004033307423591,1
0.323162838877766,0.011824506330878,1
0.423716198449047,0.011946988868023,1
0.423495155348563,0.0105704249691955,1
0.439979343152542,0.0103688924064348,1
0.541163471954829,0.0126909528006427,1
0.57525894053294,0.0171567352620469,1
0.673764577369554,0.0203791639749126,1
0.693452757359337,0.0211898317953372,1
0.718541922734779,0.0216391691008021,1
0.700068523579219,0.0290238004152547,1
0.444545388349292,0.0219423812433576,1
0.227758473424936,0.0119935021044577,1
0.145444902275604,0.00671166811711801,1
0.134063560385017,0.00840377502659747,1
0.117549507245184,0.0100302405418455,1
0.138919254816834,0.0109451044804453,1
0.118749094962311,0.00616195715712301,1
0.128453388214945,0.0056174613845814,1
0.125349442123072,0.00625595568892803,1
0.148159217933388,0.0080529278504239,1
0.162612304031723,0.00680605828733638,1
0.150436765423914,0.0066496048659733,1
0.156651703845262,0.0070327355720997,1
0.235227100355392,0.00733501223717993,1
0.218820090914007,0.00390967559649127,1
0.229843239650052,0.0048982933791244,1
0.224601331868955,0.00430685129892312,1
0.24001457467832,0.00627589399879775,1
0.244674841219503,0.00584820909641259,1
0.25846690447076,0.00513446510513522,1
0.364595211561733,0.0104974068607481,1
0.369813782691872,0.00972120872170035,1
0.398999810129472,0.0102661029840142,1
0.317996968282622,0.0122348189202553,1
0.312156991147473,0.0146490350105983,1
0.211096358126084,0.0117299150804969,1
0.162742025454071,0.0118822823099756,1
0.158956843407512,0.0107711700785769,1
0.123914792593513,0.00880432580672686,1
0.0943659481068764,0.0129998200293599,1
0.100197250493201,0.0153901033619578,1
0.0481748638794927,0.0138526493989002,1
0.017758482713914,0.0202612315244786,1
0.0196009037065473,0.0208860797439726,1
0.0170206240129472,0.0236427992131267,1
0.0116399667867429,0.0285426164863409,1
0.0128400031623331,0.0349791726388554,1
0.0114024115284671,0.0420438842888465,1
0.0112324760877925,0.0475328159503078,1
0.0106966541848773,0.0438253268958907,1
0.010443420930658,0.0429121329237472,1
0.00459323946092282,0.0279889516105034,1
0.00155380636507948,0.0198647423556486,1
0.00154103709721646,0.0163619711445344,1
0.0013742636985901,0.012992422168512,1
0.00170004245848576,0.0130420696622683,1
0.00180892205231841,0.00945712627155816,1
0.00188314044671533,0.0110621729741946,1
0.00186336276245693,0.0128394782182576,1
0.002177305777495,0.0163498482235613,1
0.0027102802888917,0.0220948883456173,1
0.00318736132498708,0.0285168067387547,1
0.00350902958733215,0.032698253725318,1
0.00276316962686178,0.0367128381446725,1
0.00261533221146924,0.0460993953173211,1
0.00136360529929028,0.0574337350119389,1
0.000624619375338442,0.123936545308534,1
0.000454934803472563,0.111116809564621,1
0.000150020464895291,0.0911909238515431,1
0.000159479417509467,0.141293350473172,1
0.000168232844165804,0.147160771834025,1
0.000182278665735947,0.142396887049807,1
0.000238870110870537,0.143588776390339,1
0.000237283476476512,0.134264071931317,1
0.000263716916778084,0.156733288430556,1
0.000298011242995619,0.108456666147502,1
0.000289393187030344,0.0671916449426409,1
0.000332806089149215,0.0793724907720306,1
0.000372635088300943,0.0854126513971653,1
0.000398280705510721,0.0642855835466737,1
0.000468628607662365,0.0607804728223116,1
0.00047561790065933,0.058836281751968,1
0.000418334514699515,0.0477116384605279,1
0.000686449691049695,0.059736945017458,1
0.000824300487883999,0.0608190061404883,1
0.000792239517070617,0.0626282434039065,1
0.000762395662384431,0.0725532195774308,1
0.000699053439915978,0.0652628833737084,1
0.000754337862407057,0.0675934424431669,1
0.000871363530734741,0.0977598463930081,1
0.000911368019067809,0.114462728919923,1
0.000939897226723616,0.123971267006362,1
0.000929646110529913,0.158126483303714,1
0.000641565684375465,0.266395539440737,1
0.000255674175559542,0.197553107910586,1
0.00018927249234545,0.261479263244113,1
0.000102991512615235,0.24624001329857,1
4.79000850893145e-05,0.287122689350773,1
4.94716725421287e-05,0.326294481199218,1
5.11751763643388e-05,0.325025367244795,1
5.28254243892884e-05,0.32451634036827,1
4.41314860812378e-05,0.51311482124429,1
4.82820638703303e-06,0.249396219762526,1
5.59675525025037e-07,0.204615814033756,1
4.76205958688689e-07,0.19233565261778,1
4.77021374525655e-07,0.192250597724054,1
3.86253805349453e-07,0.183173951204716,1
3.26091075201366e-07,0.178987456795993,0
3.07552182531203e-07,0.172868312992008,0
3.12194641575534e-07,0.179638080610629,0
3.00805098514838e-07,0.175609981047384,0
3.14549458020046e-07,0.198334463380493,0
1.25843978231709e-07,0.155111152081164,0
1.34225781297278e-07,0.154477306127005,0
1.35633166640601e-07,0.150292795974283,0
2.37712531372066e-07,0.180892894504585,0
2.80052734365037e-07,0.194230460861596,0
3.13044421809901e-07,0.180592175543555,0
5.28246406944337e-07,0.219507935886995,0
5.21097368324891e-07,0.216464531382451,0
5.45256783657715e-07,0.220673565292647,0
5.37253299953576e-07,0.215098990861729,0
5.16862306209021e-07,0.215700183656622,0
5.19355824203224e-07,0.219688802084041,0
5.94164473929503e-07,0.235007039566267,0
4.7847603035228e-07,0.21442672970357,0
5.34012628432177e-07,0.208198651130536,0
5.4762652762327e-07,0.209690797712972,0
3.9522415703114e-07,0.18490852552151,0
4.17011962458279e-07,0.183002104248518,0
4.46595821245066e-07,0.187132538693317,0
4.91733068493443e-07,0.198965907675254,0
5.19687184071373e-07,0.203038196473547,0
7.29356656719296e-07,0.234905963639894,0
7.53060316175281e-07,0.236337510883116,0
7.83557397160867e-07,0.247635965683879,0
5.35204497690442e-07,0.223959040929028,0
4.30307563362135e-07,0.224250878139323,0
4.60749132628844e-07,0.22415972362234,0
4.44377840410113e-07,0.231844584786948,0
5.9383964485181e-07,0.265607815465241,0
7.28117827967749e-07,0.290081003487897,0
6.95796013029683e-07,0.278922377244789,0
3.45382408229097e-07,0.203820624439182,0
3.1199762939677e-07,0.183229585303229,0
9.21730108318885e-07,0.267294156725331,0
9.56305978934423e-07,0.269802986428102,0
6.91876139300833e-07,0.230761214839613,0
9.50404165797111e-07,0.2758585268664,0
1.22046339130898e-06,0.292718519175091,0
1.23816867522591e-06,0.288047868296473,0
1.23091654341426e-06,0.291002185235465,0
1.21372361555813e-06,0.291055088074833,0
1.26978469830966e-06,0.293482175374639,0
1.43231352598925e-06,0.335355904070591,0
9.36072501635873e-07,0.282088725998416,0
8.4643957955394e-07,0.268392511982484,0
8.74673586151423e-07,0.269233216193839,0
7.30669034610982e-07,0.25549709045773,0
6.15647509135351e-07,0.24060124132403,0
6.15343516389114e-07,0.253470575241932,0
5.66502533476986e-07,0.243404155028517,0
9.6219068762054e-07,0.269459777324578,0
4.38446794210759e-06,0.531798160550645,0
5.29395826064638e-06,0.517542811485428,0
4.50232616306639e-06,0.462232212674609,0
4.8800181021277e-06,0.461447368044444,0
4.79724297650986e-06,0.446889618174009,0
4.35250625361468e-06,0.413257222290241,0
4.19663789923041e-06,0.408453472254228,0
4.11700330634698e-06,0.401663772089946,0
3.78726447368577e-06,0.377609576853043,0
3.67765526305326e-06,0.387206430584197,0
1.96585687047864e-06,0.306025160706275,0
1.16808100952445e-06,0.247397085774025,0
1.49179969734507e-06,0.289795440576938,0
1.19023142931692e-06,0.270830016369497,0
1.14718248006443e-06,0.264176396973823,0
1.11348282383511e-06,0.254827966079496,0
1.21194599659394e-06,0.256883175147386,0
1.25329165349743e-06,0.257188089503878,0
1.09132307434198e-06,0.243717796157754,0
8.47310973594817e-07,0.22559132519792,0
8.41988534867982e-07,0.224936356695349,0
7.1916318128216e-07,0.21629662931169,0
3.85200326650856e-07,0.163875072267486,0
4.67731480596644e-07,0.180188373927755,0
4.2750352183124e-07,0.1829127765353,0
3.70282135308641e-07,0.182953160848118,0
3.7898985591698e-07,0.196682289164495,0
8.99416729755029e-07,0.277366373000751,0
1.40661035618858e-06,0.300590741696668,0
1.96404053325675e-06,0.336492799509771,0
2.23631229727819e-06,0.35513704892354,0
2.27582808889384e-06,0.353873439845613,0
2.53048646654978e-06,0.367331793404742,0
2.63789075792825e-06,0.387024649908442,0
2.48177423350665e-06,0.377999676901894,0
2.44257471874309e-06,0.368585637749118,0
2.55952173893824e-06,0.369119835830898,0
2.28840063799719e-06,0.359694216871509,0
1.86665416344814e-06,0.356977466530217,0
1.19166898069235e-06,0.31895250165087,0
8.12031488055123e-07,0.265717191877586,0
4.90131936366585e-07,0.209233890708577,0
6.98431808958825e-07,0.245180792649224,0
6.56032673356737e-07,0.22245498857252,0
1.06504317354602e-06,0.255469772449119,0
1.16731519659594e-06,0.246231673583009,0
1.17805306006611e-06,0.235176691012902,0
1.18462116932497e-06,0.235471019032526,0
1.16627975531861e-06,0.238098373830839,0
1.19377795952469e-06,0.240766104287443,0
9.53979307086878e-07,0.216682920638338,0
8.78191660772202e-07,0.211370660477337,0
8.22502055601617e-07,0.208110609479786,0
8.31290478120593e-07,0.214588660590503,0
5.27243153134247e-07,0.183305846472151,0
4.33686780938214e-07,0.187869990168787,0
3.43753908980327e-07,0.192049821756804,0
5.87602428976065e-07,0.244638146157162,0
7.77950869049184e-07,0.260415493105708,0
7.16866208981688e-07,0.238139193658575,0
5.35294684796743e-07,0.207455696927971,0
1.81099363584459e-06,0.309855435938987,0
4.98557433530206e-06,0.451211646501578,0
6.12682856807734e-06,0.331456269401379,0
5.52392511904231e-05,0.382868144503422,0
9.61127126625438e-05,0.272572945159493,0
9.39352140206995e-05,0.24375221586955,0
9.34902798191405e-05,0.244549012763923,0
9.45193669483546e-05,0.244262814592061,0
9.23121322181078e-05,0.238113531500226,0
8.88326004566608e-05,0.226628612134344,0
8.70535140860553e-05,0.2256223932804,0
8.70971119326962e-05,0.226255566541506,0
8.62142005318592e-05,0.243180979607489,0
5.61673038813786e-05,0.30107436555926,0
2.2086535444734e-05,0.314784499652617,0
2.15437769994158e-05,0.345270078082955,0
2.2773748755144e-05,0.344212510601667,0
2.57620817289549e-05,0.364446173554196,0
2.83938223482135e-05,0.380117357528547,0
3.31229679951609e-05,0.467271677800868,0
3.4361740768504e-05,0.475193462284186,0
3.37259149827989e-05,0.507703326915449,0
2.64138583483693e-05,0.444732515875178,0
2.450145459832e-05,0.510099790958038,0
8.40181776138759e-06,0.475078416262587,0
1.04414200067082e-06,0.242757270819103,0
8.03920868288499e-07,0.254655280418643,0
1.01841068627318e-06,0.261244160187782,0
1.57569858540641e-06,0.290973203764363,0
1.85006020237386e-06,0.249992713829054,0
2.04385550035278e-06,0.238338638254854,0
6.49527104191246e-06,0.346474040032001,0
1.66597603430837e-05,0.530420036562726,0
2.14682725095159e-05,0.599683767490905,0
3.1151409433624e-05,0.600786333329944,0
3.58644619689271e-05,0.466569903409666,0
3.20966538084756e-05,0.436025138123892,0
3.18322314326025e-05,0.428400967568063,0
3.59997488481785e-05,0.454673302232631,0
3.47828523569237e-05,0.452947180964894,0
3.36972036065182e-05,0.460954686282154,0
3.6888794682689e-05,0.55621651590411,0
3.67741098039119e-05,0.554257226885326,0
3.35825062881402e-05,0.522905533694627,0
2.05229920598217e-05,0.53957758808074,0
4.78164511647517e-06,0.36048065485312,0
2.31464461944564e-06,0.252385647613277,0
2.61085872776474e-06,0.284591555694327,0
2.84986839851743e-06,0.316346719480318,0
2.51827466587164e-06,0.345463224597123,0
2.66827883691122e-06,0.37343700045813,0
2.73916699092861e-06,0.381149458490358,0
3.01123427901077e-06,0.419251240032306,0
2.17805391452815e-06,0.366330192586482,0
1.71175050011127e-06,0.319771562218513,0
9.58314507989743e-07,0.252118232175559,0
7.98621131833249e-07,0.237046094354563,0
9.0796833337246e-07,0.250276190919627,0
8.55765392830459e-07,0.23632392243068,0
1.06998169509103e-06,0.256718967603877,0
1.31015680095014e-06,0.280285834015985,0
6.97344665590375e-06,0.259120702746232,0
4.43167796894977e-05,0.560062841470257,0
7.60649082245846e-05,0.710020025579083,0
8.01858401123811e-05,0.521312081153752,0
9.70317085465917e-05,0.40239642615636,0
0.000107191646819785,0.275392685544419,0
0.0001046944412614,0.252409521503415,0
9.79883088775817e-05,0.233917545621494,0
8.15984015736254e-05,0.219229305224581,0
6.44494718082923e-05,0.182574538635833,0
6.11556458723792e-05,0.163099705166089,0
6.95683496839822e-05,0.156085961420657,0
6.74197277096153e-05,0.139605268213244,0
7.14846059784207e-05,0.154126359440215,0
6.70576146601974e-05,0.188631206465276,0
5.41935421110328e-05,0.211393415205704,0
5.47286043307883e-05,0.224706918024323,0
5.51518392035814e-05,0.241542999033924,0
5.61079209587101e-05,0.24709336653092,0
5.84716379376441e-05,0.266160679363698,0
5.43543936140303e-05,0.447338757948582,0
7.73991141949049e-06,0.285199197855263,0
3.14586496931633e-06,0.420209121034093,0
1.95578390367493e-06,0.347352493942076,0
1.60985850686789e-06,0.3450650817179,0
1.61179830712841e-06,0.329008927869154,0
1.58151907465305e-06,0.337194414923971,0
7.84146878747049e-07,0.264033346685946,0
6.69436343293145e-07,0.268115482396366,0
7.0160515114052e-07,0.267294399234139,0
4.66176530488012e-07,0.226364096736665,0
4.47517751164473e-07,0.21833603856756,0
4.70879321596559e-07,0.235070093893892,0
4.35043163917974e-07,0.234690960730315,0
4.49985612481883e-07,0.24322373117873,0
5.8346890510229e-07,0.289864562825703,0
4.00703179233915e-07,0.241499800639079,0
1.60115078625956e-07,0.178727300827841,0
9.64722146397396e-08,0.142109080196042,0
2.03043394849012e-06,0.403924960483668,0
4.43413227110223e-06,0.457674598318973,0
4.5909796220749e-06,0.429636333307745,0
4.70452565539245e-06,0.419456906203976,0
4.71849408320831e-06,0.410982681259489,0
4.70464880744105e-06,0.397391485964909,0
7.83898786457217e-06,0.423667510661105,0
1.24816765750346e-05,0.423223566981355,0
1.16262089551499e-05,0.382171710163313,0
1.10611581230943e-05,0.362788825518142,0
1.11726192793062e-05,0.350959943737111,0
1.14292743683967e-05,0.379307462538661,0
1.11500538433298e-05,0.382602039575432,0
1.16079555513197e-05,0.3933244719858,0
1.2693414131327e-05,0.409046462318625,0
1.27994461792346e-05,0.410721263760193,0
1.03365712758333e-05,0.453648301611994,0
4.54103198117045e-06,0.376847848875127,0
4.47720314515125e-06,0.40169377494713,0
4.30060015304842e-06,0.428409683734091,0
3.45756093839203e-06,0.457612530303747,0
3.65141019313972e-06,0.464227030859861,0
4.98387010998301e-06,0.398305402269217,0
1.46940011234719e-05,0.582695608744391,0
1.53271090118821e-05,0.448619882022926,0
1.60901067032116e-05,0.43621391219259,0
1.63234109510257e-05,0.412957322886593,0
1.68868345277926e-05,0.402973208674604,0
1.7043763980131e-05,0.390429640663394,0
1.60315418397951e-05,0.380171136904166,0
1.44530000281151e-05,0.360904308498548,0
1.39579785511319e-05,0.353914523221942,0
1.60481566372009e-05,0.462925333425815,0
9.98518676018486e-06,0.408113134170687,0
8.0353743314121e-06,0.454789385219842,0
5.41591408613145e-06,0.419662605021821,0
4.17867760349566e-06,0.427813859423546,0
1.49101600249032e-06,0.317261071143211,0
9.43697199493549e-07,0.304302999688777,0
9.9001683080453e-07,0.295783628457484,0
1.38947853787171e-06,0.344203627383304,0
1.73449273391509e-06,0.387092320003827,0
1.57726224323565e-06,0.343774787924633,0
2.46732563709724e-06,0.289351287509496,0
4.06673487923513e-06,0.292469067075079,0
3.96714343467747e-06,0.289021048067863,0
3.94875226226763e-06,0.286985557313561,0
4.02530976438109e-06,0.287077615868041,0
4.05952690800657e-06,0.288508535442062,0
4.25302427754467e-06,0.29715017644861,0
3.83178440574102e-06,0.282875731830219,0
3.40586631104054e-06,0.267629928920902,0
3.81521190297823e-06,0.284891056722463,0
3.24227622991182e-06,0.377586340822654,0
1.06805091354114e-06,0.298057241893092,0
1.20126737672291e-06,0.302271149085765,0
1.31489939878147e-06,0.300292766081137,0
2.03818506379163e-06,0.373108067586581,0
3.93775254519916e-06,0.505884958927482,0
1.28059968730522e-05,0.679911941362969,0
1.82745653017422e-05,0.730263215875397,0
2.65390599767111e-05,0.836269246717759,0
3.90940697093139e-05,1,0
3.66655822165749e-05,0.634736549928145,0
3.37433528152972e-05,0.573353152589526,0
3.17151853620855e-05,0.556568169695921,0
3.23099019987985e-05,0.561890459026899,0
3.59594768843251e-05,0.589527750339049,0
3.60538648438392e-05,0.548237286119691,0
3.55380762306802e-05,0.599899869088803,0
3.60085419355478e-05,0.60858568750356,0
3.45433514774317e-05,0.390438823157622,0
3.4396795563753e-05,0.305201214640299,0
3.00623895513829e-05,0.286367359203592,0
3.1088442661945e-05,0.29001332987954,0
2.93580893607141e-05,0.283477610730547,0
2.91627215416903e-05,0.285713211746885,0
2.71581546547423e-05,0.254714291686585,0
2.82090832351622e-05,0.273988705555678,0
2.9187495006821e-05,0.28359094566985,0
2.99711587625693e-05,0.269825457470044,0
2.75633124550474e-05,0.320026952238373,0
1.09481777806263e-05,0.23338385452132,0
1.1267116707308e-05,0.269448002856295,0
1.03235369065477e-05,0.240005719869291,0
1.23749763650653e-05,0.270434779096725,0
1.14605203133546e-05,0.260485208022373,0
1.2215243337681e-05,0.295303295951728,0
1.3419818404275e-05,0.252256525314018,0
2.66538219810136e-05,0.29211901277262,0
2.65203477071038e-05,0.266961706212209,0
2.44472980184615e-05,0.291283553652967,0
2.54138047810986e-05,0.329845700738705,0
2.41329345324744e-05,0.332308793559474,0
2.3902531355078e-05,0.351720133549455,0
2.30854361719941e-05,0.348052746203635,0
2.15362630140058e-05,0.335998641240171,0
2.12504288196419e-05,0.33240464782233,0
2.06507467607469e-05,0.408141114866286,0
4.28738229964999e-06,0.254592233164791,0
2.10476351808794e-06,0.258065727509437,0
2.10772663101494e-06,0.263969495111688,0
1.95007459336106e-06,0.261230054173355,0
1.96283404746746e-06,0.293213841231736,0
1.18580992868302e-06,0.240062799287176,0
1.17990236223031e-06,0.244909795489758,0
5.00160898082228e-07,0.179519520713533,0
4.93676756129232e-07,0.187475475612623,0
4.59521344023068e-07,0.178722424711361,0
6.1143048444074e-07,0.205608595619686,0
5.99295809287988e-07,0.203800113415581,0
5.87052754112664e-07,0.203313240002632,0
5.16155114899615e-07,0.191081642071374,0
7.76190665526212e-07,0.219740185064622,0
2.07344682290009e-06,0.335985240335449,0
2.13649942782507e-06,0.326417785956046,0
2.1761551649505e-06,0.330114944827633,0
2.28619898413837e-06,0.351607479857907,0
2.22792551837227e-06,0.355471235019302,0
1.67049456382905e-06,0.31871205039755,0
1.71126411171729e-06,0.338687696493857,0
1.53551945207442e-06,0.324030921048606,0
1.07820784765073e-06,0.275525585420504,0
1.28395651359974e-06,0.317116882220481,0
8.05887102700864e-07,0.268691678786993,0
9.62152124857846e-07,0.319548880254454,0
9.3230874489793e-07,0.297307284465857,0
7.93735478591927e-07,0.261905743685172,0
6.09457563742909e-07,0.240344001408909,0
6.55582515300288e-07,0.251406665590753,0
6.91141114384482e-07,0.257427211536362,0
6.77284487481431e-07,0.248633287317382,0
8.56558572880872e-07,0.274567288425815,0
8.60554794660055e-07,0.282608256419745,0
5.63164833068807e-07,0.242243881053338,0
2.15499136100195e-07,0.165229336167515,0
3.32756213347006e-07,0.209210420583581,0
4.35866665495506e-07,0.231198296545771,0
4.40603665506442e-07,0.22878370451902,0
4.51571661592687e-07,0.22651353080767,0
4.56464934089541e-07,0.223428101423713,0
5.68803237657717e-07,0.247617992511945,0
3.86880916728265e-07,0.21293330923416,0
2.97461178306225e-07,0.18885739790091,0
3.0354181070603e-07,0.184986793528066,0
2.86352614730159e-07,0.181638254492566,0
2.67419542207457e-07,0.182099277378296,0
2.80014638087375e-07,0.17951073435879,0
2.82329181324074e-07,0.175272024262462,0
2.24552677612693e-07,0.167313069480517,0
1.93379037834841e-07,0.161366943937745,0
2.02404745740395e-07,0.171307020381412,0
2.70293867483263e-07,0.198512191522835,0
2.7070935015229e-07,0.200092974288588,0
2.67188165631293e-07,0.198864305686837,0
2.66790875878537e-07,0.190613852180767,0
1.55784231583394e-07,0.15748879173108,0
2.96313780621066e-07,0.200284958238325,0
4.46000119858449e-07,0.245922302877316,0
4.25606482698709e-07,0.22324864001955,0
4.26692459854578e-07,0.213335539936702,0
5.41124503744026e-07,0.221784380588743,0
6.21516668320381e-07,0.223704848793184,0
8.43024287135341e-07,0.25876790933743,0
8.34958449931845e-07,0.248558325227286,0
8.95729010077396e-07,0.260611726604034,0
9.94401790110872e-07,0.280505152798203,0
8.59344266000486e-07,0.260212968566608,0
7.57865733990996e-07,0.23635607787074,0
7.49021955248153e-07,0.239144291903296,0
1.11808252175145e-06,0.292415071150158,0
8.85747318845057e-07,0.265654831700004,0
8.57708458486206e-07,0.259843649148171,0
1.56488312992583e-06,0.318485664527704,0
2.51003700668114e-06,0.416265581880843,0
3.0471540930052e-06,0.456704194588776,0
3.07191527403006e-06,0.422486671078808,0
2.77981789612356e-06,0.42248826635935,0
2.07604421156155e-06,0.3756295822239,0
2.28308908392111e-06,0.392416575638596,0
2.33643071442766e-06,0.402669534017126,0
2.33891179282099e-06,0.391920343655039,0
2.33647052115044e-06,0.378641654258886,0
1.93316684335486e-06,0.388173956407641,0
1.08906761920941e-06,0.28153300538988,0
4.11162395644616e-07,0.175953885968865,0
3.9775872570821e-07,0.183361582380702,0
3.9849017423931e-07,0.179613083311027,0
4.22980016470219e-07,0.176732805735442,0
6.42973735859415e-07,0.217657533934259,0
9.08984493268451e-07,0.246004928518622,0
7.25442069820815e-07,0.231014316225343,0
7.10547980205284e-07,0.242466445795564,0
7.09168583963916e-07,0.219131852214556,0
2.35764894163001e-06,0.361282017510573,0
2.9461320943476e-06,0.406655782253984,0
2.8971038954424e-06,0.404667232768083,0
2.97851113144967e-06,0.406970894005354,0
2.99288011441351e-06,0.400308323933208,0
2.55523007663841e-06,0.374079110205645,0
2.03047188927278e-06,0.332422824723204,0
2.0020032407039e-06,0.320024523409627,0
1.78140604517754e-06,0.293255690082183,0
1.60077697625344e-06,0.294818460331345,0
8.7510897218184e-07,0.232833093804202,0
6.01050414990568e-07,0.199251289338783,0
5.69844898735489e-07,0.18862676686448,0
5.07674261512125e-07,0.176081040811363,0
5.64600363009096e-07,0.184728058357916,0
5.80516832321052e-07,0.184922257963021,0
4.93561689821194e-07,0.17854744343632,0
4.68617802158564e-07,0.176632425373006,0
4.85465842080601e-07,0.185969152703982,0
4.76146248604516e-07,0.190715482824225,0
3.5376856515497e-07,0.182666306560369,0
2.60903679272246e-07,0.164655638273669,0
3.40614153720978e-07,0.181944230923227,0
3.3487716529518e-07,0.183068638213955,0
2.14470381108324e-07,0.164815399323084,0
3.26573109735042e-07,0.185071186882419,0
3.66729851785471e-07,0.18435419350862,0
6.13978270193734e-07,0.232974120126056,0
5.83897915837261e-07,0.225542625680058,0
6.41627615550371e-07,0.228437715646557,0
8.53946723183404e-07,0.262214618829773,0
8.50041465985576e-07,0.25060662380984,0
7.17949542722373e-07,0.23635207077272,0
5.99907837650746e-07,0.223025840700217,0
8.29974368348647e-07,0.245819491612656,0
8.78241263680668e-07,0.253868397598198,0
8.94051996385238e-07,0.263009590887606,0
8.71579857415289e-07,0.261814122910386,0
8.50375313773898e-07,0.266921730923247,0
8.19394487809516e-07,0.275578446978279,0
6.8025646362406e-07,0.24061466764973,0
6.91641030844408e-07,0.240388828597018,0
6.70139336237258e-07,0.234243803008859,0
6.71271184421331e-07,0.239922866610654,0
6.22993248943538e-07,0.245904164261864,0
5.70153556332053e-07,0.247870912894669,0
6.48366302836149e-07,0.262858863854015,0
5.24427449477537e-07,0.22528530202961,0
5.0892692931964e-07,0.219726120308307,0
9.20202525332165e-07,0.252055743439974,0
1.69867290321264e-06,0.321497599854269,0
1.8803576277655e-06,0.315874167960146,0
1.76768516541898e-06,0.298858474956451,0
1.69849610538529e-06,0.290221034106581,0
1.7287143838164e-06,0.290517767117608,0
1.70047648984364e-06,0.283326025363367,0
1.80626363310914e-06,0.297579653655001,0
1.8879698860223e-06,0.318048794774573,0
1.84337640482691e-06,0.316782163436823,0
1.39527725781683e-06,0.315422969000064,0
3.06358758322828e-07,0.170027426733923,0
8.0011310646248e-07,0.273065680341101,0
1.0870992078669e-06,0.320329270824442,0
9.22845940516839e-07,0.299794115342557,0
8.19292638577402e-07,0.296615518159195,0
6.73678247189492e-07,0.283398882760417,0
6.47153286256407e-07,0.280968663349957,0
7.17745066783087e-07,0.268825192198176,0
7.02111598390903e-07,0.245983543179047,0
5.77695064358918e-07,0.232372462269253,0
5.1203449711174e-07,0.214155406784112,0
4.08070532848614e-07,0.210603244773088,0
2.61540586836742e-07,0.193049982456053,0
3.67538425841961e-07,0.211039727403214,0
5.52774189957896e-07,0.242419623794546,0
4.97263715039824e-07,0.223124940073411,0
5.07577232625347e-07,0.222180743605446,0
5.33751396813927e-07,0.227978278630688,0
4.92159746803251e-07,0.219879936268941,0
1.32746339565921e-06,0.303941399903099,0
1.88541121561855e-06,0.333908858763088,0
1.88078601652042e-06,0.321167395813464,0
2.67265944235726e-06,0.349124038367146,0
3.45906286470196e-06,0.367862038395521,0
3.61029871172259e-06,0.366766182316924,0
3.30596574240129e-06,0.351321203560578,0
2.63218642345474e-06,0.310683254903303,0
2.84902934743881e-06,0.319050843716737,0
3.23696249890559e-06,0.334787202486577,0
2.84942430476641e-06,0.33327566391905,0
2.60798517996399e-06,0.33816936259441,0
2.97059954529695e-06,0.366152536991455,0
2.02144136102188e-06,0.318717848910197,0
7.05841612711489e-07,0.205109155534656,0
8.0314106080902e-07,0.223965735625897,0
9.26331516680349e-07,0.231123358058711,0
8.86024721944437e-07,0.211940659684624,0
9.98850191381646e-07,0.234354789325702,0
9.84568752108915e-07,0.251612858316245,0
8.62137733870645e-07,0.23559124413797,0
9.91205279172557e-07,0.245580847515334,0
9.36467303468454e-07,0.239727937563722,0
8.57802532967778e-07,0.238564623122556,0
1.05225137647736e-06,0.265977739331392,0
1.17618711993575e-06,0.266826985044509,0
9.89313215880375e-07,0.250049168110438,0
9.63590142718309e-07,0.266507278234743,0
9.5588925230531e-07,0.249931572050168,0
1.08175391137346e-06,0.254470872875409,0
1.08231913573795e-06,0.247979001086939,0
1.27242982393946e-06,0.260265553012396,0
1.41033150729354e-06,0.273392426972337,0
1.390985595517e-06,0.267334723189997,0
1.32131745535485e-06,0.260777478895472,0
1.28773442038367e-06,0.274463582296841,0
1.19130745479209e-06,0.279235377768366,0
1.08278562077054e-06,0.265081393741438,0
1.02828150956278e-06,0.269348063575581,0
8.96103286568545e-07,0.25589511568794,0
1.02457404201877e-06,0.280581586503727,0
8.60427755236182e-07,0.268865772632578,0
7.01587269214272e-07,0.248988047364579,0
6.77931346726622e-07,0.264567032625901,0
5.49867677214841e-07,0.230661159491899,0
5.82291496880034e-07,0.22915658185195,0
5.11829243697401e-07,0.211615281540959,0
4.13155686188871e-07,0.197276338746134,0
4.02731300660604e-07,0.210237831937433,0
3.73357671128503e-07,0.209812161330949,0
2.7973801246305e-07,0.19415055558864,0
1.68384147808649e-07,0.17253518932571,0
1.6104727121608e-07,0.162748847319988,0
1.53042388056843e-07,0.15862947276065,0
2.85316395977767e-07,0.207737019281551,0
3.13320425454184e-07,0.229970723412844,0
3.467394131889e-07,0.23869574031081,0
3.63115059267935e-07,0.246357758285125,0
3.09556357726219e-07,0.226168554568669,0
2.71573902412689e-07,0.213659016751781,0
2.4934480214472e-07,0.203339810097984,0
2.93067666774286e-07,0.204493695661502,0
2.26971713496692e-07,0.175529029653118,0
2.6224466824593e-07,0.176966966270791,0
3.36136052903128e-07,0.188740138407022,0
3.15235035522942e-07,0.176997221210316,0
4.72098402481726e-07,0.207931185365651,0
4.86732970924127e-07,0.212235525321392,0
5.70731997772464e-07,0.22128005055485,0
4.31015221156574e-07,0.192318895280261,0
4.23321483514075e-07,0.192326560190874,0
4.00665082956254e-07,0.192703199239546,0
2.719576640995e-07,0.182712426402408,0
4.82742346965333e-07,0.22039533891933,0
9.40902798653327e-07,0.27840238119403,0
1.04099742506614e-06,0.288525611209805,0
1.02217864137642e-06,0.28712613613873,0
9.89470732326379e-07,0.277724663938322,0
8.30796625966096e-07,0.260738268846988,0
9.32210472051064e-07,0.278432877186274,0
1.03825138317429e-06,0.276406001171954,0
1.22972218623582e-06,0.303346487875029,0
1.2513803088239e-06,0.299252841186366,0
1.03081794417998e-06,0.291461986623198,0
5.13879911900665e-07,0.228277453320503,0
4.59510614867319e-07,0.228221834450173,0
4.09372803564592e-07,0.215553450308397,0
4.03518882890627e-07,0.220685714056166,0
3.86699143060566e-07,0.212693878282152,0
2.02696298885763e-07,0.166394133200048,0
1.65582749692938e-07,0.169661945636011,0
1.5614731243376e-07,0.165730158918335,0
2.07848937060737e-07,0.170386185062694,0
5.4778326659422e-07,0.254572963405134,0
5.85032407436519e-07,0.255212121928745,0
5.51899530521791e-07,0.259612401145639,0
5.76749032712825e-07,0.253646608691602,0
5.85198009623088e-07,0.252743105561163,0
5.91762231506678e-07,0.24877826709516,0
5.73630424774953e-07,0.248181230417506,0
6.88141771119943e-07,0.246372301158786,0
6.00700862206148e-07,0.220176489044292,0
5.4842266207889e-07,0.22700332709294,0
3.13500799666785e-07,0.182198904188703,0
3.13869011852509e-07,0.184041783683676,0
5.60894605910203e-07,0.220882697962961,0
5.09961437626912e-07,0.214482314241189,0
4.92766177345617e-07,0.209734728092653,0
4.65865540466287e-07,0.210400831219092,0
4.51882651614413e-07,0.202255893433627,0
3.07371963813612e-07,0.182356119550447,0
3.03743954220152e-07,0.184792387497986,0
4.12452382254737e-07,0.199723286237553,0
4.50088861169096e-07,0.20199869108243,0
4.1422175998335e-07,0.196981595198462,0
2.39258929255101e-07,0.161598641443145,0
4.23542752914534e-07,0.20717816577337,0
1.34375600740245e-06,0.311926887009073,0
3.18763528309449e-06,0.432226811807376,0
2.75130570895165e-06,0.396801995549502,0
2.72778366766835e-06,0.406338764090695,0
2.44936160948224e-06,0.391251864709723,0
2.42044948914238e-06,0.398582286646154,0
2.59600335640692e-06,0.412702381124761,0
2.88975846662423e-06,0.430842118588379,0
2.94738227423494e-06,0.437046426423397,0
3.18551433114632e-06,0.449002216937742,0
2.63351201842235e-06,0.471071379105411,0
5.41029340797377e-07,0.249938266545385,0
2.40904532955066e-07,0.180098715817799,0
1.73255029023939e-07,0.155090957142509,0
1.32259702379924e-07,0.142047651324528,0
8.65354614655382e-08,0.125382305526832,0
2.57238506371189e-07,0.16256215356877,0
6.43821961143673e-07,0.233266761186402,0
7.06649564787933e-07,0.233061739803616,0
7.83308449648474e-07,0.244955015870302,0
8.77627991357825e-07,0.25700979409882,0
8.21366164547261e-07,0.250651871214024,0
8.59754772829166e-07,0.264085625530258,0
8.92922636121338e-07,0.262205296142877,0
3.56707607454298e-06,0.412725862292844,0
2.25699992885497e-05,0.606622863521781,0
4.43364844837593e-05,0.549135902016935,0
5.32622683409272e-05,0.507681514621034,0
8.12252944049594e-05,0.566226995825632,0
8.0277290304655e-05,0.500132610924223,0
8.82624325947878e-05,0.365490238244106,0
0.000140673653572504,0.347057405302457,0
0.000119470663792756,0.247849200627106,0
9.46174009548834e-05,0.208773576340454,0
7.81556823230302e-05,0.160792215667295,0
7.80302979880506e-05,0.153067981463694,0
9.12862363130017e-05,0.154294240141143,0
9.52440217469354e-05,0.118486760240617,0
0.000116672719998712,0.112324787018153,0
0.000118080894012729,0.107643447193712,0
0.000114347388051674,0.115446656578502,0
8.01871661738337e-05,0.0991473627851236,0
8.47218962532039e-05,0.111996550821418,0
7.793503039326e-05,0.106069678221702,0
7.85441001524459e-05,0.112581805711951,0
7.49165657517392e-05,0.110118934136694,0
6.65558308606867e-05,0.111032204739062,0
5.74346813614252e-05,0.150865413710091,0
2.46160637510268e-05,0.132373883963444,0
2.54189342505169e-05,0.130836159371037,0
3.68976429707872e-05,0.155606201084938,0
2.73894043469779e-05,0.135895177164252,0
2.78490735667563e-05,0.137631294183298,0
2.684765226537e-05,0.146765282077355,0
2.45484804879703e-05,0.162651855575074,0
3.77380002074962e-05,0.193256168354202,0
5.09379593955664e-05,0.233567516914294,0
7.45304554682847e-05,0.268787082695153,0
7.72216244147551e-05,0.22958158419466,0
7.6596060522292e-05,0.252886373445464,0
6.17058606144582e-05,0.222588854749854,0
7.54014270292175e-05,0.244926407332992,0
6.8339981859291e-05,0.216590467349141,0
6.77651816455494e-05,0.215651327628134,0
6.88446137054206e-05,0.218103502948557,0
6.42753355890418e-05,0.249402289737394,0
5.59297011294844e-05,0.233493201666605,0
3.05423816580911e-05,0.185342170913942,0
4.17195291076086e-05,0.196939522468844,0
0.000101702080966808,0.273941398622844,0
9.9456579847358e-05,0.251999502074219,0
8.42611098017724e-05,0.227355632571511,0
9.26350816721097e-05,0.254313742817747,0
9.95939032447667e-05,0.257924658939505,0
0.000102706958144811,0.191056127406947,0
0.000109884703631182,0.166354618824198,0
0.000120466627996736,0.169461407276595,0
0.000126281060246209,0.169793232135808,0
0.000117311130422487,0.201692972871486,0
5.84294987897002e-05,0.14995425397407,0
5.41590981001865e-05,0.151172952814639,0
5.1933087036388e-05,0.153720864428538,0
4.72918040008238e-05,0.146606859579409,0
4.67628723273666e-05,0.144897031716176,0
5.06366952757795e-05,0.159948687897845,0
8.96854002486441e-05,0.220551099850909,0
8.53105837263658e-05,0.188973523521324,0
0.000113769492087761,0.181493011815894,0
0.000116255529527981,0.137442286152314,0
0.000125721721056893,0.149327649597214,0
0.000147015443730429,0.170644715608169,0
0.000150996656353689,0.148774357212097,0
0.000154138894712867,0.151192429132136,0
0.000135850820315571,0.137115922839667,0
0.000152835305243701,0.174280289620179,0
0.000136782619969804,0.159416175614978,0
0.000148324225799988,0.16799534176261,0
0.000131855512847051,0.185774792805634,0
0.000133637857149124,0.254925225623701,0
0.000145012387322017,0.214721076160103,0
0.000173002790459641,0.168605899149316,0
0.000165498866354377,0.171757608754401,0
0.000169566023713557,0.180567636701931,0
0.00017310869126976,0.191933611729066,0
0.000149242628004085,0.189920986021972,0
0.000110175659053729,0.188347848078998,0
0.000120460908890237,0.217986499814337,0
0.000135889171605051,0.229948359248811,0
0.000144275724265727,0.161782470589952,0
0.000154847693218706,0.166916535264126,0
9.83360792226926e-05,0.146507235670667,0
0.000124470478361153,0.175705546955418,0
0.000124611014129991,0.161729434799843,0
0.000157805778059043,0.147183047827409,0
0.000151905569474748,0.111555178482198,0
0.000153172716977673,0.100927415817528,0
0.000162362403857378,0.0997327417342702,0
0.000140875744995798,0.0694236941665701,0
0.000135535482653341,0.0641051238514583,0
0.000179990390582424,0.0786453784756222,0
0.000174064817807452,0.0837695739184561,0
0.00017565077984105,0.0798709833014751,0
0.000163994403454338,0.0797999175746133,0
0.000167905053219143,0.0843319891903188,0
0.000124651800471341,0.0700190949966481,0
0.000148021987814948,0.0755691779333045,0
0.000158770934192016,0.092781140564876,0
0.000155096479016286,0.113882104898125,0
0.00021563784309221,0.201486948223588,0
0.00020730669905722,0.203952331114605,0
0.000177463457332367,0.186997722084235,0
0.000154972811968207,0.196118597014988,0
0.000171630711191505,0.212956882976847,0
0.000150848750276831,0.209133331825743,0
6.70773880277587e-05,0.152936293692512,0
7.25338999952864e-05,0.144852458748734,0
8.12345233448441e-05,0.118654654991046,0
9.76001567891396e-05,0.133010421871051,0
9.50794663527792e-05,0.139247726375718,0
8.37620356583212e-05,0.133139409657681,0
8.6114142602269e-05,0.132656982587383,0
8.96630736530043e-05,0.131258308806879,0
8.79000881687936e-05,0.123335137186032,0
8.39019264338542e-05,0.119884685403487,0
0.000102205125986352,0.143475030772311,0
7.77472085916185e-05,0.117962309404254,0
8.6567508987277e-05,0.157108989743569,0
9.11884189110229e-05,0.168635040458513,0
0.000108544411119652,0.184570003203902,0
0.000109843986329618,0.15003569989287,0
0.00010066319640795,0.13457078017216,0
0.00010880654787436,0.146436317634426,0
0.000101965385644543,0.145595672900808,0
9.17982703436284e-05,0.152242967770457,0
6.4945673803398e-05,0.161910692032329,0
3.25675945506014e-05,0.15767569772181,0
3.10727724967302e-05,0.163966088534739,0
3.1881020791171e-05,0.150497160100422,0
4.65067061145903e-05,0.145979952553782,0
8.68508165432095e-05,0.232718420688579,0
9.04842479367082e-05,0.197950099216383,0
9.99078748833263e-05,0.209938678051605,0
0.000106830776020009,0.235297534967769,0
0.000141612904547657,0.257985367473051,0
0.00015965852972456,0.14834044146679,0
0.000337004912375328,0.131712393789749,0
0.000367377404538411,0.088064856521316,0
0.000370650675122353,0.0841495383291578,0
0.00037537495688536,0.0864442667494747,0
0.000340049476076948,0.082432605281502,0
0.000334660832394831,0.0869272154831242,0
0.00031562048588557,0.0835307912816572,0
0.00030969443651839,0.0810237496417886,0
0.00025045913723671,0.0734597769169109,0
0.000208364613251003,0.0829841561138997,0
8.35799508451053e-05,0.0766354155365211,0
5.64513596793034e-05,0.142042491626065,0
4.91759129457263e-05,0.188147676321997,0
5.05257825504709e-05,0.229190826986178,0
5.85063220327871e-05,0.241016648859482,0
5.79998298443476e-05,0.236706022746141,0
5.77642880233272e-05,0.238321026597946,0
7.23427837208497e-05,0.25724810102154,0
8.29907349998965e-05,0.189440354543784,0
8.83328307840259e-05,0.196646592900394,0
7.59396209184918e-05,0.204724710452712,0
7.46237342818864e-05,0.204785863429104,0
7.18520856271485e-05,0.208239046239437,0
6.78973920560109e-05,0.19430417049943,0
7.2229922954045e-05,0.197392750224736,0
8.19465168066704e-05,0.230376246265741,0
8.37748259004397e-05,0.134365550012661,0
0.000269880990133144,0.166708960329481,0
0.00061381524844687,0.297792930110075,0
0.000648563308017638,0.211115754513048,0
0.000656300126641363,0.164794807169178,0
0.000756989374527937,0.176493641538272,0
0.000840706123197315,0.191342566809537,0
0.000913825655499789,0.202357230634577,0
0.000955806991090703,0.202495722500831,0
0.000996914174625732,0.206147476989562,0
0.00103313701092203,0.290640443088861,0
0.000822396471379341,0.381730033131534,0
0.000361577735296259,0.255494467033125,0
0.000159396828511377,0.226880501274778,0
0.000247754539119121,0.442297679355049,0
0.000268945655299839,0.32619256400236,0
0.000251548802578741,0.290351069783517,0
0.000229044241188583,0.22481052019875,0
0.000201868246280254,0.195316098832354,0
0.000162465184660103,0.156280592206005,0
0.00011472070280618,0.109714680034199,0
9.8793629978443e-05,0.114089273011343,0
9.6549575895564e-05,0.114098070240856,0
9.88432199808225e-05,0.123218791647643,0
7.07158025698706e-05,0.118365806174559,0
6.94291710755989e-05,0.138820658241709,0
7.67260517079584e-05,0.15779157368161,0
7.07395430816441e-05,0.186517359522674,0
6.39909095574962e-05,0.180610666115711,0
5.46836445033474e-05,0.222369674759159,0
4.32697700498366e-05,0.246557252144689,0
4.33576421464155e-05,0.250397054184287,0
4.00209443700672e-05,0.271970835769604,0
2.44424266707612e-05,0.194869300761634,0
2.30120848215097e-05,0.189317903267057,0
2.09820531386126e-05,0.171632720422438,0
2.21143877110798e-05,0.165535573659353,0
2.0621032286151e-05,0.167806867350027,0
1.61081155133897e-05,0.182401158329477,0
2.04574703496193e-05,0.197180611370868,0
1.88272538139491e-05,0.141254391538128,0
2.71209782855651e-05,0.175836086923614,0
2.84900065860931e-05,0.157467896292828,0
3.10329309430668e-05,0.156812048270461,0
3.22997924906673e-05,0.163385277035166,0
3.45712659417819e-05,0.166962851709425,0
4.51073541100138e-05,0.200542364400478,0
5.2852299369491e-05,0.225201893533944,0
5.40733390253102e-05,0.210857393464882,0
5.10164344621538e-05,0.223684756108301,0
4.81114438597604e-05,0.294426923993344,0
3.34550028671526e-05,0.213526353396596,0
3.98862553691325e-05,0.281052823741633,0
6.54206714103573e-05,0.428186677691407,0
6.96440364140349e-05,0.401658381840896,0
6.82778647123514e-05,0.451531049567004,0
6.58731525622685e-05,0.444291737196771,0
5.20222416558165e-05,0.325324424415629,0
3.98549467596853e-05,0.279332245978771,0
3.93668298831644e-05,0.270681935428546,0
2.89932290254442e-05,0.208109999433718,0
2.307578615162e-05,0.197101966696961,0
2.33918907152437e-05,0.211650596908402,0
1.81815203526369e-05,0.188624995656606,0
2.27391069546439e-05,0.233583598294004,0
2.58097025425168e-05,0.255689346269601,0
2.61204406623255e-05,0.27863925250331,0
2.70240182830763e-05,0.354132181693949,0
3.39692037207556e-05,0.314423330445169,0
5.77528243091463e-05,0.433551656833779,0
8.24580930599851e-05,0.620652643007037,0
0.000103885710932426,0.70907312930651,0
0.000119579314376647,0.750153433281216,0
0.000129711996862356,0.861657002036599,0
0.000120585018010632,0.91001657096652,0
9.77094130260975e-05,0.837418578537198,0
6.23065017665804e-05,0.723564681216595,0
1.55761198107435e-05,0.346937104059519,0
5.35558404335168e-07,0.206557417810174,0
2.71611687700329e-07,0.16987521433831,0
2.72096365649189e-07,0.17126743289611,0
2.04568458816556e-07,0.158991972003063,0
1.6112641817661e-07,0.151796819105674,0
1.11566426334251e-07,0.145461515240816,0
5.78048038033576e-08,0.131714938003201,0
1.6092334169242e-08,0.119639315524613,0
2.31687566186151e-08,0.123102214722982,0
8.54351787686701e-08,0.13070903985344,0
3.46485645331172e-07,0.204780644781954,0
4.86995912987496e-07,0.231673354006609,0
4.00575673325007e-07,0.219348280525918,0
3.93836519554197e-07,0.218616110281663,0
3.98816713762123e-07,0.217454867504014,0
3.90431023321281e-07,0.215645703962765,0
4.0998856380761e-07,0.213689607838286,0
4.82664599459902e-07,0.227399181791705,0
4.27119138164386e-07,0.217866015965434,0
3.26158871026103e-07,0.20921382435303,0
2.71895466095154e-07,0.187891373255941,0
1.55497498783362e-07,0.151067335545683,0
1.55406689697018e-07,0.153067421091649,0
1.04036580433201e-07,0.141634289092865,0
1.14244516906348e-07,0.143554576331987,0
1.67590501273203e-07,0.160295577067328,0
2.21421785568963e-07,0.180256193669412,0
3.12949258863253e-07,0.208660832158651,0
3.16567938756061e-07,0.204899643478841,0
2.74248416599536e-07,0.195318741163777,0
3.94246248907821e-07,0.227995736403851,0
4.2842234185043e-07,0.241572679987249,0
5.68584922662465e-07,0.259815017811622,0
5.60763523616046e-07,0.255623182430914,0
6.47667819247352e-07,0.268241763937162,0
6.29737845039729e-07,0.236891767136523,0
6.94869107269928e-07,0.245513210904009,0
5.42237848021807e-07,0.205906591621585,0
6.04636129941073e-07,0.206068570393148,0
1.25249054320146e-06,0.270560900020878,0
1.22564199715077e-06,0.259465720317406,0
1.18868658638399e-06,0.259354663952609,0
1.07272695950782e-06,0.249063688693683,0
1.08440525680369e-06,0.251697833190571,0
9.8638508933081e-07,0.234692526850915,0
1.28794340567827e-06,0.275376312116055,0
1.21199451103733e-06,0.257360417093019,0
1.15563270093478e-06,0.25645388684585,0
1.117460541708e-06,0.267949456970581,0
6.02114000864872e-07,0.218499852947087,0
5.83031653131743e-07,0.225425385116691,0
6.32445946148921e-07,0.222484037658986,0
6.09030418948067e-07,0.208913301022053,0
9.26262010410492e-07,0.248818373922587,0
9.65266378935415e-07,0.2455777857314,0
9.26317366634359e-07,0.248969980944508,0
6.99364779024004e-07,0.228644051464872,0
8.7075651133277e-07,0.256256367015893,0
1.02097821989255e-06,0.276309373498895,0
1.10405998167181e-06,0.282228775466749,0
1.09895710190031e-06,0.296043422985013,0
1.11964291418546e-06,0.306641870976704,0
1.11870994412028e-06,0.308978484546347,0
6.24353985783602e-07,0.232766655936044,0
4.12661989529381e-07,0.20864053146596,0
4.9765742840733e-07,0.217536336863855,0
7.16731705797291e-07,0.243617512654913,0
6.6982834621553e-07,0.232394313144152,0
7.44490675136589e-07,0.241887129017227,0
7.33481628367474e-07,0.236892178374336,0
7.62956796141667e-07,0.237793752864849,0
7.69061374773146e-07,0.242019314443667,0
7.39351876017583e-07,0.247645319931499,0
4.29128133704738e-07,0.19889535958241,0
5.36126116619829e-07,0.213500259235266,0
8.16913564911195e-07,0.266971872199819,0
9.92280060687643e-07,0.305944944904434,0
1.1099414249627e-06,0.341910924032471,0
1.11452526238793e-06,0.358159415537622,0
1.10578519881734e-06,0.350647893012767,0
1.1951637310615e-06,0.337242046602802,0
1.44437620695197e-06,0.359061826148138,0
1.18323539778816e-06,0.329563653790883,0
1.07909105931243e-06,0.316891516517571,0
1.04112182107483e-06,0.327444980049964,0
9.91885725340094e-07,0.320473643123833,0
8.18021155873573e-07,0.290382611902054,0
7.90856954950827e-07,0.283592769908587,0
7.35383643340354e-07,0.265688250641569,0
6.37858571982057e-07,0.252895577572825,0
6.11308731847235e-07,0.253197787750697,0
3.29796676805247e-07,0.199904998378894,0
3.23135270539868e-07,0.204352231918571,0
3.32006727394645e-07,0.206616301594422,0
3.56846588895007e-07,0.210865444480636,0
2.35400787045564e-07,0.178509965776373,0
2.14680610363012e-07,0.18027450627868,0
1.56193338956975e-07,0.166696553883813,0
1.28767750920969e-07,0.16556947974257,0
1.37157795222114e-07,0.166566088942133,0
1.30951678348542e-08,0.125444992354287,0
4.14168736184645e-08,0.137567202953097,0
4.31484660594372e-08,0.134711721455089,0
1.86635996688754e-08,0.122375053285643,0
1.37177698583505e-08,0.121628077566408,0
4.61929028771281e-09,0.118917402325185,0
0,0.11070059424786,0
3.33330300927113e-07,0.203456215412455,0
3.76799708688971e-07,0.19402895844215,0
4.13218661668271e-07,0.20860508848544,0
4.14983063556536e-07,0.205202916028715,0
4.06525378925665e-07,0.208993343733152,0
4.15332149855924e-07,0.21087900975888,0
4.44384060210548e-07,0.218846309832351,0
4.58466932354404e-07,0.226057343218572,0
4.8856221423192e-07,0.218627842710073,0
5.96428325792661e-07,0.244829842418432,0
3.04745342090111e-07,0.190811024666698,0
2.73264910655826e-07,0.191987891374864,0
2.59532835256476e-07,0.181042169451204,0
2.72565805086986e-07,0.186090728471702,0
2.82412526649898e-07,0.183423069190809,0
3.0378671534814e-07,0.193704779365324,0
3.07437738203207e-07,0.196534676610488,0
2.63656562944568e-07,0.183129148989213,0
3.51530058978584e-07,0.203834777505037,0
3.08288606902651e-07,0.185097344321805,0
3.44526408194295e-07,0.196049476238721,0
6.34074445397693e-07,0.257582069322715,0
7.38680137570653e-07,0.252455648250328,0
7.5014214130641e-07,0.240117276595954,0
7.24088485751251e-07,0.237395333075872,0
6.335406310254e-07,0.225231863433359,0
5.24032336654934e-07,0.204389951989915,0
5.64709986991755e-07,0.204891991559481,0
7.03461295085195e-07,0.229498623653988,0
7.42724407308192e-07,0.234866906434811,0
7.01727214724048e-07,0.23426556403662,0
3.32839558672829e-07,0.168202091023286,0
1.95284784687981e-07,0.150106165801265,0
1.66238316658737e-07,0.154601881038655,0
2.20195085428264e-07,0.170961981244134,0
2.44429915841356e-07,0.1755356013497,0
2.81585915172149e-07,0.182288318961439,0
2.58501125859399e-07,0.181313322537351,0
1.60040441020741e-07,0.159125470739037,0
3.17549889749662e-07,0.216994261034298,0
4.21114076339861e-07,0.239348538226156,0
4.14771590341762e-07,0.232788368387387,0
5.70883605408056e-07,0.260884814419881,0
7.54652585086519e-07,0.291679745706783,0
6.66010010728774e-07,0.274326565769419,0
6.15946837031262e-07,0.266156900461571,0
4.8170053039255e-07,0.239107795345932,0
2.82122683949648e-07,0.205107453806481,0
3.28808506011211e-07,0.220052429433709,0
3.89631156985402e-07,0.23045324641078,0
3.97954027441853e-07,0.239559385314227,0
4.1373179520412e-07,0.257227380840374,0
2.76780341861421e-07,0.232576867648933,0
3.89969047644014e-08,0.137395930028362,0
4.26546139049355e-08,0.12813344363803,0
1.54175635696014e-07,0.162510780068366,0
1.33957552403539e-07,0.154338636045303,0
1.65297416348004e-07,0.158974796374827,0
1.71369652017222e-07,0.160767858602119,0
1.61905603676045e-07,0.154858679995895,0
1.91891261570902e-07,0.164932236180203,0
1.88847291238245e-07,0.162495680844609,0
1.89657264749831e-07,0.162719504830516,0
1.8173821483659e-07,0.162142340915333,0
1.68170342168712e-07,0.170577239710512,0
8.16490307491625e-08,0.139839213010805,0
8.4072264998454e-08,0.153257176145189,0
3.60802848456401e-08,0.12841372581028,0
5.11720086199776e-08,0.126975669138653,0
6.53172342631908e-08,0.130877323494387,0
1.06438667361015e-07,0.132885388279206,0
1.85678924896896e-07,0.148899170415395,0
2.52541313083035e-07,0.163032446535982,0
2.71392750725033e-07,0.168276166697425,0
2.67429649383163e-07,0.169051448146528,0
2.57949274065845e-07,0.168085973412813,0
2.82223444716687e-07,0.162823221746851,0
2.79746720183658e-07,0.164789008709196,0
2.59333801642571e-07,0.164167501148985,0
2.58885509526253e-07,0.169811046046964,0
1.91383259370412e-07,0.162471874587198,0
3.07835960926028e-07,0.189296760902212,0
6.68445062598892e-07,0.265469238087126,0
9.82217667544665e-07,0.326529229816996,0
1.06486342131346e-06,0.31351544832897,0
1.09166516336588e-06,0.317349236571723,0
1.094987625263e-06,0.320692222544068,0
1.12211963871849e-06,0.320339968650721,0
1.43312831984617e-06,0.363896155854506,0
1.43721348477157e-06,0.338670683791293,0
1.53442663313808e-06,0.337179683358139,0
1.50982343504425e-06,0.355602237405243,0
1.06501440696901e-06,0.296650694802703,0
5.5149415502847e-07,0.219147099738254,0
2.50983097579175e-07,0.172307743240505,0
2.54453901716652e-07,0.173154453857237,0
3.19445840417116e-07,0.185152987509971,0
4.63459099678169e-07,0.21807692228236,0
3.20866287341352e-07,0.1814548509987,0
4.31609367593083e-07,0.220365749344855,0
5.25354199742281e-07,0.246124499983188,0
5.19146061433569e-07,0.231708791968015,0
5.39812125852341e-07,0.231239373673907,0
5.52260278946994e-07,0.235502926849209,0
5.80290587080245e-07,0.22599543038146,0
6.41179789919085e-07,0.231382694220175,0
5.77557451274304e-07,0.230315206135892,0
5.25085970848543e-07,0.212363455850582,0
7.94069481875262e-07,0.257241192174135,0
6.26126628907443e-07,0.228347389503948,0
5.55831688356499e-07,0.220807091093728,0
5.85324738056942e-07,0.220641992873733,0
6.22806499435491e-07,0.221759595893689,0
6.47308781267268e-07,0.220890414781696,0
6.91689545287797e-07,0.236192996628649,0
6.38883439598659e-07,0.236476764646056,0
6.75565490136338e-07,0.2404829099185,0
5.97353832097319e-07,0.241772769020922,0
2.864591288126e-07,0.17918288630066,0
2.90804747881194e-07,0.182627937199845,0
2.52013252026143e-07,0.171873738653147,0
1.90187036251842e-07,0.166215760625182,0
1.49697534878165e-07,0.166611668845339,0
1.24202417402026e-07,0.156781491551436,0
1.13777565388725e-07,0.156686576378479,0
1.47392321342118e-07,0.1621449181137,0
9.06871782555855e-08,0.14259676904906,0
1.23543896031021e-07,0.156101695586796,0
1.80827480557964e-07,0.170946992891171,0
2.5418334039775e-07,0.187088397732148,0
2.1143589597133e-07,0.178350417034399,0
2.56329638032695e-07,0.199414029150289,0
3.41335650571382e-07,0.224234600331349,0
4.49609936535638e-07,0.23084240752741,0
4.6871047718504e-07,0.216514644691544,0
4.33635156594608e-07,0.210763634922466,0
3.76187835821225e-07,0.19525906441178,0
3.39541393641032e-07,0.186862508167517,0
3.9618433872322e-07,0.204995771102497,0
4.15561504996947e-07,0.207185592543764,0
5.00770283029801e-07,0.218139751552626,0
4.98882729092933e-07,0.216027431508035,0
4.7193155633507e-07,0.202846439928492,0
7.11519046548125e-07,0.237889246733027,0
8.00120570223002e-07,0.260296357320127,0
8.11682712745756e-07,0.253513587933564,0
1.03511707024032e-06,0.288041479410044,0
1.0759029451047e-06,0.295209163651037,0
9.65473964774917e-07,0.274574896723742,0
9.58221210983225e-07,0.270588089972651,0
9.457348061159e-07,0.266037742345376,0
9.58609793015372e-07,0.26586648485522,0
9.37223164716262e-07,0.267823530448487,0
6.26938934844191e-07,0.236520203851785,0
5.56391003910574e-07,0.222087450235889,0
4.9908222919187e-07,0.218713190735273,0
3.58838324489154e-07,0.193180641084289,0
2.15975106328448e-07,0.164584308721355,0
1.87713577114041e-07,0.157139205436103,0
3.21990827259915e-07,0.188959784765888,0
2.81238694812891e-07,0.181172732627093,0
2.75273906196179e-07,0.176721656694784,0
3.5280123069239e-07,0.194064307552951,0
3.38224506394032e-07,0.19661862250521,0
3.06028331424743e-07,0.201639161330433,0
3.63340060548654e-07,0.202143536926841,0
4.34286991680146e-07,0.216660581553155,0
4.85936058993452e-07,0.222955897301151,0
5.15730302529937e-07,0.224628158002079,0
6.02546276995072e-07,0.240317174980706,0
5.67542328614628e-07,0.232113962381282,0
5.04830102268428e-07,0.230667712547496,0
4.81582198689283e-07,0.228258110371947,0
5.13846791463351e-07,0.232435208966246,0
3.97201898074308e-07,0.202043381122885,0
3.58555945549425e-07,0.203121053719321,0
3.14876619522902e-07,0.194558262552845,0
2.36181372000097e-07,0.168653068282104,0
6.43114925329278e-07,0.253265486328041,0
8.40204851598369e-07,0.274154241466553,0
8.4911269428569e-07,0.277578080322562,0
8.37634674563812e-07,0.265604097789674,0
9.59364876788124e-07,0.288028462349064,0
9.64584533312779e-07,0.283065215712549,0
8.68764775738622e-07,0.276019880069978,0
9.88114038356597e-07,0.281545894715867,0
9.15494913878282e-07,0.273831953199812,0
9.59384780149516e-07,0.288914141089744,0
8.48796728423615e-07,0.28829662518397,0
6.72809963048832e-07,0.282520132911858,0
7.99511185275428e-07,0.294093645255921,0
1.24491591473728e-06,0.358171230486089,0
1.2603480170904e-06,0.343961532565674,0
1.09902551970509e-06,0.323687355088933,0
1.0909024603376e-06,0.305830750075065,0
1.17815382083315e-06,0.327300854673855,0
1.04720836228504e-06,0.2866811897856,0
1.12418725587794e-06,0.280995160091052,0
1.137414127987e-06,0.270058078839748,0
1.45302561693124e-06,0.305757766937484,0
1.75504031113558e-06,0.347412446691778,0
1.21929780070755e-06,0.293379934217263,0
1.10875950738513e-06,0.286940243054048,0
1.06154375832654e-06,0.282871838390841,0
9.92368381853815e-07,0.282267571840396,0
9.13984124352737e-07,0.282640669619195,0
8.17859596557283e-07,0.290079353195535,0
2.47235823312383e-07,0.18738675430491,0
2.56467251117308e-07,0.199639361121346,0
2.83297448756719e-07,0.208771308207657,0
1.54928231548592e-07,0.174681087285719,0
1.54020140685151e-07,0.176267503785068,0
1.01465470428578e-07,0.155863330604,0
7.57870243346309e-08,0.154085645048715,0
5.4406304845932e-08,0.151513225187872,0
1.53918291453036e-07,0.174589661935654,0
2.11522195702358e-07,0.19707716458085,0
2.02721955562555e-07,0.189563026519178,0
2.13162979056987e-07,0.197582810737122,0
2.09240306417941e-07,0.191544362319637,0
2.59321517536713e-07,0.184134454634,0
3.33175272401282e-07,0.189052544087889,0
3.41197571001736e-07,0.188981949079164,0
3.48718553687166e-07,0.183574174285014,0
3.49002332081992e-07,0.17795057235804,0
3.41236289259441e-07,0.182582366630642,0
2.56223901425308e-07,0.160902868989039,0
2.54314578186918e-07,0.160409430387494,0
2.57423078949084e-07,0.158593201207917,0
2.40409436840477e-07,0.154834637922947,0
2.06688166804642e-07,0.154880082417327,0
2.23215576014281e-07,0.170286619134815,0
3.11348748716438e-07,0.180829597797687,0
3.84466390199581e-07,0.190829933070111,0
3.75752294295797e-07,0.193228817792675,0
3.48326861754802e-07,0.191375954897012,0
3.99562467834223e-07,0.200516432042354,0
4.15941690298508e-07,0.210348716993579,0
3.98388635997216e-07,0.201836640147806,0
4.51892136810077e-07,0.216400305839922,0
4.7281601195686e-07,0.216582869886014,0
4.25390189138598e-07,0.2091120211194,0
3.35569895568575e-07,0.199508796739861,0
2.48255093108591e-07,0.18366559849623,0
2.65489071647591e-07,0.182782563286634,0
3.43973623430676e-07,0.191244428916292,0
3.10067469826926e-07,0.18474278178396,0
2.59694705562785e-07,0.166990698546094,0
2.44329310569329e-07,0.167674245779578,0
1.69161622862965e-07,0.148589162100763,0
1.47163588181139e-07,0.14632546520384,0
4.49382447334745e-07,0.198877113714701,0
1.10789573259978e-06,0.291895039421195,0
1.07233511208045e-06,0.277248625515661,0
1.23806791445887e-06,0.294002078946764,0
1.24001237956971e-06,0.308642453999399,0
1.22517877751341e-06,0.30468239729453,0
1.27013922693443e-06,0.312214121561831,0
1.34849502884852e-06,0.323645433183069,0
1.3533041785445e-06,0.324118542788932,0
1.29516335002267e-06,0.32591660603303,0
1.00272388309227e-06,0.324566210208194,0
1.93712574633143e-07,0.17256647964897,0
1.7750486316584e-07,0.175294528593219,0
1.35372712497405e-07,0.174394771573288,0
1.60029245379959e-07,0.173915661341864,0
1.4968758319747e-07,0.174814292932205,0
1.44798820055931e-07,0.173583481373394,0
1.28417109671473e-07,0.159562073321775,0
1.37909613599638e-07,0.159043109670281,0
1.92641369503306e-07,0.171334696125724,0
2.38380071453702e-07,0.181010235848251,0
2.68573470683072e-07,0.189460614614493,0
2.80524195237974e-07,0.200147035967067,0
2.46334418734409e-07,0.179633877761149,0
2.2416658350072e-07,0.172983853258988,0
2.81697249599926e-07,0.194162098105392,0
2.7705401308054e-07,0.194352712416119,0
2.98666575630437e-07,0.211919175896977,0
3.65294321845182e-07,0.212325242313899,0
3.65649005964961e-07,0.208221288157489,0
2.77265641790325e-07,0.192033213060226,0
4.19727682823005e-07,0.220518658575603,0
3.55687373589022e-07,0.204837642239769,0
4.28883229062629e-07,0.223154005915669,0
5.82600465466618e-07,0.255356054030074,0
4.71309576291618e-07,0.224246461124512,0
4.3440641184849e-07,0.208151299203483,0
2.59178306631708e-07,0.162991889017344,0
4.19973364940168e-07,0.201071341260543,0
1.0499575140771e-06,0.304621103139545,0
1.25277043422102e-06,0.313614415961757,0
1.1781587966735e-06,0.308152290112469,0
1.17885743575731e-06,0.315422054810795,0
1.1064444976634e-06,0.311801870128741,0
9.40529610627256e-07,0.281236085634634,0
9.44655048760468e-07,0.282208830080207,0
8.22169296278368e-07,0.271302889526153,0
9.19134119112525e-07,0.294399295209087,0
9.46024648816149e-07,0.313205142243259,0
4.5892719758656e-07,0.230848613660216,0
2.6472885653948e-07,0.200436554184265,0
2.87525824587121e-07,0.214131653028274,0
5.6120559593193e-07,0.257771721372022,0
1.59646603257227e-06,0.413131647414408,0
1.75987807191356e-06,0.388943314700455,0
1.85958769267947e-06,0.412253470865908,0
1.82656179633221e-06,0.405495305276842,0
1.57650669297787e-06,0.37803869972586,0
1.45277293753859e-06,0.346471625810102,0
1.42982327339028e-06,0.34070795610312,0
1.41071215908014e-06,0.325841361018726,0
1.85860076584552e-06,0.354092022378807,0
1.92566141017051e-06,0.355239634714974,0
9.76662141796545e-07,0.265534364748679,0
7.47176384964216e-07,0.264329574495659,0
6.86889880787482e-07,0.247329249915286,0
6.24722197969326e-07,0.239958225020422,0
6.05874958692621e-07,0.238795518897909,0
5.00543415808951e-07,0.232685882282093,0
4.18396645530016e-07,0.220579097213828,0
3.51480145080097e-07,0.216718580753826,0
1.52129321353055e-07,0.172172484430127,0
8.27171259787817e-08,0.156982464100147,0
1.02115906059019e-07,0.158122961470459,0
1.25032138779992e-07,0.160417125324006,0
1.66335501040527e-07,0.175943362859168,0
1.7448204015466e-07,0.17341454926654,0
1.89261529947184e-07,0.176864582153212,0
1.75494157180368e-07,0.1789196750851,0
1.14063676208714e-07,0.156636405764089,0
2.1975487905251e-07,0.169706504906874,0
1.01197583623863e-06,0.314717726781266,0
1.17859807007919e-06,0.337650019497414,0
1.29074713621914e-06,0.327489415680609,0
1.46672768179349e-06,0.341982248602572,0
1.36261693024011e-06,0.33527927221166,0
1.34851415473486e-06,0.337230817184845,0
1.57519478157122e-06,0.341802117677121,0
1.58261142710436e-06,0.316067747850516,0
1.50419902500631e-06,0.29596522377093,0
1.66021401118583e-06,0.321837388722669,0
1.19343835842096e-06,0.289977825017058,0
1.07508939520787e-06,0.279460444546164,0
1.03373580805882e-06,0.282644729158947,0
8.59403976084658e-07,0.262666160238459,0
8.73850084573891e-07,0.260197721882254,0
9.44162596061063e-07,0.26579337692535,0
5.23054117541593e-07,0.214544344056297,0
3.72439628584367e-07,0.203674141952461,0
3.56045478599041e-07,0.210201485389201,0
3.83309351823748e-07,0.225457545427551,0
3.8749605499124e-07,0.224031993575404,0
3.98800542280993e-07,0.223207169570854,0
5.54467219636174e-07,0.267155381530575,0
3.83367273715294e-06,0.377170500334694,0
2.19411662689782e-05,0.659672853810149,0
9.5204624753508e-05,0.670810909375945,0
0.000208026124714081,0.699814591522599,0
0.000225734305969544,0.526101186799889,0
0.000294465211771341,0.414312707670919,0
0.0005381619336501,0.488180901844781,0
0.00064010587295626,0.249359984739031,1
0.000543807848026055,0.18983422816376,1
0.000434611521429944,0.161748878680717,1
0.00032570300739122,0.13408935322372,1
0.000266990941979314,0.115925751611253,1
0.000321089937681417,0.135501977514358,1
0.000354357700298268,0.132661949376307,1
0.000361880306973593,0.125468310029647,1
0.000360043774681669,0.128802081649421,1
0.000248387888335788,0.10946336909182,1
0.000165341700549623,0.123457358413102,1
0.000160481585808885,0.149030130982402,1
0.000161168820422112,0.149281532461732,1
0.000163532941688074,0.144671601360781,1
0.000179417438115896,0.140626962632551,1
0.000125259851893701,0.0885628944664148,1
8.63347764946179e-05,0.0639186044748679,1
9.74800200997866e-05,0.0794243623514448,1
0.000254936433834362,0.104044104088526,1
0.000705526741534291,0.181002806370648,1
0.000992215544408182,0.174917358185762,1
0.000936201653770461,0.153689860243592,1
0.000894250039029438,0.140197582315349,1
0.000769443579488412,0.127841346844074,1
0.000733789693061561,0.111624730427824,1
0.000703225211986041,0.11801662012445,1
0.000585425677954233,0.113805945920528,1
0.000556180998568702,0.111062039763301,1
0.000584779278974275,0.126745686293747,1
0.000727367211877649,0.112586366641791,1
0.000718661073431046,0.083897620689385,1
0.00147124132255102,0.087798051569601,1
0.00151149318198806,0.0787136201487263,1
0.00115782840042314,0.0587180334017994,1
0.000860188948486418,0.0483346167547056,1
0.000816953170578926,0.0461239357180254,1
0.000752495578821166,0.0406200138942681,1
0.000690480107581223,0.0358608202837354,1
0.000782185681129076,0.0402742980550992,1
0.000850874756751515,0.0434208707101947,1
0.00126503428141172,0.0668879194198222,1
0.000936133553952978,0.0668384711999849,1
0.000711935684856072,0.0657807975930745,1
0.000681695876585759,0.061120818102666,1
0.00275460776679344,0.0567910230656248,1
0.00399025925768449,0.0504568970792601,1
0.00410863636658301,0.0473906606186244,1
0.00411166543427383,0.0415779544087108,1
0.00493639072644177,0.0405629440206345,1
0.00492737013121217,0.0252345774167139,1
0.00447269739032319,0.0228944918531495,1
0.00392960433715708,0.0185624196853143,1
0.00372399428770199,0.0179520420158173,1
0.00348748857176864,0.0158007163252262,1
0.00296275457196292,0.0210909775171569,1
0.00249631456886256,0.0211928001450098,1
0.00294649176845778,0.0248030625054292,1
0.0029683349263769,0.0268177113165691,1
0.00246537214627849,0.0167375584585197,1
0.00475882848079657,0.0448896072881651,1
0.00540213120040487,0.0469915347346511,1
0.00675664550332191,0.0574082570271131,1
0.00747058841869447,0.0574721770326825,1
0.0074229405956492,0.057180602777115,1
0.00673563598774295,0.0494132184016417,1
0.00617738825149458,0.0352908367202295,1
0.00549990701555393,0.031321642356245,1
0.00453735831388795,0.0240486947934784,1
0.00431280863421906,0.0277996186502715,1
0.00452652756702799,0.0292433113888019,1
0.00462144642429449,0.0328382919082578,1
0.00343857388966368,0.0252500512113002,1
0.00261699700403102,0.0193669820607465,1
0.00375381859650982,0.0176495604611391,1
0.00539399091840998,0.0196334318232439,1
0.00524737215862374,0.0217860073096493,1
0.00492312463849097,0.0159192099023759,1
0.0056897298364638,0.0184403210791596,1
0.00592710162244436,0.0205003230950938,1
0.00560707702648691,0.0214226771045655,1
0.00510870676587766,0.0185422816907663,1
0.00567829793049784,0.0183076439944343,1
0.0066237317827065,0.021425562405235,1
0.00589989850656272,0.0263149705567922,1
0.00367741271571551,0.0216864410643027,1
0.00379560199177225,0.024600071499005,1
0.00230386528654454,0.0132351155877264,1
0.00320638170982432,0.0240389806454909,1
0.00350557491720151,0.0262112190436118,1
0.00352270075595773,0.025742816644689,1
0.00393440966058732,0.0148743343906495,1
0.0141776378149028,0.0301086028908981,1
0.0200016830099188,0.0317304597639905,1
0.0344476865348887,0.048497400252199,1
0.0510613852203483,0.0648381955719721,1
0.0681386377761187,0.0856599000550669,1
0.0658256810728979,0.0294092388690961,1
0.0605867530403621,0.0259592410778751,1
0.0525693160621733,0.0220282143528151,1
0.0418365482047172,0.0144425477333689,1
0.0414724740993372,0.0156818438714988,1
0.0427073910442366,0.0153259017143524,1
0.0428229370096013,0.0169120928026378,1
0.042107970959604,0.0160766949019491,1
0.0401283363798277,0.0135614472630523,1
0.0294868314798374,0.00551751878738274,1
0.0350906506673763,0.0106970680112791,1
0.0346629515365533,0.0100381234130501,1
0.0520880710736965,0.0146734379786084,1
0.0750251776578007,0.0201292344193987,1
0.0543714105339737,0.00994128548820207,1
0.0516747789812198,0.00576560336398327,1
0.0705020411085542,0.00909230238149039,1
0.0679848544201262,0.0068369414632317,1
0.0663237642778995,0.00580084651936006,1
0.0672750546197152,0.008088725349971,1
0.0704752010220541,0.00854878183875821,1
0.0547119559918648,0.00589676853292427,1
0.0580138339613783,0.00734904361229327,1
0.0624868364975988,0.00878505664908016,1
0.0555150294532393,0.00684108141178641,1
0.096013520203723,0.0194065810596504,1
0.124921838563681,0.0231911736064268,1
0.132005858695364,0.0283443465844836,1
0.124144520621524,0.0336193362204608,1
0.128615739153844,0.025031703897304,1
0.142831018101472,0.029432346251235,1
0.148482692019937,0.031467296113369,1
0.143464919701725,0.0297444652482911,1
0.116823388794612,0.0239066984286078,1
0.132507726658726,0.0411008216286718,1
0.124191183130063,0.0456992388651263,1
0.115696618838754,0.0424989830886176,1
0.106314999315746,0.040076695342825,1
0.0879313564880842,0.0331265856305601,1
0.0776213879480565,0.0308621010984189,1
0.0749251901100728,0.0296324111555503,1
0.0729842158933214,0.0266153065008573,1
0.0627472563796459,0.0305504031510808,1
0.0250203201136335,0.0158358556929982,1
0.0160586183967325,0.0169369950098445,1
0.0165669885817636,0.0141807758020641,1
0.0167709149743131,0.0161402881212808,1
0.0152784243778039,0.0112585437224745,1
0.0121151587587338,0.00438751240540825,1
0.0187840428567772,0.0105016933853241,1
0.0256698275422636,0.0110197161377085,1
0.0274371912652862,0.00963471865882085,1
0.0274118449876344,0.0049164834928235,1
0.0353868301450905,0.00827957293847395,1
0.0404063593561811,0.009682704061884,1
0.0421922437393063,0.0114821115428253,1
0.0406077594897069,0.00501876955491733,1
0.054510209452618,0.00809103132633012,1
0.0562009335790032,0.00996818473952716,1
0.0584867209280411,0.0137231100821354,1
0.0555631334925821,0.0115964185379669,1
0.0555308629864882,0.0133577330279844,1
0.0538270597057664,0.0205029831284263,1
0.0469687024932266,0.0185090574038955,1
0.0415479971735343,0.0166865023744793,1
0.032175185022912,0.0124746107805551,1
0.0317160405900875,0.017925028607045,1
0.0349271459915713,0.0228845930472911,1
0.035238808752666,0.027905871210617,1
0.0363815493840194,0.0263243729794076,1
0.0597360712160667,0.0428029500461539,1
0.0529584911443616,0.0310084037930807,1
0.0469451113313011,0.0227564929658745,1
0.039876598145452,0.0163414035326674,1
0.0347598740194954,0.0148415251655223,1
0.029709108181952,0.0112449359886685,1
0.0282299027793765,0.0128398752543423,1
0.0390809854800866,0.0145864901842636,1
0.050587905309381,0.0181111274254409,1
0.0651412446968845,0.0204243011284595,1
0.0625510691317699,0.0196686178685905,1
0.064500158670457,0.0219127889861981,1
0.0639709031792616,0.0240682724644948,1
0.0587291095426986,0.0242171394710516,1
0.048915070543928,0.0161605551792121,1
0.0425832464025608,0.0143285260982909,1
0.0404428749175886,0.0136250283351154,1
0.0378958220884631,0.0192254097626571,1
0.0400709052174739,0.0195486094696017,1
0.0260423153786552,0.00547616006572827,1
0.0917676935178039,0.00548256161633165,1
0.31327150147612,0.0251361402777515,1
0.397599600367767,0.0177871101856954,1
0.375455722143422,0.0172317296199963,1
0.364067988790885,0.0173453070762073,1
0.354220857647273,0.0175482005326274,1
0.340897254891492,0.0168968185296641,1
0.314620194142704,0.0133862715091399,1
0.287639853304942,0.0110717593027916,1
0.309397243903602,0.0147629607947868,1
0.328393907081286,0.0365479453760649,1
0.176269720571557,0.0239502055784138,1
0.111458648363482,0.0244649052658911,1
0.141274339307534,0.0276448541069361,1
0.158904711361966,0.0269598246504354,1
0.143458247452326,0.0239338739270786,1
0.118107869609866,0.0184348389335548,1
0.0725479659798946,0.0111806948396725,1
0.0630856812172597,0.0123613105338908,1
0.0628731634440695,0.0121805334287724,1
0.0629752547234506,0.0170539155753322,1
0.0448782667935973,0.0130289126467737,1
0.0449664705403536,0.0319857721610857,1
0.0557707952907753,0.0366432935573772,1
0.0519759917795674,0.0218406632674312,1
0.0470695919709502,0.0184049840403435,1
0.0284021466044415,0.00757011512059578,1
0.0345516218857375,0.0108274005397949,1
0.034999935742591,0.00613082700153711,1
0.0349462104138396,0.00418681144005632,1
0.0397773599469962,0.00568498541225237,1
0.0391413409120917,0.00493432612299945,1
0.0390874195339866,0.00479435732794798,1
0.0303061416064722,0.00211711404698134,1
0.027943055200858,0.00297940829596602,1
0.0300533741302498,0.00535578383267701,1
0.0267327626264087,0.00649643453421027,1
0.0265053486874335,0.00623157136273067,1
0.0235140471123438,0.0117427413394662,1
0.0122709146085904,0.00862751361021434,1
0.0135572732091179,0.00867168606782227,1
0.0158432412545541,0.0123343851978876,1
0.0136058464639857,0.00947448237514553,1
0.0135072605712989,0.0104097544545239,1
0.00910054421644303,0.00848584466758526,1
0.00899973442571413,0.0126615086017935,1
0.00874762654113482,0.0139799898705778,1
0.0084012307415984,0.0166412163731505,1
0.00862411890032054,0.0158924784563433,1
0.00707431013672747,0.013125421573636,1
0.00688237658471198,0.0155020938098882,1
0.0050041995233494,0.00849317429749667,1
0.0100443927761796,0.0130410120498689,1
0.015063540494411,0.0115908869033383,1
0.0173775746354682,0.00765894915802976,1
0.0355154080423565,0.0130854848501017,1
0.0367701605441139,0.0101859734013526,1
0.0596590930837774,0.0163774604241256,1
0.0998668187985618,0.0175402294623074,1
0.191394029532684,0.0210469553705528,1
0.165595099960679,0.0142786132977149,1
0.145524504828585,0.0112529460048031,1
0.150479676076526,0.0105302141874192,1
0.14902952504408,0.0101160171821003,1
0.13098614528122,0.00802379330576816,1
0.130693337852139,0.008709688407443,1
0.121296102658854,0.00819983811451847,1
0.125470714804707,0.0079787462062155,1
0.118162282787591,0.0114024059086414,1
0.0747182603676187,0.00895597388607817,1
0.0723201890808887,0.0137849598415387,1
0.0656683403735746,0.0119908445226258,1
0.0473925299394686,0.011340067518712,1
0.04842814190368,0.00810253988591594,1
0.0726171978509702,0.0133839503904323,1
0.0779251443177758,0.0071287556583714,1
0.0824043262563605,0.00550007156791405,1
0.0810260079120063,0.00645211294933571,1
0.0818978428308423,0.00657119091622492,1
0.079212723981439,0.00636967639736289,1
0.0879822589960167,0.00644677884226128,1
0.0994319918708263,0.00931285272973029,1
0.0934486112779354,0.00560466980959873,1
0.0940683669105235,0.00791804661329443,1
0.0603645287767631,0.00426549009506458,1
0.0562254753254687,0.00874981936479226,1
0.0708203166928976,0.0150370181427714,1
0.08567605498163,0.0148680078816283,1
0.0877549985450783,0.0136198788224855,1
0.120610576086639,0.0173596821396102,1
0.13902359232614,0.0206593836781111,1
0.147906086099856,0.0206621434705119,1
0.122710193624226,0.0263971241138032,1
0.0927810712348625,0.0185413983205452,1
0.0884941434844481,0.0119696301152651,1
0.0734611758187067,0.010517342712843,1
0.0771473963975494,0.0128431200859898,1
0.080484861146197,0.0128737082843465,1
0.0782472757604181,0.0165934080666128,1
0.0617378743768308,0.0125592848678752,1
0.0507773311858925,0.00835840651881318,1
0.0476133327081071,0.00682120201002668,1
0.0495515170563867,0.00852592672410409,1
0.0393083165221835,0.0108877847366086,1
0.0462440771267414,0.0220709633748457,1
0.0523265277079392,0.0215960740138551,1
0.0476900052678208,0.0312713564670589,1
0.0452743153416374,0.033915852335806,1
0.0392802599857738,0.0284019231428694,1
0.0284505222977666,0.0209371053116818,1
0.0249641643538572,0.0187797762659399,1
0.0376980270863942,0.021674345877474,1
0.0379132466860034,0.0193833844918744,1
0.0371581211987607,0.0198363545051974,1
0.0333320518760859,0.0183454081086928,1
0.0298436455806934,0.0179825034563709,1
0.0287091050697024,0.018530373699743,1
0.0250124575776045,0.0152558178576635,1
0.0245319017260668,0.0113498804446804,1
0.035791649853371,0.0146714401207208,1
0.0400929010999493,0.0160180942268879,1
0.0348922002538366,0.0159221066799431,1
0.0341348221700816,0.0146305783477254,1
0.0399076077294412,0.0147323215844021,1
0.0397477740916535,0.0150166438097003,1
0.0430232171096095,0.0165169222441201,1
0.0820259184711375,0.0219300646961483,1
0.0914405176604259,0.00943115839345826,1
0.0827789320714802,0.00584891705181818,1
0.117326634823023,0.0108038476938535,1
0.127775584219254,0.0116486848173521,1
0.103591983841166,0.0104607844246735,1
0.0792387221084818,0.00590353296572539,1
0.0818932873396911,0.00553590226082398,1
0.0795296732064013,0.0050221467356739,1
0.0755621410676281,0.00427371089032282,1
0.0712560618674977,0.00480329790273878,1
0.0649173308114358,0.00803878970545763,1
0.0584892215809239,0.0135290363498122,1
0.0468019738969113,0.0111510922501662,1
0.0408537008352468,0.0108388799834695,1
0.0434884330646921,0.0097356880986512,1
0.0703815743093574,0.0203113612952583,1
0.0796826891565744,0.0205936422494578,1
0.082613538309335,0.0167097415273643,1
0.100003602979079,0.0209810237223373,1
0.104210580726799,0.0235102528621255,1
0.104239459141884,0.0271624720142408,1
0.103039473632444,0.0253288848005431,1
0.101054637735225,0.024810821355613,1
0.101024421784087,0.0260216847512154,1
0.218342141220583,0.0222875386922768,1
0.250775974380868,0.0135770589201598,1
0.236608668478922,0.0136779102613249,1
0.233601127776153,0.0153663407459337,1
0.209400468349546,0.0135962160016957,1
0.180942151659106,0.0093446272886848,1
0.174168433325433,0.00926679081110726,1
0.206082800356153,0.01081977051827,1
0.277048633911014,0.0152722033676943,1
0.348698563924507,0.0179162849813704,1
0.234538147345809,0.0200629863204866,1
0.151505979307032,0.0310163616646838,1
0.160049085768358,0.0323228552461149,1
0.175748247070752,0.0397555226746023,1
0.10883272581941,0.0326544674020695,1
0.0479909801911448,0.0279683365871356,1
0.0237324534764641,0.0140868501296681,1
0.0191052302226566,0.0103914680340729,1
0.02503060505248,0.012642358467877,1
0.0278132349353075,0.0125948570562736,1
0.0433219980417132,0.0216400647346441,1
0.0504557631612293,0.0171661977270521,1
0.119161294331792,0.0254891794422777,1
0.108242687299857,0.0125990252007872,1
0.0947154772585431,0.0109212725844733,1
0.0871573067798723,0.00967245264079727,1
0.0735860289057592,0.00793602873930113,1
0.0699516561149877,0.00701728791392437,1
0.0757282508894296,0.00804903197325241,1
0.0761501675820346,0.00905218568836227,1
0.0832800835264274,0.0105738301423042,1
0.0832049966312852,0.0126336366714062,1
0.0297781440831318,0.00319402673020989,1
0.0257238326401264,0.00270845794762445,1
0.0664940429246742,0.013713462593377,1
0.0749834980374206,0.00763863956705194,1
0.0768461389237748,0.0082033805390168,1
0.0784739130437976,0.0100091497416403,1
0.0781228727202431,0.0100199002430189,1
0.0791457226166325,0.00846225118193988,1
0.0801201308310349,0.00749843489873247,1
0.0858160149553973,0.00707903862194518,1
0.0869738696215711,0.00785065003290866,1
0.0945812914225147,0.0139135066855003,1
0.0630944894571513,0.0087984481130972,1
0.0528058536099568,0.00336477701716734,1
0.094611649385224,0.00978694669651723,1
0.102445263193723,0.0106676450439487,1
0.106858956739555,0.0105617285450792,1
0.117443215178519,0.0105533285318619,1
0.116965248236344,0.0103540196463942,1
0.119992106343212,0.0127979471062815,1
0.120922847422241,0.0104528622076602,1
0.136809635702846,0.0140183823130356,1
0.14653233241184,0.0135949682314674,1
0.131606390854796,0.0154646204325356,1
0.128688542290341,0.0138587080888655,1
0.139680441752591,0.0134037857019794,1
0.18201623699815,0.0164374031509623,1
0.181894136673017,0.0190651490387594,1
0.164192216716497,0.0147347646703712,1
0.141275398334139,0.0106316759557819,1
0.105836609145541,0.00678690744623738,1
0.134613494763372,0.00991014991705735,1
0.149455623031736,0.0120335856791326,1
0.167744486410562,0.0162912413534487,1
0.17201148610449,0.0179401113854843,1
0.18503268605985,0.023446631236449,1
0.170021512323551,0.0194089890689437,1
0.171788272617085,0.0189233516908941,1
0.140865367894903,0.0195982369731629,1
0.133871809430949,0.014509466226274,1
0.202838866930233,0.0189618289533349,1
0.194270635061812,0.0172277912311286,1
0.188569668343557,0.0159922444095829,1
0.164637675850553,0.0125147428452613,1
0.176916107568915,0.0055651217156977,1
0.285095173429821,0.00920837179799727,1
0.240388196706516,0.00647482468115449,1
0.268909313491045,0.00714346729673968,1
0.240728473597623,0.00433412665066542,1
0.299753214504653,0.00802053963552683,1
0.360456966495568,0.0100332920493811,1
0.357030639552498,0.0101937490151951,1
0.407939601470916,0.0121271728966477,1
0.436002819312311,0.0128127519118099,1
0.428316235611966,0.0197389403869299,1
0.280696469015732,0.0160534635281633,1
0.296321613136606,0.0208335473619906,1
0.101588528404566,0.00433507547164796,1
0.0712522746745517,0.005216606325452,1
0.0772685933496929,0.00674702263128063,1
0.0814452323630602,0.00486385736533939,1
0.110778176821025,0.00785636111284893,1
0.115664022038819,0.00478929004889557,1
0.118463222615847,0.00452200792762457,1
0.121569574028788,0.00538495214561113,1
0.120205373037286,0.00873842415178372,1
0.0890976342679942,0.00502581465732573,1
0.0854770817837566,0.00482010843514311,1
0.106474287434586,0.00767357847065886,1
0.10063034436622,0.00414814978259011,1
0.096778668899988,0.00794361263136016,1
0.0942716209376703,0.00713730438240409,1
0.109476299386137,0.0124604015166027,1
0.102118891001424,0.0140354262869225,1
0.10077920326177,0.0116395559200026,1
0.112387206836169,0.0120788629337982,1
0.120581057160081,0.0137386663972271,1
0.130108583477091,0.0139959524432655,1
0.0996599857153829,0.0124365069560534,1
0.0540006870271652,0.00569936650851694,1
0.0551213150495149,0.00533864404713773,1
0.0540742558612131,0.00714253239335221,1
0.0639003947690955,0.0111388279726375,1
0.0621771430120879,0.0113894774648028,1
0.0633100212423835,0.0123652759510406,1
0.0680011388477006,0.0121016955175434,1
0.0673826078465475,0.0112055127276167,1
0.0712774715583503,0.0177042558893062,1
0.0388200448970279,0.00839563063317224,1
0.0294474458927466,0.00832023976400513,1
0.0369802629515689,0.0098295156575344,1
0.0517146099336998,0.0155887465365589,1
0.0490866072154688,0.015475141518271,1
0.0480355959858742,0.0142757847356453,1
0.0353509362305006,0.0130545246589198,1
0.0313152159468588,0.0122171911333002,1
0.0370862283449852,0.0115807234182705,1
0.044153643270039,0.00700102803087491,1
0.0711421813029912,0.0204992645794955,1
0.0751854317251756,0.0237678708027519,1
0.095199500991845,0.0257372766173216,1
0.0958187087719713,0.0253062692436015,1
0.0962845300804822,0.0251060835325732,1
0.0945076916390508,0.0264948332163039,1
0.0892358318906969,0.0171232647538803,1
0.0736688423546774,0.0102892366809015,1
0.0453772480273802,0.00481293532400665,1
0.0472519068227076,0.00583554490428743,1
0.0470745760432037,0.00614718802912111,1
0.0493081825554709,0.00586784169927105,1
0.0495813011391017,0.006091550547426,1
0.060620404369364,0.00560312081667923,1
0.0747861990883826,0.00781948771567453,1
0.0638742058078461,0.00647949359145482,1
0.0848692470553567,0.0108086284066254,1
0.0971261532020747,0.014733979108203,1
0.0677553084442746,0.0121074449009454,1
0.0671278494024097,0.015401979088122,1
0.0756750389255906,0.0142647520723071,1
0.0796136380865452,0.0156583785578973,1
0.0567537248734123,0.0062916265440359,1
0.0930627154295647,0.0130850288664306,1
0.113346252032631,0.00994842117412175,1
0.119060635738192,0.00901156689161804,1
0.117481850248414,0.0106120346358403,1
0.11121909043598,0.0101775494338819,1
0.114993045830455,0.0107038251372735,1
0.148254023770194,0.00719418086439584,1
0.200139249733947,0.0114993662379345,1
0.22989126999269,0.0143584912485592,1
0.24805935680682,0.0194376864014946,1
0.179656869681932,0.0126955053251609,1
0.177644477850652,0.0156102688378849,1
0.176415951619305,0.0173565736995053,1
0.152501526944699,0.0149392279126756,1
0.135326414503536,0.00508851384185299,1
0.200361554358456,0.00855157939795579,1
0.343902412678468,0.0267505459248588,1
0.400044537819517,0.0271875949606583,1
0.501380029471397,0.0312532397684759,1
0.476439280797748,0.0237089690349383,1
0.457881265583302,0.0240978463749051,1
0.42530742836828,0.0237354550161562,1
0.352623868503205,0.0188901223750383,1
0.18147498045675,0.0107260345164887,1
0.0476724496476963,0.00448775793925565,1
0.055294414443738,0.00697250419608627,1
0.0511722071602058,0.00574339470290334,1
0.119483260384498,0.0134859120490327,1
0.121005197691329,0.0128667525212631,1
0.109784718552093,0.0123571615182996,1
0.11298719814152,0.0141859536222363,1
0.0929032598620355,0.0118580286028372,1
0.0871514152206979,0.0106481872428808,1
0.0756322366075969,0.00868014461724013,1
0.0820798992693285,0.00780787548982965,1
0.124781132785306,0.0129428643174986,1
0.145837411956231,0.0166962528830492,1
0.12120836338036,0.025446537476778,1
0.0845433549988417,0.0141673486627515,1
0.0927318949202732,0.0173714345037238,1
0.103794500808899,0.0108722717808007,1
0.0968188993964319,0.0116170914281577,1
0.0929503972727076,0.0105473309770007,1
0.0864130730670829,0.00820296468933295,1
0.0953637963120433,0.0141737727154667,1
0.0833316107253034,0.0106117061655922,1
0.0851766391254527,0.00929786887983283,1
0.0910006637576529,0.0104453773191916,1
0.103130537441541,0.0163877964478635,1
0.0773427063624775,0.0169193210398294,1
0.0546206912465172,0.025313886189768,1
0.0567662366451137,0.0269100832686764,1
0.0581536549165416,0.031195036948051,1
0.0533684140860093,0.0264409000576158,1
0.031000887843606,0.0128616601842661,1
0.0219456467364301,0.00989880912620819,1
0.0240185475651892,0.0141913153167281,1
0.0225467191407476,0.0122210309537614,1
0.0245390880287547,0.012225014197437,1
0.0251702848065113,0.0105980029326793,1
0.0251327977166297,0.0104600406861916,1
0.0249473248716031,0.0101682623763859,1
0.0250166890438982,0.010298525279367,1
0.0185932877524682,0.0132247375026147,1
0.0132725676597408,0.00929331871000054,1
0.0307468140481995,0.0245105527178766,1
0.0336534852537318,0.0222058699999064,1
0.0336472246941676,0.0216757400325583,1
0.0241964573878992,0.0183847678830028,1
0.0228549985729782,0.0174434264405885,1
0.0239798325481558,0.0199489371973518,1
0.0385388729560677,0.00810544596070875,1
0.131457715761812,0.0254227826158278,1
0.179937248994849,0.0357287267543213,1
0.169458471367915,0.0181300440684135,1
0.174038913423997,0.0198276137617187,1
0.173660981332221,0.0191461525899592,1
0.171554944107073,0.0178585705334665,1
0.146838948409292,0.00862380421246311,1
0.179240934909918,0.0110942618264831,1
0.185560523900699,0.00918086277254646,1
0.188933443780806,0.0143371289022544,1
0.136329431119669,0.00988141773615018,1
0.0850907340755921,0.00361077868204577,1
0.0753285726146646,0.00732955747030403,1
0.118762295558251,0.00360047963976823,1
0.277393239512817,0.0137590194121866,1
0.292091493635065,0.00791409743812631,1
0.289918507007967,0.0104598389529028,1
0.24309496979984,0.00844740606385476,1
0.227652968169868,0.00863499070288178,1
0.213087743575943,0.00817341502868152,1
0.202142915377254,0.00660280064290026,1
0.232711088788944,0.0079522788314211,1
0.230250570318979,0.00701949276476821,1
0.206634675123939,0.0130185302342058,1
0.0779092752620026,0.00190094134254201,1
0.0692984210618399,0.0048417935716476,1
0.175115250568239,0.0164553437906095,1
0.228292013028837,0.0229695909751202,1
0.265451185231438,0.0276012144726774,1
0.272479851511952,0.020186662798083,1
0.261268045257,0.0210051310215023,1
0.195356059775005,0.0143136361478036,1
0.193654240941049,0.009252049756075,1
0.298386900852663,0.0163658408755745,1
0.340744476019586,0.0160354042795465,1
0.33183849188063,0.0196440109454248,1
0.314714445378565,0.015718037139068,1
0.279921975270369,0.0127146509087643,1
0.197580226139292,0.00771552055213593,1
0.144093873359769,0.00567836875557164,1
0.150258065979501,0.00552787851914388,1
0.138315133372891,0.00563509702439938,1
0.143127731111024,0.012385792691705,1
0.12611273248509,0.00657367136336169,1
0.140704143654193,0.0116466167946359,1
0.133256193790827,0.00497735708731916,1
0.140231893318158,0.00797638954747714,1
0.126034035779801,0.00654136716973701,1
0.120150361857003,0.00391309812729778,1
0.140883874671011,0.0048016837561606,1
0.154464416495955,0.00638125010955725,1
0.183102150709722,0.00866723473566535,1
0.200259584296921,0.00595119908502829,1
0.238587920244598,0.00861851538147551,1
0.20155786202775,0.0055203280639393,1
0.191974917262745,0.00884358822640794,1
0.208646382898303,0.0107747341903731,1
0.251028537733192,0.0135305056125449,1
0.276071243028165,0.0180032098450531,1
0.228109247626399,0.018455994596742,1
0.197646858429227,0.0152976996985005,1
0.123210680887677,0.00952026190812671,1
0.0467131744860872,0.00675089295171077,1
0.0497846334289089,0.0118598285513258,1
0.0445802609080268,0.0315364688249451,1
0.0211741331541778,0.0144655791287974,1
0.0235945334796851,0.0071875100852567,1
0.0297275434664305,0.00912381549508379,1
0.0289704178886912,0.0114693833008284,1
0.0210131095712271,0.00659352508589218,1
0.0196541421205541,0.00540354203801535,1
0.0193223573031994,0.0045287898699997,1
0.0196030841395355,0.00443639023362833,1
0.019805085258324,0.00393947311592254,1
0.0239635540651557,0.00543707688983464,1
0.0192340628362999,0.00536574039722873,1
0.0147864737906052,0.0108818699673554,1
0.0131405159725221,0.00938474386555832,1
0.0143875359804385,0.00813425646406887,1
0.0206003979046182,0.0091226747248524,1
0.0285625702983693,0.0150443228298703,1
0.0830204237556177,0.0222696927288634,1
0.119646325314193,0.0215652198928704,1
0.128513870110887,0.0250785498657566,1
0.130415076295282,0.0258867154633845,1
0.123984514760884,0.0257554911582897,1
0.108061396386945,0.0201900365695174,1
0.0894744489166438,0.0176312820391207,1
0.0464702785588495,0.00797516424083496,1
0.0369884719709108,0.00693245061989898,1
0.0291295343452369,0.00318382129299294,1
0.031235693302453,0.0103816704499649,1
0.0547785948435332,0.0200939934503953,1
0.0746358023882255,0.0101348504005608,1
0.0780962730775442,0.0118014649457897,1
0.0872441943120529,0.00658873259695616,1
0.113375917744458,0.00779417852103553,1
0.111408439008925,0.00580507107248856,1
0.108909794194939,0.0036878007250078,1
0.113420013007199,0.0041748924578892,1
0.113769827601834,0.00412793195607255,1
0.126402970666374,0.00478962529861569,1
0.120882694874669,0.003626481543669,1
0.107792935083054,0.00410560788061653,1
0.117642151130361,0.00384136744372164,1
0.119812943574825,0.00492228876269456,1
0.102206831633984,0.00476607607632718,1
0.0832800742104103,0.00485481135473687,1
0.0818885598272082,0.00939641953352828,1
0.0790837463481727,0.00957305594643887,1
0.0876942544301247,0.00972190119611527,1
0.0839866868358034,0.00755509306401745,1
0.0805785274541432,0.0104795282028849,1
0.0825844651583619,0.0113179358188202,1
0.0640530498719485,0.0104397327859468,1
0.0560425109988845,0.0115197753907372,1
0.0579925431615445,0.00957497282585122,1
0.0594008862961345,0.00968141396988197,1
0.0500316944074112,0.00678514384711837,1
0.0455087271547572,0.00241756266811814,1
0.0783389845004663,0.00964746255119354,1
0.124922966932043,0.0172967854139559,1
0.244145601535309,0.0312319740205422,1
0.246150758710084,0.0133344149474296,1
0.297644987283419,0.0131210341856803,1
0.348303843352529,0.0164959611933648,1
0.423184487675458,0.0177678975516439,1
0.5665784853789,0.0228975409215052,1
0.654562450025814,0.0225944574766556,1
0.693804018062861,0.0269466319588986,1
0.710353661665817,0.0290546195493285,1
0.584427615018542,0.0183231848311089,1
0.275109127256175,0.00814928615600927,1
0.0982612721838946,0.00346045664760281,1
0.0969976348370066,0.00437830144317078,1
0.11181893530235,0.00532804520043399,1
0.123958254512636,0.00790861141718137,1
0.100706856140827,0.00638324989979581,1
0.0895375781806091,0.00696138060245595,1
0.0887736152707931,0.00717290333839625,1
0.0580235865579238,0.00300694763897254,1
0.0508732660002895,0.00664900674666572,1
0.0549504640766076,0.0106324126773821,1
0.0462823228102291,0.0109119998090983,1
0.0432825921547488,0.0130177086923782,1
0.0416053772388281,0.0138663960548268,1
0.036423943921323,0.0208402486971688,1
0.0288969531504673,0.0157162638590708,1
0.0199158138868694,0.00883518174306517,1
0.0188579018980057,0.00590362542247029,1
0.0313617644668258,0.00903803470880382,1
0.0378822266398435,0.00805633648753524,1
0.0378366284693081,0.00640695931542595,1
0.0376785564979405,0.00476448641095941,1
0.0435865926189812,0.00617791448471898,1
0.0454349300873093,0.00407656263243963,1
0.0491769442027884,0.00357815319634704,1
0.0515641517634106,0.00292601948424929,1
0.0591906075295036,0.00217811156656232,1
0.0682721450067296,0.00335190684583921,1
0.0651491197798059,0.0017061491707797,1
0.0990116306766053,0.00749682176711616,1
0.121337000776704,0.010300644940119,1
0.143206142195302,0.0138360638687146,1
0.126591785415771,0.01232324772753,1
0.120639294007549,0.0133699932300469,1
0.114358157463683,0.0138151140073454,1
0.0936206463117635,0.012593212112641,1
0.0849770981473434,0.0183791859726241,1
0.0236686243916529,0.00436798897047878,1
0.018781526384143,0.0115817370557613,1
0.016862848954638,0.00737869641627081,1
0.019040018158999,0.00660231849480497,1
0.0162100449989682,0.00424097375698661,1
0.0514913677705266,0.00512548753005179,1
0.0935020734937344,0.0102308637151181,1
0.0960966866182302,0.0112652749062915,1
0.104255899009891,0.0107840919293224,1
0.0967781416859124,0.0101396157496159,1
0.0961392795467978,0.010761082605568,1
0.0830990202816905,0.00998428923364845,1
0.0755488762020235,0.00973362194569333,1
0.0716313900833602,0.00977423035027279,1
0.0577453352705784,0.00436528047944296,1
0.113555486292625,0.0208898970865077,1
0.161669293692722,0.0305426376029374,1
0.172255582851279,0.0292695977197667,1
0.171663143980123,0.0360237847403869,1
0.176814852245173,0.0311669307061785,1
0.174980751607864,0.0108153056094614,1
0.186204048014103,0.010103076314509,1
0.153710830204222,0.00740087409440638,1
0.136851255490457,0.00547631012136109,1
0.129071188833019,0.00626176274458356,1
0.10967874059779,0.00548538614787103,1
0.0823885566365368,0.0028458738598348,1
0.0798176279888551,0.00232229194661923,1
0.0825922730117714,0.00213631893611736,1
0.0590742537387909,0,1
0.0469321935022607,0.00781466049710326,1
0.0515157412597283,0.00963414400008636,1
0.0746689340684506,0.00680545290826728,1
0.0773736579847684,0.00892075767789664,1
0.107144778091275,0.013980586902103,1
0.110493703709166,0.0131909460634429,1
0.11428435245044,0.0143277349472039,1
0.119471020024829,0.01363900514993,1
0.170168178393783,0.0180673249872188,1
0.204393164805557,0.0104659404402069,1
0.225566078697542,0.0106782581336672,1
0.201860406094301,0.00973931254163511,1
0.181613619955223,0.0104085803892173,1
0.195421910413134,0.0104006622333329,1
0.174238259709602,0.00938058238772112,1
0.175991496272392,0.0100390063382936,1
0.171124053707515,0.00972945576276213,1
0.165660387609684,0.0110567699516452,1
0.103281564658417,0.00772088035826014,1
0.0435147174025382,0.0078172563648378,1
0.0461727713092375,0.0105674595040621,1
0.0450973555805377,0.0146968379785749,1
0.042260012173752,0.0143197458404152,1
0.0846792970502571,0.0180863734920731,1
0.107661270749301,0.0207792076179442,1
0.111442629725707,0.0147243387842589,1
0.119593771884009,0.0146511369092684,1
0.130955205782719,0.00664799521390565,1
0.254634272936752,0.0169047753254957,1
0.331137808059354,0.0255066162655572,1
0.329798384671015,0.0239108850589946,1
0.288292382201755,0.0215454656332937,1
0.227535569343369,0.020163342573717,1
0.242887178916064,0.0208204327118298,1
0.336358320384389,0.0212380306205537,1
0.296151819319077,0.0183232737605442,1
0.188756139956363,0.0109035724620726,1
0.129495286847266,0.00897142484254301,1
0.170807871166254,0.005825589247523,1
0.399902244618077,0.015461246957956,1
0.490640192886473,0.0146268650179648,1
0.523035074887849,0.0155223789894993,1
0.605798738865961,0.0175683077883917,1
0.652653710629984,0.0219214408111203,1
0.439427713929571,0.0157420434088521,1
0.412691656247572,0.0153627239601234,1
0.395111489721898,0.0137924753823751,1
0.197881343648587,0.00660831099683854,1
0.0762270051431022,0.00889855088278846,1
0.0816139445804626,0.0107912029760108,1
0.0709311361950597,0.0144536489556802,1
0.0414731316748321,0.0087018001148496,1
0.0783188138916666,0.00711149201871291,1
0.132945029938118,0.00943959660104915,1
0.125983547054822,0.0084093976646097,1
0.122074711925345,0.00732292613194167,1
0.107473684540483,0.00604027854561482,1
0.13403885100871,0.00674140485073836,1
0.139330269190714,0.00560820731126271,1
0.13322755551586,0.00539986518535967,1
0.124184544247561,0.00576275827189619,1
0.0863214322478774,0.00144557842760972,1
0.088508349336974,0.0041657038676309,1
0.082543064177422,0.00520673217362593,1
0.0651658165633556,0.0034907732287298,1
0.063054588495686,0.00405278453962296,1
0.0828518320759263,0.00587868434443352,1
0.10438916044845,0.0141445621730227,1
0.0928947810518525,0.00746238649656797,1
0.0967917977752538,0.00742207742876814,1
0.101231876060661,0.00942248421643234,1
0.0712343365923677,0.00721254557075097,1
0.0826585616544665,0.0107220513180657,1
0.0908850607511204,0.0102331478844667,1
0.0819739226298911,0.00858489155310457,1
0.0599545174708771,0.00489260797290403,1
0.0587638853862734,0.00671639370617415,1
0.0508238870228327,0.00546336277878914,1
0.0432567683612484,0.0163413462631175,1
