Activity,Complexity,Tag
8.30619325863749e-07,0.270778453828627,0
7.32298385944964e-07,0.272132838323954,0
6.83014856595571e-07,0.260971950008542,0
7.40316652478663e-07,0.273919785384028,0
6.81049476632663e-07,0.264891571051007,0
5.13809404631639e-07,0.226517289339127,0
6.70522917675163e-07,0.262708819130321,0
7.85117871674152e-07,0.271127229394564,0
9.01898065603771e-07,0.268557980194073,0
9.00929368805176e-07,0.265142036542955,0
5.9241274061432e-07,0.221396701378449,0
8.84947426426462e-07,0.2689509278011,0
8.93914580479318e-07,0.272166568482825,0
8.97363237825308e-07,0.278157128788885,0
8.58540620402717e-07,0.276639980748316,0
8.53479234335919e-07,0.279082263141764,0
8.46295721624144e-07,0.276317405266101,0
6.82741096960539e-07,0.248883117919111,0
7.37865254148135e-07,0.268378063088522,0
8.14246150216123e-07,0.28498316305712,0
8.49880740521618e-07,0.289498196441886,0
7.5473458314356e-07,0.278429885503925,0
7.52870668152661e-07,0.283270437068242,0
7.46626599001242e-07,0.288104525999377,0
7.53328469814106e-07,0.297920368194149,0
6.78401597890958e-07,0.297438500047786,0
4.03605430794725e-07,0.233650277898814,0
3.87642721844304e-07,0.245110234824722,0
3.07276590332044e-07,0.228093440835569,0
2.22096112894823e-07,0.202050649874077,0
2.98843710972885e-07,0.238995627318262,0
2.74738121300668e-07,0.240101825229337,0
3.69791336303685e-07,0.272622542057152,0
4.38545199106888e-07,0.298892953274589,0
3.83118489726936e-07,0.279280354355286,0
2.83779444981189e-07,0.248031986084659,0
2.41593626522745e-07,0.228640832403723,0
3.00654302147621e-07,0.239718755667932,0
2.71279328974501e-07,0.231767979284558,0
2.64952452428218e-07,0.2377477720196,0
2.56274030140204e-07,0.240368945652455,0
2.58397769168392e-07,0.232515581641559,0
3.05737340217526e-07,0.253149847682983,0
2.43647687562209e-07,0.213527486648307,0
3.2829780609353e-07,0.231610670033354,0
3.4673333503713e-07,0.230718189925565,0
3.68248170401371e-07,0.234702299470582,0
1.07623458162322e-06,0.33413971720469,0
1.87196585060776e-06,0.367627443748438,0
1.85394124904229e-06,0.3537584374429,0
2.00820129069115e-06,0.353193006616263,0
2.18506763596728e-06,0.358756632077606,0
1.78652992560197e-06,0.320313681841627,0
1.7377949520547e-06,0.314469953144056,0
1.79445075812168e-06,0.31838577727599,0
1.83498422930044e-06,0.326741397076489,0
2.12650553226502e-06,0.350051805326503,0
2.3495792100661e-06,0.414007896170015,0
1.79608767259064e-06,0.411220001481558,0
1.87338382647084e-06,0.427873019207568,0
1.61209943067541e-06,0.424811121265709,0
1.51771328164047e-06,0.368578723040579,0
2.45312588396888e-06,0.434198696832982,0
2.07326037736837e-06,0.398882546685274,0
2.09316144747973e-06,0.410214467683246,0
2.13293203105965e-06,0.391609784887002,0
2.17763869549688e-06,0.399878172848623,0
2.36187985123565e-06,0.397526824101393,0
2.97209733344772e-06,0.390699782010031,0
2.90631209847481e-06,0.377717474912368,0
2.93691927793115e-06,0.377397047068864,0
2.83379907938744e-06,0.416142154639937,0
2.20176328825694e-06,0.383963508277703,0
2.20195401015664e-06,0.388490194373505,0
1.9428526660575e-06,0.368152013049771,0
1.79583372223505e-06,0.354269777705657,0
1.99457146990532e-06,0.365703461615783,0
1.68330515249006e-06,0.343910608008517,0
1.37246058845448e-06,0.352489235031669,0
1.10406972883068e-06,0.331929341524361,0
9.46353774111376e-07,0.302686938558109,0
1.07748947644161e-06,0.320871779003031,0
1.19241450831776e-06,0.331165337320441,0
1.18782255610557e-06,0.330531714258247,0
1.11028892121257e-06,0.318699241592887,0
1.04335290530855e-06,0.335535335923956,0
8.22780840057978e-07,0.31217181076812,0
7.77516982051416e-07,0.326190644490091,0
3.58755264251787e-07,0.250059609447494,0
3.03862368884614e-07,0.236312151105069,0
3.01430549493065e-07,0.23739779458895,0
2.26274488813621e-07,0.211581818214068,0
2.30240145318912e-07,0.222558345279911,0
2.73068613656818e-07,0.22656750277194,0
3.16048876356934e-07,0.232178608600283,0
2.92945152509347e-07,0.222466173098315,0
4.83830133265412e-07,0.253590353471629,0
5.83583214985472e-07,0.244952831402682,0
3.21872505069292e-06,0.390868460366393,0
4.4523899648668e-06,0.37173588817196,0
4.31254647184008e-06,0.347200602104789,0
1.21274736313578e-05,0.372767461843499,0
4.04763946558434e-05,0.659335713422104,0
5.42714828779926e-05,0.623927738776199,0
5.06453229863809e-05,0.482653391747228,0
4.62399976812259e-05,0.432866279645507,0
4.26477718914842e-05,0.375499080021285,0
4.11378026560615e-05,0.359218211412671,0
4.31647567696779e-05,0.396784499796057,0
4.16699544169212e-05,0.383818060692104,0
3.89818748156591e-05,0.357879885682011,0
3.84478792945986e-05,0.473019065113904,0
2.32487260455231e-05,0.408455296108117,0
8.65141360237239e-06,0.264491977786623,0
7.37096665622939e-06,0.221495702793963,0
3.79284635183751e-05,0.301729950445039,0
4.45509497955926e-05,0.217533580329787,0
4.36960651389486e-05,0.216542236638306,0
4.34154782127234e-05,0.220095186168638,0
4.30737658390026e-05,0.229896004518174,0
4.28278924867593e-05,0.242885665245805,0
4.53906223076704e-05,0.234461641524527,0
4.64117993004986e-05,0.213651132932938,0
4.06640714546922e-05,0.196847911964152,0
3.7966893981167e-05,0.211192452203308,0
2.26699807863596e-05,0.224847937728495,0
1.90598188457885e-05,0.30026362963855,0
1.66215305728e-05,0.251744890430472,0
1.27987643889516e-05,0.201521050516081,0
1.10454929766546e-05,0.182799909948284,0
1.096495489599e-05,0.170702702007955,0
1.19540773650903e-05,0.173153046498809,0
1.13274252063281e-05,0.189904042153216,0
0.00012095146430595,0.104399114069753,1
0.00040843881021246,0.108916487640638,1
0.000410794453365439,0.0909926761804998,1
0.000399169153720788,0.0920512870878028,1
0.00038388695720822,0.0896941900002987,1
0.000378953076102275,0.0847762919618926,1
0.000432969117400545,0.0739020995381049,1
0.000547313118118816,0.0691346947201889,1
0.000527631583770974,0.0589620095976079,1
0.000521942003070534,0.0511813276845605,1
0.000553569403606798,0.071436119655194,1
0.000522432602334026,0.0902563293864828,1
0.000490336143743616,0.088208820521958,1
0.000411944128662347,0.0764003192394419,1
0.000372869567495067,0.0680885283051711,1
0.000291977258332081,0.0533420237450391,1
0.000298569839046879,0.0631846034441832,1
0.000255959611843953,0.0713977695115832,1
0.000204753206680625,0.064918903134936,1
0.000226680373578424,0.0799413824211428,1
0.000248678201212513,0.0737932484788716,1
0.000245288623890747,0.0491559745869591,1
0.000403325570477477,0.0633953488149401,1
0.000410091751885699,0.061110771606022,1
0.000340727140320017,0.0520798578768076,1
0.000637187566133191,0.0587189180934371,1
0.000713190864166053,0.0433815016536333,1
0.000652827518693101,0.0410767391340668,1
0.000692787993680201,0.036206453585579,1
0.000947284010502919,0.0454674014471475,1
0.001012120422452,0.0501210327927684,1
0.000877766231515554,0.0398887186702054,1
0.00143651306429361,0.036919257851655,1
0.00209611255434787,0.0449939100122325,1
0.00379593917509695,0.0582973427371249,1
0.00454811128881948,0.0605781723358013,1
0.00716184364043892,0.0198841365356724,1
0.0309890730719808,0.0407881924546266,1
0.0447225287149148,0.0318913922280011,1
0.0426484218778224,0.0259284307483484,1
0.0392414926586181,0.0238098226938842,1
0.0338114573074663,0.0205613423549354,1
0.029427205860657,0.0167417293506528,1
0.028351581602012,0.0164438693560831,1
0.0285412381442788,0.016531317278629,1
0.0229594549384984,0.0113259018306971,1
0.0181971784582159,0.0151839069922206,1
0.0192481852550626,0.0168320322824769,1
0.0174913142179796,0.0129034104734097,1
0.0171948818583451,0.0144125269248769,1
0.0176909294729643,0.0153353110599175,1
0.0184970011779842,0.014017885977519,1
0.0188410946639481,0.0164459823665132,1
0.0274192646762854,0.0182581237826116,1
0.0346155196379564,0.0147918007070434,1
0.034740127017304,0.0166146960822344,1
0.0376527173789713,0.0183669548464664,1
0.029948109239136,0.0198630875942468,1
0.0226147043814998,0.0170219312152352,1
0.0201804697725777,0.0129653017129156,1
0.028090110131067,0.0126929809214993,1
0.0308761293034243,0.00389298421972747,1
0.0460542282889865,0.0076050208634509,1
0.0497867697359502,0.00581748945679068,1
0.0502012540813025,0.00692563088977538,1
0.056921223337817,0.00733565891773352,1
0.0599816165829869,0.00639939829922424,1
0.0597022183417126,0.00611752833793883,1
0.0617469666814242,0.00614956287648285,1
0.063252016004047,0.00596915192285738,1
0.0546082491424084,0.00458487947118629,1
0.0502731415947508,0.0083723865712729,1
0.0320806397038538,0.00395682768602994,1
0.030453351917599,0.00657664507098365,1
0.0298233585812281,0.00745507074036807,1
0.0232049649826832,0.00619759703951057,1
0.0242206563404412,0.00914900233556097,1
0.0254436001833904,0.00809255654243205,1
0.0267016057395395,0.0103701324345238,1
0.0221169442921034,0.0119836300157298,1
0.0209712272895594,0.0169271716732121,1
0.0201383264363858,0.0148574221415298,1
0.0253943277288103,0.0144280800995031,1
0.0534396265502724,0.0222883699367722,1
0.0566540470564059,0.0123272003653546,1
0.0645558004916006,0.0155908212773755,1
0.0562617640957335,0.0132970064972885,1
0.0604608095607617,0.0178170009738643,1
0.0651434618125391,0.0188842637548256,1
0.0655081966405807,0.0166804058541829,1
0.0660667976817841,0.0176652795204622,1
0.0722844616362242,0.013077906879858,1
0.108929695177911,0.0207621360202886,1
0.0890405086050206,0.0190356232040486,1
0.0892497912518163,0.0248648882672959,1
0.0813912687946608,0.0189300807006879,1
0.111684468866651,0.014372283215881,1
0.147415039428258,0.0139497012576417,1
0.126457113174853,0.010639874708316,1
0.174292319188743,0.0141508532671238,1
0.213822856116945,0.0179687788714399,1
0.238727406338434,0.0219295056594233,1
0.241897283973387,0.0233799828639026,1
0.230857276792465,0.0213835834843463,1
0.170548980333193,0.0177415445325658,1
0.0945537911479041,0.00974469942761979,1
0.100765679946939,0.013908594202131,1
0.114903360226034,0.0194313515076305,1
0.134290673931232,0.0263284338060498,1
0.141075038260582,0.0154709154653453,1
0.15255813749769,0.0117477468751431,1
0.145394918491493,0.00939357016112361,1
0.151331986236757,0.00751469332456721,1
0.159640180535631,0.00806947583463521,1
0.156331386659636,0.00882811588197431,1
0.154370838021625,0.00840448744586533,1
0.158728215394216,0.00913933004708643,1
0.153997604859758,0.00917711534549287,1
0.1660295312032,0.00928317875934018,1
0.136182239025907,0.0127662284744894,1
0.0671156851397964,0.00836471678319123,1
0.063556093662484,0.0109746012397871,1
0.0613773517679452,0.0163643822757002,1
0.032968340875685,0.0100457457317279,1
0.0321513123625655,0.00689015062388139,1
0.037791059186151,0.0110605955494032,1
0.0657256088991059,0.0206500452786296,1
0.0698926235446275,0.014507994118052,1
0.073896096850717,0.0148452771279419,1
0.108022269070868,0.0262434089023785,1
0.112663040650013,0.0251561619456883,1
0.110907491682512,0.0239820933347751,1
0.117179039640765,0.0237257549955508,1
0.111230630758818,0.0253370095686658,1
0.0609883456686429,0.0162776563216646,1
0.0518864680991481,0.0125931961423801,1
0.0524468182362671,0.0136217555073853,1
0.0370834599755126,0.0173756415794957,1
0.0136809493422583,0.0115436625982626,1
0.0179711863345569,0.015034811366271,1
0.0130224578946147,0.00960119447177047,1
0.0134542258909831,0.00529196180405208,1
0.02745978607486,0.0155765735305535,1
0.0308679342972325,0.0118017406612814,1
0.0309926688864749,0.0116982905178416,1
0.0700856460341644,0.0133479297723161,1
0.0914667607389763,0.0085814034376574,1
0.0840439580356057,0.00814450410149631,1
0.0786693739966134,0.00785843172118928,1
0.0795464056349762,0.00711751534767306,1
0.0699963509519464,0.00557863244513511,1
0.0625359908969355,0.00521843914655412,1
0.0678712582300444,0.00582370985508296,1
0.0761973147759327,0.00807834356178693,1
0.0642565017891198,0.00586501909188431,1
0.0727771539303304,0.0115080300543437,1
0.0787968299487319,0.0212777723767619,1
0.0800229056699715,0.0146351264672509,1
0.0819139698939262,0.0150668160907402,1
0.0646864636782361,0.0119911862925519,1
0.0617035182153482,0.010966830432881,1
0.0652637831685429,0.00696255810198036,1
0.0810965928639456,0.00527988900822573,1
0.105869978453149,0.00443175274678208,1
0.118121159493738,0.00542017655799685,1
0.117092735345475,0.00475914899366969,1
0.150842401675963,0.00693325888255266,1
0.164728232380229,0.00735457999753643,1
0.156900530953491,0.00674260813090408,1
0.153956759776636,0.00723621982177023,1
0.143256501311151,0.00629835858541927,1
0.142942421867828,0.00657997104871025,1
0.121684120440111,0.00747173036169967,1
0.0814786511426097,0.0069779285157939,1
0.0874911347219157,0.00582126222990048,1
0.132589686817823,0.0117330766654681,1
0.131619758526079,0.0155953655520262,1
0.140419481131788,0.0130987426645403,1
0.301931139204547,0.0230599936472052,1
0.319695000185593,0.0142922758305676,1
0.297919369046195,0.0149033884748922,1
0.243743183091358,0.0130286148580007,1
0.257095954729226,0.0124392003271381,1
0.27576085705126,0.0138094545602628,1
0.259880721407603,0.0144736693362034,1
0.257900683915613,0.0163785476539191,1
0.257759190311107,0.0177246324627466,1
0.25265231725861,0.0223247993565428,1
0.144287672851454,0.0129053236824052,1
0.127676108798876,0.0145616424484242,1
0.189766254305495,0.0186741689570477,1
0.205434793395972,0.0191066815076479,1
0.176017874572098,0.0171362778929749,1
0.112811423543804,0.0110813996715382,1
0.103993199922093,0.010340475182899,1
0.105694848342959,0.00999864909292516,1
0.105355332652483,0.00992787555256216,1
0.101921988457654,0.0105090167225829,1
0.106142691861548,0.0156950732505683,1
0.0936296788134117,0.017273486985894,1
0.107835412495504,0.0239075271819609,1
0.149907402285415,0.0305403123956375,1
0.236598360357296,0.047043418038681,1
0.291594173156956,0.0513863729666559,1
0.332833318238949,0.0716189349542893,1
0.324401052265375,0.0643367369229091,1
0.316829328183241,0.0593090624619803,1
0.277257403827015,0.0664560468704329,1
0.138191385625433,0.0395127368246011,1
0.0398707442980213,0.0204817652761044,1
0.023125224927133,0.0222812109359197,1
0.0240769862870626,0.0223719709694287,1
0.0270093710504783,0.0263253676614653,1
0.0241443201678525,0.0254384271981452,1
0.0301638447622792,0.0320285787153527,1
0.0260752852091913,0.0268057574909182,1
0.0150020309085249,0.019129891499965,1
0.0118561286785018,0.0140556193978561,1
0.00697699026567453,0.00788046793247893,1
0.00802264108931992,0.00738513983146865,1
0.0106421444792396,0.00934179934474251,1
0.011558745233785,0.00846158547624325,1
0.0205983889722392,0.0140786562439149,1
0.0204925763241902,0.0135430112992342,1
0.0157933776202759,0.0105508259501711,1
0.0158599433956797,0.00906062219106231,1
0.0197664531926088,0.0084872191376859,1
0.020559291542065,0.00464584526395669,1
0.0558065388677545,0.0138677468007901,1
0.0502143684181086,0.00735793863392057,1
0.0560885393810508,0.0071673763367006,1
0.0576018401954498,0.0076042043844416,1
0.0591082850730562,0.00712047614513754,1
0.0560276328237895,0.00589358560948475,1
0.0535879415294467,0.00537316527103136,1
0.0521368495320359,0.0053509507562037,1
0.102831894347883,0.00870906121496738,1
0.112419030044128,0.00482984730601917,1
0.110810052334189,0.00557346989931798,1
0.105853195324924,0.00639614379345727,1
0.108482987265769,0.00705192704908383,1
0.109716171244729,0.00689989101078791,1
0.115523993603816,0.0069240099894888,1
0.122288762734798,0.00678147807175057,1
0.133338080205536,0.00613238259705577,1
0.123786923714375,0.0031584131437323,1
0.103468485057087,0.00349295351770276,1
0.0858101529343942,0.00819232443560353,1
0.0683354065371207,0.00556459440815023,1
0.0576634995836455,0.00421364388838996,1
0.0570971093154041,0.00485027260352263,1
0.0553185835119345,0.00478005748196087,1
0.0733778371003921,0.00817015174302582,1
0.174829015939081,0.0221897965302366,1
0.209973105959416,0.0215712629823124,1
0.192781311483228,0.0273551639265582,1
0.210923637685159,0.0331233511036801,1
0.190180644541452,0.0302388521625299,1
0.156925124335268,0.0265738211104625,1
0.129909416918101,0.0198143745451435,1
0.141820895025377,0.0210927710817757,1
0.126227610407043,0.0188839078195021,1
0.147382458908272,0.0151101277851119,1
0.143158604376766,0.0111944867753105,1
0.124535456523482,0.0132456028067238,1
0.125287434920879,0.0142313006835323,1
0.143492842098607,0.0145575562694253,1
0.215327025214812,0.0212618467475042,1
0.259791291128896,0.0245596142995298,1
0.308250475321547,0.0310697029832262,1
0.269100476771875,0.0232286286848417,1
0.242323820267651,0.0117860442621982,1
0.274680913359884,0.0165155659765723,1
0.270240999572201,0.0215454941626331,1
0.25513944178216,0.0188132271250331,1
0.277795611787663,0.0196968554172356,1
0.292344376213215,0.0137826993610236,1
0.330496771811231,0.016338188168496,1
0.346483686875701,0.0110292400100747,1
0.307746904581971,0.00973289563066008,1
0.253229325739775,0.00869398400304113,1
0.229204057006157,0.014295331955664,1
0.197370372476727,0.0133136808391066,1
0.240625138159347,0.0136172119411827,1
0.31195898783073,0.0166983013445158,1
0.30174659457583,0.0129331943002955,1
0.291928506278328,0.018755063551548,1
0.21390645106242,0.0150603207636941,1
0.201849417767121,0.0185671768487494,1
0.277189116192764,0.0293220628535655,1
0.262767926313571,0.0224481902868277,1
0.221519809789967,0.0175941503315601,1
0.207508936221458,0.0160785142147352,1
0.213913489416993,0.0207842062644003,1
0.240006656643667,0.0234178666064531,1
0.232479319670736,0.0376937813068558,1
0.118146471445955,0.0210280621670639,1
0.0550494986149721,0.00679408210124368,1
0.0537735794337933,0.0136798681413829,1
0.0687572555827171,0.0159859955985059,1
0.0858376271582579,0.031073306533603,1
0.0671100517590582,0.0290009249016406,1
0.0629629389104872,0.0258372531337468,1
0.0516188706542593,0.0212950355773429,1
0.052147860265716,0.0235447170504378,1
0.0524123897218474,0.0249594807820807,1
0.0188669131537211,0.0117465799857289,1
0.00897198400676487,0.0174842554860545,1
0.00765681726456841,0.0157513556709833,1
0.00702456511798509,0.0248541645431569,1
0.00701528439639847,0.0271660010302705,1
0.0080437294109734,0.0326122762462297,1
0.0177224235317125,0.0434655497754764,1
0.0197458963285852,0.0372069478780223,1
0.0286896778746938,0.017616823818867,1
0.132602292477785,0.0314809544281274,1
0.174048591685563,0.0158859938148793,1
0.155938006935519,0.0147113793569091,1
0.15422774983577,0.0144130090821151,1
0.14524330289064,0.0120096340712237,1
0.128619850563784,0.0114529927697132,1
0.111707278185563,0.0095893161859013,1
0.107492309491824,0.00891952157754189,1
0.0899704788197365,0.00723932790456498,1
0.0754494672204763,0.00765088132371609,1
0.0493521826571846,0.00800891693260481,1
0.0502677359961949,0.0107243765609646,1
0.0680638226934531,0.0165652139083098,1
0.0713586563271171,0.0184686542344204,1
0.0706830975690533,0.023561502982322,1
0.0568408895888332,0.0172459158006003,1
0.047082915328846,0.0130130668275472,1
0.0467258315461406,0.00995542818058405,1
0.0712540218041757,0.0127199948905939,1
0.106859890085245,0.0169484345085698,1
0.105614475440359,0.00847499777072343,1
0.156710886022572,0.0167572903719875,1
0.15230128438749,0.0132574625970059,1
0.232149407288591,0.0173576786700618,1
0.278670644667081,0.0110290897683653,1
0.29732019301771,0.0114563862736795,1
0.300495096785699,0.0107368982632865,1
0.30249807552168,0.0123818712880452,1
0.266896001337009,0.0111258639788203,1
0.189887021729502,0.00713573515077819,1
0.174179931027747,0.00883879930419642,1
0.159763934303529,0.00836392621659058,1
0.159739730335101,0.00859317809140518,1
0.155170171646657,0.00881151678874057,1
0.130612810119452,0.01145565685471,1
0.0848987603013103,0.00857643586381743,1
0.0917166478415458,0.0109744405222286,1
0.0941529311680694,0.00983842098989757,1
0.0770490760741192,0.00885535713119931,1
0.0757652962765992,0.00896475320464994,1
0.0886816582335389,0.00937294750714276,1
0.0941509583691858,0.00723387927075655,1
0.100944647412731,0.00637254919894001,1
0.0989946922539149,0.0069053360051525,1
0.109681716076923,0.0100609861713015,1
0.21402031111795,0.0107522714291053,1
0.427508958768251,0.0257462060270625,1
0.541410177628911,0.0277194849351235,1
0.503783082820065,0.0230645095535411,1
0.425255001999858,0.0206767090804829,1
0.419152153473357,0.0216772166345817,1
0.351146844223608,0.0234428552030981,1
0.303088438808064,0.0232598304498623,1
0.419948008336467,0.0297538361114702,1
0.544895601037272,0.0347460830733256,1
0.539336508079013,0.0675690256223915,1
0.414515276655494,0.0506779810313148,1
0.246641953163714,0.0326668016116859,1
0.185857046875594,0.0167624755744965,1
0.209859141966785,0.0168167419752441,1
0.184252743341349,0.0127014606977745,1
0.182503969601417,0.0113574289102358,1
0.187319260955105,0.00980047226432739,1
0.181062549738067,0.00890359198910455,1
0.181904391635281,0.00903624304797122,1
0.209859816334545,0.0107274327848956,1
0.187948691243343,0.00763843923858263,1
0.173231672086857,0.00679405398240357,1
0.182370522539463,0.0105265245688254,1
0.200135158406543,0.0130168869746707,1
0.24070303468354,0.0178808599941262,1
0.255594862700483,0.0223156374514267,1
0.306893930035558,0.0307551212627882,1
0.38629212082577,0.0483337999269657,1
0.311255143606983,0.0383920005467753,1
0.156795833432435,0.0235259171292649,1
0.12051438524966,0.030895041919244,1
0.101004299890119,0.0313838108016465,1
0.0550996063664018,0.0194751732361936,1
0.0414332475034219,0.0157257161929432,1
0.0257843105254415,0.00877351572380464,1
0.0180554262583079,0.0061082180274293,1
0.0155531935593102,0.00552606728383906,1
0.0142965979327713,0.00391701450686256,1
0.0133154300278233,0.00666212927277675,1
0.0182954998999314,0.00536578593625227,1
0.0770056196579575,0.0240011352346185,1
0.0879709873015911,0.0148040546451167,1
0.0829830487561781,0.0154060971951889,1
0.0826898062685726,0.0157187547788489,1
0.0786480964625964,0.0135043301833594,1
0.082004039757603,0.0131011425067143,1
0.071379117366861,0.010797399637595,1
0.0584389070782936,0.00955557320505285,1
0.090988773919434,0.00628059827759286,1
0.153118439662492,0.0107626104291745,1
0.143006360495592,0.0104118389812823,1
0.135975365484631,0.0138288584114701,1
0.121583949145805,0.0115168113388559,1
0.11690661852646,0.0100492570503874,1
0.110532302551933,0.00865017289793977,1
0.112946975188753,0.00917034202786198,1
0.115625039524223,0.00732976555002868,1
0.124718668918959,0.00669861676878238,1
0.107114035953474,0.010868662855243,1
0.0559226896250547,0.00660992704545355,1
0.0593812011975288,0.00697153359279807,1
0.0665256811071333,0.0080864318929072,1
0.165945829391384,0.0168344235174855,1
0.192272395312097,0.0101771333065013,1
0.196282506466675,0.00798418047341523,1
0.21577590867865,0.00848568035502901,1
0.176858127998205,0.0074007908536014,1
0.174669497617378,0.00827790119229763,1
0.159024827072631,0.00744199648717859,1
0.126974635042188,0.00517737112884944,1
0.115754550750469,0.00402023644800823,1
0.115313966680815,0.00322885070069132,1
0.0832180168995791,0.00130472677945128,1
0.0622923461881361,0.00405507137681706,1
0.0597514981340183,0.0147785734763264,1
0.048337587729108,0.0140928304917658,1
0.049042732956996,0.0129449474470427,1
0.0532806742463664,0.0129851272291974,1
0.0719192719118053,0.0173696860896371,1
0.0770168041927272,0.0167969532523978,1
0.0897210733387959,0.0245740250454596,1
0.189757038424747,0.025199194805272,1
0.306870186656256,0.0248414039357539,1
0.307077983557802,0.0263691643584066,1
0.271008669042998,0.0230070838838747,1
0.198626778024477,0.0179131725742852,1
0.150309584820274,0.0126519462886933,1
0.146154919945238,0.0106256098586725,1
0.141044642304248,0.0098656051117433,1
0.135098712039388,0.00837163101251201,1
0.142262481427525,0.00595403821150373,1
0.126817003776169,0.00896030464728786,1
0.0979651134437143,0.00967791865002929,1
0.0926490474380753,0.00857241039792709,1
0.0966106325071516,0.00949137318717408,1
0.0992953592944657,0.0106255032859938,1
0.114879445442912,0.0085479995753728,1
0.137233102222408,0.0057893344799718,1
0.180606362203049,0.00721683642280286,1
0.169314393346815,0.00762771472194994,1
0.144737855829015,0.00772513246866457,1
0.145024876879225,0.00715387204856059,1
0.140808280260053,0.00650483202111597,1
0.145199108581237,0.00721036753784012,1
0.146830699997254,0.00741705366485569,1
0.152946702710497,0.00740676331495143,1
0.107069865674571,0.00811572350202119,1
0.0607290137612308,0.0083593979049031,1
0.0796869277501518,0.0159326133919963,1
0.0847462938526317,0.00844528662239916,1
0.094907673727903,0.00444612666158289,1
0.181687989747672,0.0117299371546841,1
0.268948444498376,0.0181446791019289,1
0.270152320213984,0.0113188410042412,1
0.287232562490558,0.0118470642168493,1
0.315747881360056,0.0120613608335746,1
0.371024896687171,0.0140098902477151,1
0.369121720745909,0.0155390199732824,1
0.34590336271458,0.0160235610211566,1
0.341526363129292,0.0226328155490128,1
0.331882772693239,0.0298249056350211,1
0.290124037122821,0.0239276841898852,1
0.211190154954916,0.0167445458170407,1
0.22811024792262,0.0322455877175512,1
0.269053622639657,0.0324478264734148,1
0.302802029455964,0.0333389369241811,1
0.381610175720813,0.0427403433855077,1
0.373400366326366,0.0309230823855324,1
0.350779163236181,0.0223215860325618,1
0.236307895762376,0.0161801807671279,1
0.100798971713113,0.00584531881338498,1
0.0986062830502392,0.00857301475095383,1
0.109455427341092,0.00991608378111496,1
0.11754116188594,0.0109115896287043,1
0.127626528609444,0.0128929515863605,1
0.130513484237857,0.0146247230055463,1
0.135472744931234,0.0140425309751019,1
0.0802549201477674,0.0146011869142303,1
0.0313628775462506,0.0207471804888564,1
0.0238698837299,0.0161796000390504,1
0.0142064733476876,0.0191849125793243,1
0.0290030983936629,0.0244463916488404,1
0.0497913753243175,0.0351821762907751,1
0.0736819258418906,0.0442485092358344,1
0.0875538161072314,0.0480753740642987,1
0.0842851424134715,0.0369019186530901,1
0.071801597899232,0.0338633733323175,1
0.0713776368292625,0.0284543242460453,1
0.0863736115117406,0.0301592356858149,1
0.0635420430754425,0.0214774739228465,1
0.0408321117364718,0.00657929010373808,1
0.0699981600597285,0.0117278383280729,1
0.0669496071253891,0.00886402482931095,1
0.0665717229492524,0.00738568532289856,1
0.0651662848619311,0.00542778233918044,1
0.0785262338640331,0.00709032662744206,1
0.0751704137766406,0.00539910889783131,1
0.0743950613472977,0.00613798691825019,1
0.0706003472531322,0.00587907522379765,1
0.064974726057018,0.00630743410177665,1
0.0603108532237358,0.0120561966023626,1
0.0366840256067512,0.00327429663334644,1
0.0725474192104842,0.0140258353742481,1
0.0843337230082366,0.018109240723532,1
0.0850247125381672,0.0172585578943658,1
0.0851136147045945,0.0176945040625807,1
0.109844541580057,0.0264016314693271,1
0.111059115965358,0.025127821383472,1
0.120160905117862,0.0229396139120789,1
0.146396550579181,0.0247435265395856,1
0.150076322755556,0.0214091381168205,1
0.207469365984438,0.0286368995903055,1
0.196734438696783,0.0192398059528527,1
0.206566437702591,0.018297011361738,1
0.220035217412556,0.0231206308577715,1
0.204959565516012,0.0243365719479072,1
0.173978840026476,0.0214410657158541,1
0.185083232438706,0.0249367805110914,1
0.187987384821277,0.0212436203211039,1
0.168505549287646,0.0227546279285078,1
0.225673084422707,0.0201291526485008,1
0.173034665988655,0.0117143259148792,1
0.174467090053735,0.0129727595540094,1
0.199209193965233,0.0136820128178426,1
0.180260636323738,0.010862832123119,1
0.189540653715008,0.00877132297399162,1
0.314669376049139,0.014866739829392,1
0.354594679989061,0.0171656309237648,1
0.411094747906772,0.0204712067854207,1
0.395457028481483,0.0176873721621053,1
0.382513440558171,0.0204456569855979,1
0.339056491780181,0.0291043346214176,1
0.302902988425152,0.0230769081476762,1
0.333688454942761,0.0274222857547866,1
0.26282698537854,0.0221950897333326,1
0.329141362455433,0.0425576691954059,1
0.343929559215498,0.0536366091969034,1
0.304461665856583,0.026033159004035,1
0.259320115167021,0.0176786089510614,1
0.219451412923428,0.0105451884437515,1
0.326800073398292,0.0158017229025438,1
0.380591781171737,0.0148510829817616,1
0.373397207902605,0.0158130547889002,1
0.353116959633463,0.0156969099742978,1
0.345132716788408,0.0133212200059247,1
0.294320064611303,0.00768312775180718,1
0.325569509350981,0.00822810849036791,1
0.358160758971299,0.0058244925750773,1
0.380225304846366,0.00552227031147675,1
0.373998921883189,0.0060236138208518,1
0.338444935681305,0.00484425337006534,1
0.322903946776494,0.0044999355208242,1
0.421784190144624,0.0052375508535137,1
0.565153899225132,0.00684617114297901,1
0.553305626036284,0.00770168912484373,1
0.519514390638887,0.00853049756232196,1
0.46835617700594,0.00724641997813438,1
0.407636751876784,0.0129232676767973,1
0.325012210404926,0.0129865807151203,1
0.320875993368228,0.0120407437827636,1
0.300326671211246,0.0104708622413089,1
0.24187219599928,0.00574513487854696,1
0.234895357488925,0.0111465463603602,1
0.197623441887866,0.00647736674862734,1
0.237108801634254,0.00953745015871994,1
0.241461404181931,0.00874103237231609,1
0.239176070731911,0.00695805995169468,1
0.285822710496021,0.00920686782701548,1
0.260747139669732,0.0093018198657363,1
0.217772322645569,0.00878691329980346,1
0.232544965810016,0.0113049264112886,1
0.25551574491233,0.0176274456930536,1
0.154397754323237,0.0101679837279918,1
0.115563388395575,0.00956004582459768,1
0.129737758133868,0.0105675410092182,1
0.0893376209890015,0.00781571188758313,1
0.0530739069726602,0.0082776237193526,1
0.0613156644786097,0.00903493394209921,1
0.064469082713305,0.00902292545365298,1
0.0647108920633415,0.00893725242270114,1
0.0653518785178756,0.0102793370250221,1
0.064179636153189,0.0133155328138203,1
0.018385823720874,0.00269254985020027,1
0.0329237041214196,0.0563858207562822,1
0.0432506052777491,0.0273528405762261,1
0.0440917532826239,0.0251868603205414,1
0.0447840636454388,0.0230615370834129,1
0.0408163643226018,0.0186384602148377,1
0.0409858816462179,0.0185654340528876,1
0.0381818066965203,0.0156567712921744,1
0.0341610858073906,0.0140645705608918,1
0.0367455248536223,0.013872200436799,1
0.0414211094120167,0.0144002570918589,1
0.0343128190354,0.00852005900597294,1
0.0725215804562789,0.0226785456287246,1
0.0727281708395694,0.0113373369835951,1
0.0680631489844662,0.0106191965597799,1
0.0661411858899913,0.0114293569572968,1
0.0527624788152746,0.00859406564925793,1
0.0508850468759425,0.00597145293976087,1
0.0839007263828875,0.010505598920962,1
0.0838682265230631,0.00746662465679389,1
0.0889411759554473,0.0085208046185852,1
0.0835435496085142,0.00760957342527754,1
0.0906067403681636,0.00963342530560137,1
0.0795178253704755,0.0123872879240703,1
0.0820380094608942,0.00790922212339531,1
0.112692509179188,0.0105857646276383,1
0.113013226100843,0.0103968442861726,1
0.10939203968114,0.0121080304527917,1
0.0996103797163382,0.0112131656472941,1
0.117575424482672,0.0168953816952141,1
0.113008083056665,0.00799497440757993,1
0.134260369405894,0.0125731802028832,1
0.192343720598461,0.0163227696594139,1
0.184831340680477,0.0153289883212917,1
0.210356635657997,0.0216364360273393,1
0.215676598187023,0.0229391318383413,1
0.221334712690006,0.0214861259905208,1
0.235769682274939,0.0175603638183645,1
0.214458526325788,0.0127004083288941,1
0.111481416874439,0.00439794631135805,1
0.0953537563951515,0.00516402075039448,1
0.111563037205717,0.00661817287364571,1
0.117476615597818,0.00854919854448345,1
0.124382667273842,0.00768589240781512,1
0.143695216865455,0.00880113975931371,1
0.227154506673333,0.0138055404260207,1
0.209966353068076,0.0112004645181992,1
0.307910199980676,0.0145099917119426,1
0.335163464970634,0.014517999669444,1
0.333198236803931,0.0155287256189038,1
0.331377794149635,0.0138497056326502,1
0.308852721877141,0.010532345082054,1
0.279881667595012,0.00766401035826419,1
0.265780775857328,0.00731529798887544,1
0.286820495158082,0.00756301718791973,1
0.267129670178946,0.00661306861597519,1
0.259391968041756,0.00700301955202855,1
0.19598118558976,0.00641573535614575,1
0.21628086910782,0.0080006866879761,1
0.224403761205253,0.0059652363121319,1
0.193032279127976,0.00489473836052222,1
0.186105253323423,0.00610644620725458,1
0.134287818093869,0.00458842285388082,1
0.102741315323993,0.00331815671038888,1
0.0900039795916608,0.0035020586706903,1
0.100551823580414,0.00411894580160015,1
0.118856180377677,0.00534252048406629,1
0.118938006786041,0.00413332459963438,1
0.154585474155096,0.00979306598346541,1
0.184384701155496,0.0160063851866621,1
0.180467492143196,0.0209086026349761,1
0.18979983898826,0.01350043458737,1
0.275062857114539,0.0221068416596587,1
0.283468226381218,0.020881055690177,1
0.280987668454943,0.0218115614428133,1
0.273037688263054,0.0227685318284632,1
0.261563168270083,0.0238370354164,1
0.306891907856978,0.0300839874043868,1
0.306452595370193,0.0159994554018718,1
0.305403959111811,0.0154636742467553,1
0.304972151623571,0.015729216359086,1
0.294194271437547,0.0195247307355302,1
0.274096045288661,0.0131206709467582,1
0.333331802325837,0.0142892177563244,1
0.333283701813911,0.0132061215445455,1
0.372541130542145,0.0147776916383925,1
0.344017577102602,0.00731923861053215,1
0.298999099961954,0.00527217387387424,1
0.321723386195468,0.0100655312925219,1
0.313791817978253,0.00933543828109408,1
0.412684701925153,0.0100494881813986,1
0.501005506732531,0.00821751941991542,1
0.462470140323657,0.00933058411203739,1
0.426062751442125,0.00818611016732059,1
0.486331541734267,0.00893363920229305,1
0.344703515550861,0.00719148057390235,1
0.204414853461318,0.00499272008354001,1
0.202317805080446,0.00514833001425025,1
0.220412884425091,0.00608906539265256,1
0.223018067789636,0.00639226736719214,1
0.259548790729727,0.0104302917552291,1
0.313862800051,0.0254347449899415,1
0.18697025219632,0.016384387352187,1
0.173736229742585,0.0202116816818698,1
0.174279037965207,0.0267594415590275,1
0.122388283767855,0.0221588749807104,1
0.114319777196127,0.0222565652425906,1
0.0601388940856798,0.0159110031169355,1
0.0390606069604448,0.02718159871862,1
0.0403526166883769,0.0264833791445578,1
0.0380750067004299,0.0298446444842872,1
0.0394380545366076,0.0310795452524103,1
0.0342596520540241,0.0420607154426382,1
0.0240017124155308,0.0275417488774467,1
0.0191019476002776,0.0173192474193378,1
0.0223161659794338,0.013140506096109,1
0.0223617073746589,0.0117939493454907,1
0.041823530707315,0.0220109424389053,1
0.051546215585478,0.0255740745076015,1
0.053713076478738,0.0264702695159039,1
0.0612226779651547,0.0275843439011305,1
0.0646428647854443,0.022453760666841,1
0.0555157848137701,0.0195333065253175,1
0.0362907820129239,0.00963231359186578,1
0.0397135074946447,0.0125556171024303,1
0.034698187744101,0.0110392847290464,1
0.0297600543235253,0.0064072624060064,1
0.0404308383225788,0.00776472196912254,1
0.0847375176498977,0.00716571692179757,1
0.16291511840807,0.0151657447322378,1
0.209442934098721,0.0200824414443186,1
0.231295274659454,0.0224588164075165,1
0.238627572609912,0.022783258456668,1
0.25070792929508,0.0187558726768718,1
0.294383121235622,0.0179518944912714,1
0.275448119784743,0.0138736232798121,1
0.267949491363395,0.0081005828466774,1
0.225441060995493,0.00585763212403559,1
0.230223689406008,0.00668766626913946,1
0.226768783633633,0.00663751575395721,1
0.230656115317725,0.0066169352948134,1
0.239285298527491,0.00669035449975233,1
0.252922222779965,0.00619877069740195,1
0.25075872209677,0.00647527990116813,1
0.245178726518603,0.00769799123662844,1
0.239962385358744,0.0089027203085994,1
0.208571965052093,0.0133095423459579,1
0.11642792861432,0.00764347235501352,1
0.0889611390355135,0.00689517889236349,1
0.0996479839629924,0.00424410788233042,1
0.133043705007899,0.00555598723566164,1
0.14381507357811,0.00628309718434826,1
0.135854300303889,0.0068794946200981,1
0.126184720007987,0.00880166180797067,1
0.107680819388808,0.00479275985969001,1
0.180319961973813,0.0112597646526795,1
0.166092998376678,0.00453422071652903,1
0.180447001507007,0.00474260695071634,1
0.203838100015068,0.00505466574636472,1
0.404669540572594,0.0153522855317142,1
0.373105922330066,0.00865004269737592,1
0.384711330680831,0.00941162329113079,1
0.376848227671588,0.00929808167394526,1
0.359411109177049,0.00842301709756652,1
0.387744805194757,0.0104619036447096,1
0.475897617550668,0.0141605190564726,1
0.432971206991715,0.0184311910822293,1
0.28471782849644,0.0139603859587959,1
0.263445553730616,0.0158600087076005,1
0.242277482871658,0.0196136122294664,1
0.234976248652029,0.0352517606852105,1
0.128816138396631,0.0172132878542862,1
0.247094421019002,0.0287047949171644,1
0.329040909333011,0.019583290439609,1
0.31968149980912,0.0182090795778632,1
0.295079595230148,0.0143834547097604,1
0.286017701796558,0.0112869777842056,1
0.449382440424516,0.0143031189317484,1
0.462340239949184,0.0083479877916469,1
0.404675891839315,0.00600798719875644,1
0.348666308329052,0.0038158014946483,1
0.349096355882706,0.00418856735562242,1
0.33761446622957,0.00420738484559979,1
0.407847147338414,0.00806942328245443,1
0.513567630716372,0.00989879272201953,1
0.508459976181468,0.00933049724775729,1
0.407427947720369,0.00816970806051251,1
0.374613266614836,0.00996503470016443,1
0.399078840811649,0.0166530370920271,1
0.368640372480986,0.0170634917977718,1
0.397194867880839,0.0212217643815377,1
0.344934523764711,0.0170971812276102,1
0.356559199549736,0.0178984974899402,1
0.312695840045237,0.0195293046249603,1
0.152147297902201,0.00743587224711828,1
0.2365735351633,0.0141749677656611,1
0.256511567688807,0.00979105991323808,1
0.266170230582334,0.00975185957868359,1
0.237991332279872,0.0080868475825505,1
0.277229542242251,0.00882697496318642,1
0.255146025437643,0.00670828617574466,1
0.237311259489973,0.0102137268240904,1
0.277923271209298,0.0111658090114454,1
0.313212126733285,0.0147832667274383,1
0.340159800748262,0.018224634293221,1
0.356373124332858,0.0187836142523118,1
0.307691162480415,0.0363335709517067,1
0.168005465679759,0.0194019900000768,1
0.13240099538365,0.0175099639757268,1
0.136304074298721,0.0204200361917708,1
0.13836336560573,0.0265389150639726,1
0.082557453943067,0.0140856631302382,1
0.0599372267874381,0.0138391488188779,1
0.0581773997561231,0.0157822888751998,1
0.0585960305502488,0.0167902065052514,1
0.0460580295371102,0.0190666988859143,1
0.0145143749446262,0.00203097555415223,1
0.0110599157886945,0.0162174888178606,1
0.0135097533369985,0.0271038245316544,1
0.0170435868364736,0.0363708821933295,1
0.0158176138773683,0.037069183828818,1
0.0141192160193259,0.035797894777616,1
0.0152957038032859,0.0486080908429071,1
0.0142532661886131,0.0366667564605118,1
0.0179136791170219,0.0242302599311749,1
0.0149474891405825,0.0116937572475514,1
0.0113912042230114,0.00666915631197494,1
0.0105177291342716,0.00537851094806197,1
0.0125883065641392,0.00663941348026001,1
0.0131145331316924,0.00680140047488346,1
0.0223290783252788,0.00863598552743175,1
0.0327998349004343,0.0104323854545634,1
0.0324054275842276,0.0105564260176496,1
0.0282562571282954,0.0094832870638979,1
0.0313002481452061,0.00703200729298486,1
0.044013927384962,0.0113698435518427,1
0.0425948934271958,0.010030892281807,1
0.0403776261294018,0.00513200534872816,1
0.0700207832547975,0.0117427293791807,1
0.0717302948134269,0.0115468628197449,1
0.136790252451101,0.0186056317906435,1
0.172303018272123,0.0143503517855337,1
0.172319427042166,0.0116988029661131,1
0.166064023703895,0.010111185893606,1
0.166327663063685,0.00984843789667721,1
0.171021351910387,0.00983250951468822,1
0.149337658624495,0.00877476354818815,1
0.147037947755168,0.00868144385127067,1
0.297455370903131,0.0148588613989158,1
0.371059027902889,0.0115039601096863,1
0.365592690007155,0.0145590592632,1
0.373761112998131,0.0194059741445529,1
0.30007782981163,0.0132336717289078,1
0.222644189355694,0.0103121770810859,1
0.214816862352899,0.0126759575730237,1
0.221875953155233,0.0115166119683926,1
0.211705164359628,0.0104336973240511,1
0.239917740636427,0.0123871038351433,1
0.201950131377767,0.0107610193207886,1
0.1777390466272,0.0133316086336166,1
0.178654780608987,0.0116335663004173,1
0.245274270724448,0.0137633387043319,1
0.238322768467228,0.0159067555973823,1
0.195537678791644,0.0116325695440731,1
0.14861063166114,0.0042017864866867,1
0.164595016895201,0.00517703385718466,1
0.17614200630289,0.0061472213439683,1
0.262280849302929,0.0111898093677046,1
0.273035565119111,0.0128836603730123,1
0.270963528767254,0.0124406687973624,1
0.319790020512009,0.0155551837388534,1
0.391899526811516,0.0206069414591239,1
0.44015913798176,0.00811002357246001,1
0.804284111661258,0.0163137244368914,1
1,0.0162949299933255,1
0.946634847625946,0.0149549566567187,1
0.951072664764828,0.0144411488557867,1
0.980359572520551,0.0146028858849531,1
0.982606030346626,0.0134355241615805,1
0.979137291690039,0.013533830006132,1
0.925888470880755,0.0130511432110145,1
0.81081811013507,0.0101024412703433,1
0.800525363271461,0.0193809742707497,1
0.632270360400937,0.016599866418487,1
0.400454805081639,0.0121102281846402,1
0.397281290834059,0.0146979802523915,1
0.394849613191379,0.0161713188457778,1
0.318881500306215,0.012388931840759,1
0.307706254545621,0.0136591016646314,1
0.377127663415168,0.0181312587982321,1
0.353418957032397,0.0129651394262409,1
0.324481836890489,0.0141284208034662,1
0.332472686902337,0.0150460225233143,1
0.299509818762541,0.0142093938110972,1
0.283226125565161,0.0232915123673249,1
0.250794897088365,0.0133356740818,1
0.29265423085907,0.0156043181376345,1
0.267821803914278,0.0146872196051964,1
0.298357069513707,0.0139704141753664,1
0.333406125454112,0.0133549338808127,1
0.326500274281164,0.0132628146340911,1
0.345803275013706,0.0139657660493198,1
0.360437644933883,0.0161050749745526,1
0.425660233881215,0.018288034008843,1
0.433386340437631,0.0122252319586599,1
0.470505085985022,0.0165103107818088,1
0.466282921705276,0.0170675218457664,1
0.477853838928059,0.0147464522373283,1
0.408524832424072,0.0121212201085434,1
0.40930557564845,0.0107344020549608,1
0.510433290444326,0.0132246216550638,1
0.51013199251197,0.00793665627059851,1
0.48656243631472,0.0095080027172202,1
0.342873052971677,0.00498292079046697,1
0.385515163771314,0.00938783535169005,1
0.377851705468502,0.00755804677269376,1
0.337617432731934,0.00585673288727276,1
0.308421295188324,0.0049735080680095,1
0.356847705679399,0.0072330962480261,1
0.366980687822429,0.010104404675397,1
0.334607651010743,0.00901426968502712,1
0.343581849087196,0.0146917054804069,1
0.348052029386325,0.0148194024916271,1
0.330500223765325,0.0165191557273331,1
0.144062936367073,0.00585704411131775,1
0.149961304809522,0.00714889492728892,1
0.129260547867564,0.00665674566164832,1
0.0927139178023231,0.00280645040909728,1
0.0994092685175486,0.00298394628655347,1
0.111045012855394,0.0044309226872158,1
0.111517904673444,0.00448338348218282,1
0.113108662567818,0.00548105592455975,1
0.127815825619508,0.00414929279696671,1
0.175363942840058,0.00816481434906194,1
0.174790270228652,0.00909176725710651,1
0.158804158428736,0.00989308977974275,1
0.140730700256129,0.00901833838210851,1
0.139698292796455,0.011950900627802,1
0.13952495452289,0.0138951048693792,1
0.113103287336427,0.010005996632445,1
0.101452203523652,0.00811451250932393,1
0.0790434764853684,0.00404070626104499,1
0.0750806252721064,0.00874674495269646,1
0.0711943217844025,0.0080423260154478,1
0.0688784245267676,0.0121004303029857,1
0.0560967647230809,0.00999576176381685,1
0.0554649156234679,0.011762784454401,1
0.0579703704659991,0.0185932231354406,1
0.0141462432446108,0.00397367370415362,1
0.00859912715544516,0.0115075390183829,1
0.00777172910127622,0.0108808626853409,1
0.00743339867415845,0.0117227069462824,1
0.00680544668530058,0.0135241695365045,1
0.00411294130991358,0.00724260784579463,1
0.0044535860607915,0.00798744365701782,1
0.0048486691899149,0.00874631478633245,1
0.0142078250646206,0.0206539846908697,1
0.0195584011797923,0.0254434737989384,1
0.021640911557319,0.0221344314152393,1
0.046030093536715,0.0328669291486243,1
0.0601878339327839,0.0293479948473056,1
0.0526096282728448,0.0273168748679729,1
0.0436414835652957,0.0229175762903816,1
0.0440340188181027,0.0154121929622851,1
0.0965652152995241,0.026132127663524,1
0.10514600960017,0.011665729707799,1
0.10096107381096,0.0130229150073965,1
0.0929188413861977,0.0136649939390787,1
0.08973462942357,0.0124733258143184,1
0.101340916420683,0.0138027196564171,1
0.100258551374859,0.0145568796606006,1
0.0860847811353853,0.010137937556086,1
0.086200502508472,0.0113965625549655,1
0.0932972433344011,0.00527485659584102,1
0.118233868770525,0.0085369096994225,1
0.109431802995175,0.0109036304447085,1
0.105593630194918,0.00738393278584464,1
0.151846282333157,0.0097268290140581,1
0.155442504657579,0.00827135139383399,1
0.15345657222301,0.00812826467893279,1
0.15958628256547,0.00859587987638601,1
0.160769333599742,0.0100908299614019,1
0.14692344635314,0.00582324929780253,1
0.170956583170622,0.0145847720517248,1
0.131861710867326,0.00987258707462183,1
0.126284947064839,0.00980755812081601,1
0.147533169441806,0.0142492092545417,1
0.128378267784108,0.00770331081726379,1
0.130115538288254,0.0107676992081074,1
0.122315946027146,0.00996575756818878,1
0.121014587542311,0.00916765769214239,1
0.112020681411032,0.00339932400025416,1
0.147407830014222,0.00811286549849019,1
0.129437478200037,0.00583331476522436,1
0.167606431716999,0.00633150738373725,1
0.259620476638265,0.0121576768579368,1
0.296471887196904,0.014628121930785,1
0.284095236673786,0.0179658825247127,1
0.249741753495987,0.0157432957661476,1
0.261973881147684,0.0152235045937145,1
0.276442046906927,0.0163405047852224,1
0.26325746412769,0.0257937830718859,1
0.152790625051829,0.0125790261656191,1
0.123200644804387,0.010447710457887,1
0.11897789934929,0.0144629499585331,1
0.172735939146327,0.00938393132526424,1
0.312243198906089,0.0181853151154918,1
0.394310217690687,0.0211124052577022,1
0.320409294759927,0.0156054915897053,1
0.329007687721169,0.0173196238499983,1
0.339349854309026,0.0138577291948504,1
0.390742724619581,0.0155121739357225,1
0.347730044828915,0.0139825346773416,1
0.297534018751486,0.0104408252072255,1
0.248921087367914,0.0071105117920683,1
0.244527350580488,0.00634031098914638,1
0.303941879907579,0.00881622603846696,1
0.260319374645599,0.00642579969045496,1
0.257282501946758,0.0060697249511992,1
0.281959407436447,0.00589158362125638,1
0.312812444344168,0.00731194464612054,1
0.372026308436474,0.00710765825657307,1
0.400788878973253,0.0038035093683258,1
0.423405863123643,0.00499509085175185,1
0.349575443185116,0.00419096500692685,1
0.339362093780983,0.00631734051936818,1
0.36593400618665,0.00724223589185979,1
0.451884551416222,0.0107761782720727,1
0.508386582207791,0.0113263954287292,1
0.496506853190491,0.0112279681619217,1
0.501117179796507,0.0145136789681695,1
0.292968913976824,0.0123267116526057,1
0.198777369622175,0.0117607449593353,1
0.219773350986156,0.0118099609869563,1
0.162481119457943,0.00772011635152066,1
0.208716033315178,0.0122940949005621,1
0.230164552736459,0.011677171511461,1
0.183958365870482,0.00975644561276751,1
0.131866656777387,0.00766435032888329,1
0.147678939179298,0.010553420756394,1
0.144876490433699,0.00800490932248545,1
0.127367120552397,0.00629458414213086,1
0.125655584077131,0.00882135681430304,1
0.139427110672421,0.0108260973147759,1
0.178772679413002,0.00917710675355648,1
0.182479660128767,0.0075735908029497,1
0.172731719989206,0.00813068020125209,1
0.181074595198863,0.0079789948557017,1
0.174629082421303,0.00725360291238165,1
0.150962097125536,0.00571322861564769,1
0.177536927504632,0.00973409617704948,1
0.218238647147336,0.0125011176117647,1
0.207745788957628,0.00865921446270299,1
0.210406841873638,0.00826367369695141,1
0.166224990763891,0.0102756679978673,1
0.129014654504263,0.00783788165530002,1
0.120064988055655,0.00582111215349275,1
0.305540708613291,0.0153259486149599,1
0.366194299454517,0.00744499196157643,1
0.40358408606579,0.00814001762621015,1
0.459443392279407,0.00967546905578866,1
0.419720670683626,0.00815145914756214,1
0.450163164087576,0.0105789234920625,1
0.452576479768484,0.00983396462468888,1
0.439226157253529,0.0103129047407709,1
0.439889757861808,0.0111599842063719,1
0.440842974565388,0.0117693455199068,1
0.210460136716542,0.00572151457987093,1
0.106403055042006,0.00411009508634799,1
0.222888355310209,0.0102560446916853,1
0.233799139497272,0.0106237392523766,1
0.309107861954679,0.0132371156063821,1
0.27095249001139,0.0129232710599308,1
0.225621931688022,0.0120127865485979,1
0.231919466551317,0.00961641459611956,1
0.31003947892493,0.0128919946634698,1
0.285179724886012,0.010566750202845,1
0.30904384780231,0.0109110803384618,1
0.23664126322088,0.00877157209227677,1
0.213179465472703,0.0101071339195249,1
0.206834608072957,0.0106755564901149,1
0.198459263307412,0.0115471833377052,1
0.19234564939391,0.0115867084810907,1
0.230565385712906,0.01253146257589,1
0.246777200304565,0.0182841361324361,1
0.133073294241924,0.010121955670741,1
0.125424049069238,0.0115604837196896,1
0.155763927561568,0.0167521215524321,1
0.118238522189665,0.0186706861870992,1
0.0907013202124481,0.0134478434753981,1
0.0791233623754518,0.0112190788633041,1
0.0792245146100733,0.010660578153554,1
0.0577861081867734,0.00697805612377927,1
0.069162738170315,0.0128971697735608,1
0.0685680610798002,0.0139229259469148,1
0.0712209745222849,0.0117322848401028,1
0.0923514398128948,0.0143887684507742,1
0.0924702663436269,0.0148575532676539,1
0.0840950026633361,0.0154285914490743,1
0.0478399610058006,0.00830603049011836,1
0.0458528724999562,0.00944972533899568,1
0.0269332126615657,0.00556250733987716,1
0.0248161543027343,0.0057263465704291,1
0.04260824621613,0.0118253284712414,1
0.0487142251265875,0.0132973840847083,1
0.0480299312215579,0.0179966179695645,1
0.05807772173326,0.02993021661482,1
0.0493425004139422,0.0309549209879004,1
0.0541105279067254,0.0351015687809143,1
0.0517442644360874,0.0441039119641909,1
0.028568972048217,0.0334263204036822,1
0.0152614832653393,0.0182240225281682,1
0.00431895862330338,0.0144955415871878,1
0.00554844222471761,0.0261580879078449,1
0.00658111719719296,0.039853908127722,1
0.00433236314532259,0.0207249961637408,1
0.00469220698648879,0.0195460143953992,1
0.00529730047759464,0.0243768700363045,1
0.00584021351664258,0.0269790602952215,1
0.00562736983157932,0.0295619728990878,1
0.00383632953482742,0.0216140816736179,1
0.00331867675280219,0.0214562182438758,1
0.00329198401917834,0.0220772241360857,1
0.0046396669531439,0.0194417593233006,1
0.00610405413640783,0.0183397419968878,1
0.00568325393906424,0.0256079615528046,1
0.00471159160023815,0.0325096163763772,1
0.00651488307749844,0.0249432592478402,1
0.0111211073918126,0.0316485110415501,1
0.0118330799631805,0.0261602814160845,1
0.024882632385107,0.0338203810613141,1
0.0255637033073577,0.0215598672191528,1
0.0310225224524151,0.0135237122312231,1
0.0431988185885371,0.0133558759203799,1
0.0405949753981037,0.0136588705707178,1
0.0369186860574518,0.0126300050900473,1
0.028352304648543,0.00787626709400159,1
0.0237675852847627,0.00671001768075828,1
0.0228805223687212,0.00597750482842733,1
0.0256085983876411,0.00669820989277142,1
0.0398901045949588,0.00975865312524354,1
0.0404975439552961,0.00853860421951872,1
0.0389593996288462,0.0119851689988028,1
0.0353121190764717,0.0141115463089894,1
0.0341472015273119,0.0122194154102571,1
0.0370694957524378,0.0126497003783532,1
0.0370288573864024,0.0116256641298805,1
0.035297098862632,0.0112361667675967,1
0.0378129003196207,0.0131295645672949,1
0.0338029240217799,0.0120300404557706,1
0.0175249453612215,0.00702624602904848,1
0.0150223665481591,0.00981037650531109,1
0.0192628987309631,0.00930058776208496,1
0.0352588701209575,0.0149793914948406,1
0.0348640148791668,0.0151051892125936,1
0.037470739036647,0.0141465145835213,1
0.0388375651151193,0.0165675323231988,1
0.0437788382250605,0.0185982125217233,1
0.048657674168618,0.0207772307169313,1
0.0531994918688881,0.0256614027317286,1
0.0553731323753995,0.0267658075772946,1
0.0554561693791594,0.0265938173796105,1
0.0545405846190617,0.0278139407710933,1
0.0434380746933666,0.0251792995585845,1
0.0345196873949379,0.0214609576327594,1
0.017295263812706,0.0128507651467998,1
0.0206904402393977,0.0163867721244877,1
0.0245609004853817,0.0154220057736288,1
0.0251536181433243,0.014251971777861,1
0.0270279337661674,0.0116309971072961,1
0.0308131575842106,0.0147183542379883,1
0.0211293217512373,0.0103700813134982,1
0.0140599321731651,0.0140210380482268,1
0.0153190710559667,0.0159435485525499,1
0.0138935796744717,0.0168409226381613,1
0.0130282051036186,0.0171762109324817,1
0.0137894607992822,0.0199208895952654,1
0.0140406717398728,0.032562839617113,1
0.00453814800994759,0.0222860201791682,1
0.00125560375841156,0.0863181415204146,1
0.00128956104877066,0.104164246632516,1
0.00122516946697527,0.157524916829993,1
0.000293294484084757,0.124320451488998,1
2.72265167710024e-05,0.684559698251737,1
1.66788392788969e-05,1,1
1.34856766061065e-05,0.894804022034396,0
8.62319919959987e-06,0.732287917320267,0
6.06834805890449e-06,0.620693623772231,0
5.04217348431656e-06,0.580426889153564,0
4.71865052075934e-06,0.584352769928885,0
2.39226129704257e-06,0.442652106165097,0
1.4681381412705e-06,0.371415040671671,0
1.57111725628332e-06,0.36507390724081,0
1.84850394734707e-06,0.37444167569985,0
2.21178252235439e-06,0.442234622329735,0
1.22848870338847e-06,0.309419418126104,0
2.04767784467568e-06,0.395126749055139,0
2.14580852337567e-06,0.377173875736104,0
2.387512943659e-06,0.395622898690838,0
2.80966078137011e-06,0.433630801236147,0
2.91495850343908e-06,0.425296204915198,0
3.05662986317493e-06,0.439049746013071,0
2.61409021500543e-06,0.409084501800426,0
2.53211146994259e-06,0.418481010480449,0
2.54482626325669e-06,0.410409331056939,0
2.57522579078961e-06,0.442243041788693,0
1.29515188101929e-06,0.320072892240723,0
1.11323543635884e-06,0.327021917388489,0
1.05455033085169e-06,0.318230322587768,0
8.88941529978389e-07,0.285855035571677,0
7.61396835397549e-07,0.272101718799918,0
6.93392039765676e-07,0.265073658416976,0
8.10070653553058e-07,0.28584979430959,0
9.09276907024428e-07,0.300663429501765,0
8.49277248520117e-07,0.300472797788755,0
7.41076200140861e-07,0.276589838810015,0
7.91510280080903e-07,0.283540080914338,0
8.25870626969487e-07,0.280804202859731,0
9.14083075863109e-07,0.277497845225171,0
1.28442630790557e-06,0.337223090214908,0
1.41578117918216e-06,0.352544113149941,0
1.13314848417405e-06,0.321008190591078,0
9.63450679479886e-07,0.302067079359881,0
9.93721101185771e-07,0.304447110318593,0
1.07791226635335e-06,0.307758024915092,0
1.03402872354488e-06,0.312787291755937,0
7.6484330450918e-07,0.276268904880364,0
5.40094936403939e-07,0.235762628381949,0
4.32786687642172e-07,0.224569869762542,0
5.03329489617003e-07,0.22475897273184,0
6.68749296144031e-07,0.262233917410021,0
6.6014377661116e-07,0.263123780346055,0
1.3506645073903e-06,0.330046997920604,0
3.92489326950491e-06,0.556254463317039,0
6.63714790808751e-06,0.685369061483749,0
8.26868070257313e-06,0.74482086348786,0
8.7676539934373e-06,0.598019302563824,0
8.51151171803942e-06,0.579884306701042,0
7.93915103570707e-06,0.327912453413796,0
2.28038325482073e-05,0.348997565468031,0
2.22111011315685e-05,0.282191752077054,0
1.97625313818705e-05,0.268940483162879,0
1.91520491233013e-05,0.258381984086475,0
2.39925505528456e-05,0.216343560967883,0
5.87670265519248e-05,0.250298838817198,0
5.98915741233752e-05,0.188903160481014,0
6.62263863591376e-05,0.181654417917773,0
5.94758412674358e-05,0.156127172754568,0
5.76069859343808e-05,0.167767992630849,0
5.93053281726884e-05,0.193634290720075,0
6.24359608970369e-05,0.208633112024233,0
5.95915486506795e-05,0.198936054271545,0
5.63236993510643e-05,0.190544318124896,0
5.53286908770555e-05,0.215878716969928,0
2.95801309700518e-05,0.187966690066463,0
3.12006580974261e-05,0.264949110037369,0
4.6297027214687e-05,0.111603007920366,0
0.000213980833409499,0.160906337339423,0
0.000216631735139383,0.117550974965451,0
0.000211531550640912,0.116538610624963,0
0.000205217158432314,0.117555074851084,0
0.000209869670836518,0.118327994330942,0
0.000217689983355957,0.122001754112755,0
0.00022611521483604,0.122000480927329,0
0.000228335693171387,0.120494368592977,0
0.000225290275014863,0.119751504756469,0
0.000206358942840961,0.208572474998086,0
2.04029838133578e-05,0.139848899696257,0
4.24601954059051e-06,0.51807367844089,0
3.59837864407154e-06,0.544186758196766,0
1.1167826794211e-06,0.329613165449427,0
6.61163378651102e-07,0.260792376196632,0
9.68466458135884e-07,0.318550435252548,0
1.2147022510908e-06,0.318109620382222,0
1.50261227634562e-06,0.326523008691473,0
1.49502474646949e-06,0.32986937386909,0
1.45280149768652e-06,0.3199075950231,0
1.68321474386006e-06,0.352505389754447,0
1.63085294462209e-06,0.363579033863431,0
1.6731718998656e-06,0.366345720208745,0
1.69532696653449e-06,0.368835090980612,0
1.67664819806662e-06,0.358658736331816,0
1.24385010857175e-06,0.300066923384096,0
8.95563702992584e-07,0.263889380393835,0
8.24773630535458e-07,0.256236923281162,0
1.1004839037416e-06,0.288693292701063,0
1.15301523355709e-06,0.285590618268029,0
1.14008034993482e-06,0.280703669664044,0
1.13071551308021e-06,0.282800679559337,0
1.14430836422244e-06,0.295257460653125,0
1.16125865788906e-06,0.302465031737941,0
1.28105331740023e-06,0.32424315929914,0
1.19612851787204e-06,0.337877517005661,0
8.91945169558386e-07,0.301619392227025,0
9.07288032334743e-07,0.315835284486178,0
3.1597919836821e-07,0.208589612023817,0
5.42523761369527e-07,0.290256813754999,0
6.57048576698875e-07,0.27594614134336,0
1.41491106809984e-06,0.369148948482883,0
1.5744691706367e-06,0.347164318036022,0
1.60835225209509e-06,0.352452713787657,0
1.61628068584994e-06,0.344310020362595,0
1.74015087426515e-06,0.338072513034647,0
1.81365193874963e-06,0.342933806448686,0
1.86764984626496e-06,0.336076946453856,0
3.69090917037209e-06,0.437915087487491,0
3.38008683419077e-06,0.370757140470286,0
3.24394007518393e-06,0.37586508417091,0
2.94443298369031e-06,0.360191606981964,0
3.75364838312063e-06,0.417493323189222,0
3.6754419237481e-06,0.39610366459216,0
3.64099450816616e-06,0.396332692807745,0
3.78297682752111e-06,0.415990900733146,0
3.35120766885476e-06,0.37810017326928,0
3.99412474324899e-06,0.422469975632785,0
3.50492963519236e-06,0.420501268342696,0
3.30816532940105e-06,0.444142357094472,0
3.23271604531782e-06,0.418379366071198,0
3.14208525194948e-06,0.408860673784047,0
9.73216412385647e-06,0.224783641755118,0
0.000417438419811782,0.118664485830596,0
0.00155313605189678,0.21514183028133,0
0.00181614060489949,0.123658847311621,0
0.00174831377341552,0.107586137777012,0
0.00172957640449226,0.109479184720663,0
0.00171616149423354,0.108136269298793,0
0.00169509383907152,0.103923084240596,0
0.00170324469130074,0.10600080644275,0
0.00170965284117443,0.10490875958271,0
0.00174330031935543,0.10773292645739,0
0.00161267682752153,0.250965587213945,0
0.000570631983640171,0.181271462085304,0
4.58048236299007e-05,0.283330009419087,0
5.14653153248472e-06,0.499494157383342,0
2.93344620449655e-06,0.441767128681893,0
3.51872967757709e-06,0.488740254046013,0
3.09447019371187e-06,0.459268333643015,0
2.81278650139315e-06,0.433637169958921,0
2.45436972244526e-06,0.410005189305675,0
2.05352388551466e-06,0.386616064758874,0
1.93402475281186e-06,0.386123502748768,0
1.9369577930413e-06,0.403281995795515,0
1.81174103430518e-06,0.398850046681074,0
1.11236751351087e-06,0.306524377782559,0
1.13956623003125e-06,0.333818893163765,0
1.14503681592273e-06,0.336707458131923,0
1.11340404557452e-06,0.336376502367483,0
9.54574740248633e-07,0.339683581728404,0
8.0268858736598e-07,0.3261538992793,0
7.3642482009035e-07,0.287411201062657,0
9.30352137623453e-07,0.32312052068913,0
9.20443351775886e-07,0.32042863903838,0
5.98955331000071e-07,0.268732390688577,0
6.71951028518413e-07,0.297144376881586,0
6.51031508069393e-07,0.279798948767173,0
5.79778911971422e-07,0.259016080420167,0
5.59338614846497e-07,0.254380556630664,0
6.1267613626705e-07,0.254784126198834,0
7.00094947110606e-07,0.266256885109869,0
6.71952065050476e-07,0.275287892979392,0
5.42647108685101e-07,0.231065924966453,0
8.53550639878082e-07,0.28595658431678,0
1.91716843805234e-06,0.412060196506845,0
1.99833891844599e-06,0.390177930616821,0
2.02931429712539e-06,0.400962023013569,0
2.036781013431e-06,0.411364237253596,0
2.08148641099571e-06,0.410315059243854,0
1.98362580648342e-06,0.408182326756389,0
1.68702146544893e-06,0.379360479995642,0
1.61195201278192e-06,0.364785927161928,0
1.88728084218863e-06,0.409887371282682,0
1.99191794782238e-06,0.436883102986546,0
7.99281391302537e-07,0.290115426060029,0
5.3185945881779e-07,0.27870568734573,0
5.20007981542489e-07,0.288779181288964,0
5.41387722227768e-07,0.297441781657018,0
6.17656672832882e-07,0.319629180983608,0
5.24077636764831e-07,0.302122394019521,0
5.47726691648126e-07,0.308349113306185,0
4.97938601524194e-07,0.317710991973009,0
3.59676626086142e-07,0.303003802604,0
1.7059290771624e-07,0.22607017740865,0
1.45438117255152e-08,0.126808081215961,0
1.9044549116107e-09,0.11420959978731,0
0,0.1122879972944,0
1.45317188514392e-08,0.118533280478418,0
9.00400852622943e-08,0.163945353293553,0
8.65315393970723e-08,0.163798891944404,0
9.73252932865357e-08,0.172953645428031,0
2.52012731656314e-07,0.236375137122385,0
4.15375828228604e-07,0.295475630140843,0
4.90660188543482e-07,0.306565727604548,0
4.22207611060114e-07,0.279320216748598,0
3.78513983959749e-07,0.268848602277328,0
3.37893789598332e-07,0.261775011750616,0
4.33553260688355e-07,0.270136652284524,0
8.80061790129569e-07,0.357963482563685,0
8.7672749682127e-07,0.350737383757464,0
8.75883990061918e-07,0.358483945299721,0
8.00112459677124e-07,0.340165131126888,0
7.70826973772166e-07,0.315885239884674,0
7.2280559496561e-07,0.292628228302783,0
8.98186820134991e-07,0.302626553077778,0
8.57993331473109e-07,0.290612315132049,0
8.1518513309556e-07,0.26591309080167,0
8.76758823123636e-07,0.294607453243198,0
6.64811510834229e-07,0.26966042873955,0
7.03101465946334e-07,0.274981855073295,0
9.18367523563087e-07,0.28207127338151,0
1.15853603366855e-06,0.298379460900415,0
1.18754050421402e-06,0.307582711702214,0
1.08791457042711e-06,0.308757850897423,0
8.85289251667009e-07,0.29292513120268,0
8.77908567522683e-07,0.291680761265174,0
8.88495130169645e-07,0.299178251011788,0
7.60996042999606e-07,0.279064063156547,0
9.01082775550597e-07,0.29466604090291,0
9.64295453111762e-07,0.309393955978844,0
8.35165670665144e-07,0.331209823526111,0
4.436270854745e-07,0.268253407217134,0
4.70684142612842e-07,0.268386083357067,0
6.31361008757071e-07,0.315585474589889,0
8.44112669927871e-07,0.36434148083968,0
8.75842989460289e-07,0.357127922584392,0
8.36593781508392e-07,0.356153728293819,0
8.0837304437326e-07,0.341622565868374,0
8.82133587384345e-07,0.354870753312391,0
9.04462791439926e-07,0.362441599187175,0
8.93194075524853e-07,0.328322193047612,0
1.09641321198719e-06,0.322376112770847,0
1.19039085221883e-06,0.340125103141852,0
1.28969189078891e-06,0.342408488801278,0
1.08216527258073e-06,0.308741841000207,0
9.92479566113978e-07,0.3156889147804,0
1.05397447970522e-06,0.310916069198605,0
1.41672557506237e-06,0.352737214847247,0
1.35932669067598e-06,0.350414999648287,0
1.3287236573479e-06,0.343694237169415,0
1.26814584429253e-06,0.358491348438331,0
9.07309799508081e-07,0.337897089552211,0
9.2077780612176e-07,0.359113408285223,0
8.22635149717923e-07,0.350147286055168,0
6.46672660401292e-07,0.317264762995298,0
6.0044413655416e-07,0.297608383675862,0
5.9026182141202e-07,0.311309628179334,0
3.15338967063563e-07,0.25504382151173,0
3.79301748328123e-07,0.297379945704685,0
4.45685753323135e-07,0.309462321734037,0
4.39962829459271e-07,0.302094288891612,0
4.06090228491751e-07,0.285765869290043,0
3.41304786279342e-07,0.259414886431855,0
2.69490159462414e-07,0.215912918496268,0
3.01530517252093e-07,0.221796126038533,0
3.19276752373365e-07,0.226459008509062,0
3.31369626449268e-07,0.223764797412096,0
3.65311329554366e-07,0.228652852181681,0
3.23948056873543e-07,0.214235296422601,0
2.51110372909793e-07,0.187918324199472,0
4.93290676580564e-07,0.255660832995454,0
6.96227185300214e-07,0.271789343387179,0
9.4474242743332e-07,0.300540676521714,0
9.06620045004838e-07,0.284963066114579,0
9.06961064053778e-07,0.27863347650544,0
9.00786557720852e-07,0.273000899666051,0
1.09506859956018e-06,0.295014037748367,0
1.44208663540413e-06,0.330592577882661,0
1.38556419646267e-06,0.322992869634578,0
1.45676243221241e-06,0.333176659056573,0
1.44467232222202e-06,0.331307938337429,0
1.36292921544831e-06,0.341746573516491,0
6.89408992555761e-07,0.254213511440721,0
6.61522709766501e-07,0.266068810063389,0
4.52470316360634e-07,0.231296883890619,0
4.70196742202468e-07,0.237853288631746,0
4.34645650313212e-07,0.251040418135084,0
3.92632472028481e-07,0.248530919037285,0
4.94712453061203e-07,0.289300460104437,0
3.61674138543022e-07,0.256415110710079,0
3.76669878248288e-07,0.233326382723817,0
1.54876605471395e-06,0.445246749218399,0
1.93707388463242e-06,0.45509368717591,0
1.88688730551513e-06,0.43798374180301,0
1.93654778702501e-06,0.437400343571231,0
1.98650034023637e-06,0.445885939891399,0
1.99345201527658e-06,0.433658273373832,0
1.81923078465665e-06,0.395552067858675,0
2.07634141134245e-06,0.393358191213972,0
2.57705377266897e-06,0.435047973787648,0
2.9987362074835e-06,0.520706591305832,0
2.05797682726009e-06,0.4301548850758,0
1.41026130043254e-06,0.381702287705045,0
1.33548357395633e-06,0.382189960915825,0
1.05731165226925e-06,0.331328686371283,0
1.35794913956339e-06,0.371408706881464,0
1.32908471601674e-06,0.358913830537272,0
9.53298078256906e-07,0.320488094085808,0
8.86679010823904e-07,0.334727364541786,0
7.3844847618928e-07,0.314552679637851,0
6.36644443025948e-07,0.281938591943366,0
6.55295685809016e-07,0.305164704094122,0
6.87964297199495e-07,0.312370089303591,0
6.93810913889619e-07,0.292214356881094,0
7.78435579800266e-07,0.324080267721095,0
5.22081506350703e-07,0.271035714431447,0
5.27947356469121e-07,0.291769736614951,0
4.4502571273905e-07,0.264596723438901,0
4.53182874569278e-07,0.265824148926262,0
5.5171146641148e-07,0.277408720061071,0
6.74989679848114e-07,0.314626385193035,0
6.47374277438153e-07,0.28899331168179,0
7.89964580433544e-07,0.318127742425982,0
8.39369959885531e-07,0.340714084051751,0
7.52362882611702e-07,0.325510282265675,0
7.35727694692432e-07,0.328029004353341,0
1.52503995094725e-06,0.372334634303111,0
2.14248229198342e-06,0.351733677934168,0
2.21753654218017e-06,0.358142021672916,0
2.19604105541445e-06,0.359238729696311,0
2.02636766680889e-06,0.344456628423757,0
2.02357329153552e-06,0.349832736025787,0
1.85286337086632e-06,0.337227731649641,0
1.77636269775986e-06,0.327550765815758,0
1.78753409483119e-06,0.324245468242653,0
1.90930369343429e-06,0.336667097468492,0
1.2797947371345e-06,0.323230627701365,0
7.36677733913882e-07,0.311410743393304,0
7.02070346883462e-07,0.297266828382503,0
6.5725991406963e-07,0.294767706845323,0
6.67630417366437e-07,0.297070753858235,0
7.79002793179541e-07,0.312401139368041,0
8.13628837787106e-07,0.299276626488142,0
8.96824701833129e-07,0.317695019476363,0
8.53668113511962e-07,0.321437998474025,0
7.37783252944876e-07,0.285046681910161,0
7.40431246856811e-07,0.295721591292098,0
5.44117602172731e-07,0.265182102475506,0
6.35452200812293e-07,0.281231551303116,0
6.78581724129574e-07,0.269419455340687,0
6.75462338469138e-07,0.266961190349329,0
6.82824595376777e-07,0.263901031338974,0
6.62304370112721e-07,0.259363288936622,0
5.58690782306716e-07,0.230672045098111,0
6.08147758021427e-07,0.229405968791193,0
6.39206750287289e-07,0.235560818057559,0
6.79150665062288e-07,0.248363960181028,0
7.5342060599754e-07,0.259644180104317,0
5.97910967360831e-07,0.231416239165956,0
5.79138565496546e-07,0.227291316246141,0
6.92151886736636e-07,0.248995086986264,0
6.18107218769883e-07,0.244442938260032,0
5.52931003969477e-07,0.24674116733215,0
6.12065388541102e-07,0.265510254874077,0
3.55598333096601e-07,0.216862766130343,0
3.24773597077124e-07,0.228192893361612,0
3.10216080094323e-07,0.230302453982887,0
3.00822796193079e-07,0.21981309405474,0
3.14603720319749e-07,0.231857718100167,0
2.93571793726938e-07,0.238498327208757,0
2.06392076279397e-07,0.211369097006306,0
2.39088904376053e-07,0.217012972288906,0
2.52492761172013e-07,0.208729195333254,0
2.73168120734928e-07,0.210688511003768,0
2.92323233271158e-07,0.217905275038759,0
3.02186411707923e-07,0.214866845201403,0
3.20005549584339e-07,0.209014442955738,0
3.41737826341489e-07,0.213209247799495,0
2.24187604258808e-07,0.178361967153014,0
2.83134491697141e-07,0.197959873894348,0
3.09694589296079e-07,0.197987186807223,0
3.17945960373869e-07,0.197189477982362,0
3.75149055370457e-07,0.212509103805145,0
3.86583270905026e-07,0.223117320528481,0
7.30034254407268e-07,0.30066555879354,0
7.70889741547132e-07,0.296852179746223,0
8.11736360579342e-07,0.304508413020706,0
7.74711435265805e-07,0.297670568371706,0
7.78379031217683e-07,0.295006779771156,0
7.49267682699418e-07,0.301654431352097,0
7.50193075491798e-07,0.299543227840692,0
7.26335447323252e-07,0.297186783887284,0
8.23919643285241e-07,0.304806219765352,0
9.77049058793126e-07,0.3156998795131,0
6.74927027243378e-07,0.271261398274603,0
6.63058159263452e-07,0.276077604538447,0
7.45965521885092e-07,0.274222335108129,0
8.676989570362e-07,0.288237201323069,0
8.88116335285496e-07,0.291545931831049,0
8.72414486904427e-07,0.286375509967997,0
1.09370256547052e-06,0.326465349677092,0
1.15287115560025e-06,0.312450494111471,0
3.12306674282222e-05,0.203307930446346,0
0.000110290282406747,0.218292885496814,0
0.000109603387465126,0.196284390439973,0
0.000107509281276256,0.204740644721518,0
0.00010878699131707,0.200344727293729,0
0.000110276967461368,0.199279963164821,0
0.000110561980955356,0.203601026197446,0
0.000110324997477942,0.207599908204057,0
0.000107627428771147,0.20788562268662,0
0.000107978067759,0.20680942929192,0
8.97792550978834e-05,0.394328039373363,0
6.60673432978661e-06,0.28107012622182,0
8.10843215451165e-07,0.266823298126249,0
5.30373302178976e-07,0.230467420054362,0
5.40172445968254e-07,0.235897143880493,0
5.29887168641125e-07,0.242599249484551,0
4.78792126755162e-07,0.238123004633171,0
4.57698123408761e-07,0.248537257457663,0
2.85046317503426e-07,0.20562627049457,0
2.52593189611958e-07,0.212902510365988,0
2.36145038145061e-07,0.214722745925291,0
1.66365814790451e-07,0.191481628312523,0
1.73503489750966e-07,0.191260059206796,0
1.70076599578314e-07,0.187600655595242,0
1.4541404667723e-07,0.175533828740928,0
2.62084137867643e-07,0.215134339644977,0
3.83444997326985e-07,0.254594738759054,0
4.34191764439563e-07,0.247179713077545,0
6.71058228900924e-07,0.292996577908295,0
2.03077926244201e-06,0.445739432442642,0
2.11989879206156e-06,0.407048964315869,0
2.12849889859365e-06,0.405784281939433,0
2.15860612408463e-06,0.406887302069568,0
2.19165502757223e-06,0.41802489239584,0
2.2180984577289e-06,0.431626120221119,0
2.08402706625395e-06,0.43263439787094,0
1.9450511505645e-06,0.422355925825646,0
2.09570947363264e-06,0.456226792808866,0
1.95372254746853e-06,0.474029382525063,0
2.70662016545485e-07,0.228911652116495,0
9.37282966852151e-08,0.187263715734301,0
1.16897782733728e-07,0.200114585710115,0
9.50615072595265e-08,0.183617184203882,0
2.08342944793414e-07,0.234866990070878,0
2.15569185660256e-07,0.22960268519609,0
2.53044656910791e-07,0.233379022533273,0
2.30048386887137e-07,0.227098217035644,0
1.46718234353758e-07,0.189451179706927,0
1.73249309054914e-07,0.186843995766619,0
1.8501682723306e-07,0.187388013197605,0
1.90019821993605e-07,0.184974115185001,0
3.22525589371529e-07,0.225545481971129,0
4.87356185005487e-07,0.273662857173351,0
5.11085052857682e-07,0.270961133121201,0
5.35541566218558e-07,0.26198528583685,0
5.59479583207153e-07,0.262176813324038,0
7.34546623991019e-07,0.280268717867352,0
7.82483122338586e-07,0.274181573543649,0
8.22530114468804e-07,0.291368579234325,0
7.65306173660715e-07,0.275801123090242,0
7.37312437047521e-07,0.273207764424057,0
7.2511821316984e-07,0.267594589944378,0
6.14654875976556e-07,0.251677174042843,0
5.7860935829294e-07,0.26135065144467,0
5.36863835621087e-07,0.263501547353157,0
5.25131214022417e-07,0.268488721085787,0
2.55234388480364e-07,0.208910815434016,0
2.08731759487511e-07,0.212395325495126,0
1.77909096532162e-07,0.194905607879555,0
1.41490772816319e-07,0.184374241706208,0
1.591768890779e-07,0.192864789719372,0
3.767218200217e-07,0.274921291121854,0
1.26775069523582e-06,0.431693185806188,0
1.19827897639343e-06,0.373817603898397,0
1.25415588619969e-06,0.388513570573552,0
1.29602544720849e-06,0.383338136965039,0
1.25267710045555e-06,0.361569466695194,0
1.27052906184732e-06,0.347944782870727,0
1.55920496912695e-06,0.390807555848856,0
1.6631300924032e-06,0.393079957588529,0
1.71047876190045e-06,0.409303564399504,0
1.58085294127626e-06,0.421560119986147,0
4.74962025609749e-07,0.253495187898095,0
4.20187064557374e-07,0.25521196665204,0
4.14028336545861e-07,0.25722229439425,0
4.27777243348786e-07,0.273557550270723,0
2.13449132079406e-07,0.211321374476584,0
1.79893134072215e-07,0.229457957875547,0
1.30936573003788e-07,0.206642059708292,0
1.27312050717667e-07,0.211394646759959,0
1.99172630456083e-07,0.236477312860201,0
5.05695892318313e-07,0.329824400335958,0
5.41853009954117e-07,0.317607591394725,0
5.17688913805419e-07,0.334171881819404,0
5.31656183363086e-07,0.318038268553205,0
5.45633357560474e-07,0.335272912922996,0
4.86933855774665e-07,0.308971433201793,0
5.31255045454454e-07,0.293172306698067,0
5.14327209982546e-07,0.277938316868328,0
5.13342389351851e-07,0.275225288512832,0
6.40856563821929e-07,0.309799094579678,0
5.58637343320323e-07,0.290352038302561,0
5.27717016010532e-07,0.310351918740057,0
5.48926765437372e-07,0.293038991358977,0
6.09418200820772e-07,0.314830967318054,0
6.20897102404307e-07,0.305156586301348,0
6.56297666803876e-07,0.305127111279292,0
4.67423443081061e-07,0.261207392900198,0
2.58601390133783e-07,0.199082680473346,0
2.35714416657729e-07,0.187621538790289,0
2.43727961212028e-07,0.185437269067444,0
2.7280878961953e-07,0.191555189550316,0
3.1221912072221e-07,0.195822618206864,0
4.55225188245354e-07,0.227848620370122,0
3.84024649091023e-07,0.199230745012389,0
5.3665284376102e-07,0.230592602673459,0
5.31728970948e-07,0.238857524377796,0
4.58909714220937e-07,0.228433859127064,0
4.39727306340365e-07,0.232433305904688,0
4.42256559745897e-07,0.231553470812837,0
5.05931760947908e-07,0.249346272016102,0
2.82540328484211e-07,0.193447205900674,0
2.86076400034235e-07,0.194883873765613,0
2.89353684079034e-07,0.21263169171396,0
2.18077247743598e-07,0.197787134846207,0
2.10881411817289e-07,0.200224201689066,0
2.12528691606887e-07,0.204217203275003,0
2.1813241428343e-07,0.200892141035042,0
2.05548454349816e-07,0.197049033591347,0
2.59630666472987e-07,0.226524462104152,0
2.47508769499301e-07,0.214215637553802,0
3.07737271249222e-07,0.234318064974481,0
2.6106787576435e-07,0.218016372499748,0
2.55445380340431e-07,0.214822120165416,0
3.30755193275984e-07,0.243407834865204,0
2.86734252383964e-07,0.211781759607382,0
2.87527544923343e-07,0.208166245597838,0
3.07138731567579e-07,0.216424046967963,0
3.16268505984197e-07,0.217157682349298,0
2.90090773546517e-07,0.217373488802995,0
2.13367246046378e-07,0.202313813897188,0
1.78552552603229e-07,0.198081400146104,0
2.09264306627768e-07,0.230055382412384,0
2.42656302228444e-07,0.241791484677485,0
1.15688956007055e-07,0.195672045210753,0
7.20735294923815e-08,0.178794846739499,0
6.52895423060292e-08,0.173815370982758,0
8.81500266293456e-08,0.180962222113512,0
1.94407347048802e-07,0.244620448661883,0
2.83113300374951e-07,0.281785114745926,0
3.9186716585482e-07,0.316108392068119,0
3.59121044900027e-07,0.286174536589513,0
3.22644329877931e-07,0.26257998547009,0
3.39107223134177e-07,0.252881496327975,0
3.75959853784689e-07,0.25493849363169,0
4.09479112488735e-07,0.282016500358028,0
4.09150992505477e-07,0.275227068305643,0
4.68759993592021e-07,0.297706677024621,0
4.27906234005596e-07,0.253715374970584,0
3.61369743626998e-07,0.226741509892774,0
2.35120483785259e-07,0.189143805854294,0
1.98500036317004e-07,0.182736749848402,0
1.97469608275508e-07,0.179758167694956,0
2.10119445580278e-07,0.193679034401081,0
1.72208170182093e-07,0.179819552235882,0
1.71488471419233e-07,0.174063878948595,0
1.6352606244674e-07,0.174110551809524,0
1.25340221221919e-07,0.162423176121987,0
1.42099447478139e-07,0.189953008943927,0
1.32525115976444e-07,0.192359595087387,0
1.29681678185397e-07,0.19641933267707,0
1.21922083986693e-07,0.191059675776448,0
2.99094321391829e-07,0.261751807686714,0
4.19222053206117e-07,0.299131309326632,0
4.4250578812209e-07,0.3027145495342,0
4.57610018183351e-07,0.303741647377144,0
5.02363902414599e-07,0.317057639644715,0
4.49212726425044e-07,0.297417514917878,0
4.85776970821403e-07,0.288449601307623,0
5.0718308548919e-07,0.27730138717426,0
5.48815626166104e-07,0.273091035435999,0
6.10955147530704e-07,0.275569100505895,0
4.45968611406283e-07,0.237796397859599,0
3.82320935889073e-07,0.219215198997874,0
3.62194707979432e-07,0.209951569531569,0
3.76482841795915e-07,0.212889317662336,0
4.00863918656604e-07,0.216064292754863,0
4.40157582317008e-07,0.222336135494247,0
4.21753494846006e-07,0.22468129325341,0
2.87202419366044e-07,0.197854662661067,0
2.70986451081406e-07,0.202822880387983,0
2.56348314938098e-07,0.209892362830079,0
1.31084566748431e-07,0.169787177865012,0
1.10623884492921e-07,0.164563048098296,0
1.08190913399078e-07,0.171916378667285,0
4.46169468286171e-07,0.24045162716062,0
1.51744850528332e-06,0.410124699415895,0
1.49329131934838e-06,0.381711116325902,0
1.49553149547838e-06,0.383633162726169,0
1.44448678298262e-06,0.37205627577894,0
1.39527074338759e-06,0.368029810281062,0
1.36969650295141e-06,0.356309286900725,0
1.37231040647548e-06,0.350072280263015,0
1.33989689714289e-06,0.342528311034335,0
1.23553573937853e-06,0.317929214778086,0
1.0409961769065e-06,0.334530276142877,0
2.23181592305922e-07,0.179615602315087,0
2.13387400836505e-07,0.1901520174704,0
2.93200369737464e-07,0.194695996711176,0
1.01380943808997e-06,0.325517855077274,0
9.84797596649819e-07,0.298972752097895,0
9.7273017519459e-07,0.304893170581427,0
9.85366998263449e-07,0.30890989469403,0
1.00291801984607e-06,0.311421232822442,0
8.54828108061415e-07,0.290448894579956,0
8.78253156848731e-07,0.286657304023908,0
1.07776588499192e-06,0.317094952147095,0
1.12961736494389e-06,0.326309711733898,0
1.08619991605337e-06,0.363853622435728,0
4.70710977276267e-07,0.269739033516552,0
3.98771851441472e-07,0.26665637042224,0
3.35880268479578e-07,0.251983770739378,0
2.56304550250967e-07,0.230095133714797,0
1.51096891301298e-07,0.196557131943081,0
6.03326156372018e-08,0.159363798896939,0
6.54148475155014e-08,0.172106206867688,0
4.3954211261166e-07,0.342344792554965,0
4.94582541042558e-07,0.346058670807387,0
5.05936943608226e-07,0.322284749960595,0
6.39591994704276e-07,0.333645601871533,0
7.46158086508471e-07,0.320521898353081,0
8.54208952908728e-07,0.312067008117927,0
8.1391538131759e-07,0.291534759454681,0
9.14410274484534e-07,0.294074282538228,0
8.6146467735427e-07,0.273999274706388,0
8.40258958885454e-07,0.276288723344894,0
6.93039734034265e-07,0.25529284970967,0
6.70675863739666e-07,0.251263427500371,0
6.76654580682793e-07,0.255624486345295,0
4.10957783062645e-07,0.208543737711631,0
3.58813310047352e-07,0.216783582459809,0
2.92394178132404e-07,0.210683441819443,0
2.10873925752385e-07,0.186733152673707,0
1.40980338360087e-07,0.159036863891155,0
2.71596853296666e-07,0.215215052197962,0
3.42447159783713e-07,0.240818585840267,0
4.74247970188125e-07,0.237820069413494,0
1.72215437423562e-06,0.41279237686583,0
1.75431312702101e-06,0.374240797101667,0
1.77194292504047e-06,0.374258174733568,0
1.7700960552435e-06,0.372108328858542,0
1.77374315089457e-06,0.369536779570256,0
1.80530900733955e-06,0.383880851511201,0
1.77779771881687e-06,0.399983476853558,0
1.59030922329293e-06,0.362093912111669,0
1.59142222838883e-06,0.350765571314191,0
1.51105920647276e-06,0.370207200464969,0
4.91427798121728e-07,0.236241938505025,0
3.79285970006709e-07,0.247064831011552,0
3.81515780816076e-07,0.247764817217314,0
3.99708530916323e-07,0.248575740352239,0
4.02043607315265e-07,0.251372447808735,0
3.78337082487553e-07,0.246938260328349,0
4.69408056472261e-07,0.261272124601693,0
4.74478310646713e-07,0.25684769668203,0
2.40611800318011e-07,0.196433588365055,0
2.31494924967073e-07,0.19397786509929,0
3.55094693683897e-07,0.227023414743667,0
3.60235892719595e-07,0.220627739434213,0
3.55854817197239e-07,0.223057240255537,0
4.08888980233832e-07,0.233826342165395,0
4.94174838430857e-07,0.242528539017962,0
5.43117579071768e-07,0.2428846826527,0
4.00960085798064e-07,0.20991721837775,0
5.01314816795957e-07,0.233185068806103,0
5.15758660762445e-07,0.234799499374798,0
4.86772617453652e-07,0.231432030487891,0
4.08446726553341e-07,0.214725359209588,0
8.26072865892127e-07,0.273509489668477,0
1.38687345162928e-06,0.336427198454596,0
1.30577702569307e-06,0.32975263373586,0
1.13719084405205e-06,0.310544102859022,0
1.18018895813771e-06,0.30986243175392,0
1.29339634121416e-06,0.333066638760534,0
1.46680527620688e-06,0.362808564586746,0
1.32812189289984e-06,0.345279733165925,0
1.46056581386463e-06,0.353940244650244,0
1.40585811222616e-06,0.333944493163674,0
1.32551132931242e-06,0.356435973931034,0
9.58197995662233e-07,0.307060239763176,0
9.30324842279111e-07,0.292917969337419,0
8.40712268907956e-07,0.287555632036211,0
8.47687899355854e-07,0.300525838424154,0
7.51579725052501e-07,0.283406455437176,0
6.83397106586598e-07,0.273458986745457,0
8.34866228068977e-07,0.304305086870958,0
6.92054337552423e-07,0.273337879447964,0
8.11497382353556e-07,0.295671599066159,0
1.12950852907721e-06,0.349790986368463,0
1.41503453058564e-06,0.400894675931478,0
1.4642384773066e-06,0.433113557875055,0
1.31887602689209e-06,0.397739297759556,0
1.0724685151253e-06,0.347608888012414,0
1.14348017510359e-06,0.362721873360691,0
1.14367538864224e-06,0.369958979473966,0
1.19365293379336e-06,0.386420236792153,0
1.08612252165929e-06,0.372147726594687,0
1.05129331676725e-06,0.386621032920588,0
8.30189510568023e-07,0.3396570858833,0
6.22241714831319e-07,0.295239214701896,0
4.95998559011732e-07,0.258070209319506,0
4.23630769583503e-07,0.219948847123948,0
1.37261445588082e-06,0.374494246018804,0
1.50175068786027e-06,0.351401401702898,0
1.68280473784378e-06,0.359514057702509,0
1.69084361984852e-06,0.353379098448266,0
1.88339315592857e-06,0.373855092634975,0
1.91636639257554e-06,0.374747887764313,0
1.73664324976176e-06,0.357682347647391,0
1.60938014639154e-06,0.341489303039001,0
1.57315173838381e-06,0.3159401560797,0
1.89097354525049e-06,0.35999347677832,0
1.26721123788181e-06,0.311256965216491,0
1.21872272862523e-06,0.329876524584375,0
1.07815182043029e-06,0.322761397777695,0
1.15716424106742e-06,0.343194450774046,0
9.27086831282501e-07,0.314434824578871,0
6.035776881528e-07,0.262776089499072,0
6.12754567193199e-07,0.254716754073273,0
6.62781635542916e-07,0.261017665703878,0
5.90954109660308e-07,0.259467057669496,0
4.84744124205091e-07,0.250982891405688,0
5.03298623995552e-07,0.247509536888359,0
5.01810624633069e-07,0.240694884648419,0
5.6663165444633e-07,0.256046124629333,0
5.91565087726714e-07,0.261242352803038,0
6.35562418721727e-07,0.268805312950796,0
6.92977081429529e-07,0.26945854725001,0
6.47096486845095e-07,0.266052605692791,0
4.45570583093841e-07,0.23204248252691,0
3.55873244433927e-07,0.217549593998484,0
3.45971368800118e-07,0.214779139820318,0
3.2993967288235e-07,0.221699468424417,0
4.00927838133862e-07,0.246348483888682,0
3.53906136917579e-07,0.226678467916625,0
3.23838414815254e-07,0.218662934584012,0
5.63005519776998e-07,0.286097174765428,0
5.4230770201937e-07,0.273562241186455,0
5.37709530614795e-07,0.266960551200034,0
9.89657780326038e-07,0.336426375166151,0
1.17745723546908e-06,0.337184743221769,0
1.17455218160536e-06,0.332921702477122,0
1.13971721820185e-06,0.316355542851082,0
9.87711518621193e-07,0.297366515094517,0
9.94405557858466e-07,0.310161812836994,0
1.05154381201596e-06,0.32532862258509,0
9.28896385925174e-07,0.321779740997885,0
9.70006168931319e-07,0.342493345443911,0
1.2711938244108e-06,0.405914079122954,0
7.0508654001845e-07,0.331881044080486,0
3.08146701414364e-07,0.245058819925245,0
3.00348294848386e-07,0.24846217334527,0
2.37018489164029e-07,0.235578235427807,0
2.52870634694328e-07,0.242187856537781,0
2.65902261309208e-07,0.232524418204829,0
3.02324615983076e-07,0.222582577359777,0
6.15578426045267e-07,0.299018400549821,0
6.87890588252746e-07,0.32013264578418,0
4.65682069214131e-07,0.259256570474187,0
4.86020210345673e-07,0.269264987513358,0
4.80395872198085e-07,0.272974584548236,0
4.61485266058647e-07,0.273108109869673,0
4.44900753040266e-07,0.274096663225661,0
4.51643394114301e-07,0.274581838439638,0
4.43679948609746e-07,0.288903477918873,0
4.35571964467425e-07,0.296910532485721,0
5.22064461156767e-07,0.299089857059665,0
1.00365142386621e-06,0.381659962298651,0
1.01471237268764e-06,0.396460948059861,0
9.47171022058449e-07,0.346469051334193,0
1.25938830005699e-06,0.395924908989133,0
1.37402471533852e-06,0.41274316248078,0
1.45790584224885e-06,0.385548288431234,0
1.54359617829115e-06,0.371110742348564,0
1.69728854587983e-06,0.374465834275317,0
1.73203644058999e-06,0.375245368695314,0
1.50466864078968e-06,0.36914442857675,0
9.22750326638882e-07,0.302027255408426,0
8.01172947148467e-07,0.287478254153487,0
7.7202105870949e-07,0.305299420917297,0
5.88937248604905e-07,0.265745968456559,0
7.60687386785096e-07,0.273096547451389,0
7.62851780904224e-07,0.277632440167971,0
7.39013846844885e-07,0.292948159981198,0
5.66230286197239e-07,0.255232541348282,0
5.04924827633188e-07,0.246932229238713,0
5.13889563111228e-07,0.252998649044165,0
5.38676960540867e-07,0.250102698580129,0
5.981836904638e-07,0.255064774077645,0
8.66247005955485e-07,0.298472714782927,0
8.75872012358071e-07,0.297045697821913,0
6.75075366498709e-07,0.272090903861311,0
6.46884573623193e-07,0.292604956870335,0
6.13488777404951e-07,0.282877163901717,0
7.94881888543494e-07,0.337019090775927,0
8.22050084953105e-07,0.349191683175271,0
8.16485980835438e-07,0.339295477026713,0
8.01038428320651e-07,0.345665084582141,0
7.47161795056772e-07,0.345445945626452,0
3.29608558473129e-07,0.2484047513637,0
2.93917304414821e-07,0.234650489760659,0
3.86555514879766e-07,0.283646806494798,0
7.4337557376872e-07,0.367149427570764,0
7.31633738551707e-07,0.337234860013286,0
5.48496028779813e-07,0.279982182269607,0
6.81649283186829e-07,0.301572894155968,0
8.0064040000821e-07,0.336948546852618,0
9.55685441939947e-07,0.372635455946506,0
9.7370912214359e-07,0.365877870518247,0
9.23872545353125e-07,0.345179870863736,0
9.2213854238087e-07,0.346785256290409,0
8.2337281503655e-07,0.312661355305676,0
4.09867812012604e-07,0.233763683150775,0
2.94210297478146e-07,0.215485939149749,0
1.83005494348664e-07,0.1830573731978,0
2.06409927664938e-07,0.195376677292057,0
2.222859134327e-07,0.193501007632935,0
1.76663760842802e-07,0.179601547855174,0
1.79532996765212e-07,0.184500490308265,0
2.0401542342768e-07,0.192375816283727,0
2.6398271909756e-07,0.21910264335291,0
2.92189635805177e-07,0.231705155264523,0
4.5151624618116e-07,0.292586408881459,0
4.54753796496853e-07,0.279876175629365,0
4.78906490792851e-07,0.290159578490992,0
3.4243115112184e-07,0.248879204986981,0
3.273415476797e-07,0.239558854703434,0
3.7089708567514e-07,0.225006001901851,0
2.95594067783117e-07,0.19381317547121,0
2.95830972944775e-07,0.196920859970931,0
2.8421985593801e-07,0.198294353662735,0
2.72308490143475e-07,0.198023557346858,0
2.56579576758522e-07,0.179394985293186,0
5.43540023472821e-07,0.24426424471418,0
5.91461780031038e-07,0.253979578364968,0
6.19609384070567e-07,0.247042206565303,0
5.81026435895138e-07,0.24342222882428,0
5.42984442286704e-07,0.247288527832483,0
7.05684964529864e-07,0.27798683079802,0
9.13468527519595e-07,0.319710137282461,0
9.6632763180766e-07,0.329306250179152,0
1.09615983748274e-06,0.35094151333899,0
1.10807454321393e-06,0.352619454070274,0
6.51119958805492e-07,0.279361410134133,0
4.2681223199753e-07,0.227799634298736,0
3.27477909231184e-07,0.211448603314589,0
3.33738447725393e-07,0.213117852383358,0
2.6750635226282e-07,0.20032462900671,0
2.35369827331681e-07,0.200646674383714,0
2.04392145247701e-07,0.192490715912614,0
2.15142710301179e-07,0.186451613565843,0
1.85615366914703e-07,0.174543731026091,0
1.60738597387131e-07,0.171186934222649,0
3.70297739801893e-07,0.23819757370561,0
4.39214222968858e-07,0.245000475185399,0
9.63860685496175e-07,0.333022143731451,0
9.92566519637095e-07,0.318968959845408,0
8.43444106746818e-07,0.29577553106309,0
7.73340564026515e-07,0.283512253314445,0
7.34509769517644e-07,0.273869759606335,0
7.88232420184958e-07,0.278078998600041,0
8.54211141143085e-07,0.248067059816731,0
1.37417213323202e-06,0.305669067368651,0
1.35449403268457e-06,0.310652298931807,0
1.49669022315531e-06,0.332629369706635,0
1.20916578782816e-06,0.313017767791531,0
1.1590894266203e-06,0.323383094214764,0
1.15902953810107e-06,0.325300663881796,0
1.09743223817599e-06,0.322786561223601,0
1.00051418682023e-06,0.307874968040771,0
6.18507435316679e-07,0.256664312048034,0
3.61521768329666e-07,0.252475246488895,0
2.34535534190673e-07,0.217887763734831,0
2.4683986080756e-07,0.217515348658562,0
2.27466846197505e-07,0.229106529998701,0
1.62659982322448e-07,0.197323861347459,0
3.58097527072287e-07,0.259616307121231,0
3.92028404175832e-07,0.248406672286703,0
4.33627890996938e-07,0.255341675436229,0
4.31891123939179e-07,0.259802227163869,0
4.25580371224998e-07,0.257962178157639,0
4.41127430817895e-07,0.273041497883946,0
2.98005847554769e-07,0.232554630165685,0
2.65628616844405e-07,0.235149745817141,0
3.16257449642185e-07,0.228310656787929,0
5.87725312282042e-07,0.292192054531819,0
5.18611542512294e-07,0.287147830923843,0
5.08246221875806e-07,0.302779380536125,0
4.51167856237544e-07,0.284658929156601,0
5.34901334913911e-07,0.301759157755238,0
5.47977186896842e-07,0.296108966131812,0
6.92862256710923e-07,0.316433132206374,0
7.46664835517366e-07,0.327276921665517,0
7.19194777936775e-07,0.324362440498712,0
7.11881122865897e-07,0.355243864786867,0
3.38105702820234e-07,0.244685794356919,0
2.31108528847791e-07,0.201250442735276,0
1.67790240186363e-07,0.176236941304676,0
1.85729155101246e-07,0.177938262452547,0
1.80586919533484e-07,0.172505499510971,0
1.84421627488067e-07,0.175634916749136,0
1.42655489345172e-07,0.163571164525573,0
1.41671935586999e-07,0.166445905279722,0
1.52232009081224e-07,0.165938839927298,0
1.63848193578077e-07,0.173408186051871,0
1.09621442817143e-07,0.156591645381,0
1.20383294553091e-07,0.171886059679167,0
1.41882351595919e-07,0.179171069707907,0
3.02453606639886e-07,0.235008773177322,0
3.33784170306423e-07,0.243360248756852,0
3.57258051270961e-07,0.242846059593615,0
3.36652830377686e-07,0.227465838706765,0
3.43324872101164e-07,0.222335905571428,0
3.24483943950449e-07,0.217976373056085,0
2.31886618916903e-07,0.178876693699706,0
2.64131403863579e-07,0.181817705852473,0
3.17351106139564e-07,0.184798783952913,0
3.18009879851128e-07,0.189168917866673,0
2.37220267405752e-07,0.1700437882628,0
2.12604243277303e-07,0.168078257341819,0
2.6816236188888e-07,0.190191986986448,0
3.55268024878984e-07,0.224867956573923,0
4.29492934254583e-07,0.250049192820189,0
3.96975195864481e-07,0.238573817101827,0
4.04928045707941e-07,0.243133303909454,0
2.45508838467606e-07,0.205371858102126,0
2.67575108889708e-07,0.225194442690341,0
2.59107217780844e-07,0.224602543521783,0
2.91472816298049e-07,0.233791738722639,0
2.82835049100976e-07,0.215730468126245,0
2.6902901786432e-07,0.218779970444647,0
3.14393534651286e-07,0.218847816409946,0
3.40328027564697e-07,0.215008423086529,0
3.63492906804038e-07,0.22715594941412,0
4.06182364675185e-07,0.240170070621284,0
3.52970148464104e-07,0.22640647467591,0
2.95562395970061e-07,0.206429656075322,0
5.51860727028646e-07,0.265459205328209,0
5.75381827787194e-07,0.25828926836842,0
5.50696701521169e-07,0.262462307103764,0
6.65776176674798e-07,0.272679780062092,0
6.45911615526115e-07,0.283657667708077,0
4.64839598986843e-07,0.248054499660997,0
4.64636899383285e-07,0.241167101489044,0
5.80169569389188e-07,0.255838321231426,0
9.03026733850856e-07,0.31508548095381,0
1.00583009909378e-06,0.341322238653076,0
8.8175064637194e-07,0.333162960428902,0
9.48414860534828e-07,0.367784331055174,0
1.04350861545856e-06,0.389005345332723,0
8.43520694949297e-07,0.382655245640216,0
4.46322529520903e-07,0.272315421916811,0
2.4563379816639e-07,0.214920259805261,0
1.49035920048077e-07,0.178390297881652,0
1.67676451999821e-07,0.20733628175496,0
2.19859967722845e-07,0.242845998543331,0
2.36306276466073e-07,0.236844521434041,0
2.52815813665184e-07,0.248836335813448,0
2.36685877541826e-07,0.237315342429312,0
3.44978716593831e-07,0.251628412396467,0
5.11459931954035e-07,0.268470266281711,0
5.46323342404175e-07,0.282259003503621,0
5.70775479296339e-07,0.285313535256772,0
5.56989602849809e-07,0.281945373019434,0
5.76881804853525e-07,0.281775261707698,0
6.48128412099572e-07,0.288031232883474,0
6.86790482222527e-07,0.299557110197146,0
6.26929603844514e-07,0.281777403386304,0
4.85583484836189e-07,0.249125150098945,0
5.22211303199119e-07,0.274191742559459,0
4.57801661444897e-07,0.266833390519032,0
3.77460752212853e-07,0.249222881318205,0
3.23328901720856e-07,0.228092095384765,0
3.50578177971891e-07,0.231662897634747,0
3.47886534543054e-07,0.240720876419842,0
3.37797622456872e-07,0.241914786841335,0
3.48991592893132e-07,0.23118832445505,0
4.9601514352475e-07,0.27751541927442,0
5.31431025564816e-07,0.270955069238964,0
4.40756467509338e-07,0.255849490474531,0
3.41625880878615e-07,0.238071141800534,0
3.38532408519769e-07,0.237023608661521,0
3.2993967288235e-07,0.24202255634924,0
3.95478904245488e-07,0.258468448117456,0
4.04379259565354e-07,0.257027849734624,0
4.01679669390695e-07,0.248948748546201,0
6.26557028152747e-07,0.326942876134047,0
4.08806979030574e-07,0.253696899658551,0
3.40997857618273e-07,0.247895109532962,0
3.64847308700539e-07,0.244016565178596,0
3.40819689273554e-07,0.225549238957218,0
3.92818126438102e-07,0.235555168067805,0
3.51729880264834e-07,0.223786601739335,0
3.65369375349931e-07,0.229985079513939,0
5.40335527012935e-07,0.273318210999038,0
5.3861442310636e-07,0.27313321710546,0
3.84056896755225e-07,0.235817492653615,0
3.68706087233046e-07,0.246341645374645,0
3.71574171453162e-07,0.242407054428135,0
4.40961009836566e-07,0.257562967652588,0
3.96392895185169e-07,0.240625417638221,0
2.28028416235544e-07,0.190136393448997,0
2.33485066529279e-07,0.195717584109107,0
2.59645408262337e-07,0.194741676480042,0
4.00121646528802e-07,0.23339179758715,0
4.10877739753286e-07,0.238337134539538,0
4.51858877613311e-07,0.244925418107453,0
5.85426860016016e-07,0.270690662108775,0
6.13915943785403e-07,0.268153210861949,0
8.7302903524794e-07,0.318823299067429,0
8.28366596178752e-07,0.2948876592186,0
7.08614895163111e-07,0.273312891606929,0
6.50981754530339e-07,0.254583717466579,0
6.15778476733551e-07,0.260819358341005,0
6.94533607078442e-07,0.287646028017785,0
8.47273862381542e-07,0.32837817003683,0
9.70066863642158e-07,0.356964361398331,0
9.38274467356151e-07,0.35707327078628,0
8.6713105263555e-07,0.346146924936487,0
3.19021650315479e-07,0.231733552389621,0
1.26044141663366e-07,0.181334598278882,0
1.37124093572625e-07,0.192065285830185,0
2.32333940087483e-07,0.244606727771924,0
3.53587000212205e-07,0.288333873249225,0
4.65396101534793e-07,0.329028795276378,0
4.56798413577514e-07,0.30767466064952,0
4.09809766217039e-07,0.278603045148591,0
3.75008662860948e-07,0.265088155884107,0
3.05220571398682e-07,0.24548551317271,0
4.5910354571684e-07,0.279629361976789,0
4.69606149266647e-07,0.278276526167959,0
4.82137591575703e-07,0.270801072034181,0
5.17083924590934e-07,0.277288637650712,0
4.63632154302922e-07,0.252501949690053,0
5.10711901314768e-07,0.259589171505706,0
4.39985287653984e-07,0.239995108480281,0
4.28870899846165e-07,0.245291638687688,0
4.73398129066162e-07,0.259008320687989,0
4.86758336345219e-07,0.264677261045526,0
4.08946450178249e-07,0.256981191156849,0
4.10239696682995e-07,0.261422160840763,0
5.48350338439756e-07,0.29636670106968,0
7.26584675699444e-07,0.345775422325378,0
8.62742951729207e-07,0.383956881914111,0
6.89513106443045e-07,0.336976214880629,0
8.04754856449749e-07,0.375053823325553,0
9.05488612672251e-07,0.376616196613179,0
9.1394763567346e-07,0.390506093107113,0
9.1190589784853e-07,0.389562912690741,0
8.95442083230448e-07,0.386130524171166,0
9.07844189372009e-07,0.401765962765429,0
7.76784499393104e-07,0.396516806687693,0
4.31166933537377e-07,0.308426498690141,0
1.89467004892993e-07,0.211944301096821,0
1.76026178453429e-07,0.227951940233417,0
6.5191993121817e-08,0.16250912930354,0
3.84853989912171e-08,0.152696837707399,0
5.04657517530995e-08,0.144000334400811,0
1.02812578861263e-07,0.186737554638124,0
1.96680922545301e-07,0.219228748512923,0
4.80582332799312e-07,0.304988642558099,0
4.811425207946e-07,0.281303495021027,0
4.76305947015385e-07,0.270579859201901,0
4.86810853969778e-07,0.28284499837195,0
4.98894399257109e-07,0.286104734098586,0
5.18250368673227e-07,0.291253916964438,0
4.44212610920232e-07,0.271056771079927,0
4.41707888773539e-07,0.288521701973348,0
4.69034098737742e-07,0.282660810630919,0
4.28777496790207e-07,0.268065085953407,0
1.18244813735555e-07,0.159474097376911,0
9.86581583501587e-08,0.158343063763875,0
1.17226708908593e-07,0.158980169280623,0
1.48906468710351e-07,0.164580520368883,0
1.55804128913016e-07,0.164220841641877,0
1.63088991426569e-07,0.164136430487388,0
1.50921832552772e-07,0.15774241079666,0
1.5762485506793e-07,0.156337953412053,0
2.01792638002299e-07,0.174133633026745,0
1.65295077168702e-07,0.171701659279479,0
1.2908382952513e-07,0.159116425612762,0
2.05930013319468e-07,0.17732064999272,0
2.74392610612785e-07,0.188982010165612,0
4.54818291825257e-07,0.250938744040962,0
4.93994597022012e-07,0.253156177811534,0
4.47842776547588e-07,0.246227066960585,0
4.73266835004767e-07,0.254696960989574,0
4.98781071751482e-07,0.270097797572668,0
5.02849805611993e-07,0.265152326826682,0
5.05741960410032e-07,0.267046227517069,0
5.02188267814924e-07,0.266125104273347,0
3.07132397204968e-07,0.232800893322853,0
1.42204828237944e-07,0.193601570520216,0
7.24218042657673e-08,0.152418959506066,0
7.28032480651905e-08,0.156428686903579,0
1.47839531706168e-07,0.192574168583168,0
1.65614789725223e-07,0.189026770569808,0
1.52860377852253e-07,0.181181754006525,0
1.48862588852989e-07,0.190382233999882,0
1.72879842959338e-07,0.194631057547117,0
2.01493195406134e-07,0.191485444282155,0
2.0659235730814e-07,0.187663893178452,0
2.16960442030131e-07,0.187832278460727,0
2.37069279235148e-07,0.195015498613971,0
2.47086209928021e-07,0.206462956110137,0
1.57414669399468e-07,0.174565411997996,0
1.10248890226338e-07,0.164303940008225,0
1.17572219596476e-07,0.166076648731263,0
1.15933116893159e-07,0.161462574358097,0
6.35739665704609e-08,0.138381472451365,0
4.40697730692399e-08,0.13099371658964,0
8.05759716700343e-08,0.164830398627677,0
7.91059388633216e-08,0.171637601730472,0
6.71645136389405e-08,0.166281162064315,0
4.65482364036535e-08,0.153788251725528,0
4.86507841096503e-08,0.160817732294001,0
4.4587463249918e-08,0.155288167787625,0
3.92017578174279e-08,0.14655827559968,0
5.74487530956724e-08,0.151820230471996,0
4.28083135477793e-08,0.137077860231725,0
9.55571999264092e-08,0.177334300174287,0
2.36607561785907e-07,0.243860565997135,0
4.6422816023952e-07,0.308035308854798,0
4.77461680266354e-07,0.295866447286088,0
5.00848722878003e-07,0.296285347593323,0
4.5959647429822e-07,0.278440112318646,0
4.16200907751269e-07,0.269624034011028,0
2.29845341772891e-07,0.204301253726273,0
2.27075267417905e-07,0.1997573631243,0
1.45932312709054e-07,0.157867035567202,0
3.02969684437354e-07,0.217652465646234,0
3.82714011881654e-07,0.246834492185547,0
2.93154301645746e-07,0.222536115126277,0
3.15449069802769e-07,0.239926085466538,0
2.75485000237642e-07,0.214154683667471,0
2.68792227872891e-07,0.208884422155044,0
4.34010256158195e-07,0.240757695696567,0
6.54105171148801e-07,0.289753240116108,0
6.32582158698279e-07,0.2879644120104,0
6.22034408418589e-07,0.299856841595767,0
5.56515101505117e-07,0.281912148803106,0
5.42025189446912e-07,0.275914233207619,0
5.08375788383763e-07,0.266481078946322,0
4.83790514706534e-07,0.257333810382434,0
5.36739336603219e-07,0.274755194872422,0
5.92360683670679e-07,0.269946291715142,0
6.11639258692713e-07,0.292561948682178,0
3.90936705572351e-07,0.222577769119415,0
5.80242011463414e-07,0.278469302766519,0
6.4122361134269e-07,0.297903901215858,0
6.46655039356209e-07,0.292477039069582,0
5.94206516935578e-07,0.285690925033463,0
6.15584875578107e-07,0.293109479356591,0
6.26552421343575e-07,0.295550145704717,0
5.61451297532671e-07,0.285598266433407,0
7.28785233270571e-07,0.336696019804449,0
1.12293461238909e-06,0.409464476080874,0
1.15193263340173e-06,0.394219169803936,0
1.3348579692708e-06,0.390360589785165,0
1.45858361904824e-06,0.382251950597032,0
1.34627375756868e-06,0.368746066700152,0
1.21511790044832e-06,0.345026052367542,0
1.2562124809842e-06,0.322288343674288,0
1.52878989361308e-06,0.314274276446683,0
1.52220733915776e-06,0.303698856926208,0
1.88035392874773e-06,0.354514682470064,0
1.83489497237274e-06,0.352466682595307,0
1.83129233243018e-06,0.37196484333601,0
1.81374868174224e-06,0.397809918214478,0
1.96185218361395e-06,0.425567690294475,0
2.22828837410617e-06,0.446666218495416,0
2.31850847043685e-06,0.436574596207477,0
2.0710675362026e-06,0.458261045308178,0
8.5037332359231e-07,0.335946264579092,0
8.28726848655985e-07,0.35814791838542,0
7.98318291777087e-06,0.285661619662108,0
3.12874826298865e-05,0.482485695073588,0
4.25923234149309e-05,0.502949812356196,0
0.000183226416646582,0.225070007794428,0
0.000446073865939515,0.268559569721112,0
0.000472499649368134,0.244326834505969,0
0.000448046830668213,0.217269117934322,0
0.00040601328372224,0.207493996278253,0
0.00035022404391309,0.186695134429852,0
0.000278369678299565,0.157948165594743,0
0.000229257352720784,0.131773615253582,1
0.000253220965141136,0.131803491491486,1
0.000237960927150344,0.11361300435486,1
0.000240377290697122,0.159691589328858,1
0.000172811627171846,0.128604471266374,1
0.000187870393209242,0.136390429954149,1
0.000195366446597019,0.115450700587275,1
0.000224253419898722,0.120350798370166,1
0.000293962566314934,0.153756847902448,1
0.000371864352520168,0.181798642037664,1
0.000430273158312875,0.237197016189027,1
0.00037927209245476,0.267191145012234,1
0.000273297045168856,0.241066358571576,1
0.000264044283228459,0.329187147579776,1
0.000245754466737601,0.441936000620684,1
0.000114177623156118,0.357850246995811,1
0.00010872237805435,0.178661075049118,1
0.000258209440045364,0.179664791289819,1
0.000332106476938526,0.137123574411717,1
0.000465749656748022,0.134235395302809,1
0.000451280085134353,0.125716013669327,1
0.000407190413874258,0.0995847393752572,1
0.00038257818299248,0.0953717042032534,1
0.000371614193568522,0.0893934491047961,1
0.000378526656024908,0.0905652477021218,1
0.000395851790436195,0.095405822709778,1
0.000386506154762214,0.136419000539904,1
0.000357163217915925,0.122992504292788,1
0.000432085969969632,0.152986849321389,1
0.000318984084205257,0.131795829609049,1
0.000287538935374191,0.108509863472182,1
0.000419914214882323,0.126837147016036,1
0.000445577981744541,0.110406204919492,1
0.000412639555875234,0.105800240010686,1
0.000376216788085754,0.0864862827607629,1
0.00050977529336063,0.0810138174880675,1
0.000658795088194564,0.0603379359164711,1
0.00253495078936141,0.0919122630146234,1
0.00438888278505162,0.121697133666823,1
0.00658464923409951,0.120886446619181,1
0.00892834180075332,0.131208738760752,1
0.00925864985494285,0.104239409616322,1
0.009241227547954,0.0971434857506033,1
0.00780859619224004,0.0731843206284261,1
0.00600136679549663,0.0520769068262903,1
0.00804702669928084,0.0493783527308882,1
0.0134307713875248,0.06861359694409,1
0.0144342200805763,0.0376195934622614,1
0.0129177509524028,0.0319182726894433,1
0.0123728233027258,0.0241580948005752,1
0.0139985733176518,0.0256812797371622,1
0.0149902056403083,0.027709376042416,1
0.0151409272177457,0.0216836818955613,1
0.0175778117673021,0.0210548456045163,1
0.0176241197586074,0.0208158538293948,1
0.017394079779147,0.0241514572520237,1
0.0188850987898714,0.0192751300205573,1
0.0246504771256414,0.0293109091830329,1
0.026056175026865,0.0312736270354377,1
0.0302568631644128,0.0426491432591795,1
0.0354099409128421,0.0481363065654793,1
0.0284341626486768,0.0401636094225456,1
0.0468944552207587,0.0086771049000208,1
0.249915273776636,0.026816328440842,1
0.256873595405367,0.0158928637365168,1
0.23217007617789,0.0144168462001954,1
0.217676016650849,0.0136725570999764,1
0.21312601349292,0.0123184980322023,1
0.210379355661705,0.0122761497067038,1
0.209915705968358,0.0120287615576855,1
0.21257354655714,0.0125347493682057,1
0.219962737202818,0.00909352179798518,1
0.262749627060377,0.0154882860482504,1
0.134716222064007,0.0078098057404551,1
0.12309883471327,0.0136361441928464,1
0.121056483485249,0.013371164728303,1
0.120925623862082,0.013801514074051,1
0.113070124420861,0.0148671400290869,1
0.0950605035168879,0.0117674305886906,1
0.0783493931902011,0.00949088438777057,1
0.0669527890962797,0.00738032315680128,1
0.0577433450144273,0.016782332815819,1
0.0150418122268915,0.00387784935974393,1
0.0157168970594617,0.00695254383622286,1
0.0204743766436062,0.0119112315780859,1
0.0231379008821666,0.0122101565851902,1
0.0311125590728962,0.0142228589366152,1
0.0377400686180593,0.0160922139744305,1
0.0440922123333065,0.0188599637818407,1
0.0450532483275002,0.0178552743978536,1
0.0479786584011784,0.018489700636765,1
0.0427823090729429,0.0161718098413163,1
0.0285063862554585,0.0114038236480427,1
0.0166286390405904,0.00699462499552209,1
0.0289693888424138,0.0116482279776704,1
0.0343379057685479,0.01233942390121,1
0.0438314517658043,0.0135514032047115,1
0.0507330390429485,0.00962101560400111,1
0.0528423970069218,0.00794524050849857,1
0.0582160032420297,0.00791891299236949,1
0.0642592720247131,0.00832378404779108,1
0.0656595680487613,0.00798012785081559,1
0.0559139047900816,0.0063131578113696,1
0.0629217784677827,0.00817008990114801,1
0.0624386830749728,0.00821192628952143,1
0.0785094598074216,0.0108651990693617,1
0.0765441249369989,0.0100029502534054,1
0.101231958980306,0.0180765625230975,1
0.0997232700357734,0.0183671642203722,1
0.114921297742783,0.0198278998197129,1
0.163565982335164,0.0293294879411379,1
0.141226743804433,0.00934490846114671,1
0.136243822041845,0.00915448449436193,1
0.134650013048658,0.00832931484868741,1
0.123694037378519,0.0073300310591346,1
0.131917430913552,0.00624824630487474,1
0.137568262925607,0.00709979308539566,1
0.15036084855856,0.00963712847400403,1
0.151983181924595,0.00796195775343562,1
0.150176552433798,0.00972305247173517,1
0.117801156984648,0.00727631047487878,1
0.106309221606994,0.0160419847759132,1
0.0764747350788521,0.0100702382107308,1
0.0726036264925427,0.00820968860928305,1
0.0874820972070298,0.00870596737510042,1
0.0837449364235981,0.010016590260077,1
0.08315241100953,0.00871552254634058,1
0.094780893475604,0.00931324312003,1
0.0899050170512937,0.0106157476376046,1
0.104070574338635,0.0100360246282202,1
0.142708790028704,0.00740179373977575,1
0.215006199673465,0.0124758747494931,1
0.23888846827624,0.00899571218142469,1
0.227975433014719,0.00858087131768637,1
0.227901303128038,0.00884880306602626,1
0.227156317741313,0.00702943706652001,1
0.29863995382745,0.0115758684940096,1
0.353449205035642,0.0133513551429061,1
0.379061927772732,0.0153284103281459,1
0.417641011227767,0.017952450870943,1
0.42850169388144,0.0371715752350667,1
0.279720095837758,0.0225779264410413,1
0.176007698471541,0.0221120970023024,1
0.176631005695381,0.0257658276578102,1
0.145828335374967,0.0221722112411767,1
0.13291975764207,0.0125074375677172,1
0.16895512667895,0.0175252541389679,1
0.187182336998829,0.0206258633772836,1
0.202317951545191,0.0174882835299408,1
0.207772354111775,0.0164826376372549,1
0.199238536644674,0.0151565906985154,1
0.19654646839985,0.0167489067085749,1
0.219210894801538,0.0116194661806762,1
0.300131213390201,0.0130799882930136,1
0.26323527141648,0.0105551216542281,1
0.282951320964494,0.0180102057120385,1
0.31357583865701,0.0187694498999902,1
0.255108639082467,0.0121200809773362,1
0.1874805330552,0.00930069667953447,1
0.227911994944412,0.0124032145032368,1
0.225089634320551,0.0117907286456764,1
0.210777520274888,0.0105263003040227,1
0.208900043822838,0.0162460869601591,1
0.167176805587914,0.0141861210353284,1
0.164768957603391,0.016712421412394,1
0.151724599394738,0.017844978946446,1
0.0566026559861452,0.00701252717108639,1
0.0476619656771717,0.00535000500943414,1
0.0825404441976066,0.0090607028484799,1
0.0857680951142859,0.00641069178084021,1
0.0954952952266618,0.00769228069596646,1
0.0959979377511984,0.00921135255980232,1
0.0972178516924155,0.00900546939235296,1
0.096343616239802,0.00925684935769789,1
0.118647729863889,0.00827590839435368,1
0.132401149282748,0.0053717033279069,1
0.170026232607606,0.00807653245007076,1
0.182170269142016,0.0106538200651264,1
0.128985704489772,0.00749260204674842,1
0.134123202168632,0.00773184782967949,1
0.221013327330245,0.0150866764112118,1
0.251312865243908,0.0157705847507969,1
0.256701320943201,0.0172260738705463,1
0.254449674156996,0.0156738193183301,1
0.146899834402765,0.011714084023175,1
0.112482243817534,0.0172381840231664,1
0.118988280480956,0.0170825454851593,1
0.122167967595536,0.0183597817247308,1
0.0787077036821146,0.012572459841606,1
0.0329723607248506,0.0118557473774896,1
0.0364731186013449,0.0159342640756861,1
0.0283650538094597,0.0163283726793876,1
0.0249926572673946,0.017302753378683,1
0.0174673216669661,0.015482734750291,1
0.0063227560343061,0.0125338062356194,1
0.0107227968542639,0.0254903986788959,1
0.0117950599757236,0.0295855263679204,1
0.0199833193868093,0.0311188182292389,1
0.0387832742358471,0.0379726993897623,1
0.041951287767852,0.0402746292009257,1
0.0422683073864308,0.0408425722075089,1
0.0593347942433247,0.0461276666168706,1
0.061049362909562,0.0507996289659127,1
0.067644138047504,0.0561999228511306,1
0.0668299192604675,0.0579396727975439,1
0.0591081401327047,0.0280517460661976,1
0.0430105390098995,0.0165336193245326,1
0.0340119469914956,0.0148059940756647,1
0.0412556032351886,0.0179025778091703,1
0.0436683049518972,0.01702580413621,1
0.0418621441829721,0.0168315768189689,1
0.046526708807543,0.00962001639185258,1
0.108842410561576,0.0188600299338363,1
0.113499312762568,0.00957037930027984,1
0.11932808853509,0.00930691441389615,1
0.115497692920594,0.0106199086556919,1
0.117777558857464,0.0125808993142468,1
0.117919129310573,0.012133118448953,1
0.111481941920773,0.00992671404584218,1
0.143283931072396,0.0110836054241126,1
0.155958352006213,0.00756821336461605,1
0.161632421225102,0.00892581523997761,1
0.102382889476657,0.00460373036164156,1
0.0969559302578342,0.00636813479193215,1
0.10356029335825,0.00647032238119929,1
0.104089134299913,0.00561975233441959,1
0.102137593242778,0.00538186075698711,1
0.101747579529966,0.00553162624843136,1
0.105065062672217,0.00747455882437019,1
0.047290310438661,0.000431136263360863,1
0.084279032572919,0.0106792327459334,1
0.135774239414025,0.0196363145320918,1
0.177769648019583,0.0226301488872015,1
0.160949510133198,0.022734695210966,1
0.15910526823939,0.0251813220346104,1
0.154935839181651,0.0313315349896869,1
0.132883398377533,0.0280203769485571,1
0.123242329421702,0.021164655173435,1
0.091880853622562,0.0129305813621428,1
0.0919252228537754,0.0145716890658065,1
0.0942120622127043,0.0162417197654974,1
0.0996912896816732,0.0157231274293445,1
0.0957105767138644,0.0132012486408774,1
0.103607980339835,0.00927323797993256,1
0.121702334255422,0.00916496989573747,1
0.120086095594613,0.00728591274926623,1
0.16009640371261,0.00744394685911396,1
0.134578725194461,0.00200286490185509,1
0.164812195910172,0.00465400789656714,1
0.167454856747166,0.00423417464929862,1
0.168314128587385,0.00365652761671677,1
0.232398387965868,0.00631253997265803,1
0.258137294122284,0.0091476007586655,1
0.259929465906074,0.00925776652682012,1
0.276968469810352,0.0112634837914704,1
0.28026339488365,0.0120998708718422,1
0.268523420421932,0.0166633519831006,1
0.24973745366926,0.0272155421084133,1
0.220626157312168,0.0213730640006854,1
0.249559969818069,0.0221467015889163,1
0.247772922384831,0.0253673934465338,1
0.224361725477444,0.0240953600527723,1
0.223057840279398,0.0140556640164811,1
0.295206972090378,0.0180335056152501,1
0.289187742309971,0.0127190540342296,1
0.280502106545637,0.0114960681081085,1
0.257818589233748,0.00807226923224865,1
0.264159509596445,0.00883344872237457,1
0.263628571675442,0.0101163885200541,1
0.241730612472047,0.00726317864072553,1
0.251063253659508,0.00718544496729447,1
0.242406096521025,0.00664652596898817,1
0.211306224268092,0.00718614078456928,1
0.162944984242865,0.00586746790692856,1
0.154389890192131,0.00818917746816707,1
0.130671810621857,0.00699777625525852,1
0.117073998457503,0.00567400665374879,1
0.125456743252105,0.00548285920320047,1
0.125129987808602,0.00540159318912869,1
0.139951206836045,0.00480053720051725,1
0.160705893352142,0.00622240692647669,1
0.162516617958499,0.00661049310962803,1
0.180038992603305,0.00520098177458092,1
0.26684346322885,0.00980271795534466,1
0.320798040025379,0.0130079142066625,1
0.372097592484179,0.0152529596742973,1
0.493452121021275,0.0216833776347587,1
0.469089971788885,0.020635581929173,1
0.374309540076799,0.0180928334241563,1
0.280290784141599,0.0194241057850493,1
0.280881769514794,0.0199978044622128,1
0.137300597365359,0.0103696264637472,1
0.0527896375335199,0.0141170247323708,1
0.0501549109509844,0.0114662942437867,1
0.031763229026489,0.00579082677446223,1
0.0243104967579562,0.0109997902384007,1
0.0221317617887185,0.0103689768125183,1
0.0128630341565775,0.0143446593050638,1
0.00628061524786799,0.0479024205771279,1
0.00713770575058487,0.0577764866686938,1
0.010727962257475,0.0361364429934426,1
0.0198027564374253,0.0595577891884747,1
0.0360548338934127,0.0739023826809266,1
0.0494368125085197,0.0894061767629443,1
0.0492613987375104,0.0486835637452438,1
0.0438278327462366,0.0346701872866282,1
0.0540734968233749,0.0230938062860274,1
0.0541875587925868,0.0212574820578929,1
0.0684587903447275,0.0237575771756071,1
0.0592145863580983,0.012477707726591,1
0.0771753266528904,0.00126085931587217,1
0.250304857894819,0.0120424673551585,1
0.251334548728567,0.00944645936923835,1
0.266052751803454,0.00797988712750233,1
0.395304823796194,0.0138067265773072,1
0.342413076642928,0.00706498790437753,1
0.3265956275889,0.00719300394876586,1
0.311514683699096,0.00669406722687443,1
0.311733135295116,0.00666439194021931,1
0.302304118094042,0.00692317858950981,1
0.285081589817023,0.0126937515218576,1
0.202207819817639,0.00942948619024348,1
0.207659959270215,0.0123094374944613,1
0.201558314318678,0.0158368144890822,1
0.0701123018148443,0.00394597529506546,1
0.0447384453165005,0.0173400302553162,1
0.0466925909966274,0.0125660545264463,1
0.13070207265917,0.0141589931821856,1
0.152514907978512,0.0107798743793597,1
0.133463329245681,0.00923070232451006,1
0.12122218214136,0.00808258652303046,1
0.118711618757809,0.00810470021655946,1
0.0884463435263335,0.00554087306690762,1
0.088660868837137,0.00672847621335031,1
0.100199926560967,0.00655446744122462,1
0.1077859120785,0.00556954904006223,1
0.10528941347269,0.00486437810523949,1
0.0738370557752225,0.00464555204627505,1
0.122211013349557,0.00554595422287845,1
0.215330617931572,0.00751187515450255,1
0.214046717163505,0.00672412629737089,1
0.216084338419771,0.00665040137447485,1
0.224783475605288,0.00748635966139369,1
0.251869686889406,0.0084698682603221,1
0.247054999584683,0.00851213668186721,1
0.230815086839856,0.00918820215833141,1
0.227755241519701,0.00936607692367594,1
0.234598561548855,0.0108582353597771,1
0.196212693249676,0.0105532819458445,1
0.153259618370631,0.011404406150921,1
0.157364401125615,0.012841265767461,1
0.144457950903227,0.0125424214965993,1
0.143728355960476,0.0122124896119255,1
0.139044273297561,0.00694159834803371,1
0.265624969182232,0.0136330113282733,1
0.32216897557895,0.0168124789945926,1
0.332375714375808,0.0135197370266591,1
0.279544353612542,0.0116133536074689,1
0.306005293199938,0.017754702882806,1
0.34983692258127,0.0204396045145362,1
0.39213850759005,0.0238845580718555,1
0.422591468207466,0.0248991024206948,1
0.496199342104474,0.0268687952328248,1
0.543742523689185,0.0205567264153467,1
0.442465283049126,0.0124460770550844,1
0.349068973838676,0.00853360857942781,1
0.294282716432639,0.00720883895757402,1
0.302652232437602,0.00587920096251159,1
0.3000550755457,0.00641780208324006,1
0.281797513252306,0.0056892778299292,1
0.266859389459127,0.00543635801564086,1
0.252448668944089,0.00463164947289356,1
0.218410334261488,0.0033463959122713,1
0.187113351201611,0.00921448503010128,1
0.123059933298564,0.00846579610243651,1
0.174897785322225,0.0131303254725728,1
0.195313241321426,0.0139056244903974,1
0.215052116977408,0.0115912298546434,1
0.244998717211744,0.00749995412211973,1
0.321213298420053,0.00900016895481205,1
0.378914845162231,0.00849888185709717,1
0.373028137163392,0.00892141714767838,1
0.346052463150227,0.00784549306233229,1
0.286449630745164,0.00476175754291642,1
0.306571985730603,0.0081323233749889,1
0.297877640877374,0.00771184317240094,1
0.273623692012592,0.0084099873767271,1
0.260018609288024,0.00751588632368807,1
0.293579187451116,0.0137301306810018,1
0.310365744736024,0.0161891326963551,1
0.279915737630921,0.0122825275924744,1
0.33814212052848,0.0148583871236553,1
0.335007427013332,0.0142810275129106,1
0.3536973524866,0.0152711141371794,1
0.36543448270399,0.0143529810763602,1
0.354789063682333,0.0139906703756344,1
0.345975936837117,0.0127460790418421,1
0.331775610898972,0.0236121092294177,1
0.232353155364947,0.0117721729464051,1
0.146022796776587,0.00405468667162669,1
0.150287400576955,0.00828320677567281,1
0.135802677302324,0.00648774413241087,1
0.139676242624413,0.00712838408822121,1
0.149592529121119,0.00589433285255859,1
0.151450819667914,0.00497496227025998,1
0.152089629293745,0.00528740831478704,1
0.162074951034048,0.0059535500890023,1
0.164117639745277,0.00600472176011589,1
0.149774753278519,0.00694645972705463,1
0.127975604556813,0.00995655427015187,1
0.0941526258149371,0.00597914876821149,1
0.0850576074589432,0.00670865543973128,1
0.0953262826842561,0.00841915699667038,1
0.0923541565242757,0.0174738781005696,1
0.0724180055581839,0.0265569368283034,1
0.069288207914856,0.0216900822531091,1
0.108614617923677,0.0320478829597681,1
0.107906878903751,0.0154578504740413,1
0.0843164981935446,0.00981994850762341,1
0.0952302674477209,0.00900105900459209,1
0.0942332045717687,0.00739678721549115,1
0.089103462337063,0.00620053254959357,1
0.105071304311161,0.00760071889755456,1
0.151943133512071,0.0122882120276918,1
0.162454893003892,0.0135656936980313,1
0.155862482468886,0.0141150282146705,1
0.175778661578364,0.0173135278379429,1
0.175421406949952,0.0293588999240615,1
0.113762298211939,0.0248550654438287,1
0.118530099648712,0.0360323321825151,1
0.0576482458810539,0.037354934900095,1
0.028491670584874,0.0262724438944874,1
0.00883341839745567,0.0168964453895661,1
0.00818575548038886,0.0222294858032159,1
0.00538958814339614,0.0126784928365443,1
0.00513106253527324,0.0133890806809546,1
0.00431191890707241,0.0120179135936209,1
0.00470579544273507,0.0126970723481526,1
0.00521978847938711,0.0136699654284488,1
0.00532729408995782,0.0147763159087693,1
0.00710269859582604,0.0228484894344243,1
0.00973212524710904,0.0349622346631166,1
0.0095380747387767,0.0323354569998971,1
0.00854628199999942,0.0255397905584541,1
0.0160202549100696,0.0310229965376073,1
0.0346001134689842,0.0761538577969958,1
0.0510122840622105,0.0665603488241341,1
0.0490936910928056,0.0397529091267402,1
0.0516365407775222,0.02709680346492,1
0.0520498707609555,0.0187389547018208,1
0.0458413992761498,0.016777577183034,1
0.0412102481325313,0.0156075844265486,1
0.0342019042216943,0.00815994571267466,1
0.126096818295282,0.0183748559769285,1
0.142998246419405,0.00671557984246704,1
0.155186643705621,0.00400097651419633,1
0.221534910379382,0.00788323432482709,1
0.212520963658702,0.00528344751551376,1
0.245509670128071,0.00731140835472075,1
0.260692778016856,0.00564830421262819,1
0.264450555244981,0.00481598921308345,1
0.257336708706846,0.00448803815581361,1
0.25244739288962,0.00473451415963188,1
0.195584320457017,0.00320119977723204,1
0.182131735675002,0.00655884528815531,1
0.189497816736396,0.00884926738000809,1
0.152546924877853,0.00386148510356703,1
0.149792858807556,0.00644132673853421,1
0.109021715675731,0.00331533544318412,1
