Activity,Complexity,Tag
5.64113362323317e-08,0.0448117348970954,0
3.66102431072743e-08,0.0457877560086507,0
2.4826206420176e-08,0.0372871860628489,0
1.83413872919615e-08,0.0340603871036498,0
1.38992092378944e-07,0.0629454381560822,0
4.2990976804146e-07,0.110727754365601,0
4.85397373694146e-07,0.104500077233464,0
4.71530049893211e-07,0.106261942257837,0
4.73969127971934e-07,0.103769196711343,0
4.9557237968001e-07,0.107481140821796,0
4.81994155769133e-07,0.103339164465016,0
4.61635225345979e-07,0.0980766909358456,0
4.62955787551946e-07,0.0999827202720768,0
4.27849290064458e-07,0.0962077070783198,0
3.89938057989747e-07,0.100574329557934,0
1.99124317040652e-07,0.0726622029080403,0
9.6109099868977e-08,0.0573231708998146,0
9.9722493335137e-08,0.0560537615606166,0
1.10066397427669e-07,0.0577746769694685,0
1.18495833588685e-07,0.0577912698428299,0
1.1340166148827e-07,0.0605299925301912,0
9.39816151197512e-08,0.0545809000660925,0
1.03594916514421e-07,0.057027038424401,0
9.48816683947241e-08,0.0568271058263521,0
8.79483221916523e-08,0.0594137151565558,0
7.76344093517059e-08,0.0563056845589744,0
3.54074360298814e-08,0.0421106651981109,0
5.43599345554554e-08,0.0458286272035182,0
9.27819650163146e-08,0.0542983045017698,0
9.75856165883909e-08,0.0555403865265998,0
1.02288481766909e-07,0.0567004424116865,0
1.00962552705216e-07,0.0573700119301671,0
9.94996898981634e-08,0.0580168488806332,0
1.00125954606766e-07,0.0581808550285717,0
9.92218761899991e-08,0.0590461151266038,0
9.70198868554021e-08,0.0558487361941548,0
1.00979363591534e-07,0.0549749366778747,0
8.30427003607842e-08,0.0585345609955493,0
2.55051925938512e-08,0.0415244046066365,0
2.65526765525886e-08,0.0410039144716954,0
2.89835464990258e-08,0.0401678771477101,0
3.97399881633123e-08,0.0424738311897006,0
4.18014921568492e-08,0.0437359093934566,0
6.33251091968738e-08,0.046493606710378,0
1.01022535210387e-07,0.0528529781957926,0
1.0058561001482e-07,0.0508577763434752,0
1.33836122513332e-07,0.0548855163082523,0
3.16046635885112e-07,0.0806469039323089,0
3.644252886584e-07,0.0794296364620995,0
3.73247531303942e-07,0.0788120986773633,0
3.79678602950548e-07,0.0758665088016626,0
4.25395926678582e-07,0.0792635390053587,0
3.74457520497086e-07,0.0722476647577083,0
3.63960976713761e-07,0.071198735552224,0
4.61031217303768e-07,0.0789699598385701,0
7.04036525246357e-07,0.0969678641496083,0
1.05463134777476e-06,0.12299410090539,0
1.6898417367052e-06,0.0927154581359668,0
4.0921823541637e-05,0.0530723991336586,0
0.000360643177112012,0.0633110984787036,0
0.000603923394031028,0.0542030574304013,0
0.000958021880161591,0.0506937986974999,0
0.00105515186016978,0.0287576847073673,0
0.000985136900987223,0.0266235848366885,0
0.000955832397573944,0.0263987590638724,0
0.00094148087226105,0.0270853835616851,0
0.000888965308108459,0.0188960604623397,0
0.000871997300459545,0.0169585644195003,0
0.000808929617627647,0.0172363541764977,0
0.000761820078487153,0.018917579388166,0
0.00072552160644701,0.0186693772069005,0
0.000556483214511141,0.0190815619450104,0
0.000458852611675266,0.0249664245851242,0
0.00045588778946429,0.0224834663449274,0
0.000371509045728651,0.0166577279691299,0
0.000244967599057312,0.0116713531067922,0
0.000202862156920611,0.0182822250350815,0
0.000138250574838249,0.0162241422436867,0
0.000164924869945215,0.0159694804869902,0
0.000189267363553,0.0159037303868323,0
0.000224375039933486,0.0131359455437662,0
0.000254899841243741,0.0130503547979738,0
0.000202359225318941,0.0109002650144919,0
0.00019862970067161,0.0122832606949881,0
0.000209059878548423,0.0145454972375101,0
0.000185200577878343,0.0132569181218045,0
0.000289072181297999,0.0153200563267111,0
0.000350944303965145,0.0174489811214687,0
0.000332173954628724,0.0171361474294455,0
0.000315151122338688,0.0164491219539674,0
0.000284783135817283,0.0199272208239685,0
0.000231309341752575,0.0182805414155133,0
0.000236013076046023,0.0159090963980902,0
0.000273439113977239,0.0150934769802682,0
0.000247946086230058,0.0125109618000737,0
0.000350656831810859,0.0124623358477114,0
0.000332397210144368,0.0109161528331238,0
0.000315396319533649,0.0105342710573521,0
0.000344230173613843,0.0103127964477651,0
0.000339616795387699,0.0100864380591194,0
0.000377157099202024,0.0118929234441469,0
0.000378298903677035,0.0115843919122283,0
0.000434419340544154,0.0127980752764886,0
0.000411052846902416,0.0123023304459518,0
0.000385708767080683,0.0131993659548475,0
0.000274657458812277,0.0150693209772564,0
0.000211423721596926,0.01590501041305,0
0.000212123239150727,0.0174841456345116,0
0.000200193689641543,0.0205976325338094,0
0.000202969568539714,0.024625329617895,0
0.000145017410554056,0.0200106866054914,0
0.000131094295051952,0.0211311687870522,0
9.04108881566119e-05,0.0167253330222091,0
0.000156132193623565,0.019874834092935,0
0.000185431925586405,0.0141697431790842,0
0.00021644121079994,0.0142859409399424,0
0.000227222988758714,0.0140480467863137,0
0.00026783850998028,0.0132640917973283,0
0.000339746682767188,0.0133132781211889,0
0.000408065947420093,0.0146161789674659,0
0.000413146999689216,0.0146751032724461,0
0.000407616147769034,0.0145488157717141,0
0.000436436987855488,0.0165251173696054,0
0.000316680990102705,0.0152700206198616,0
0.000325791295809134,0.0220023636038929,0
0.000297397970925975,0.0223856101103201,0
0.000290530188442333,0.0211056748963745,0
0.000665916961303288,0.0263854982761881,0
0.000827015959939013,0.0173221271342487,0
0.000746748238659898,0.0138758783319576,0
0.00103341486957398,0.0162963712035208,0
0.00108740185122273,0.0124721711778999,0
0.000875061933638051,0.0107387718813662,0
0.000848534149746184,0.0102709715065384,0
0.00101364110676709,0.0102810978220082,0
0.000932202372295297,0.00699905796159734,0
0.00152486865092814,0.00763409865174895,0
0.00152642876818522,0.00697790568361845,0
0.00148032877493711,0.00747853174686975,0
0.00140341167560765,0.00691883910217195,0
0.00145259937272639,0.00706439391087507,0
0.00136705718274895,0.0081854879845396,0
0.00101939459669881,0.00627010905445101,0
0.00101250884385124,0.00544429039213637,0
0.00129254718948124,0.00666836288661183,0
0.0017701733755786,0.0100499366716344,0
0.00358773482821568,0.0185193656130591,0
0.00375991119346558,0.0166468497551282,0
0.00297885385882263,0.0154242422987698,0
0.00355768985695555,0.00799172222084608,0
0.0114827462261618,0.0120226163397722,0
0.0132523098416127,0.00837969366844281,0
0.0119070535119646,0.00805263858129323,0
0.0102210721698155,0.00739594510751026,0
0.00906919979389513,0.00659600362416075,0
0.011579795476032,0.00622108655667246,0
0.0125505733379504,0.00393129097313869,0
0.011382031626532,0.00322429126824815,0
0.00965555733677915,0.00277978700428369,0
0.0083291774335548,0.00265154677125161,0
0.00979458982540223,0.00262944991518085,0
0.016382638369656,0.00375561736559718,0
0.0165088422140312,0.0029655245771801,0
0.0182748311841618,0.00330335303941313,0
0.0189894108595191,0.00240195931181658,0
0.0238873656520718,0.00290773815417361,0
0.0223922216173666,0.0032910603017016,0
0.0212421306170383,0.00337982476141351,0
0.0212947773707432,0.00343348278055175,0
0.0227420685477136,0.00367001831579336,0
0.0226362297370604,0.00390305405039538,0
0.0197999284003201,0.00361640002185413,0
0.0202427898434362,0.00313166975137546,0
0.0182697295166949,0.00182469443156686,0
0.016479928398694,0.00166326857437008,0
0.0174347816411432,0.00207937534403524,0
0.0214118126577967,0.00288154195970331,0
0.0223131996497704,0.00288302859806059,0
0.0251039963620089,0.00314903440278401,0
0.0250646602370789,0.00325911152470372,0
0.0253957665456558,0.00339406932552404,0
0.0202313142809883,0.00297968361517132,0
0.0197243453392135,0.00375948606922932,0
0.0152023708067904,0.00674813316674513,0
0.00321159110794597,0.00238024874262472,0
0.0033285309373411,0.00252243556559047,0
0.00740279027295227,0.00427917375736303,0
0.0104217111158279,0.00409666260300022,0
0.0161269910623434,0.00481836737089238,0
0.0144651057632884,0.00454227535464927,0
0.0145706252914863,0.00468790504027331,0
0.0143634983822364,0.00491382197275791,0
0.0142525312976923,0.00512923618562396,0
0.0143268416179609,0.00534819223774432,0
0.0160541769493933,0.00622415602474979,0
0.0179567302361855,0.00691374685512936,0
0.0147737500801484,0.00681970436578133,0
0.0118823313594061,0.00910936270108107,0
0.00398117059741211,0.00770601162040519,0
0.00389483666835766,0.00705364769254138,0
0.00505202078713107,0.00852330286080414,0
0.00804973592647915,0.0114908210415836,0
0.00968725767183202,0.0140633277075988,0
0.00998209891207343,0.0167339228863597,0
0.0118928451813079,0.0181530883436775,0
0.0134684199400657,0.0272078660880648,0
0.0106304638211261,0.0209609642999149,0
0.00514998322368249,0.015108582977217,0
0.00281430316945237,0.0123429062577092,0
0.00153786576788051,0.00903628413980333,0
0.00119342754297437,0.0106191425368259,0
0.00117302941027464,0.0112508932272278,0
0.00117847047469853,0.0111501413856695,0
0.00123287089499832,0.00806488952174407,0
0.00153962366442587,0.00824837464767629,0
0.00136459094964304,0.00615704268769265,0
0.00129358561979114,0.0060408875486583,0
0.00136688843546671,0.00671929006228839,0
0.00156139702170423,0.00750638518954258,0
0.00249599856106102,0.00941721770162784,0
0.00267076670343155,0.00752895799942017,0
0.00239509125950411,0.00690949281095178,0
0.00215843240999214,0.00667642966398685,0
0.00185437457173032,0.00705123527294488,0
0.00202429565539966,0.00708642402945447,0
0.00199077595286197,0.00849357400253198,0
0.00201499375294382,0.0111655090699645,0
0.00208291112770888,0.0115235598679561,0
0.00226691236447262,0.0115511548388139,0
0.00186518804602332,0.012008369092481,0
0.00127149710519646,0.0121229329414112,0
0.00109260229914194,0.0108922734487167,0
0.000921171102867739,0.00866575379127359,0
0.000653613918097755,0.00711692893519723,0
0.000547325806437585,0.0115069245482945,0
0.000509287002623781,0.010164264749358,0
0.00049058254912045,0.00960171321719825,0
0.000503809617766996,0.00925832655968769,0
0.000513769180090347,0.00971603806222573,0
0.000540819509389528,0.00896047630609022,0
0.000601721917704699,0.00690628903532676,0
0.00062754490739757,0.00623029198614714,0
0.0010833732702998,0.00896474435591564,0
0.00147922675117522,0.011446501217566,0
0.00175983231473574,0.0133125181892471,0
0.00206810745024686,0.0159726650133794,0
0.00196914539332917,0.0130084333664806,0
0.00174446367492217,0.0121689659998304,0
0.00124389782271852,0.010266998226424,0
0.00153906776637795,0.0107434370961873,0
0.00212936463187637,0.0162326689488605,0
0.00233687260579869,0.0212156182482204,0
0.00236653186981948,0.0277772640767369,0
0.00239802540382066,0.0288129761680907,0
0.00228040410252949,0.0279754904819679,0
0.0014478958347178,0.0203353529059413,0
0.000760286548949043,0.0138071449879833,0
0.00116370467800378,0.017538256905217,0
0.0014441660751916,0.0170051572173165,0
0.00138798051697603,0.0258923161958439,0
0.00128861830476984,0.0187513566665021,0
0.00145408548380535,0.0171425427205217,0
0.00145394795307622,0.0147466022459354,0
0.00140672797880374,0.01314578123601,0
0.00125011249200855,0.0102845376231072,0
0.00122885982983507,0.0081236521504332,0
0.00133476819075543,0.00878503743311717,0
0.00102531182284801,0.00768399572069125,0
0.000592138716478217,0.00589034481620554,0
0.000571241638408908,0.00574116568115752,0
0.000578763702876849,0.00725411389399447,0
0.000412373048581958,0.0058719140785003,0
0.000405071351787734,0.0070483252976309,0
0.000341042734621979,0.00732138726899021,0
0.000293796888947926,0.00846064477054523,0
0.000256852174552286,0.0117522964633591,0
0.000222438076589421,0.0129791578836908,0
0.000234800694182317,0.0117513929225022,0
0.00025604400437292,0.012539125135568,0
0.000358509171238458,0.0159759731871248,0
0.000349980592204526,0.013518471315379,0
0.000461423141808695,0.0173418412657155,0
0.00075709754180929,0.021989588890923,0
0.00086737887233786,0.0200608861528493,0
0.000824447900137704,0.0212387326799813,0
0.000977293084757911,0.0246675686203512,0
0.00115960479737652,0.0260911492750723,0
0.00116859996429654,0.0292415248741697,0
0.00119375481383654,0.0305097081354209,0
0.00123401310838038,0.0312017551199895,0
0.00125419537454094,0.0267608993284538,0
0.00111667299433974,0.0261811459635676,0
0.000661348254258627,0.0203505702112707,0
0.000383791464817948,0.0150033830773417,0
0.000450562033119539,0.0172107922316534,0
0.000419564545675528,0.0189294499406679,0
0.000458608362282811,0.0168445205363665,0
0.000465697118737019,0.0138472107357414,0
0.000941077627873532,0.0145128745479517,0
0.00183362179996658,0.0215555745576801,0
0.00398675025654428,0.0296152962913562,0
0.0117218716143747,0.0270133457856437,0
0.0222726139887081,0.0290310249823791,0
0.0715460320298254,0.00880305534588246,0
0.181316252771573,0.0173352276148898,0
0.21563731071837,0.0132500755076394,0
0.222067966827017,0.0161997429948342,0
0.19701049493724,0.0107564088413916,0
0.1668211461862,0.00893291650608136,0
0.145358424074277,0.00784208607754244,0
0.144521768249928,0.00717676558565098,0
0.109348719210076,0.00561796542066767,0
0.0731639501892893,0.0028112754299344,0
0.0922441656851748,0.00533239449927838,0
0.107616635237106,0.00558101856009812,1
0.109522914934349,0.00481510032276649,1
0.118661811361219,0.0050664440618338,1
0.12755433682958,0.00535441688006135,1
0.120417777871055,0.0046644703468181,1
0.15493152748405,0.00595143240485147,1
0.147219430121098,0.00590397097575207,1
0.147659264249467,0.00522831531294395,1
0.152070485245483,0.00638532360103561,1
0.118223563706814,0.00492843348141041,1
0.0702951314830862,0.00289952371214275,1
0.0812399608614891,0.00393210701655645,1
0.0826757366055614,0.00347317054610754,1
0.136056518129741,0.00485969686351269,1
0.155149944957311,0.00399067328117136,1
0.151314354920306,0.00320515699425001,1
0.172713327218088,0.00288441308981281,1
0.178308791947468,0.00313173233183132,1
0.155334831696225,0.0026036974420586,1
0.150908662103752,0.00266489850958049,1
0.189832896381735,0.00325777301496635,1
0.217278015449093,0.00370834187909251,1
0.229591605561614,0.00412068854882096,1
0.235362061943096,0.00497350533329169,1
0.272045334055696,0.00662815589160888,1
0.281658943383184,0.00949917775363554,1
0.220505671338023,0.0105714009790051,1
0.232602977128248,0.0126442365770714,1
0.158609800016697,0.010800402180042,1
0.108323731963376,0.00767342013382141,1
0.0857035707356071,0.00802672535336556,1
0.067130205171076,0.00862815549137738,1
0.01277266049668,0.00138906838023806,1
0.00286363080228301,0.00697197127431715,1
0.00368358739593255,0.00529918309438158,1
0.0109533509593726,0.0104829749668822,1
0.0169619405177238,0.0120353937984475,1
0.0159813678911531,0.00988280534117197,1
0.0143980817331498,0.00858779020466081,1
0.0157435632459618,0.00559118830956271,1
0.0198997182776858,0.00712165039842751,1
0.0257331013464121,0.0089148472882086,1
0.026649705924967,0.00763896515590302,1
0.0255565396759939,0.0073811513719735,1
0.024128131943795,0.0074007119600703,1
0.0240935129973689,0.00788170672452448,1
0.0242936750904366,0.00826755654511841,1
0.0200894764729486,0.00779506773185243,1
0.00860184268837164,0.00291538888081163,1
0.0103808542126934,0.00308132574757558,1
0.012475803004194,0.0019660807267202,1
0.0151085061370354,0.000851202571332873,1
0.0533391520599536,0.00428175837668474,1
0.0658447625117115,0.00359784532028616,1
0.0655712892903401,0.00359588778939631,1
0.0620776612611271,0.00336514048902832,1
0.0584724140375416,0.0031553445407909,1
0.0594484974484881,0.00268134787141107,1
0.0582889939719808,0.00260246041828592,1
0.0573523585263444,0.00307020151449061,1
0.0517951086412229,0.00356670712637711,1
0.0482517604826306,0.0054137915455691,1
0.0246351971663302,0.00404059573188175,1
0.0131355939623464,0.00279166573427663,1
0.014503525407077,0.00253441767438696,1
0.015682965736455,0.00296173051421655,1
0.0135786241978895,0.00237191750553418,1
0.0181815868001224,0.0040998983520947,1
0.0173904610663211,0.00421212798188352,1
0.0166153214144836,0.00398336483968845,1
0.0165147607863141,0.00387862803614026,1
0.0186479025086487,0.00457975604428967,1
0.021886682247556,0.00652749725422233,1
0.0350597955513307,0.00798413375472133,1
0.127714993651315,0.0137907670192989,1
0.148322318330011,0.0108487244298469,1
0.159140850585639,0.011813248277219,1
0.163533920856648,0.0126024761360245,1
0.138122170770629,0.00865077796157198,1
0.117630322390979,0.00811213247957384,1
0.107070962517336,0.00561362499387283,1
0.0998847826783799,0.00224215547637564,1
0.150872275528067,0.00301777134705483,1
0.141253947857073,0.00180605355382651,1
0.139301223599607,0.00178681213139218,1
0.145221873013513,0.00203666822514197,1
0.15667411259278,0.00204013874029611,1
0.148308548942882,0.00198433794172801,1
0.145223523283765,0.00197702267397391,1
0.153732807204153,0.00169608121311864,1
0.181321560416279,0.00206023311183523,1
0.177311806267282,0.00267525501059247,1
0.110091311604511,0.00150157172702081,1
0.114871682659342,0.00274405559465881,1
0.12018167938813,0.0029570843616921,1
0.138417540097083,0.00375057807170874,1
0.14116165810289,0.00416742621578022,1
0.169139948181599,0.00487665812714971,1
0.215106200838411,0.00623360840225877,1
0.230678135104312,0.00791080053996911,1
0.114647504327694,0.00676946767135109,1
0.0583515106357102,0.00694466509287494,1
0.0678984022191211,0.00641613376375037,1
0.0719217867462646,0.00592269476739842,1
0.0641635337345872,0.00444025002331031,1
0.0722361950587553,0.00537107922407754,1
0.116247985391852,0.00648739606509386,1
0.19652116476324,0.0104484610153042,1
0.274065490320861,0.0130600804080697,1
0.359245673258086,0.0159080972251683,1
0.412173747983911,0.0179140527612382,1
0.486008045162628,0.0206191372404875,1
0.540646169878265,0.0291435865485655,1
0.420130650731048,0.0388430473930933,1
0.26233135973511,0.0301238638291552,1
0.141388280411847,0.0186641058523384,1
0.0594151897366727,0.0225043228703623,1
0.0248732211383409,0.0107105205882701,1
0.00967278831688596,0.0126571827518035,1
0.00572789650367731,0.0066791977672048,1
0.00366629670797731,0.00381381388325967,1
0.00498025290489992,0.00514494913494913,1
0.00550882845795558,0.00550292748596944,1
0.00578283321161313,0.00588195417526174,1
0.00694509895856663,0.00625073910585278,1
0.00928217181501175,0.00766366681809911,1
0.00905274143675663,0.00729661225802896,1
0.00644890526936434,0.0058564976764198,1
0.00363923495224766,0.00441469856033206,1
0.00421584299556659,0.00380134731520891,1
0.00753514350481577,0.00594754180714836,1
0.00772977850639281,0.00545220608693283,1
0.0105319319221146,0.00604725705710777,1
0.00999265317631116,0.0044626462272461,1
0.0107052710809809,0.00417808840731665,1
0.0132470539220306,0.00501939376773197,1
0.0122626372995682,0.00451112458811333,1
0.0106551135264992,0.00270821489779995,1
0.0406604069712037,0.00519894902434945,1
0.0750659955968702,0.00623603817669415,1
0.076016216759811,0.00492765985992273,1
0.0716741220806644,0.00479635359134953,1
0.0723357887119582,0.00384464392469493,1
0.0797594858153458,0.00431423821382378,1
0.0780548661294903,0.00323891698870895,1
0.0745138415760247,0.0032683457006897,1
0.0615229002847458,0.00305565712240087,1
0.0519467530378873,0.00319777891627228,1
0.0459015755231653,0.00415204935563192,1
0.0321923756213635,0.00290915782592568,1
0.0373320861164309,0.004128442753112,1
0.0326157362728196,0.00361194837351797,1
0.0333605249741931,0.00494567120280919,1
0.0285954756867144,0.00529006766819816,1
0.0223408267912807,0.00508334369202343,1
0.0219356507549469,0.00510597326550105,1
0.0193097079871297,0.0035398439477553,1
0.0178475497199821,0.0030275020903708,1
0.0276619992426797,0.00245483317637947,1
0.0785988355195104,0.00876906457335997,1
0.200942364961271,0.0143419159343573,1
0.233075946537909,0.00710731425476803,1
0.221502213591541,0.00703651661574354,1
0.200096731140547,0.00665784126581863,1
0.203314141822097,0.00672690936880423,1
0.213569989676729,0.00766989837242739,1
0.1859069952134,0.00609557935380517,1
0.129545811088586,0.00390498243441666,1
0.111229778947717,0.00406597040298924,1
0.12928420398404,0.00435907478631633,1
0.108494508510589,0.00380114920618968,1
0.104826081503184,0.0077995505583977,1
0.0882569478166221,0.0071398127256754,1
0.102554341836037,0.00717218908829771,1
0.11987002668858,0.00463072613566814,1
0.107308079678332,0.00312247795730418,1
0.0974700461250199,0.00297690230521305,1
0.10006456142925,0.00314650019420112,1
0.0856158989880902,0.0024756835037112,1
0.0689093155617197,0.00215694247711486,1
0.0796884838641664,0.00188729382245843,1
0.104046282258573,0.00186476868929374,1
0.114990025789154,0.00186627621890843,1
0.105540419351258,0.00127531661654754,1
0.16086603764428,0.00353067648785436,1
0.152593834331234,0.00322071595847203,1
0.173962564434253,0.00324483099587135,1
0.195439647928824,0.00253225737242232,1
0.236705991820887,0.00319988263863929,1
0.255632099218185,0.00327479738925871,1
0.260728733047967,0.00379554653293534,1
0.231102955487567,0.00377028213956666,1
0.268275748426351,0.00430093144876863,1
0.264543485118635,0.00471612135433944,1
0.194159087969765,0.00370159425411495,1
0.210261804643189,0.00397006358090982,1
0.199762446298012,0.00472336998649594,1
0.139928248978322,0.00530020840904227,1
0.193834856824519,0.00754976804368329,1
0.251061869625362,0.00948254083759942,1
0.290597644355427,0.0117556540866382,1
0.281829860153315,0.0125480968851273,1
0.286778460543109,0.0174142696457902,1
0.160251950046245,0.0167749240728528,1
0.0735554417973199,0.0100294889233531,1
0.0358826670932378,0.0183642569122627,1
0.0209672613028591,0.0171834232783581,1
0.00642424662857105,0.00727834883360863,1
0.00183860173104505,0.0108473487113125,1
0.00203970035732673,0.0123803007949192,1
0.00220361855264738,0.0129412791675401,1
0.00442661657807614,0.0104484215362787,1
0.00797002959330459,0.0132543385705699,1
0.0122359391713599,0.00670421419018959,1
0.0315652033997926,0.0114998673430868,1
0.0337715558792584,0.0119357431563227,1
0.0315820431974413,0.00878196597906975,1
0.0285689854835194,0.0077944409691779,1
0.0275055515297139,0.00730587078143614,1
0.0245134761349205,0.00669989556530854,1
0.020404405345031,0.00560753265369258,1
0.01893753949808,0.00561303148184665,1
0.0198793896810469,0.00496173255586121,1
0.0301332476238831,0.00907117361618736,1
0.0343987770196403,0.0103746794150255,1
0.0349106728021361,0.00776567090245687,1
0.0383421854263495,0.00581339674151348,1
0.0517890616466332,0.00819790825367553,1
0.0582898519629187,0.00752034195844211,1
0.0536120845575091,0.00596633181830731,1
0.0640493798482865,0.00552941836644874,1
0.0520597741511052,0.00356177867294503,1
0.0515870993704589,0.00391177891690848,1
0.0563501110488432,0.00432954205220531,1
0.0639298419159052,0.00491280352838782,1
0.059169468976839,0.00409508367245719,1
0.0565012178437023,0.00502252725160916,1
0.0628219283967024,0.00340913552524702,1
0.0937622668487088,0.00472980579400476,1
0.0935512402726203,0.00450107226447533,1
0.105054036002744,0.00452750144828501,1
0.0996403965108969,0.00452364302270609,1
0.0903575312909432,0.00403350652241465,1
0.0859058602644909,0.00298708480464642,1
0.0709424519963321,0.00143527487276253,1
0.10072435041745,0.0026459545474673,1
0.117240845177393,0.00287101944374861,1
0.114453355861501,0.00363424476051484,1
0.0876872627056752,0.00293358450168857,1
0.0922373305319112,0.00341155945198477,1
0.0715299445697721,0.00317272295766964,1
0.0668910299399268,0.00275931280230268,1
0.0657268899673835,0.00259121367982505,1
0.0522491797465513,0.00277933998866229,1
0.0486594843390111,0.00691774735916231,1
0.0554993612912082,0.00741465001783581,1
0.050018717316574,0.00876777596387787,1
0.125650655780927,0.00626550442618177,1
0.167835496168423,0.00499459734822817,1
0.151962090744841,0.004957920913864,1
0.132564563860403,0.00260706889093816,1
0.224612799278864,0.00435078176066326,1
0.217718367556385,0.00363878401303972,1
0.189165222142022,0.00316921462269473,1
0.186240116015944,0.00316390173465805,1
0.174761704226077,0.00302321199176715,1
0.203104884880894,0.00235822542867412,1
0.324584509201275,0.00453440699579978,1
0.331108496286994,0.00374333872265694,1
0.297662568177345,0.00333025521900718,1
0.267333793435006,0.00407013518666376,1
0.310339806339824,0.00358568883919584,1
0.370147279326212,0.00405118954956421,1
0.334546624333717,0.00313802635261577,1
0.322214954928407,0.00298456178968485,1
0.30167793298609,0.00257240388861937,1
0.317687821867628,0.00322971260821643,1
0.325761410479417,0.00323205769388879,1
0.320086735673201,0.0041631895085855,1
0.251136512716889,0.00333909160346934,1
0.212560436816588,0.00278798946597838,1
0.2002127910318,0.00346801440500318,1
0.177586370352591,0.00336403169002292,1
0.144418276655883,0.00333881048926551,1
0.151044488653753,0.00334436205370732,1
0.154928707051725,0.00419346236259051,1
0.159052085274577,0.00658931408910505,1
0.1132232830248,0.00519613378514206,1
0.171268995930873,0.00646179429591026,1
0.275151618937968,0.00925825176777311,1
0.334506542843053,0.0117735966155437,1
0.36881736840168,0.0136078210669755,1
0.407145614932709,0.0193591039428879,1
0.326796739904607,0.0175734258844068,1
0.318625817096373,0.0205557737489446,1
0.30461924578816,0.0196337446987355,1
0.231977343191171,0.0189958141101028,1
0.105445339170368,0.0107137511765047,1
0.0480497684721025,0.0215622080284756,1
0.034063872912908,0.019330254073985,1
0.0116202717190604,0.0206064683788408,1
0.00620373284654705,0.0169950310205662,1
0.00238269250789762,0.0169925035604311,1
0.00137404111054122,0.0148780577759101,1
0.00139772782615367,0.00991160575204053,1
0.00210926456108436,0.013122016152307,1
0.00505302161985425,0.0125216576166462,1
0.0152053100136304,0.0226287477170929,1
0.0262473831129986,0.0214249264523581,1
0.0346631186889494,0.0246020825656806,1
0.0379604613103467,0.0203390868312049,1
0.0323662440567791,0.0169920813739474,1
0.0269158365211131,0.0138373262271395,1
0.0295191811983298,0.0112548631187801,1
0.0434294138572567,0.0136476193185602,1
0.0380416298409961,0.00885737796868548,1
0.0343375078903639,0.00808250440468643,1
0.0318663505658393,0.00699377667193485,1
0.0325222055552675,0.0066129327868256,1
0.0427492023214246,0.00708602319019281,1
0.0399395865177504,0.00669739047989687,1
0.0323867888684871,0.00506982404123112,1
0.0248142172363758,0.00425093845239644,1
0.0284708502695717,0.00565593773078488,1
0.0384140671740806,0.00295000631660145,1
0.0611502927415163,0.0030373402752236,1
0.065870841461276,0.00303670257615183,1
0.0638450198657036,0.00283759302324115,1
0.0694065921915656,0.00209144377278913,1
0.173014900424636,0.00474928992163447,1
0.271879229125302,0.0070277429019042,1
0.315084585324583,0.00835278303989244,1
0.298848187403,0.00639266852560201,1
0.269282263154847,0.00468032988242119,1
0.292599828769098,0.00649442408930934,1
0.32049081168469,0.00804828363160659,1
0.307038190839967,0.00758109279387147,1
0.306167339370861,0.00763715645936325,1
0.33312465093203,0.0112215805120622,1
0.310355708184252,0.0154246038292108,1
0.228174556464888,0.0122213952352375,1
0.121997994897192,0.00680922261045289,1
0.0287969595077796,0.00248357663294703,1
0.019741587467937,0.00460538832231524,1
0.0193843960463564,0.00403251158589539,1
0.0351100261256729,0.00649286605517291,1
0.0393198859067579,0.00837845447141371,1
0.0577508917527094,0.00829634831378609,1
0.0817416160591262,0.0104140695776742,1
0.079402337229561,0.0105401032498193,1
0.124191774280691,0.0103975011458527,1
0.126984282099491,0.00870730243485961,1
0.153518680623597,0.00942837445756305,1
0.122760245933405,0.00583507903037761,1
0.0999348026431758,0.00451305915104014,1
0.096127851448288,0.0041306834135155,1
0.0861044609341825,0.00316305578368863,1
0.0961817150414249,0.00156853728567821,1
0.188074050325394,0.00309515390291638,1
0.17512725308737,0.00199782220421386,1
0.174025210961763,0.0021200260665563,1
0.188402918275981,0.00222157469676455,1
0.215986058615715,0.00260122785781825,1
0.212062762632879,0.00265825144471307,1
0.215456762272783,0.00287246100589121,1
0.239566529782193,0.00248180501268326,1
0.212411946814553,0.00260426426512597,1
0.146538325443397,0.00293424155823585,1
0.125415231336882,0.00324436934979168,1
0.143775924356213,0.00584535527246497,1
0.116609408668594,0.00173578602417477,1
0.226367924121054,0.00397357710670867,1
0.24192400455947,0.00326703104282418,1
0.240964504935788,0.0034617202546032,1
0.21763690824823,0.00303518639237411,1
0.23830233507819,0.00351456354294814,1
0.272069249713087,0.00372934242147691,1
0.288973162367248,0.00398834072594339,1
0.294861612935999,0.00373644263392777,1
0.275364964678663,0.00352382481421539,1
0.337476594195842,0.00540603968531297,1
0.399227481857033,0.00517028893667608,1
0.399825802915309,0.00585458677638901,1
0.537670709763052,0.00683779628526622,1
0.679430047011889,0.00828759150410148,1
0.764424894261906,0.0121854445952839,1
0.712235236358754,0.0112450892694646,1
0.581224891582323,0.00965397075172195,1
0.409389041809378,0.00745844162434618,1
0.272009666459441,0.00546727165145875,1
0.23552645993516,0.00628003578950943,1
0.224903489361328,0.00989886505152594,1
0.0491836950512718,0.00657549768699341,1
0.0206394631702434,0.00939932131869175,1
0.00211069280475178,0.00459549241016311,1
0.00116682220280826,0.0100750388825317,1
0.00115058157734915,0.0114680274518641,1
0.0019249720391732,0.00475579412852315,1
0.00675700695922674,0.00852402602864031,1
0.00921960238877663,0.00885372220957245,1
0.0119461084936049,0.00836992827967427,1
0.0112096000136237,0.00681152216318657,1
0.0193955360297338,0.0082583511255059,1
0.0278379836074517,0.00868300525474518,1
0.0265800639362123,0.00766466999671613,1
0.0257005121531085,0.00689090491329827,1
0.0301039282690383,0.00764629804892982,1
0.0293752342006785,0.0074964055011317,1
0.0447921070862415,0.00967246570680831,1
0.0449812132610971,0.00831708661272755,1
0.0584452800197831,0.00883842741467092,1
0.042972734667143,0.00518445710938521,1
0.0433022017735818,0.00580757708848716,1
0.0462774483119301,0.00618699375446668,1
0.0466284019610906,0.00615408693611377,1
0.0442802383280741,0.00551894067123545,1
0.0443937312205061,0.00569839363422704,1
0.0523168137121875,0.0048965408991746,1
0.0647812255347964,0.00514661631054408,1
0.0652312905636118,0.00533729904824257,1
0.0654429660310726,0.00387268051815286,1
0.101364257007582,0.00698850247244925,1
0.115217064669347,0.00552334456300208,1
0.101906540503977,0.00491034257622016,1
0.0739448575652226,0.00357955177741813,1
0.065614238862168,0.00272799258429257,1
0.0932452031030033,0.00343098003064947,1
0.104286800088238,0.00366841065830146,1
0.102583639897645,0.00398848042082154,1
0.100154758740936,0.00327811684339612,1
0.0997725487716925,0.00355506153712779,1
0.0793455319560161,0.00294407128030798,1
0.055650303629823,0.00247783273981388,1
0.0560383386222398,0.00258793937292493,1
0.0518509454589435,0.00236677383834506,1
0.0442937104448275,0.00219489714046315,1
0.038166055392801,0.00202014777999058,1
0.0387300525450188,0.00223210338235915,1
0.0405464869286725,0.0024659065839602,1
0.054801003667017,0.00362762380306827,1
0.0726010141426625,0.00597578195319563,1
0.0836276757000461,0.00582974808488257,1
0.110387654574565,0.00799974605285219,1
0.13898326045678,0.00985987637868535,1
0.150690385338083,0.0121718317695269,1
0.145310634903678,0.0058976957368162,1
0.10657653222247,0.00409314245663812,1
0.0901621828119892,0.00367573495574433,1
0.0735606502966277,0.0030517579405741,1
0.088025158343723,0.00311564246389559,1
0.126293148748333,0.0030988690113947,1
0.129507345394018,0.00293643550856615,1
0.14350510860488,0.00263944038566008,1
0.148079790575072,0.00247180473394267,1
0.145204089909678,0.0024756166686026,1
0.13877245917206,0.00332705817621072,1
0.0921789674044227,0.00222500368771239,1
0.0985413375895342,0.00198485804923022,1
0.115623113095735,0.00244329370514831,1
0.113049232371136,0.00300678781282166,1
0.133080451655408,0.00379934790894869,1
0.140125218875549,0.00464939477549829,1
0.144813343709527,0.0054550868927422,1
0.14474544059726,0.00488820516038006,1
0.161352271543699,0.00539624826091128,1
0.189182912857803,0.00551795853187358,1
0.196746314366654,0.00278018296962115,1
0.312602489831923,0.00505693341905934,1
0.346949801195294,0.00487737019466024,1
0.339370030862506,0.00417907290782668,1
0.331151196814617,0.00499297568503055,1
0.317262693034758,0.00418802945522041,1
0.425159625125675,0.00417961118122592,1
0.575611938683639,0.00572129435027953,1
0.664934096445676,0.0063983767622021,1
0.853924172343949,0.00765525204750814,1
1,0.0176221626908313,1
0.850251376973592,0.0162678217115782,1
0.703918208637337,0.0141983837817562,1
0.569520995895727,0.0121567741274254,1
0.419295866930141,0.0110358347500272,1
0.12886374800497,0.004992511436624,1
0.0709473169164816,0.0121701127070237,1
0.0512449977529923,0.0129096214828948,1
0.00736388023753615,0.00603833517914266,1
0.00190086530269793,0.00997940515143345,1
0.00115594753333747,0.00723079721597632,1
0.00111109679335684,0.00851032223887557,1
0.00152773083044487,0.0106266543264346,1
0.00300526144716613,0.0121689063489737,1
0.00924351105607449,0.0225780573871959,1
0.0279372868120263,0.00726283174336724,1
0.0949752045002047,0.0126418960559193,1
0.121021832994402,0.0123873651004949,1
0.163522598816186,0.0130732826602747,1
0.155361719774111,0.0115898564469494,1
0.137544116492206,0.00934195913070037,1
0.114822582281913,0.00789691160472668,1
0.101945957089755,0.00677682836538916,1
0.085290949537586,0.00564911590841298,1
0.0771352691135684,0.00519931792383401,1
0.0847873298633401,0.00439042000216696,1
0.123373913777974,0.00438667139454193,1
0.130856017640203,0.00377529611578849,1
0.115613030307405,0.00242479004102235,1
0.133133525872621,0.00277281311342833,1
0.126013595737016,0.00263682742558783,1
0.148237729718223,0.00311289372066514,1
0.12461067977893,0.00195314618399013,1
0.112798443600098,0.00135285334967936,1
0.112447233950499,0.00147925589069962,1
0.107249848559947,0.00205057516937781,1
0.0876542732682143,0.0019082173145867,1
0.0778222700712128,0.00214062261040284,1
0.0674172871202245,0.00205673537492037,1
0.0666370344644634,0.00223486681195873,1
0.0587220859287297,0.00213009882543433,1
0.0605687841976097,0.00247270296965324,1
0.0557087332416045,0.00325288321734481,1
0.0464790753996305,0.00493602395787399,1
0.0409070241023336,0.00469409199160361,1
0.0432148068651363,0.00423063236439478,1
0.0462166465281347,0.00546048444633424,1
0.0260987325666839,0.003619840233794,1
0.0310483983573692,0.00306095428595016,1
0.0404435413098329,0.00131112921289441,1
0.0726896242518337,0.00295065607660606,1
0.0972043841178867,0.00401047730551734,1
0.116217813480168,0.00472959918114858,1
0.137809625531323,0.00540588135946998,1
0.165373766429591,0.00621495198401104,1
0.192857170996889,0.00750302513761423,1
0.175000025586613,0.00740534599003457,1
0.169943366837031,0.00757212794174208,1
0.103663077257861,0.00724006215856631,1
0.0349035858498925,0.0232532263059715,1
0.0322109116029516,0.0316819298818182,1
0.0241919903767818,0.0266057966683246,1
0.0137869775103083,0.0227118510971159,1
0.0052004249553847,0.0310750198657431,1
0.00137518371041582,0.0154032785866555,1
7.50869681419284e-05,0.0257412357772792,1
4.79526690180594e-05,0.0392366300091172,1
5.16279903956675e-05,0.0475346106478438,1
5.18249685228883e-05,0.0462713031195785,1
6.47699587051525e-05,0.0263871387993354,1
0.00102999685301785,0.0175057269902544,1
0.00213423652878047,0.0114247895416111,1
0.00234351938597793,0.0066321475034645,1
0.00617879970142247,0.00968391941958411,1
0.0106629983275115,0.00665437685018489,1
0.0400489542698962,0.0114137994104416,1
0.0582824419673167,0.0146381490500122,1
0.0867929982712444,0.011807040637753,1
0.162789102423446,0.0191836716885108,1
0.352839482979627,0.0143587558263432,1
0.678950516753065,0.021587834723563,1
0.836277467804354,0.0165132560666568,1
0.778586159218316,0.0158905597182106,1
0.853091996993011,0.0158842969268663,1
0.705178788149976,0.0077150353430766,1
0.572868561769576,0.0070362390283385,1
0.417600986252911,0.00414465167384327,1
0.382355127494538,0.00369377674389271,1
0.297369722760649,0.00174111213827661,1
0.283446994080591,0.00210742161651414,1
0.278031319502308,0.00204523420506377,1
0.34912185019235,0.00269919264319776,1
0.39266237565663,0.0029700191324076,1
0.337848029390479,0.0027502719257018,1
0.33006636896762,0.00255354922191114,1
0.402981444101733,0.00310591113528122,1
0.388940937051538,0.00348231672188613,1
0.290890137836455,0.00282719662535297,1
0.256434305740603,0.00284033348487128,1
0.269775445249454,0.00293940329946094,1
0.301101156938957,0.00364492205234172,1
0.288364225630778,0.00427383610152286,1
0.252584151137001,0.00274944371137504,1
0.255940471978459,0.00279834352345891,1
0.236372477448265,0.00450547595335697,1
0.165324059356352,0.00359335736180644,1
0.160469284860543,0.00473967541071913,1
0.112957537946948,0.00373120447583604,1
0.142467031258874,0.00489660645028735,1
0.257615006849044,0.00806845159719549,1
0.282455892242265,0.00897245908218542,1
0.29602552986557,0.00885344177750129,1
0.350455549361166,0.013344026782822,1
0.403994715080138,0.0189142944624342,1
0.441172042070206,0.0184621504348879,1
0.447280661085125,0.0201387252904809,1
0.329941546088465,0.016441765311788,1
0.195894172595022,0.0122548228898875,1
0.117623496497436,0.0166676350673291,1
0.10244429794815,0.0185035517390539,1
0.056497206699378,0.0126477736439465,1
0.0352174953848068,0.0143155802853803,1
0.0279207699563971,0.0167132807737815,1
0.00623354905005717,0.0065732884690332,1
0.00176790879868284,0.0120668990525785,1
0.0021046818771689,0.0132052138214101,1
0.00192658780709363,0.00802328678600595,1
0.00169843424201509,0.00720510222538055,1
0.0049290795920747,0.00249085234791325,1
0.020094983347178,0.00600025284217418,1
0.0208558662860754,0.00469308123685552,1
0.0325159767649119,0.0057214851410998,1
0.0309591009851489,0.00409958344272405,1
0.0303605746866291,0.00398520055676629,1
0.0290033235266173,0.00361751899343013,1
0.0266657154266264,0.00329073455984002,1
0.0271285773453461,0.0032638433489253,1
0.0259506494073557,0.00311792536314488,1
0.0329645075618414,0.00494110133398992,1
0.0382970497809923,0.00662035635216397,1
0.0361491065184671,0.00794790707988407,1
0.0447663540917913,0.00983236812616764,1
0.044440641177963,0.0137917133285109,1
0.0254646185375884,0.00733024626490358,1
0.0178344121780658,0.00402550954776587,1
0.016499498955769,0.00264782524310545,1
0.0199109538318201,0.00293859405865651,1
0.0217979333640447,0.0021316906805892,1
0.0230700224369793,0.00210582572627534,1
0.0343428738902341,0.00272309868434559,1
0.0375441431000903,0.00156543526405079,1
0.0429414349194894,0.00177606692424105,1
0.0520742270322508,0.00192136844237538,1
0.0812758197620792,0.00374539564355661,1
0.0847733917166168,0.00300121210095789,1
0.0864282811133194,0.0032446099599088,1
0.0798620187573911,0.00300439738928419,1
0.0958989672482316,0.00424421104016676,1
0.105837330730053,0.00403943270056874,1
0.0995895416440077,0.0038796147891736,1
0.0955609529529498,0.00537273008725044,1
0.0868992550325746,0.00564053703501636,1
0.0820067405459829,0.00629444480176414,1
0.0598049749810223,0.00474770444029845,1
0.0475027397483582,0.00580583449792937,1
0.0563336947043985,0.00622402009452141,1
0.0753295191869691,0.00774415994086124,1
0.0879970878799618,0.00848204868534671,1
0.10497246621076,0.0123057171665723,1
0.0934482662280716,0.0149407150727915,1
0.0739008526027947,0.0131537682994661,1
0.0476240830351273,0.0109396036418378,1
0.0159314707966516,0.00873029440360152,1
0.0121259783387216,0.00961458378322131,1
0.00776412049591353,0.00943241565791993,1
0.00223110073854152,0.015402583066497,1
0.00167548939760334,0.0219131766090033,1
9.42827523147323e-05,0.0148219135077952,1
2.32081250692305e-05,0.138146307322576,1
4.89942296254868e-05,0.161278391146828,1
0.000108346116305925,0.233577323501431,1
0.000163180185730485,0.277529043714725,1
0.000269302742519407,0.32010330743503,1
0.000464643169374544,0.248140620587953,1
0.000816322321220431,0.271768701842999,1
0.000962905352663181,0.2269946534901,1
0.00104859457625599,0.179275262484401,1
0.00237870043532647,0.0318893146386155,1
0.00316974082420416,0.0117650817543065,1
0.00311462086868902,0.00388968509634395,1
0.0269470648519386,0.00308097826769219,1
0.10351344967925,0.00918809817024639,1
0.170410615014562,0.0129818657365732,1
0.200927681796476,0.0154898803602712,1
0.254080574778884,0.0176022247102299,1
0.474191512970716,0.0111395590770223,1
0.856638269624293,0.0176342218138363,1
0.915875470093191,0.0108735512881938,1
0.780023208575972,0.00793648852260207,1
0.574042621149786,0.00644376109713482,1
0.495602501729184,0.00567238701723745,1
0.45087157293858,0.00469649317774429,1
0.381506603232513,0.00411313697458368,1
0.27899659404183,0.00280717321050861,1
0.228215800284857,0.00230837599129541,1
0.221236112654534,0.00430526988741688,1
0.128933886843258,0.00264854182969832,1
0.13218276314019,0.00340083970703483,1
0.180181534629012,0.00506627951512929,1
0.172714755945167,0.00352818665001301,1
0.183793892125092,0.004744726776862,1
0.169515292967732,0.00528914205703705,1
0.188776085455431,0.00439303797486785,1
0.202083071443503,0.00247906242560099,1
0.261900332777125,0.00338534472042518,1
0.280952520240242,0.0037356357776355,1
0.31975236578455,0.00417241006807041,1
0.281910284982902,0.00346081687434911,1
0.191882101023595,0.0023089909479422,1
0.174127175323012,0.00317666678812408,1
0.157745850685844,0.00285003705618244,1
0.188294945375716,0.00303986320818019,1
0.222059194621699,0.00406595162360975,1
0.194255318442655,0.00646139001595233,1
0.161045298656473,0.00526939018849591,1
0.16209740684877,0.00527492039822787,1
0.130987427014594,0.00464933192956837,1
0.122141245130566,0.00524094704471942,1
0.148054214338252,0.00570548795778982,1
0.210305773126862,0.00667044015447301,1
0.206772883045904,0.00616582614291221,1
0.201194883508109,0.00720283845610514,1
0.201417372626338,0.0060227927619248,1
0.28121237782622,0.00939595827423515,1
0.343062998469318,0.0118083540841206,1
0.35395839137916,0.0119426525075512,1
0.31004588782877,0.0109900328775404,1
0.256514606897551,0.0101899893862481,1
0.257282438713148,0.0113790950235855,1
0.276939926315431,0.0141227065282108,1
0.215585146397956,0.0152665291972039,1
0.104110065893849,0.00853527607957745,1
0.0336103566530924,0.0156483204718821,1
0.0176207237186464,0.00840476106256132,1
0.00541074983252929,0.0205532053046873,1
0.00545813592156235,0.0183047834913931,1
0.00437257400124785,0.0162944312337059,1
0.0040117758900353,0.0165043930926095,1
0.00240006755019699,0.00958642126515786,1
0.00140072608955837,0.00835901937259537,1
0.00151071954455031,0.00935433204498192,1
0.00552778512202937,0.00592478507316046,1
0.0223755700852285,0.0137899443441441,1
0.0260596847244613,0.0067690456348555,1
0.0256346656897248,0.00831004601997668,1
0.0293591426832824,0.00719643981235479,1
0.030070788837273,0.00599175750766771,1
0.0268113738897864,0.00558015153021634,1
0.0217306711772365,0.00449860783433797,1
0.0192489470188245,0.00337392265980489,1
0.019072192505915,0.00316968022539231,1
0.0221790257161271,0.00360057150487349,1
0.0462218096431005,0.00665956338104885,1
0.0480394741593354,0.00611808748009543,1
0.0375304006459744,0.00468817265149943,1
0.039748530563657,0.0055841431334492,1
0.0422681132231288,0.0064512398788933,1
0.041149192519842,0.00573289754182278,1
0.0395064993106688,0.00548376032195962,1
0.032358277428896,0.00312681882371759,1
0.0484313525692861,0.00432298750026456,1
0.0543947582789973,0.00295288318948524,1
0.0574820437874419,0.00211923766272999,1
0.0594989416097974,0.00272507615608994,1
0.0594970747143854,0.00222290240068917,1
0.0794860360873854,0.00292766619359049,1
0.0815522652895051,0.00222083776489009,1
0.0827310744400288,0.00202749249682879,1
0.0806605003762607,0.00196195755081054,1
0.0776794380649096,0.00244118537055798,1
0.0589732572754467,0.00137424939446195,1
0.0667396786525094,0.00224303202099378,1
0.072866297420337,0.00273530554837759,1
0.0764633151554962,0.00147594669925049,1
0.119387189335769,0.00321895378815546,1
0.129575233189673,0.00365949214640376,1
0.159742844634105,0.00505014605137617,1
0.187840390603588,0.00678253352047255,1
0.178721678001871,0.00630666401679127,1
0.172959367280897,0.00585734577321764,1
0.160126551609618,0.00596546985101362,1
0.160048056855804,0.00688494365648061,1
0.0528633280054471,0.00231301821805503,1
0.00572844561438907,0.0163242011508118,1
0.00281945501196916,0.0404005811724986,1
0.000501969412833418,0.0360772140292542,1
9.66610428599253e-05,0.0724302121033541,1
6.76052044196499e-05,0.0951487932105767,1
8.21721778148211e-05,0.0908743128120739,1
0.000101873859092781,0.120647103870677,1
0.000117571231052832,0.153056231559957,1
0.000141882589320669,0.161339931751558,1
0.000186899865202201,0.192174952602229,1
0.000208564526683374,0.211528623584817,1
0.000235704918688054,0.201121303628824,1
0.000320336541720155,0.231587358662945,1
0.000410939626530158,0.321781180082432,1
0.000474734984361196,0.344271161317824,1
0.000770291435710713,0.180994461499094,1
0.00160619597263204,0.057166001793631,1
0.00445180762903112,0.0491154048433248,1
0.00600908001319724,0.0210463937891725,1
0.0332823539209409,0.00768497933413468,1
0.10784618812434,0.0178024525453787,1
0.18911993476634,0.0254623589567357,1
0.2606392154338,0.0325362104697828,1
0.291166444849755,0.0229014474943751,1
0.269289845866995,0.0224884763286194,1
0.270976104903834,0.0189621390983791,1
0.32006641535541,0.0172585270115457,1
0.428834919760557,0.0186552109924407,1
0.313463481547701,0.00683660771478594,1
0.230934197426079,0.00618656510712744,1
0.209110364912634,0.00534681790367992,1
0.199809577736055,0.00485543305411697,1
0.194057004141676,0.00497240190780118,1
0.184138617746227,0.00374929356647318,1
0.274966929128564,0.00448559275409388,1
0.356051740233071,0.00577768586887679,1
0.380185517554804,0.007444512701665,1
0.229462763177126,0.00435835273497231,1
0.222311736533616,0.00478961052941093,1
0.304582500276612,0.00598576886078871,1
0.314259853141466,0.00429571039497702,1
0.328581898654285,0.00471410393455891,1
0.305653771463566,0.00436487536602451,1
0.289772317312232,0.00498730190100286,1
0.253414429914368,0.00604541875459413,1
0.226006815560678,0.00573490322476027,1
0.196920548817921,0.00513646637146334,1
0.195621965880964,0.00528258841877702,1
0.188966092598374,0.0083713606574631,1
0.101279292891737,0.00461130977171068,1
0.122800784080746,0.00646757477211021,1
0.125889245779821,0.00574443979510697,1
0.109992571127624,0.00482140922190523,1
0.0893521587914559,0.00286509485610321,1
0.113514877004866,0.00352078313784794,1
0.130155808591035,0.00415324377250289,1
0.120128229748073,0.00341590256928203,1
0.119241877712053,0.00319622442200771,1
0.125912480770581,0.00266732446484612,1
0.112565924933143,0.00239246980622027,1
0.107586856846252,0.00333931707000273,1
0.111601916285326,0.00363150399630996,1
0.0972324014345438,0.00134922603135789,1
0.173805244806121,0.00320219139595677,1
0.172543959357484,0.00211783664082026,1
0.224098163306113,0.00169324615192081,1
0.288713502143286,0.00195565092889877,1
0.28668148159234,0.00187193478645671,1
0.345347845329522,0.00249274387448794,1
0.411780394729174,0.00306824850809486,1
0.487239098331215,0.00368180372764687,1
0.48620396275488,0.00395941211594636,1
0.413480593196126,0.00398035215611653,1
0.43247930747479,0.00468178065921023,1
0.20013416295424,0.00266124084061135,1
0.166172797163672,0.00535214201250496,1
0.144344351532687,0.00985487582775334,1
0.0277051303973357,0.00684657629215125,1
0.017967692484139,0.00846097032126571,1
0.00436493658000445,0.00329968298088861,1
0.00306870134709303,0.00674821109525117,1
0.00352979307569511,0.00686701313284766,1
0.00367424031773187,0.00709216078627215,1
0.00380908283271522,0.00569536847730748,1
0.00737176358855032,0.0117464978983535,1
0.0103272316458363,0.00815420671381271,1
0.0234772751715066,0.011624545585068,1
0.0237456485529833,0.00994566978656206,1
0.0305012321186807,0.00861206755579664,1
0.038852374274936,0.00666563335376958,1
0.0334033386563659,0.00540148168532103,1
0.0301037602537005,0.00449833280988349,1
0.0239264604040861,0.00367279615470923,1
0.0214149837225117,0.00202793437426987,1
0.0670350107943086,0.00543830241229072,1
0.0720766779507104,0.00461318400082,1
0.104227446102169,0.00475596649369787,1
0.132428897568503,0.00458840145692894,1
0.129418505436938,0.00475089426833261,1
0.132458067816863,0.00527389580543882,1
0.101677289640337,0.00444572473745761,1
0.0786851312671748,0.00316423061154035,1
0.0603913080185274,0.00239516871819122,1
0.0448162094270251,0.00158010363220139,1
0.0573718820999123,0.00233877259064873,1
0.0555109132154893,0.00232372894208018,1
0.0571646445700581,0.00366346775994401,1
0.0457541992068333,0.00384941555846773,1
0.0653350628361607,0.00421322699243181,1
0.0711896682750272,0.00368264722311869,1
0.0725928725452594,0.00346710312461762,1
0.0930921152599476,0.00372649725738291,1
0.0967511934524223,0.00323337865477603,1
0.0951787708551298,0.0036810809421736,1
0.0789506983503361,0.00310861347884539,1
0.102344579899518,0.0041976768077492,1
0.108962384993181,0.00414184264411759,1
0.11017131119531,0.00409688879065693,1
0.088095161065922,0.0038859478578793,1
0.0934417856904314,0.00430030546752249,1
0.0833362853429853,0.00357879828751475,1
0.100241309260739,0.00540118133928894,1
0.107390192254294,0.0106644722626538,1
0.0804094576030694,0.0082070274317462,1
0.0667532008628628,0.0083622090884976,1
0.0673516018333049,0.00830230813421764,1
0.0515145807217794,0.0134332866875688,1
0.0122490221089919,0.00531530442943109,1
0.00106291383287528,0.0205908903288,1
0.000384108489721138,0.111627604154327,1
0.0001174119655051,0.128067610125061,1
8.70523249968186e-05,0.166949019821867,1
8.58992535185298e-05,0.167755657394819,1
7.79255045282293e-05,0.157301779860676,1
7.76130233787305e-05,0.168091258528441,1
7.61040529670448e-05,0.169714019794791,1
6.60373438157813e-05,0.154836961295158,1
6.36340731616877e-05,0.160545847190971,1
6.2785923695532e-05,0.163688839723466,1
6.37244815558348e-05,0.168103725408022,1
3.66072358528079e-05,0.199618806092138,1
1.75200829170711e-05,0.215560002344524,1
9.50759777740108e-06,0.174138515622074,1
6.08804787902041e-06,0.142366092121109,1
3.61341177660902e-06,0.112675485726584,1
1.99286798597753e-06,0.0827603018703281,1
1.59105686463512e-06,0.0924336991843338,1
2.81406699686208e-06,0.115788272522734,1
4.90941154132998e-06,0.15337573108677,1
5.74609361528636e-06,0.178032550365959,1
6.10181757340174e-06,0.190233018856656,1
6.54386093407163e-06,0.198961251260872,1
7.77186374168631e-06,0.21587287226666,1
7.80862354643477e-06,0.202333999251599,1
1.14385873374973e-05,0.177320737073582,1
1.8749170855559e-05,0.227033092177102,1
2.68757132812837e-05,0.244119754331212,1
2.99241397393627e-05,0.250146179692669,1
3.18125386427373e-05,0.233393443796657,1
4.0267272030687e-05,0.239173535378407,1
4.14347923473795e-05,0.216218987277125,1
4.12865269597009e-05,0.181581535426024,1
4.97086768248249e-05,0.186203815755317,1
5.69006549623016e-05,0.149458501009832,1
0.00044696519798178,0.0244277056563473,1
0.00188543024488778,0.0417367965697831,1
0.00275972976292248,0.0364479267940377,1
0.00614189619058813,0.0322857608045538,1
0.0168858973387125,0.00923744015434314,1
0.0721515080333559,0.01254456399765,1
0.122276118966203,0.0187087924067298,1
0.207101858742512,0.0167313566973136,1
0.286050194702402,0.0175113183550174,1
0.299932404691549,0.0188228109318881,1
0.344396087390095,0.0177222637288481,1
0.418157782657233,0.0196873058411736,1
0.371628170415667,0.0163391263006878,1
0.266371572667804,0.010302899902454,1
0.159457664938555,0.00791696388444491,1
0.121732430547497,0.00604323011573838,1
0.134559781671517,0.00516386081232393,1
0.145176902853968,0.00615619184591534,1
0.143291611045387,0.00418565877977162,1
0.133865798926035,0.00387303012012329,1
0.133198530449344,0.00436373959670679,1
0.132109390354607,0.00357348620870065,1
0.135108191001139,0.00367156036739939,1
0.136015921566385,0.00339074961462723,1
0.141205917260678,0.00309469958784761,1
0.129398913381975,0.00281535072760817,1
0.113011148355904,0.00214497405154048,1
0.155496288305111,0.00260421840207231,1
0.159197187467798,0.0032504063852715,1
0.152872894428817,0.00275524664526341,1
0.173179304984628,0.00319207690707224,1
0.173728845980813,0.0036998616279899,1
0.162014151240428,0.00324760096725462,1
0.15434629503783,0.00351804711027971,1
0.157795337857932,0.0033692595859451,1
0.178817782255706,0.00392345653377873,1
0.158630545818494,0.00463338325756651,1
0.128613679947094,0.00468838178981048,1
0.128468383544807,0.0045957134499455,1
0.121130477809614,0.00483639302900997,1
0.109876322695256,0.00464537707677582,1
0.0900272923365732,0.00285720703922204,1
0.116812250131076,0.00410344238793605,1
0.112183212485718,0.00445555716707987,1
0.112083208153533,0.00426881999299132,1
0.125088952522212,0.00509410306905572,1
0.14564572863997,0.00603533111067896,1
0.152774342825474,0.00475508583224973,1
0.165544833703167,0.00344982259007869,1
0.184633963242397,0.00296850508711257,1
0.190571783711125,0.00170907554739036,1
0.356619072250307,0.00429149942506847,1
0.43621095987466,0.00511071594098874,1
0.497361119728725,0.00554174116608607,1
0.573000901188178,0.00655458976514208,1
0.66280327651818,0.00721039762531517,1
0.709515097197961,0.00737124020834985,1
0.593671950327831,0.00778626235825359,1
0.454441165695607,0.00726208805104177,1
0.307729935496512,0.0085570714087701,1
0.0347074261126072,0.0082533980455639,1
0.0202525981444035,0.0115021227475906,1
0.00950851359912957,0.00631489774336053,1
0.00260505967751027,0.00906142037677245,1
0.00253997216297783,0.00987048460388113,1
0.00237624235234345,0.0107832157341983,1
0.0072849761721046,0.00790546012650998,1
0.0120457885626559,0.00732660905730368,1
0.019575729893398,0.00578951364649377,1
0.0317289230999812,0.00984700322898183,1
0.0592635525438282,0.0111303315777841,1
0.0708902065770455,0.00581697438338272,1
0.0619299183724484,0.00507865935216891,1
0.0545288294072833,0.00456893812537313,1
0.0464302943569836,0.00395894991293463,1
0.0375181197425483,0.00335756842116103,1
0.034482078083198,0.00320276803815098,1
0.0394142117246171,0.00376297400782192,1
0.0349469436588622,0.00363393973325015,1
0.0607613269182487,0.00442698234908091,1
0.0779380974783263,0.00553493428298649,1
0.167928748563284,0.00973866003426554,1
0.261181382465716,0.00831169948823174,1
0.242078186469213,0.00596330011355813,1
0.217124971728221,0.00534784686035787,1
0.199498752138504,0.00400355190748855,1
0.227560958666942,0.00438272775426223,1
0.242403318101502,0.00432143747203009,1
0.23363755592203,0.00413092621568778,1
0.240858649474307,0.00449578311782488,1
0.250139018323182,0.00418449323878957,1
0.194151115512845,0.00507384862385065,1
0.129364562244175,0.0043586165638637,1
0.131982654490666,0.00362813561140474,1
0.139265798930051,0.00285968736407264,1
0.167064348764369,0.00399530255126232,1
0.13216130944673,0.0027658319368213,1
0.117479807868111,0.00241187915308431,1
0.113797943222212,0.00209816513142537,1
0.143003176758064,0.00247976957583885,1
0.158006094888111,0.00286728728265905,1
0.159940606652481,0.00295261498982696,1
0.131482169064584,0.00221798847539754,1
0.147814756436074,0.00326801152601495,1
0.145134585040615,0.00531042186171781,1
0.113461417756559,0.00452896425390415,1
0.13080961806599,0.00577765243682814,1
0.123282650590193,0.00667036303835607,1
0.0777222186313727,0.00484622737950928,1
0.0814843775112919,0.00708677386095901,1
0.0778135615232749,0.00930106320903858,1
0.0370683708743356,0.00568508918361859,1
0.0264956519362816,0.00959399066006144,1
0.0168103723512468,0.0116144431501603,1
0.00125738963164946,0.0111531421291552,1
0.000334526608019812,0.175738006386833,1
0.000155953749459047,0.411180038099821,1
0.000112400750551051,0.51043320924291,1
9.38804010351459e-05,0.481107199134677,1
7.79693706813536e-05,0.449334148656133,1
5.75185104393771e-05,0.406973922909617,1
3.87721329532991e-05,0.393770781687786,1
2.97969175562124e-05,0.305881955688712,1
2.19158325390265e-05,0.259927676491323,1
1.26974222577111e-05,0.183459288039184,1
7.4185166692627e-06,0.130823286465855,1
5.92404781744575e-06,0.122200906446193,1
1.22422134474752e-05,0.0157394218434184,1
0.000938169367507521,0.0197480158663613,1
0.00159943536554692,0.01198601936289,1
0.00160537405722484,0.0108497173081014,1
0.00209474954145712,0.011924520744242,1
0.00263556071927668,0.0137047545438756,1
0.00354611468590218,0.0114628141345946,1
0.0103483166093165,0.013539495320279,1
0.0271342189323897,0.0190685848005343,1
0.0384939324919111,0.0107893845261701,1
0.0349139008972699,0.00997334862158037,1
0.0361065615905132,0.00846719966538692,0
0.0459850161139226,0.0107824591661646,0
0.042555598167185,0.00855109703517834,0
0.0352564437263924,0.00736866822159216,0
0.0330723146790653,0.00539393313420978,0
0.086364795131754,0.00778714451795686,0
0.125565658651895,0.00837232335013256,0
0.128109379739204,0.00571812921590226,0
0.12372672350186,0.0062353413508023,0
0.10221159823371,0.00568263549759948,0
0.0848229115850894,0.00528336114743002,0
0.0817685402388241,0.00511249681481492,0
0.0766064097986709,0.00509964582981165,0
0.072217519769772,0.00489608634927784,0
0.0737935053940893,0.00606885805081948,0
0.054983861222169,0.00912414894693467,0
0.0228353613252435,0.00431794329291007,0
0.0188754903537808,0.00645364982616383,0
0.0186345713375231,0.00692082678424163,0
0.0173798723160891,0.00596558363559528,0
0.014835544798155,0.00314999177457798,0
0.0183720796914944,0.00323855354150447,0
0.0197577469949971,0.00288179531797413,0
0.0245409299179935,0.00382464730285631,0
0.02635689559701,0.003064409573726,0
0.0265155153430214,0.00213507747616247,0
0.0451048891412133,0.00385373209966096,0
0.0473673857296419,0.00436604799974804,0
0.0488451229630475,0.00458279990105376,0
0.0535129517636264,0.00523572669329435,0
0.0551753028584038,0.00660206385315257,0
0.0324579877782995,0.00483834025568136,0
0.0291391427730376,0.00484100409488509,0
0.0297331558627731,0.00435091624134743,0
0.0165489261844983,0.00443278734525885,0
0.00376566066496408,0.00296863840288711,0
0.00743240138483317,0.00957059647882082,0
0.0105481031489991,0.0167786306894234,0
0.0130175231219335,0.0197281198517069,0
0.0145108484972631,0.0199667040642712,0
0.0148338323765567,0.024244780095764,0
0.010979925250542,0.0234048373668708,0
0.00822389785763427,0.022326880099741,0
0.00620387614735641,0.0206688060653203,0
0.00140994989360862,0.0104874350975302,0
0.000108821875359206,0.175177544928355,0
7.37594757467322e-05,0.705362365145305,0
5.91349726573047e-05,0.618486140748411,0
4.77309269557297e-05,0.558579800145398,0
3.88997757243047e-05,0.322008791676618,0
2.77299209804617e-05,0.170557946216502,0
2.00711536998064e-05,0.0550102762142297,0
7.14051788350027e-05,0.0554926873132232,0
8.14021454593351e-05,0.0347082022231864,0
9.29221233737974e-05,0.0376952876744493,0
0.000108669470547276,0.0419037020022953,0
0.000125673117669806,0.0436536787754104,0
0.000139585410907338,0.0457745115732394,0
0.000148355492134988,0.0464404760621125,0
0.000155989732648202,0.0485055812136503,0
0.000151562871600377,0.0483580491576202,0
0.000154057129164095,0.0642860087665023,0
4.72953718868594e-05,0.062898143442647,0
4.29060834067276e-06,0.0987642109166506,0
2.87791205966958e-06,0.091737432791767,0
2.88624173545357e-06,0.0927794495290541,0
3.08011995102215e-06,0.0912454914666578,0
3.20233028016795e-06,0.0859694181848591,0
4.13441034560963e-06,0.0927895444297862,0
4.26862783057689e-06,0.104131719613943,0
1.97693181821861e-06,0.0864423232835515,0
2.51164783368157e-06,0.112401476523371,0
3.04155120019667e-06,0.124717945136741,0
2.96093984332842e-06,0.126115743321475,0
2.95949394925639e-06,0.129925215377412,0
3.04700329421939e-06,0.1324841663363,0
2.71154742460157e-06,0.142703831125549,0
5.69019378775931e-07,0.0788880442386314,0
4.63979830979056e-07,0.0918221440503863,0
1.81207148124083e-07,0.0652111292456446,0
1.34515266535705e-07,0.0587158168202658,0
1.58524290247264e-07,0.0652443125419331,0
1.80861538400205e-07,0.0717666975221074,0
1.13928244744199e-07,0.0589442753521463,0
5.0962399183565e-08,0.0406348035120224,0
1.67191525471546e-07,0.0677315057716518,0
2.444059783627e-07,0.0748042682830811,0
2.46918377161562e-07,0.0742467702598272,0
2.64717948798254e-07,0.0767875041618154,0
2.72475028430902e-07,0.0750678122454776,0
2.72017898602014e-07,0.0750488698428277,0
2.71332440631728e-07,0.0727472154911207,0
3.0505523643412e-07,0.0770727833570357,0
2.44491848054315e-07,0.0659207316432738,0
2.44418053788083e-07,0.0645439110714497,0
2.20928589065401e-07,0.062033052452886,0
2.99394150735482e-07,0.0737268533475108,0
3.02962162701018e-07,0.0710456928268023,0
3.04968103952922e-07,0.0709305635397397,0
3.17554090949298e-07,0.0694220410761664,0
5.77117016974128e-07,0.0922430480111782,0
7.51727273394543e-07,0.101819125392334,0
7.57162082984856e-07,0.0997640829353626,0
8.71607440063114e-07,0.103957477626058,0
1.12689763861099e-06,0.119806659376578,0
3.58084948443301e-06,0.0829562416087691,0
2.62950857881944e-05,0.134187527462512,0
4.82322068286255e-05,0.0639247836669817,0
0.000213098614272705,0.0819814176173542,0
0.000746058504884085,0.0675271797590143,0
0.0010722405069219,0.0286839824367137,0
0.00100822318659282,0.0253493266262246,0
0.000934295220699382,0.0235476325947802,0
0.000843622259427828,0.0213550443178839,0
0.000809071025041876,0.0208363844514117,0
0.000757650124008541,0.0196869610611118,0
0.000718426834694625,0.0189600167530603,0
0.00069659216219454,0.015421786826793,0
0.000835636730189209,0.0141200351438995,0
0.000607004989157056,0.0128843684091309,0
0.00071319411366205,0.0124269355747049,0
0.00138669440801072,0.0155477838601652,0
0.00155763307254471,0.0168819639866931,0
0.00150486051279624,0.0123313403383825,0
0.00149831469327552,0.0126602469052327,0
0.00158992472681436,0.0136425589328869,0
0.00180789273537899,0.0148089428758236,0
0.00201693323105442,0.0182306695364751,0
0.00208138817229719,0.0210409540818736,0
0.0022222411451057,0.0231759577117374,0
0.00195665605764294,0.0480833131410966,0
0.000913313205824262,0.0474474328765426,0
0.00025964138124741,0.0263459739831107,0
9.24489555647399e-06,0.0674513033088564,0
3.23322150710449e-05,0.109937114995655,0
3.44812336185519e-05,0.0781432146057745,0
3.47669773295972e-05,0.0775110156148421,0
3.41699615900784e-05,0.0724901598816457,0
3.4976034907343e-05,0.0684587201298114,0
3.53765514325903e-05,0.0658857014040343,0
3.76310657895552e-05,0.0651407350484718,0
3.86830772435679e-05,0.0646651021145881,0
4.16540738642075e-05,0.0661482296949936,0
4.23880610749244e-05,0.0943720948573474,0
1.54424246877992e-05,0.0778183165152674,0
1.55944920192135e-05,0.0618945199064772,0
8.00836352864397e-05,0.0820752324212839,0
0.000101085873578875,0.0530095092204451,0
0.000100925293861809,0.0550269106052096,0
0.000102263007907281,0.0564735867746783,0
0.000103768651184114,0.0573430789794796,0
0.000104470547202094,0.0580433985370772,0
0.000101290732144486,0.0535394903375131,0
9.6437067790992e-05,0.0484849706494617,0
9.55822676067267e-05,0.0399553548454088,0
0.000203698841125525,0.0406349963578415,0
0.00032077147802213,0.0544488619358011,0
0.000463664795916551,0.0805225841195215,0
0.000568745151390181,0.0702191461440812,0
0.000778116225884006,0.0672972272551283,0
0.000701813200450367,0.0447890126656701,0
0.000612998794733832,0.0316945153687606,0
0.000532513167194669,0.0198909637995343,0
0.000443603067204643,0.0179639079616886,0
0.000286731692437884,0.0132116734963454,0
0.000311157540812905,0.0144183102668077,0
0.000391709186044352,0.0144493180735833,0
0.00119020926318823,0.00849732912562375,0
0.00199538005960808,0.00658722634388141,0
0.00207092200902134,0.00667612413109086,0
0.00226099924751965,0.00736284945726379,0
0.00243252965099011,0.00815637060853345,0
0.00253510826032103,0.0088336194800491,0
0.00262486280688353,0.00911608639882251,0
0.00275554132444028,0.00976956130144774,0
0.00286029025092242,0.0101555437362987,0
0.00293217100870534,0.0104008939565315,0
0.00175883295750325,0.0207074816574846,0
6.48320705892579e-05,0.0318358320385198,0
7.53326951560432e-06,0.122324020727925,0
6.89468155916227e-06,0.0571454946838507,0
4.49458000969748e-05,0.0995005390810291,0
5.64726539007142e-05,0.0677789326484726,0
5.74529292776666e-05,0.0681868328724825,0
5.67872888956947e-05,0.0664929970448406,0
5.48678626208817e-05,0.065122096581103,0
5.88179757722587e-05,0.0692790924124213,0
6.32119093449456e-05,0.0711610474473424,0
6.45107989247019e-05,0.0686674529536259,0
6.39499678682011e-05,0.0688011308956669,0
6.2483534523604e-05,0.0870458913787716,0
2.95022101700882e-05,0.0766408531589233,0
1.63891013380258e-05,0.0715897637865516,0
3.68933914700302e-05,0.0808741917230574,0
3.68614214261684e-05,0.0620802692747155,0
3.91265344550241e-05,0.0643373530079627,0
3.76893821227972e-05,0.0631594995067737,0
3.38700513530255e-05,0.0605098457171558,0
3.40595521874304e-05,0.0622769295280654,0
3.42047798558437e-05,0.0614397715550037,0
3.55258633571353e-05,0.0650127886075488,0
3.38186261414599e-05,0.066028764947842,0
3.3730994463756e-05,0.0675441807519631,0
1.9782214184025e-05,0.0561583800611292,0
1.81778131061735e-05,0.0673702266660563,0
1.97476342697935e-05,0.0686270554089605,0
1.85768337782359e-05,0.0598716358647498,0
1.75580599720528e-05,0.0508709008223286,0
3.62842411118665e-05,0.0497463877579797,0
4.4709453241728e-05,0.0389480886253433,0
4.26215575773103e-05,0.0381959815608541,0
4.6780139925412e-05,0.0310842739762079,0
5.45057425546063e-05,0.0279007083833472,0
6.14776448806076e-05,0.0321212180207284,0
6.92443284226532e-05,0.0343323902113526,0
7.71683718840265e-05,0.0369628870107835,0
7.86018981159672e-05,0.0373899266499219,0
7.6947859463053e-05,0.0383387071595223,0
6.24742716463186e-05,0.043751160265075,0
5.25977432627259e-05,0.0502220858577568,0
5.16149075798948e-05,0.0494650955625214,0
4.39187329202082e-05,0.0257004398837581,0
0.000256576914836053,0.0369784870219221,0
0.000289470602145009,0.0248129722836201,0
0.000272862234838252,0.0245319333644405,0
0.000263295793670807,0.0232230965463887,0
0.000260267543038662,0.0235276499857412,0
0.000259812588364829,0.0233935134254521,0
0.00025665930214862,0.0225544636303034,0
0.000252482374624858,0.0211553229729684,0
0.000246110990543131,0.0204005396342245,0
0.000249796853688175,0.0280243494813226,0
8.33542606209797e-05,0.0309507200598134,0
4.32459675637141e-05,0.0532117970845537,0
4.45098428296224e-05,0.0535745328942744,0
4.72700782115206e-05,0.0561734979354192,0
4.74356640211136e-05,0.05386028281426,0
4.84240592929307e-05,0.0541988305586036,0
4.79431052811558e-05,0.0596333717908313,0
2.94519291248088e-05,0.0606291492116584,0
2.22792154738089e-05,0.066075748813919,0
2.40555442483856e-05,0.068146452413302,0
2.28020696331767e-05,0.0658384016990103,0
3.83635437299479e-05,0.0439011755242277,0
7.04912531850704e-05,0.0416142087040356,0
6.46297458109447e-05,0.0402429781111257,0
6.2296476871344e-05,0.039709728198939,0
6.28207365944415e-05,0.0391832740803287,0
6.78389884434389e-05,0.0373757535117768,0
0.000156906822927753,0.0432513935753196,0
0.000168897605971964,0.0290968854447822,0
0.000147350581864237,0.0268565686032298,0
0.000132189611585893,0.0242417192579876,0
0.000143214360125895,0.0315113089929298,0
0.000143287546911413,0.0366085826289436,0
0.000159263782747015,0.0388292954321305,0
0.000173120263920896,0.0425957297007594,0
0.00018855019701522,0.0463357830103938,0
0.000187399928614107,0.0531644824893271,0
5.95360857717054e-05,0.0491043893579619,0
1.37366181337965e-05,0.181302321114501,0
9.40336901944056e-06,0.148393602028619,0
2.10875108424259e-05,0.156870176381596,0
4.31548298296586e-05,0.116407600046357,0
4.38928415507752e-05,0.0963771456830826,0
4.37526813780324e-05,0.0972733513828111,0
4.31078448230384e-05,0.0930904347946447,0
3.94178345191571e-05,0.0870029750727637,0
3.65896325660269e-05,0.0807395002764784,0
3.643841469738e-05,0.0607109682971411,0
7.69623698624487e-05,0.0616672863892965,0
8.25189366772194e-05,0.0422684351660119,0
8.42492730767122e-05,0.0465820626733049,0
7.74781455337359e-05,0.0498882466666875,0
7.78582076300978e-05,0.0524645281568968,0
7.74739649898986e-05,0.0505378580099955,0
7.74893463984089e-05,0.049700589239919,0
8.26966392685544e-05,0.0532041631312265,0
8.58356487803648e-05,0.0544883696167381,0
8.30264482588564e-05,0.0655988231104816,0
2.1294918348809e-05,0.0485578367064532,0
4.82205175800815e-06,0.0917366697527982,0
5.15784195116797e-06,0.0808080819122021,0
6.06343705714841e-06,0.0887720527564472,0
6.36528346632889e-06,0.0916766912940491,0
6.91958179662172e-06,0.0964786764624276,0
6.90128397557034e-06,0.0962972408311741,0
6.387434137321e-06,0.0931563107670216,0
5.99304790302668e-06,0.106595679922648,0
4.87403630643445e-06,0.0897443532785911,0
6.83064013257468e-06,0.101031625954729,0
4.66585407864241e-06,0.0808207364270575,0
5.37300487977242e-06,0.0949892684639864,0
4.86424818760695e-06,0.0802808606271759,0
5.03943017201087e-06,0.0818991052702321,0
4.79683542853131e-06,0.0797709405436627,0
6.00512009251164e-06,0.0901118385665486,0
6.29445928119595e-06,0.0921876860377268,0
6.2962878005115e-06,0.0940467886834745,0
6.42137223874723e-06,0.116339157739098,0
3.97823587000247e-06,0.111666063246059,0
3.86824334576538e-06,0.108660198453966,0
4.12693147430689e-06,0.101320188101039,0
4.42306928533068e-06,0.111424710928848,0
4.57601733355438e-06,0.112904706538584,0
6.73007433257143e-06,0.130224591329617,0
6.74405854333311e-06,0.100478008034053,0
6.82545480285128e-06,0.101312105006797,0
6.81128062118178e-06,0.100952982164473,0
6.39534109429223e-06,0.0966683125017183,0
5.38008983964975e-06,0.0824270741637281,0
5.48130589736367e-06,0.094297381698502,0
5.2779708873843e-06,0.108454561551056,0
5.38675768434309e-06,0.117808357753444,0
5.50801665938712e-06,0.113942790644081,0
3.71191323134217e-06,0.0979948489533943,0
2.63725017349484e-06,0.104459116082194,0
2.58795718213942e-06,0.103150217013376,0
2.72861023744118e-06,0.105184061430107,0
2.1908358245336e-06,0.0950795714931303,0
2.12109819091212e-06,0.106733704648599,0
1.96005905521117e-06,0.101524812458567,0
1.76799065388745e-06,0.0945863100338788,0
2.2295706321892e-06,0.104200955134846,0
2.17427362883912e-06,0.111084489157672,0
3.88379459947466e-06,0.143807138650231,0
5.20509869432149e-06,0.132997086424356,0
5.38033853027316e-06,0.126693775346294,0
5.46883237756449e-06,0.129323214533579,0
5.04358601252709e-06,0.127368538495461,0
5.14968748743855e-06,0.128922851277614,0
5.0815442045894e-06,0.118179418213141,0
5.22058175739332e-06,0.109491377341504,0
5.58244989714703e-06,0.113397870631455,0
6.03429566195156e-06,0.118939906031689,0
4.90164443830502e-06,0.119807550018349,0
4.81140825708716e-06,0.0926295694962459,0
7.74135640278287e-06,0.0942441463829141,0
7.47633877823181e-06,0.0899808854302248,0
7.95320387733831e-06,0.0928689228631587,0
8.44554312106521e-06,0.0838794891611271,0
8.58959892074589e-06,0.0858184067166607,0
8.74102041421296e-06,0.0899242640516272,0
8.73424452208597e-06,0.0853000615675696,0
8.50845774472339e-06,0.0843273863880327,0
7.22597180164461e-06,0.0782482704459141,0
6.05679028525623e-06,0.0948565041279042,0
3.73482268102471e-06,0.0952266614921961,0
3.56800502019396e-06,0.0967492849780081,0
3.10654129745816e-06,0.0889423458694037,0
2.69727561351247e-06,0.0970779833570648,0
2.29476332825433e-06,0.0924369530852045,0
1.66109362153897e-06,0.0820111877892339,0
2.17861446802919e-06,0.102867250391124,0
2.19967779826637e-06,0.0983557343918071,0
1.84346798185909e-06,0.0872768161841173,0
1.94654720667773e-06,0.0951652090187709,0
2.02982817964788e-06,0.0986638551838593,0
1.99055739673884e-06,0.0970156428094439,0
1.57704084736083e-06,0.091821706297389,0
9.70081350198492e-07,0.0793344768856389,0
1.15427625847492e-06,0.0801995118346833,0
1.49341292295288e-06,0.0841188555784313,0
1.4990859262282e-06,0.0856072740672546,0
1.37968853980192e-06,0.0915359073555119,0
1.31644748503663e-06,0.0919099779166147,0
2.12404617319261e-06,0.110401572122021,0
3.05337035821904e-06,0.131859582833563,0
3.19247073480468e-06,0.12021170591032,0
3.6939276350151e-06,0.128839842461878,0
3.7432833712279e-06,0.118018734796404,0
4.59870397979995e-06,0.130861172880686,0
4.56708814841607e-06,0.129234131499194,0
4.45427123742887e-06,0.129324938699387,0
4.64671879132476e-06,0.132903410338798,0
4.68633502610899e-06,0.134100301060754,0
4.0865847946735e-06,0.131412549551276,0
3.12837784954161e-06,0.113387520445933,0
3.01358554102554e-06,0.122622544224344,0
2.99800113908972e-06,0.122884426159933,0
2.94949068265375e-06,0.137675859937774,0
2.06804208660065e-06,0.123349244435399,0
2.00502257248276e-06,0.134024742174956,0
1.74741349763956e-06,0.127314450033479,0
1.10901653812187e-06,0.0912593990585835,0
1.28599973401662e-06,0.101887159275829,0
1.27320104589993e-06,0.0983044273853201,0
1.32455775113065e-06,0.0985351392655337,0
1.66481695662317e-06,0.110877538169674,0
1.78764289569046e-06,0.116900048644327,0
4.54735264142495e-06,0.101537940968,0
1.3022773679711e-05,0.108028474103914,0
1.29741736441391e-05,0.0898394943450172,0
1.30288849498959e-05,0.0911717162749971,0
1.32039829587926e-05,0.0912554486135709,0
1.23956732411772e-05,0.0883308951479638,0
1.28446662853904e-05,0.0898403137276942,0
1.37613414228657e-05,0.0903607114989172,0
1.48553032203573e-05,0.0936239478090719,0
1.52893247102039e-05,0.097431222515043,0
1.28319693307595e-05,0.133802195636707,0
1.28668156146686e-06,0.0706480911845491,0
8.29809420577618e-07,0.0834155389051209,0
5.59935186216356e-07,0.0703275470230222,0
5.27110549504564e-07,0.0726031308272796,0
7.07914867751808e-07,0.0648976147247018,0
3.10123063586868e-06,0.114436055423276,0
3.1050856956912e-06,0.0977610245466014,0
2.84179367310471e-06,0.0932286238096596,0
2.78729869898827e-06,0.0833228190509169,0
3.78475716948807e-06,0.0871968599640365,0
4.13512761009252e-06,0.0848160740385399,0
4.66276529532346e-06,0.0889629598790233,0
5.24073777331543e-06,0.0804847397312736,0
5.49133457760664e-06,0.070521485115006,0
5.69716841139686e-06,0.0780803617928963,0
4.90894020511829e-06,0.0785776154475867,0
5.18464189770569e-06,0.0864693289061535,0
5.22376903829971e-06,0.0860264898296578,0
5.11517994683495e-06,0.0933692031894703,0
3.6839976891326e-06,0.0867784242054958,0
3.78913281431601e-06,0.0958114711510653,0
5.02279228786579e-06,0.0670971074471457,0
1.05469095144306e-05,0.0932269417605981,0
9.98820404849463e-06,0.0875361576816526,0
1.00159980472069e-05,0.0897391928165208,0
9.90976784668234e-06,0.092636427881435,0
9.65185246644101e-06,0.0900063697817492,0
9.53869073497343e-06,0.08830438294371,0
9.99063176146711e-06,0.0913848922376532,0
9.51153570778996e-06,0.0880178350610597,0
8.27142582612809e-06,0.0815837304195662,0
7.94550804300042e-06,0.116976868016557,0
3.14916675981763e-06,0.0666253075084873,0
1.38999921674356e-05,0.111667040690705,0
1.42854144898781e-05,0.0748687390631554,0
1.51960512043426e-05,0.0766080988897603,0
1.69530499852329e-05,0.0811308080775614,0
1.68685194030465e-05,0.0772033532730069,0
1.69399244713874e-05,0.0752754273589954,0
1.79285470453293e-05,0.075943811083298,0
1.86302508035949e-05,0.0757097317246787,0
1.85037561450929e-05,0.075301998779214,0
1.82790434491946e-05,0.0870294454935679,0
6.07215780308125e-06,0.0747052907959288,0
3.13451650647551e-06,0.0999362381655633,0
3.1163343095953e-06,0.100034327931424,0
2.752075077767e-06,0.0952773355722348,0
2.53990235596971e-06,0.100682293434168,0
4.56145934277613e-06,0.110837895763051,0
5.11093444825837e-06,0.0874441488732446,0
5.09643817632096e-06,0.0875834522894008,0
4.96629389807661e-06,0.0885327900132877,0
4.44342442738509e-06,0.0829210684095662,0
4.59209303956218e-06,0.0881390674923782,0
4.28610965278487e-06,0.0853480063272819,0
4.34321615468241e-06,0.0861244924202618,0
4.35095413462262e-06,0.0805256922625232,0
4.29719844488242e-06,0.077483176976191,0
2.93677383908688e-06,0.0793909875442499,0
2.14672587409548e-06,0.0911244593192226,0
1.80386311218111e-06,0.0846077676069065,0
1.78861555936643e-06,0.083673150906901,0
1.80326794366598e-06,0.0860108528223069,0
2.23550826880641e-06,0.0818606479637832,0
3.10207141695762e-06,0.0816673943863564,0
2.67187018129564e-06,0.0757719392581649,0
2.68846173684791e-06,0.0840743553974177,0
2.1517322823199e-06,0.0828903466706579,0
2.24843292018396e-06,0.0836077049524244,0
2.56088052683442e-06,0.0750890886562042,0
2.97534693075155e-06,0.0805524278014656,0
2.98768564776279e-06,0.0807459983939055,0
2.91465410643953e-06,0.0794045688508063,0
2.89359330178152e-06,0.0830568854208523,0
2.92399535560351e-06,0.0709111859797284,0
4.58870750069132e-06,0.0760731813680587,0
4.41457670969054e-06,0.071417575343469,0
4.31927555838135e-06,0.0705883815404925,0
4.19114471920204e-06,0.0708619039048783,0
7.31055407927959e-06,0.0924341854260665,0
7.19652733694795e-06,0.0694692401869729,0
7.09097075574136e-06,0.0693576999896745,0
7.20936335628167e-06,0.0677690305883934,0
6.3334110518867e-06,0.0636068354254173,0
6.41146818005117e-06,0.0754903770563167,0
5.75595592300184e-06,0.079117584828962,0
5.36194386904569e-06,0.0751238630132263,0
6.03089875797447e-06,0.0800372763838323,0
6.09830646589177e-06,0.0824651780056426,0
3.43261503509927e-06,0.0724530535158741,0
2.5637205406056e-06,0.0843052421184568,0
2.72522935510691e-06,0.0890810176361036,0
2.84288385513621e-06,0.100273334854259,0
2.54218682124892e-06,0.0776676606242636,0
3.59914738440872e-06,0.0737569997645316,0
4.74506697497233e-06,0.0843111519007365,0
5.25094363872172e-06,0.0919947512388731,0
5.0347089963834e-06,0.0895210496929838,0
5.95439075693041e-06,0.0994257875196273,0
6.48714266104638e-06,0.103225216798393,0
6.50535776938009e-06,0.0794493918538931,0
1.56427769098603e-05,0.100495562220567,0
1.66815922127351e-05,0.0808863641183694,0
1.67900961448274e-05,0.0931374040248716,0
1.54773603929957e-05,0.0985545123170563,0
1.56864915282347e-05,0.101007855643377,0
1.55676270390123e-05,0.100295947448815,0
1.56018471371371e-05,0.0974371241479617,0
1.54561713362707e-05,0.0954288381183203,0
1.45974448234958e-05,0.0937183240884424,0
1.41398310304999e-05,0.117630386657593,0
3.90088582507989e-06,0.0878995557342772,0
1.47335698310519e-06,0.0978037075480819,0
1.46528231189253e-06,0.0970982358702465,0
1.46338189249512e-06,0.0976036714892956,0
1.50221014657982e-06,0.0975575442299339,0
1.61645274700573e-06,0.0988160271847674,0
1.80194746038436e-06,0.101209295889789,0
1.69025585276393e-06,0.0925802504922433,0
1.98203348813217e-06,0.113411242740914,0
2.05677484655022e-06,0.0863435971912746,0
7.12595570973153e-06,0.128351778010998,0
7.00696880884392e-06,0.0983396417285368,0
7.30683839985724e-06,0.100379990178539,0
7.69601049704081e-06,0.103287640152467,0
7.80941531550304e-06,0.100573988419256,0
7.83097500097052e-06,0.100473020201942,0
8.09294062094922e-06,0.101912460564539,0
8.19056569971206e-06,0.101566475211027,0
7.5587174880452e-06,0.088001706316941,0
1.28552340189365e-05,0.102233104293009,0
1.08890345704557e-05,0.0807490225614187,0
1.11358973059513e-05,0.0922566901227794,0
1.07273252881082e-05,0.0906373181754543,0
1.01890179779967e-05,0.0870779091798618,0
1.05551439285255e-05,0.0917590211048193,0
1.06993743877903e-05,0.0913732639971737,0
1.05723175511509e-05,0.0907483489895238,0
1.04157761562457e-05,0.0885639382669972,0
1.02227962576164e-05,0.09638085562203,0
4.13991208304781e-06,0.0835721216080394,0
1.77288056977289e-06,0.0817500258583161,0
1.56784047815966e-06,0.0790064254863382,0
1.61635740639224e-06,0.083365205664235,0
1.70363889675995e-06,0.0817323378327449,0
5.98051282223534e-06,0.0570149114527777,0
2.92784489072161e-05,0.0856079896331682,0
2.89883886656801e-05,0.0699811198637938,0
2.92881105892366e-05,0.0699282138812665,0
2.88082125852502e-05,0.0670524553062496,0
2.85012528253525e-05,0.06318620755707,0
2.78820719716858e-05,0.0591452107489215,0
2.70031139913112e-05,0.0557346388298873,0
3.03507660177164e-05,0.0539842105676806,0
2.71384989252476e-05,0.0431777315604209,0
2.96779463612702e-05,0.0511543320090563,0
2.10063481989805e-05,0.0475879808254556,0
2.1824454559253e-05,0.0568775239563439,0
2.19811996579028e-05,0.04826449717436,0
3.17897870417525e-05,0.0521043370720891,0
3.05516995176071e-05,0.0500563381448737,0
2.75927341247154e-05,0.0448424195091343,0
4.39321054672659e-05,0.0525614318507435,0
4.8740107112681e-05,0.0437918695873031,0
5.13210422376492e-05,0.0375861690799649,0
6.38426496955268e-05,0.037336189700806,0
5.52354013172559e-05,0.0345321061894678,0
4.31944848162982e-05,0.0278879129101766,0
4.34113967084745e-05,0.0281178707197279,0
4.72021085622391e-05,0.0309280760855289,0
5.42615977369141e-05,0.0327313737071832,0
5.97798634333264e-05,0.0339469316868239,0
4.78294732394931e-05,0.030573208375892,0
4.33754330925578e-05,0.0344939562392382,0
4.21290989999678e-05,0.0492445744545048,0
2.76362703740613e-05,0.0575109610891921,0
2.85387976905996e-05,0.0568214403952106,0
2.37760863881849e-05,0.0581803977905862,0
2.15790753647439e-05,0.0697173793099172,0
2.31643027191198e-05,0.074664339875007,0
2.8189743708135e-05,0.0579662529773218,0
3.60611333426033e-05,0.056980901642666,0
3.0542496228205e-05,0.0546551498945735,0
2.7815391630568e-05,0.0548371437085009,0
2.92776329083727e-05,0.0578587014836644,0
2.96355083442394e-05,0.0583057874479813,0
2.96874096274776e-05,0.0673806856059222,0
2.89357976625568e-05,0.0701217993074221,0
2.9207535774342e-05,0.0686913087150271,0
3.03829604435022e-05,0.0718194125607848,0
2.17268706790002e-05,0.120712222886782,0
9.6644084621848e-06,0.0683910346934562,0
2.29767336370787e-05,0.0769981498490833,0
2.29270325279151e-05,0.0744709325656632,0
2.2409470325066e-05,0.0735522017706384,0
2.14901524846919e-05,0.0715611811887426,0
2.23762096313265e-05,0.0716602360865487,0
2.36925806386691e-05,0.0721652571343206,0
2.47844175559149e-05,0.0738299164678687,0
2.45974678721641e-05,0.0673124272654984,0
2.41407782043696e-05,0.0658773924395564,0
1.92733348434213e-05,0.105948126592387,0
7.13620703556279e-06,0.11204320252107,0
7.3770052240881e-06,0.114846867035375,0
8.76496069481663e-06,0.110522966902456,0
8.86816714568571e-06,0.0990323611999345,0
8.8734516833157e-06,0.0904451055292816,0
8.02850046855094e-06,0.0791132244797813,0
7.40181943400726e-06,0.078875504896549,0
6.28233279175893e-06,0.0883602004594224,0
5.93223700788869e-06,0.0912290131000223,0
7.52720899377584e-06,0.101029383812897,0
7.71901891785689e-06,0.0848231434099652,0
8.79087432091609e-06,0.0959647280126893,0
7.32036532294133e-06,0.0955343327845252,0
7.63167515617789e-06,0.105749494737786,0
6.38854065669273e-06,0.112094437989836,0
5.82204756740106e-06,0.116081512697851,0
6.31166226367923e-06,0.112861168688838,0
6.34378770958403e-06,0.110889925174603,0
6.07477059365193e-06,0.110129204674242,0
4.44832444558718e-06,0.0907499723286303,0
3.99501731753822e-06,0.107231003228909,0
2.78119784681751e-06,0.0816977247558514,0
3.44473655230232e-06,0.0968833618025053,0
3.90573059623775e-06,0.110958182884615,0
4.24276463713639e-06,0.117297087886191,0
4.4337730055299e-06,0.121288578748239,0
3.63583576262142e-06,0.122081093107501,0
3.45606764215102e-06,0.123414884524992,0
2.43814243056745e-06,0.103952779354838,0
2.18758540414808e-06,0.102050776627396,0
1.45327444575192e-06,0.091210965942543,0
1.12550162472746e-06,0.0847560376448525,0
6.33261004866961e-06,0.127221937471921,0
7.08369590388056e-06,0.0885502191008003,0
6.77134292752445e-06,0.0867002993175143,0
6.5049910079307e-06,0.0837292052456228,0
6.37672875971047e-06,0.083208898461497,0
7.90005582616037e-06,0.0839290587487451,0
1.32297291074236e-05,0.0992518410404193,0
6.58166139582264e-05,0.090273721887279,0
8.49784605820745e-05,0.0490100749885346,0
7.98963414925276e-05,0.0491254275834442,0
8.20675142626224e-05,0.0509072132992319,0
8.32359186109471e-05,0.0531323014768198,0
8.18925314832751e-05,0.0523393475971891,0
8.41159035549497e-05,0.0545415784487405,0
8.81012445105384e-05,0.0564951114046565,0
9.11055737249994e-05,0.0588445829773822,0
9.26749218949962e-05,0.0608016464783462,0
3.98471952105032e-05,0.0760626903022995,0
2.59380768627545e-06,0.0848412240068838,0
4.93706884306992e-06,0.105246897720018,0
4.99940487232625e-06,0.0974196353966738,0
7.76375229172705e-06,0.0469526293704951,0
7.58632823231173e-05,0.075568718976255,0
8.84479650946275e-05,0.045465162983839,0
8.57305303871433e-05,0.0443100744051629,0
8.29964412214008e-05,0.0428302422153772,0
8.04554889348175e-05,0.0415914077766885,0
7.62490849819971e-05,0.0395158600533038,0
7.64937192885012e-05,0.0397711164312522,0
7.86307570409193e-05,0.0396459996389673,0
7.64187754891282e-05,0.0384002930900277,0
8.00960661081661e-05,0.0492061930668901,0
2.77033210282241e-05,0.0459878545817422,0
9.99887777744125e-06,0.0796572695375459,0
1.00682150278407e-05,0.0772283406195929,0
1.37394190010906e-05,0.0810995279116262,0
1.43557696276054e-05,0.0694753326021352,0
1.42869582501428e-05,0.0715170498621328,0
1.46177093603977e-05,0.0750314680351002,0
1.41628090654416e-05,0.0836298994534046,0
1.20363891635312e-05,0.0855990824999878,0
1.18431889081198e-05,0.0878754606087912,0
1.11016940187127e-05,0.0855704266044508,0
1.08979306862918e-05,0.0816015453822425,0
1.13508712107401e-05,0.0941411535562451,0
2.37504525489023e-06,0.0621251402203832,0
1.23231215598954e-06,0.0973187779625297,0
1.35269388689543e-06,0.0936298720388552,0
1.44933138528036e-06,0.0908810764868209,0
2.42377117479873e-06,0.102103721567042,0
1.70709724334268e-05,0.138748573928819,0
3.90314413482987e-05,0.0574919409332245,0
0.000229475625663267,0.054752029926313,0
0.000248586907745574,0.0362658923901368,0
0.000246384447627236,0.0338347033708886,0
0.000231981846658717,0.0282975066653681,0
0.00021939186506427,0.0270314106416368,0
0.000199161068637268,0.0243221544178418,0
0.000174634512793037,0.0212798048836724,0
0.000153892193059743,0.018243227933649,0
0.000155985819263286,0.0168141249963129,0
0.000175104192777267,0.0194997456603082,0
9.3066557142185e-05,0.019096057453016,0
8.45525829011702e-05,0.025707155240632,0
0.000104376921141166,0.0334025188658167,0
0.000117780191159007,0.0436592771861796,0
0.000129378418461347,0.0473097519111,0
0.000138020485657854,0.0549668870707686,0
0.000135886216571596,0.0609591360353608,0
0.00014033200367829,0.0737103177160393,0
0.000141753106033847,0.126898470864043,0
6.308819345492e-05,0.152048956959024,0
2.02941916999452e-05,0.127734984595548,0
2.83153579655249e-06,0.0829590521417308,0
3.16976104264924e-06,0.121644176932825,0
3.45686122647931e-06,0.10928798198676,0
4.32311530688019e-06,0.129743989806391,0
3.64340997453764e-06,0.110053413324315,0
3.66983700352676e-06,0.107068801550818,0
3.64406915069974e-06,0.108319307921078,0
3.31134619451163e-06,0.102919141791132,0
8.15544807389139e-06,0.0837614221412762,0
1.42743291704519e-05,0.077393783606726,0
1.39477445555003e-05,0.076571810383762,0
1.33538779764274e-05,0.0767988422757671,0
1.3101826438537e-05,0.0812871948713583,0
1.22447295557185e-05,0.0797225779348682,0
1.2681096519366e-05,0.0817093177585957,0
1.37163507556181e-05,0.0837782397843914,0
1.41501319208223e-05,0.083826258256221,0
1.48210140634271e-05,0.0854077588584305,0
1.06109308153092e-05,0.134531527077366,0
2.25135154260666e-06,0.133718443077177,0
1.87090050705333e-06,0.126508525001207,0
1.65729136210587e-06,0.124633478667977,0
1.73708640443335e-06,0.108982763897134,0
3.14463373983797e-06,0.1201996122185,0
3.02623671953412e-06,0.112503999499204,0
3.86885240496592e-06,0.100512119261664,0
4.29691936838467e-06,0.0838390003289682,0
3.95367990055296e-06,0.0799319692273992,0
3.90784482169635e-06,0.0786257140035374,0
4.11338687216865e-06,0.0803072045939633,0
4.23407672373269e-06,0.0776089834489624,0
4.79659865548458e-06,0.082493540506563,0
4.91221927504246e-06,0.0908988391495726,0
4.28820548887019e-06,0.0950309051976672,0
4.46357097238532e-06,0.0984211770630061,0
3.31482557443334e-06,0.113454843626302,0
1.81188845567571e-06,0.11132889638857,0
1.82251988117132e-06,0.108874627023173,0
1.83505401487046e-06,0.108571184722165,0
1.29531943683335e-06,0.0926874653500737,0
1.06757430960126e-06,0.0962793328099207,0
1.06261257255832e-06,0.0958519195881249,0
1.17228482178753e-06,0.0990184699931606,0
1.1312062766667e-06,0.0944868434735616,0
1.06666139165742e-06,0.0894882135068937,0
1.04366844001373e-06,0.0897048434172261,0
8.28689878688324e-07,0.0858788189088264,0
7.80370577025417e-07,0.0882482165642698,0
7.73501001696264e-07,0.0961575987156847,0
2.41403696130153e-07,0.0573189435357569,0
4.47138400938135e-07,0.079022171146199,0
4.34509479095952e-07,0.075409513505804,0
3.57501807998943e-07,0.0691543336180354,0
3.41462722889043e-07,0.0720899316417312,0
3.96409854600391e-07,0.0723361906152526,0
7.24257574831966e-07,0.0900068361287503,0
7.30269716034556e-07,0.0883087649129251,0
7.1683134606995e-07,0.0880355214476381,0
7.02451329698494e-07,0.0841508849374186,0
7.16917215761564e-07,0.0847580587701903,0
6.11561497022955e-07,0.0826108749609052,0
6.06290534380981e-07,0.085923608019827,0
6.49691980938938e-07,0.0846034805079169,0
6.709087401104e-07,0.0835795572224638,0
6.19978542061191e-07,0.0887493789190233,0
3.29671425161845e-07,0.0636846216368921,0
1.75279747994917e-06,0.120532670058365,0
1.90963436761673e-06,0.0974876181207258,0
3.31321899038692e-06,0.100379545858963,0
3.87242949323158e-06,0.0935148050757256,0
4.2374218533369e-06,0.089590741282302,0
4.54795499205584e-06,0.0838488891874265,0
4.30278636770962e-06,0.081382057866465,0
4.07662264765665e-06,0.0764645269495971,0
3.36929308287636e-06,0.0695586205878399,0
2.99987156723454e-06,0.0584620782314754,0
2.58754481820123e-05,0.0583611623681186,0
4.39605687444569e-05,0.0454247682102407,0
4.43797963386464e-05,0.0468407571707388,0
4.37827231422016e-05,0.0481817784451624,0
4.33940554505319e-05,0.0487606983506447,0
4.34127548386705e-05,0.0490055689755613,0
6.58087839524954e-05,0.0448262429969104,0
8.24719125241221e-05,0.0395386883529502,0
7.78653640954353e-05,0.0363761328554914,0
7.51535203099035e-05,0.0354769047171728,0
6.83242820316142e-05,0.0483065290648555,0
5.74334827127168e-05,0.062883132115632,0
5.74721943955382e-05,0.0641905987042169,0
6.1428432155315e-05,0.0393914537072389,0
0.000163786637507311,0.0409199549106073,0
0.000175906740780639,0.0290563787231808,0
0.000169503741893545,0.0340115873363631,0
0.000162689357966964,0.0359923765914267,0
0.000166340915538813,0.0371039332490252,0
0.000165136439606062,0.0380038025427786,0
0.000165671454508035,0.0379422623334633,0
0.00016529713313204,0.0374387375830865,0
0.000162659771201666,0.0361001165127746,0
0.000164392836252674,0.0505073418893896,0
3.85782577368557e-05,0.0475119861494163,0
5.35663912678238e-06,0.110775360482227,0
5.74796499052337e-06,0.119404626271581,0
5.70684579936285e-06,0.123218655936397,0
5.99970714496598e-06,0.126788392469662,0
6.07776498344959e-06,0.128985051368701,0
5.80516935861356e-06,0.128100588203408,0
2.63849465262845e-06,0.110130342691778,0
5.31727623915816e-07,0.0671518566229461,0
5.51402201309572e-07,0.0707494457616031,0
6.34114208648421e-07,0.0788149665443911,0
5.46187827425765e-07,0.0792575091519014,0
2.96332517392553e-07,0.0586242053880609,0
2.97007873046179e-07,0.061354524417615,0
3.61350396024855e-07,0.0659528560558341,0
6.76088466205034e-07,0.070888101593348,0
1.29972933482871e-06,0.0799465202271075,0
1.42615012014017e-06,0.0813970660685812,0
1.40579553055621e-06,0.0795094671278569,0
1.56723678581485e-06,0.0825660427103546,0
1.8062935875058e-06,0.0888376297445224,0
1.84842695654982e-06,0.0911332905763954,0
1.85283788056172e-06,0.0929200552863823,0
1.89554755520148e-06,0.0947622187423908,0
1.91766318378268e-06,0.0969821831274618,0
1.50187669120567e-06,0.10756998872004,0
4.26907485808912e-07,0.0675256868759487,0
4.87993669075899e-07,0.0717186475012764,0
4.16022239607204e-07,0.0712543146230367,0
5.10812671454588e-07,0.0837830992307703,0
7.31980401297187e-07,0.0744382610571468,0
2.08023092627332e-06,0.104365850034177,0
2.10767410625466e-06,0.0963469075376791,0
2.16140304064058e-06,0.0963393888349518,0
2.15399070256397e-06,0.0940990704806046,0
2.109977829075e-06,0.0916409253686069,0
2.17891627473942e-06,0.0937215475420403,0
2.14301682431844e-06,0.0950459257535775,0
2.0030141056517e-06,0.0905585387007652,0
2.16141314295724e-06,0.0820567229605093,0
3.20047390055724e-06,0.0965168321449799,0
2.71069598872552e-06,0.0949054388528829,0
2.78019834886291e-06,0.100983274159817,0
2.7828928261347e-06,0.101623132224764,0
2.79834424054262e-06,0.102784895676861,0
2.87605986304935e-06,0.104814835323518,0
2.87918242598964e-06,0.104447217295216,0
4.79413771536121e-06,0.099324824272553,0
8.98621879303873e-06,0.121168392542878,0
2.593129883967e-05,0.0400317215998395,0
0.000190251693510529,0.0538923483795175,0
0.00020974646553152,0.0393452041503912,0
0.000197588036988983,0.0379672249860153,0
0.000208402073144416,0.0230192729658267,0
0.000411307494735688,0.0227719827393742,0
0.000389982149550812,0.0166630275882149,0
0.00035155522704311,0.0158615364980547,0
0.000330693445363272,0.0127905133807084,0
0.000374458554800678,0.0113532393646604,0
0.000358829267956231,0.0110103379679951,0
0.000359093308023797,0.0124062989406466,0
0.000376128339255822,0.0137738403027339,0
0.000358758415042635,0.0129906574520274,0
0.000339207081176679,0.0160450080790346,0
0.000208500149354757,0.0154619365672663,0
0.000223382385351332,0.0232013063870873,0
0.00021435538105928,0.0190599120189524,0
0.000213918941327382,0.0193331641776329,0
0.000280973070766073,0.0256578851942426,0
0.000368079034644596,0.0155196339484896,0
0.00179968275081678,0.0214499260410463,0
0.00212419468364039,0.0124096033548606,0
0.00202052541841619,0.0123318660968975,0
0.00189805424429724,0.0114257881960187,0
0.00181153895379756,0.010823084053248,0
0.00173179034519013,0.010381984201359,0
0.00157408323512591,0.01003025062954,0
0.00135126888607166,0.00960097144231653,0
0.00147168589142606,0.00888119143316546,0
0.0015423181259128,0.0097021108600842,0
0.000925554636263272,0.00990952539719011,0
0.000714154491105701,0.0112891073247014,0
0.00115347239669684,0.0121240883206531,0
0.00139462226225535,0.0137789729027496,0
0.00150115496402439,0.0114472848019673,0
0.00322946104537518,0.0133002381512429,0
0.00304414544993823,0.00886518394804797,0
0.00400419535470024,0.00639683866899168,0
0.00683355150342821,0.00983598940716981,0
0.00871913756952621,0.0130116256770237,0
0.0110057764664233,0.0148102781504703,0
0.0108099510671232,0.0114253638903729,0
0.00994402508321206,0.0108935492615435,0
0.0129407094831913,0.0105257730286753,0
0.0135251198269535,0.00558677277328091,0
0.012984763359458,0.0050692652063984,0
0.00930907485379681,0.00252511708695933,0
0.0109388410480449,0.00345977387611757,0
0.0122134246061611,0.00338417452845528,0
0.0148385125746622,0.00315811414139174,0
0.0237428054014168,0.00515457121434383,0
0.0257473159566847,0.0036871135185969,0
0.0263285034984534,0.00380434627115407,0
0.0255952425376776,0.00393861881932889,0
0.0242548922427137,0.00434873463323099,0
0.0246383557238247,0.00334894202633538,0
0.036698930954167,0.00638849690572003,0
0.0358486417253957,0.00698366604956653,0
0.0305911711491724,0.00584342986385228,0
0.0322872872510196,0.00657885834760094,0
0.0359778833199744,0.00488135990495569,0
0.0413787278382791,0.00663765748412754,0
0.0368206030224102,0.00615807448707507,0
0.0362494207407942,0.0060783819310887,0
0.0327872661996659,0.00591841306643251,0
0.0321831887851626,0.00718184516561803,0
0.0282894779801399,0.00703885916809411,0
0.0228997247897721,0.00564425919958123,0
0.0202394927815228,0.00526893149101168,0
0.0126260456637758,0.003713266020415,0
0.0128416329199869,0.0101687877520305,0
0.0120122107050274,0.00791263136480661,0
0.0140190799904666,0.00457698538917529,0
0.0174693587456679,0.0059134159782135,0
0.0124727459490947,0.00428446789027589,0
0.01254150937528,0.00467449989665153,0
0.0118815357710307,0.00350110233074208,0
0.0135687279514412,0.00377407105392436,0
0.0144031280790678,0.0027896037927187,0
0.0161164943758649,0.00313573034851682,0
0.0162699416386691,0.00292682475590493,0
0.0113694070711794,0.00222056972139196,0
0.00983257074767702,0.00365157747908942,0
0.00890030198358803,0.00307590653184542,0
0.00894996096932708,0.00301322611494464,0
0.0085277573649266,0.00279827600132564,0
0.00988710003746897,0.00429453740610423,0
0.00674584361637308,0.00343724152792694,0
0.00626889028615844,0.00669514224202711,0
0.00671757600337672,0.00687579280748229,0
0.00842276838514394,0.00480194848566952,0
0.00914350216016784,0.00320422457613922,0
0.00978774348579601,0.00354630457333282,0
0.00955370123061372,0.00357438200329091,0
0.00895510219170455,0.00323445341092533,0
0.00914118573250043,0.00326043470192157,0
0.00932282141387299,0.00328634307105286,0
0.00929114652371451,0.00276268686414792,0
0.0106761634830844,0.00324977836712873,0
0.0126677594157339,0.00398810654957622,0
0.0114809628716995,0.00662860306260524,0
0.00727538022396437,0.00848526896105095,0
0.00836352731803599,0.0113250372138261,0
0.00762655176944048,0.0132915641344887,0
0.00761893027489392,0.0149563003312772,0
0.00741601246415297,0.0181169687874727,0
0.00252659519236831,0.017335224034006,0
0.000629569569505035,0.0569376735520221,0
0.000258612354221211,0.0572198490275317,0
0.000181648119928868,0.0347414704531085,0
0.000298359346446943,0.030638515418364,0
0.000363247756314502,0.0324087846797138,0
0.000368072183300791,0.0314938227294788,0
0.000350252309164585,0.029921835825624,0
0.000322017420728873,0.0249259873913958,0
0.000289838003591941,0.0184829491233107,0
0.000483707871726762,0.0152262245203852,0
0.000524754172857316,0.0119246421176806,0
0.000506616674624264,0.0121432828532874,0
0.000463739101612563,0.0110331932839316,0
0.000642988819177951,0.0142138031987466,0
0.000997466097512102,0.0163285757074823,0
0.00146188245590801,0.0151691700222687,0
0.0020220295858077,0.0136678765526498,0
0.00180315629230978,0.0116823475423311,0
0.00243094464928045,0.0117027956365578,0
0.00266793496527297,0.0114480204327699,0
0.00265285352366727,0.013023824300042,0
0.00251066130141901,0.0126575284548651,0
0.00182664632331466,0.0079008878821063,0
0.00187171824862526,0.00761660562003487,0
0.0019485691657841,0.0064062681362079,0
0.00185488124624032,0.00655484318955892,0
0.00227790401837571,0.00840521707814413,0
0.00233373332415573,0.00722234055682484,0
0.0020433612683021,0.00749708366560239,0
0.00198607518446663,0.00807441449312535,0
0.00205493687975333,0.00744416614533128,0
0.00193009376849928,0.00635564528657817,0
0.0017493577498051,0.00696170661722129,0
0.00169940040074623,0.00666619529033365,0
0.00180738005946151,0.00967546482969794,0
0.00181112008420422,0.0100188147388206,0
0.00154682350216571,0.00852465991744252,0
0.00146892660076862,0.013054872086803,0
0.00139104734156801,0.0127762775552229,0
0.00142395441570933,0.011703086551599,0
0.00134182715453072,0.0119989432163154,0
0.00100612458349876,0.012342512874063,0
0.0009949130952927,0.00875561684899317,0
0.00103993144722881,0.00908481857464948,0
0.0010145139875726,0.00839248532546713,0
0.000989234423276017,0.00975924900040127,0
0.000919426538144473,0.00991554200793495,0
0.00101113005497009,0.0106170605557049,0
0.00109498279885859,0.0125790206376944,0
0.00101542799759266,0.0115687364171354,0
0.0027585275821098,0.0167022399041286,0
0.00297922622547927,0.0105009124788511,0
0.00262134394781863,0.0106144696511756,0
0.00279799334928023,0.0126146317283797,0
0.00496852395290968,0.00685811697011047,0
0.0149957312769413,0.0135893259765209,0
0.0190547276145584,0.0136689178023225,0
0.0251520951023966,0.014531441824903,0
0.0314024834595876,0.00973915698391322,0
0.0749006567892353,0.0112755299589227,0
0.0929288691390008,0.0114596648211495,0
0.106297829667026,0.0101036060460633,0
0.087253151014374,0.00845651660378262,0
0.070203847087307,0.00663687333182677,0
0.0709321432147587,0.00656406177736123,0
0.107596915538662,0.00909288540218696,0
0.125692145837209,0.00885315593070712,0
0.10521963147836,0.00721687185849079,0
0.0865363495993374,0.00661151928245168,0
0.0912085125801011,0.00663243522422996,0
0.0977430150026752,0.00351468632029848,0
0.139910383961037,0.00571425959178473,0
0.119802913422547,0.00535297884814136,0
0.100000201700763,0.00287493315926202,0
0.113257944568986,0.00345313739700034,0
0.119818825073483,0.00203314866395825,0
0.161513946653777,0.00320555805747289,0
0.162348991290581,0.00299499760056562,0
0.163300638603799,0.00299733958850826,0
0.129459453110414,0.00163978010006121,0
0.161236733020618,0.0039088131567135,0
0.162360477420367,0.00300802874966216,0
0.15321725288733,0.00255679754988039,0
0.164370317686879,0.00357231258269104,0
0.155074579756214,0.00342058959441323,0
0.152857179783947,0.00576063646045164,0
0.102848883409997,0.00375928552556545,0
0.0854085650274405,0.00286773315228374,0
0.0698181909244098,0.00175294494386531,0
0.0842829441253706,0.00388931826559112,0
0.0813824184124028,0.00383061724786696,0
0.0967246083156267,0.00543306970971927,0
0.0974608401470599,0.00611057846822836,0
0.0754675655178256,0.00492975200265229,0
0.0797814171338681,0.00466223243970038,0
0.0921748884570584,0.00535430025597889,0
0.105677095424324,0.00593111772413981,0
0.120477839041389,0.00701713190959401,0
0.130130141498083,0.00908354418289987,0
0.13339892161331,0.00756496996373782,0
0.205467759250769,0.0102093082108348,0
0.208635900709269,0.0102744093341859,0
0.213924612654304,0.0105307551983482,0
0.19456676079082,0.00952280734892397,0
0.196340145833903,0.0100640521315892,0
0.194882310585538,0.0100118295590696,0
0.162489477497204,0.0104205170722742,0
0.112965295120659,0.00798967098153047,0
0.0511533790406953,0.00376979524923122,0
0.00328853744890455,0.00141698828476051,0
0.0044273271590084,0.00487871885060062,0
0.00576321118583924,0.00628546992105715,0
0.0123618664907826,0.0100715957421269,0
0.0175220732727372,0.0108773159607936,0
0.026349809971248,0.0110565127763409,0
0.032114665598934,0.00913672261497834,0
0.0278788560189052,0.00788690647849834,0
0.0291813209855549,0.00696699042498252,0
0.0256448181343962,0.00468583871823873,0
0.0179395492100615,0.00329245606702077,0
0.0161940696940041,0.00307655733727306,0
0.0129202144678541,0.00240768934511348,0
0.0170167470220303,0.00276661010435797,0
0.0293470144230986,0.00524730554834555,0
0.0354980158632626,0.00654677692599537,0
0.0437527793540877,0.00850086992461841,0
0.0375777063004411,0.00570328177927106,0
0.0362587287937456,0.00546400265883097,0
0.0326869042012734,0.00650479489022861,0
0.0246510463988398,0.0043061648086152,0
0.0248241833981954,0.00277787972515071,0
0.0433135164357219,0.003144422902152,0
0.0466378661156705,0.00196596044161582,0
0.0494090161749758,0.00202182952733109,0
0.051712484708643,0.00209877519547376,0
0.0524114868407482,0.00194768803750287,0
0.0538477595601595,0.00228287998101888,0
0.0533745480105176,0.00244958681797745,0
0.0592663336358374,0.00250939615298785,0
0.0644287772370733,0.0026961919501609,0
0.0652448645986128,0.00291273945998892,0
0.0404872205150888,0.00186911052151058,0
0.039792359826199,0.0035373708743268,0
0.0416112132862126,0.00369226535566428,0
0.0473623619710832,0.00408640187720745,0
0.0643279863984955,0.00608002798937178,0
0.0803993764421597,0.00691277959340854,0
0.0903032314699074,0.00729797681421648,0
0.0988432765006561,0.0085659399166411,0
0.107423776601004,0.0110988100620424,0
0.0831134144168536,0.015901205362633,0
0.0353258766488876,0.0149569426666003,0
0.0260721811185099,0.0150850202078232,0
0.00859038402678385,0.00731478710091577,0
0.00357265194513568,0.0611347305766284,0
0.00309604909135705,0.0725080021345789,0
0.00232507301541123,0.0683462080880073,0
0.00176541841401585,0.0638934461823736,0
0.000690640991077499,0.0486561069128925,0
0.000108895122600775,0.0556952775292825,0
5.07853968879778e-05,0.196719611062643,0
4.73660281999022e-05,0.189628927837925,0
4.38785170971454e-05,0.14126307763231,0
4.27893759988852e-05,0.14127083333028,0
2.61197259872324e-05,0.116917683370305,0
1.81973848451407e-05,0.114627212556062,0
1.59755869985296e-05,0.102917470481502,0
1.58348971644812e-05,0.0831545494323229,0
1.60609623080224e-05,0.0768013390883486,0
1.76726026428533e-05,0.0792248420846408,0
1.89884242578031e-05,0.0830075107363571,0
1.72191655264017e-05,0.0903302383003961,0
6.61093842251309e-06,0.0718130514826785,0
7.47323113199346e-06,0.0826250750632714,0
8.36346740182728e-06,0.0871838031396203,0
7.9816475812908e-06,0.0819558166523329,0
7.89130280016882e-06,0.0852041026798445,0
8.14214655874779e-06,0.108747224919737,0
4.10728822987965e-06,0.0855228311112345,0
4.1837355380994e-06,0.090319782137557,0
4.59918265597609e-06,0.0940738887308008,0
5.27043203357639e-06,0.102146914906462,0
6.52840115368273e-06,0.119134794625161,0
5.49057729847886e-06,0.114826552049832,0
4.83746157928418e-06,0.10683939465153,0
5.07329384777606e-06,0.106900641771032,0
8.23834744763455e-06,0.126341853737987,0
8.7546088982892e-06,0.136474305717674,0
6.80859774578928e-06,0.132641856585211,0
5.58449601089252e-06,0.120522800940037,0
4.43212948488818e-06,0.108803698697672,0
4.12645477123947e-06,0.0968512258416102,0
9.47798023160725e-06,0.130737340466313,0
1.71615693778435e-05,0.175623697455561,0
2.08768597820756e-05,0.160468719179664,0
5.15178270791394e-05,0.0726667081062781,0
0.00022137639769191,0.11253200012082,0
0.000579497263343611,0.129955659484762,0
0.000838034199982582,0.105783589713011,0
0.000961669923390032,0.0947815906256225,0
0.0012471038086956,0.106770089351329,0
0.00150662800330653,0.120756986786765,0
0.00343564474196458,0.00981013687179426,0
0.017074674584979,0.015769331956867,0
0.0318984440264678,0.0210753180550585,0
0.047276065163228,0.0269884529617975,0
0.0561810593269006,0.0271963805035108,0
0.0557673774038616,0.0278655090612993,0
0.0494194937151177,0.0126914819349824,0
0.0428912991897212,0.0111367959358133,0
0.0345208919027297,0.00939038928028336,0
0.0301641952053303,0.00793898413400763,0
0.0282932809360804,0.00900874200248463,0
0.0351744553486273,0.0123686461443115,0
0.0381565571454279,0.0132656893828499,0
0.0291517619031304,0.0100868070995482,0
0.0188276986362135,0.00701886107071721,0
0.00896440146353292,0.00293916283437082,0
0.00512415198607946,0.00402403872211847,0
0.00539196370653122,0.00526401228390636,0
0.00313260144858448,0.0033074515550988,0
0.00385571242081457,0.00461536665492181,0
0.00300816664574095,0.00371089186074824,0
0.00337646572494297,0.00500515615036688,0
0.00338558691052875,0.00680152190190775,0
0.00236701963168775,0.00695424615737605,0
0.00246004967179648,0.00798691950921921,0
0.00180177153485367,0.00666448102869863,0
0.00131466850116803,0.00423409343666448,0
0.00156060868876534,0.00493210928542658,0
0.0015656661862993,0.00598841203844038,0
0.001839829138842,0.00794257285605709,0
0.00166945826372973,0.00869020457607693,1
0.00166353179838056,0.0100614612567289,1
0.00156484063942496,0.0101707886049669,1
0.00157553792073902,0.0108616240407092,1
0.0015261443661881,0.0122803886270226,1
0.000793959761318475,0.00815342602570789,1
0.000768012453463872,0.0141304120471225,1
0.000721352295043993,0.0147928506210469,1
0.000776825837640492,0.0146068310674953,1
0.000745689506402954,0.0142576145551616,1
0.000651552115849104,0.0132006887513935,1
0.000635255438317399,0.0117974592066519,1
0.000972120666979062,0.0129613179554794,1
0.00143318814781127,0.0173980494888304,1
0.0023563273946656,0.0201223305688526,1
0.0047746860444007,0.0350553538664156,1
0.0151904024700678,0.00760469405886872,1
0.0512332469956251,0.0180593796701836,1
0.113343536280757,0.0189871227532784,1
0.17404177336858,0.0212801245741479,1
0.221954202218256,0.0246728416058873,1
0.210690762192829,0.0117613282440595,1
0.19333846820796,0.00665108710613571,1
0.255337846992333,0.00713746455301701,1
0.204627978532607,0.00496672105938573,1
0.153924751812951,0.00381559753199457,1
0.103769102983077,0.00261752617552984,1
0.0959107163832299,0.00244899162505101,1
0.091172840273246,0.00231052891965171,1
0.105874030969017,0.00224784087865057,1
0.113346276711573,0.00196632309400087,1
0.131646297152265,0.00237970923315905,1
0.104283944273417,0.00216825176288449,1
0.108782351588401,0.00278315387964573,1
0.105336497380817,0.00254734380688587,1
0.117452517696792,0.00286627355819291,1
0.116175328346564,0.00277615632632454,1
0.150371453337865,0.00319350875071341,1
0.183965669360044,0.0033589150646877,1
0.178238942478044,0.00349582203681287,1
0.17343050757339,0.00375718158463497,1
0.111190919133995,0.0024225778128585,1
0.110439746739182,0.00287419481281203,1
0.107395602223787,0.00290179564798022,1
0.110707956772197,0.00415451750159404,1
0.134350897503194,0.0047599039614942,1
0.141934279190201,0.00464361190320154,1
0.108515990772849,0.00508018976274271,1
0.0681075501204963,0.0028761352375498,1
0.0946155685422163,0.00376691512476307,1
0.0845563908179795,0.00324970965174865,1
0.113534498253393,0.00454838672976886,1
0.135402637168583,0.00508895128168907,1
0.171130908826119,0.00561875475928874,1
0.176258741293571,0.00568460490125061,1
0.167092104030404,0.00552451445127034,1
0.268325301233743,0.00756571719845264,1
0.383388475295463,0.00921421714137271,1
0.404835583940453,0.0159999597094628,1
0.296547918760455,0.0137716228799954,1
0.248770679241845,0.0132918606278905,1
0.240115564371421,0.0133083128534053,1
0.203634965371011,0.0118420226541614,1
0.166144128114997,0.0137441850104547,1
0.0648120946534443,0.00549725080436377,1
0.00597159248301698,0.000287860564915616,1
0.00596808519347239,0.00683303044236148,1
0.00874921154872046,0.00658356917163838,1
0.00942933459993935,0.00703804855302434,1
0.00888618276925488,0.00653290338646882,1
0.00879434089907164,0.00753066813646034,1
0.0126349179681358,0.0102815210717679,1
0.0211832893948883,0.00830366769609791,1
0.0440201708595228,0.00932713780868323,1
0.0391360872972106,0.0073440000259871,1
0.0385143073729452,0.00714484821016889,1
0.0389031845882409,0.00772961904648217,1
0.0444898013689201,0.00970072076942992,1
0.104017797986479,0.00773855987070974,1
0.180695143344536,0.00811432280181974,1
0.163657536470052,0.00777170855660709,1
0.14834868898681,0.00747767761466702,1
0.176541043963933,0.00750301091690545,1
0.193222173020176,0.00417394169234272,1
0.179085684838604,0.00245980638931071,1
0.176875692981645,0.00212739760418501,1
0.156096402324521,0.0018235158811691,1
0.14605206364572,0.00161483238499363,1
0.135708889927873,0.00191508261034322,1
0.114926958989485,0.00156558320892081,1
0.126571656147935,0.00163893313537633,1
0.128874208553568,0.00150897558167208,1
0.095933924206808,0.000911172052979665,1
0.0738882671662956,0.00164776900820426,1
0.0544337964181815,0.00351062485621314,1
0.0332389159653208,0.0033282021717954,1
0.032317124939237,0.00287238228435544,1
0.0312970180075912,0.00293160473948496,1
0.0320404193487415,0.00296467075122749,1
0.0268485151007919,0.003416615672076,1
0.0321352699598524,0.00657097594821746,1
0.0522853809890815,0.00830169085931842,1
0.112732993765348,0.0136846854599503,1
0.150132067645784,0.0167013356614795,1
0.155054335202958,0.0205513935464944,1
0.134513545083662,0.0213687385680833,1
0.13374559440176,0.0222990943178416,1
0.111216337677519,0.0198461926001723,1
0.072575223950851,0.0154372906816356,1
0.049160842689544,0.0113445168065741,1
0.0228912346592083,0.00638957117710506,1
0.00319266267882124,0.00621257378053338,1
0.00289693567534747,0.0134624498598931,1
0.00237360135263199,0.0225388907690805,1
0.000238428613201348,0.0129987884176126,1
6.94858868105072e-05,0.0207722945108327,1
0.00168449462982451,0.010398996446591,1
0.0124830743063533,0.0117757703202015,1
0.0319623620785132,0.022139756831971,1
0.10925557831038,0.0126458018227412,1
0.233054966838753,0.0227695982073885,1
0.292661026685329,0.0154443472785693,1
0.28981240609077,0.0162792873884089,1
0.266038448840247,0.0164674075248571,1
0.220150618457624,0.0124343506686826,1
0.168545321737836,0.00587956157426541,1
0.239120477882254,0.00670014056137141,1
0.22756557693903,0.0029936690968617,1
0.179350271021623,0.00251883922677429,1
0.173931861362964,0.00252119949306658,1
0.199512958176251,0.0028938621342095,1
0.19956058538872,0.00282913173849196,1
0.196257192529652,0.00268398776779853,1
0.2172541280583,0.00299407673653189,1
0.196122504269073,0.0021715857526893,1
0.192291766326144,0.00293963690256186,1
0.149655271693484,0.00165308588572145,1
0.239572701049089,0.00509321289724636,1
0.254752933654145,0.00421803158948304,1
0.260115013321057,0.00490455090384967,1
0.202581385339367,0.00363676580710568,1
0.190340767227008,0.00387113627874494,1
0.21216543193339,0.00460866979798795,1
0.215546908756558,0.00438195947001516,1
0.217035074244533,0.00531463059561907,1
0.192893119116721,0.0033078563965439,1
0.248671733958798,0.00641632139835854,1
0.153008536921238,0.0037995861031539,1
0.114734012821939,0.00363635532194046,1
0.085555564586002,0.002612282749815,1
0.0866277669038781,0.00312430847276985,1
0.0957305262145668,0.00292114310010782,1
0.0893707768433964,0.00273379015285867,1
0.0902309018463063,0.00330644166232207,1
0.105065605838748,0.00204682396798068,1
0.162308900258831,0.00628483778646757,1
0.159568494176752,0.00773427882805602,1
0.15065729724716,0.0054031866033761,1
0.146052307411385,0.00513023456501292,1
0.129239389564966,0.00423555521887326,1
0.167375259881502,0.00511050118883105,1
0.193356588158784,0.00436894747423767,1
0.185810026019417,0.00363437782470577,1
0.23682133213107,0.00381891340572808,1
0.316681780125335,0.00727479698837418,1
0.349842779067102,0.00761290018578861,1
0.349619700838196,0.00739721780619879,1
0.368672473182198,0.00823363373621694,1
0.355832424589354,0.00845440694379054,1
0.308630051374831,0.00783904454309425,1
0.308506014318979,0.00819467256723801,1
0.266137108670656,0.0136622069871223,1
0.0653853037338077,0.00610358235929618,1
0.0240884020946482,0.0242737679603271,1
0.0095247537008467,0.010672259703175,1
0.00291538543721451,0.00911104688312392,1
0.00344699390485779,0.0123316332680666,1
0.00890800050387936,0.0104804833553583,1
0.0209761498524546,0.0131518215154843,1
0.0800957401551038,0.0145597487605244,1
0.13037063479877,0.0184201072471681,1
0.17015355524056,0.0184648413874655,1
0.205622338419357,0.0161182983632317,1
0.228670522297838,0.00974446022002596,1
0.186387538565371,0.00826249024814233,1
0.156766380735581,0.00756726766813207,1
0.167457863193991,0.00604549833925127,1
0.228092630975938,0.00744113193816017,1
0.188521160570229,0.00518052482688968,1
0.175498793682002,0.00520560062329995,1
0.165466626176764,0.00486682371878082,1
0.156298522332664,0.00433823449003381,1
0.152313979377615,0.0049851478352915,1
0.149030401110893,0.00527637886139085,1
0.11035084973724,0.00323075933853583,1
0.103138192144932,0.00273922596154905,1
0.103857872686832,0.00345813448868791,1
0.0868311554660013,0.00290408452537685,1
0.105685741412245,0.00411970041541064,1
0.112433723728518,0.00377584625750245,1
0.111706984781311,0.00382233567379878,1
0.130020813585686,0.00435989196972888,1
0.166978319866558,0.00517436209354629,1
0.160856239228035,0.00450091069017579,1
0.108957302056751,0.00363879874302775,1
0.108969518330527,0.00396287004319375,1
0.0952389624821238,0.00305881953570109,1
0.10708152169643,0.00304683290662404,1
0.107387103467818,0.00289161052201552,1
0.108664151263359,0.00345075573011752,1
0.116595357810639,0.00380629365357362,1
0.134917299219557,0.00469515375851374,1
0.137075515228929,0.00476097853225169,1
0.115741589277161,0.00709260241188181,1
0.0948952408004109,0.00551133961656073,1
0.0496160328921808,0.00278048812498022,1
0.0454784420121181,0.00750038401241058,1
0.0528588232382534,0.0118629358513561,1
0.0440851600343165,0.0107472737640028,1
0.0375835370277138,0.00883485309462954,1
0.0342354212619602,0.0106446512361707,1
0.0345143237504595,0.0106688088293042,1
0.0256968289788371,0.0113839897463913,1
0.00548376345202709,0.00466943789561695,1
0.00257605068935275,0.0171535203063673,1
0.000594994207235302,0.0137572038698661,1
5.36250191943953e-05,0.224259516044242,1
1.7381701304531e-05,0.182920631659982,1
9.33755684616083e-06,0.193871528006346,1
6.98850682514682e-06,0.148457340891146,1
9.38407351569463e-06,0.163534667012682,1
1.52689886678419e-05,0.210383382002514,1
2.2071155657682e-05,0.204354636907115,1
7.00427595741371e-05,0.182740969521293,1
9.38761470127396e-05,0.125349358209804,1
0.000109678261765036,0.0963002126677865,1
0.000144471328879879,0.105592837300226,1
0.000161331049717585,0.112146946488158,1
0.000181465631759636,0.119227804690418,1
0.000215479282650682,0.128772391155598,1
0.000242962871267272,0.131809992623663,1
0.000248862963019245,0.127550113369457,1
0.000284634953142322,0.132223778980293,1
0.000382926207315301,0.167500524958457,1
0.000511465267851567,0.318483653489103,1
0.000646933394365614,0.455264281706334,1
0.000817132325838439,0.647337210290299,1
0.000991908623935487,0.484393428717394,1
0.000903387456191548,0.103839022460222,1
0.000751010565801853,0.0838980269021712,1
0.00128138679966102,0.0104825825472483,1
0.00364262831094301,0.0184707392330365,1
0.0104320660772218,0.00658559673414827,1
0.040602639677168,0.0141794715343045,1
0.0787912321659385,0.0147178191711956,1
0.16333074555001,0.0228254060091063,1
0.21999435827491,0.0182550498471268,1
0.270771624860664,0.0105385194344412,1
0.46341883095981,0.0148511527574497,1
0.440128071638246,0.00624538925943886,1
0.365049853687347,0.00551143137317707,1
0.3041954880114,0.00400260816230843,1
0.235504319453065,0.00278530621441551,1
0.196839958011927,0.00223608527340023,1
0.190004877399198,0.00208732520901015,1
0.220602156521254,0.00255709074585185,1
0.217481964459568,0.00188120153255345,1
0.21851957752299,0.00258507362711397,1
0.1927332433114,0.00198522985436363,1
0.184679758549459,0.00356242913881292,1
0.121104917077719,0.00226645867056902,1
0.108606255906912,0.00291485988776331,1
0.113605050013377,0.00209888592478332,1
0.181648559512314,0.00378962991849275,1
0.243410129685706,0.00529930831417167,1
0.233809310568281,0.00448829517335845,1
0.225810926618438,0.005008642449086,1
0.234097727986156,0.00548943755918269,1
0.203678239761679,0.00558123669352576,1
0.195312448993077,0.00486560094392384,1
0.159238264048886,0.00354644896490934,1
0.141832694925775,0.00268154182210584,1
0.129190557923682,0.00366197264272339,1
0.118491725807178,0.00338180428765934,1
0.114628404326821,0.0032427304551589,1
0.106042223224058,0.00312565912031637,1
0.109422490247688,0.00393528558482195,1
0.0826969648725344,0.0028091560157571,1
0.0838295465448877,0.00282707731438442,1
0.0776461295114449,0.00430923844464171,1
0.0854180515075088,0.0023058963733687,1
0.166596277107466,0.00549975910041606,1
0.327004182597754,0.00855616532431424,1
0.47745625460396,0.0135218206404275,1
0.542399235751512,0.014454130934599,1
0.579620253910741,0.0148902745051666,1
0.554121055692221,0.0155361702242223,1
0.476241673416038,0.0139044333949269,1
0.374749853323971,0.0129633263233023,1
0.137325473589301,0.0054018346524094,1
0.0450211415788575,0.00856287674725345,1
0.00725345389448694,0.00119698413724735,1
0.00317997091244022,0.00727011358019773,1
0.00930402421510446,0.0132483299628358,1
0.0136805241126722,0.0187190960354031,1
0.0169392428820519,0.0206001545281459,1
0.0384448637268408,0.0146924817020093,1
0.0739550848092619,0.0230419950105604,1
0.118021276117339,0.0331006765875114,1
0.123182881465827,0.0157817776371747,1
0.153028810117088,0.00601470187474295,1
0.259628176575994,0.00842944335025778,1
0.236574350476785,0.00529953002906675,1
0.205875448630784,0.00511427474942411,1
0.173622776851073,0.00446026177028713,1
0.151171232379821,0.002882748724715,1
0.146875230690807,0.00228007464781221,1
0.145552901732667,0.00229607138408625,1
0.153213079789848,0.00200651840643594,1
0.167905461847637,0.00193236377966785,1
0.176929738160215,0.00308721314805858,1
0.144554525302773,0.00232458290471044,1
0.144392898344204,0.00294422356048377,1
0.149688664246448,0.00292854940851953,1
0.158587264527075,0.00296277727073628,1
0.142251725672536,0.00345788194097649,1
0.123050721569574,0.00369582900109184,1
0.13486675768478,0.00373704725046623,1
0.110332976680958,0.0040427571576907,1
0.0287112671560202,0.00120229957813028,1
0.0259740954567411,0.00271797813893117,1
0.0426061871910587,0.0039562083558765,1
0.0497565101691458,0.00222226537097967,1
0.0526347299812914,0.00258406788353038,1
0.0766368887355425,0.00307699431232496,1
0.125802514458698,0.00633045914979363,1
0.157523990198791,0.00769848056939035,1
0.196947197450697,0.00947118715043492,1
0.219941106204597,0.0119280196249293,1
0.224561702406559,0.0119901924938234,1
0.213859300870868,0.0114228326372714,1
0.121621181015991,0.00969995299474576,1
0.0520197330886496,0.0122312700156305,1
0.0151800156765109,0.00342328944159911,1
0.00137044956120388,0.0467797287247694,1
0.000519200220253755,0.0489031078965469,1
0.000144123123492014,0.22200083684237,1
9.07791637696319e-05,0.279028990239184,1
6.83534351076147e-05,0.262229537961782,1
5.85096347573307e-05,0.231640359521388,1
4.39609615509414e-05,0.19428809549506,1
3.55501862629825e-05,0.167490895177756,1
2.94090716248635e-05,0.236623854226838,1
3.23234134276545e-05,0.285659367892895,1
3.11641666715338e-05,0.296844625575792,1
2.13904966824316e-05,0.206460458006798,1
1.2541133105025e-05,0.167547551142122,1
8.42628360682238e-06,0.130184556965859,1
