Activity,Complexity,Tag
6.07454091485183e-06,0.407262851597663,0
6.50530092639955e-06,0.411181805773157,0
5.13700806154535e-06,0.363744680960132,0
4.66439069163036e-06,0.345888358331461,0
4.44606743241346e-06,0.35047394488904,0
4.64427818658848e-06,0.368927905411588,0
4.56175927469936e-06,0.366721935386541,0
4.25591515719071e-06,0.351652699819278,0
3.92790749075209e-06,0.394399679770969,0
2.23486637452455e-06,0.324554923977011,0
1.79430608117023e-06,0.304931119506544,0
1.15085161643024e-06,0.254529881432335,0
1.63213939101797e-06,0.289925066335262,0
2.2620149326274e-06,0.362259540233674,0
2.3997832701247e-06,0.387496845583123,0
2.78745278370593e-06,0.427798225695619,0
3.36689253325417e-06,0.482763763051658,0
3.64710807244065e-06,0.482302954830337,0
3.28230545812644e-06,0.47632163214833,0
2.66084680910555e-06,0.433344539510535,0
1.86949572559065e-06,0.347028327820383,0
2.76289707872285e-06,0.413281848038531,0
4.4581411275441e-06,0.586343230732162,0
4.45375729896744e-06,0.488992630673641,0
4.4477917516758e-06,0.461233992295351,0
4.48121218417202e-06,0.450559296896455,0
4.15641740094702e-05,0.25939524431935,0
0.000127012680831728,0.274294018150138,0
0.000126473318756577,0.201227289151792,0
0.00027967522935495,0.180802841516718,0
0.0003870113781807,0.169084434649564,0
0.000665258504577363,0.190344612895747,0
0.000793237242560647,0.196581778817466,0
0.000701620143297266,0.147234881244223,0
0.000568223529903085,0.125682523545269,0
0.000441085896206805,0.110270322418336,0
0.000370339976235344,0.109728444076669,0
0.00035243776783971,0.115131956742529,0
0.000203351599156524,0.0818999290606553,0
0.000210329653132798,0.103681953106112,0
0.000254414339532507,0.125101917633359,0
0.000277413378330998,0.0977736067520024,0
0.000311988854316952,0.0734473090887884,0
0.000396387399501098,0.0850639891021724,0
0.00042837605821319,0.0827189245177346,0
0.000432587833674772,0.0776578332785679,0
0.000562268131290251,0.087244419223257,0
0.000662001526834079,0.0986967632744602,0
0.000590531330122897,0.0878987576564564,0
0.000611400528851658,0.0838044149466976,0
0.000688796332134883,0.0941644657681568,0
0.000491282587580878,0.108008780342682,0
0.00023101001376967,0.102259236429256,0
0.000243022706462317,0.12081641618417,0
0.000224765869081713,0.153915711655575,0
0.000117742425226371,0.137088817333584,0
0.00011418190537186,0.163364567304806,0
0.000113698217427907,0.162340524915953,0
6.99142837780153e-05,0.197672587854959,0
2.92017453700473e-05,0.312034956587539,0
2.9494506479228e-05,0.323668078228745,0
3.03866009338572e-05,0.330818242537257,0
3.05119058378186e-05,0.329753010300158,0
2.96823722284327e-05,0.33057926380085,0
2.8844602026001e-05,0.329375052655061,0
2.79265766726045e-05,0.308691741468153,0
3.17298917157697e-05,0.335343298391347,0
3.16119093408093e-05,0.367857445193269,0
1.04701643597703e-05,0.307188131914354,0
8.0335721184723e-06,0.390683194951072,0
5.93816305106979e-05,0.433614678559449,0
0.000103466829033956,0.343872779998508,0
9.94270984920135e-05,0.320394103462054,0
9.72961312769617e-05,0.312418194708872,0
9.1635237033129e-05,0.286672948925421,0
8.57059740227858e-05,0.283673855863403,0
6.98144460933915e-05,0.237035870955666,0
9.92754793251057e-05,0.222116168509765,0
9.86642238089908e-05,0.1930790196645,0
0.000100495536280227,0.192886663178907,0
0.000131201635834835,0.258931539967288,0
0.000155215895827745,0.307619489836127,0
0.000206901869619458,0.213676958441418,0
0.000882971020948052,0.117469610746282,0
0.00498664872585388,0.14309201235776,0
0.00874374194315006,0.168858836983756,0
0.0115977440828194,0.104339026903948,1
0.0114797342826594,0.0788299822927565,1
0.0131770071498988,0.0693633678640861,1
0.0115887155936026,0.0509585521588727,1
0.00945556848204649,0.0424098166810921,1
0.0139909213975215,0.0242088581090492,1
0.0183622119856883,0.0256004750098297,1
0.0181220671937539,0.0250592575097833,1
0.025844103176766,0.0341976369378777,1
0.0293111238481011,0.0371630059567685,1
0.0398519433776195,0.0405426255302458,1
0.04333440834314,0.0357827981143877,1
0.0586783503930384,0.0415106424534443,1
0.052602222959315,0.0414322787954785,1
0.0314428050325867,0.0222729776671035,1
0.0312099963245364,0.0165253228131093,1
0.0466068684046898,0.0241407724579653,1
0.0470809356976322,0.0158127858364766,1
0.0428198621025956,0.0144034760845019,1
0.0343240356141656,0.0113988721776665,1
0.0326825808662491,0.0112322116605885,1
0.0339237835595315,0.00880310578192477,1
0.0411971317595854,0.0120236686582892,1
0.0629336855357065,0.0162031760603405,1
0.0542091701626495,0.0129255634978049,1
0.0515382507094271,0.0148095201490027,1
0.0583453692207199,0.0148574072060094,1
0.0662007323009073,0.0206157271384954,1
0.0634236929210797,0.0185870647715888,1
0.0642524718228054,0.0176903689279489,1
0.0601986384713677,0.0177592450695099,1
0.0899238626683926,0.0222368033338226,1
0.108079809424514,0.018104069885344,1
0.0990500573860549,0.0190721935203703,1
0.101109931984966,0.0202753594512754,1
0.0984865471134831,0.0201988812269161,1
0.0907462036422138,0.0205124730237523,1
0.0759781249458149,0.0152344541310671,1
0.0723085328744247,0.0146301504818316,1
0.0691578538873924,0.014409383367204,1
0.0914844104500801,0.0175011430485606,1
0.0620357603787209,0.0176260227196743,1
0.0329589446273324,0.0153748443247136,1
0.026605089510741,0.0104076966444357,1
0.0264640100475411,0.0109739021775061,1
0.0317618905947341,0.0109136831194746,1
0.033302146368069,0.00953118804726218,1
0.0386284970008992,0.0149356140152209,1
0.0386152965474525,0.0110619271611279,1
0.0410656076184984,0.0109369562225114,1
0.0372273378168583,0.0107528634880455,1
0.0368647604764366,0.0117239753225948,1
0.0389146401248533,0.0101064980712413,1
0.0400747181890173,0.00751267968079503,1
0.0465650778363758,0.00925846633047086,1
0.0361159838639448,0.00742783104832605,1
0.0330366509255507,0.00949449397976734,1
0.0289057671138419,0.00980708044567977,1
0.0246272485578809,0.00736786915156418,1
0.0276244303080349,0.0081962444558658,1
0.0264856436296412,0.00833511021034991,1
0.0266934905012501,0.0087405466874923,1
0.026223369024096,0.00654062161648335,1
0.0309217328584739,0.0103811144084303,1
0.0287200571061021,0.00927485126957022,1
0.0286218960624389,0.0106514290438308,1
0.0319849849723194,0.0114729879933419,1
0.032883411066998,0.00707658764753565,1
0.0400144774271793,0.0117420346189264,1
0.0370016160551484,0.00832900520811918,1
0.0380068568986007,0.008387130931236,1
0.042559461448178,0.00825589934186333,1
0.0399769398813986,0.00914538525764877,1
0.0342244885733151,0.00948143655593723,1
0.0343716452127171,0.00888848365132,1
0.0391956047143009,0.0091116411340107,1
0.0361580431048027,0.00839800017192944,1
0.0331835483730687,0.0111618761755612,1
0.0235357135881817,0.00849129398934625,1
0.0239465553073449,0.0122896783862367,1
0.0249454154729147,0.0114584710200027,1
0.0621380651739243,0.0145951733409625,1
0.18624938312888,0.0346600364129843,1
0.343684154005238,0.0452563715317887,1
0.407428727104698,0.0558483070498199,1
0.462330445268541,0.0514829108437458,1
0.420691466211241,0.0458019852976718,1
0.463952390219641,0.028679491008434,1
0.602535331276305,0.0338990298351722,1
0.486356320036878,0.0216833875165263,1
0.313378089773741,0.0127008590200829,1
0.254677936713509,0.0104253738934501,1
0.251322681011415,0.0103441667922999,1
0.249233244559957,0.0104000775995147,1
0.245493491715645,0.0100107114020449,1
0.292057519954624,0.0115391621206652,1
0.324187318662482,0.0133154417866915,1
0.380531612358055,0.0278205930294638,1
0.230550760960935,0.0156962599462484,1
0.187267682212785,0.0120945335763144,1
0.223035148594263,0.0118856183699315,1
0.239699076211516,0.0118991622681779,1
0.241746186204717,0.00654664223151392,1
0.235093536711145,0.00658724583004427,1
0.23262690262495,0.00621592234573234,1
0.233843439926111,0.00687832032063877,1
0.249021070545037,0.00692075312338639,1
0.237167436665053,0.00630370319169799,1
0.236808815558455,0.00688436175949248,1
0.227467629592886,0.0085569952156513,1
0.199591266606436,0.0106118560879505,1
0.125747508125418,0.00886278117409811,1
0.0924288280789392,0.0180102215546565,1
0.0902894422307708,0.0134981955940619,1
0.113656502597238,0.0131987083902464,1
0.130308451037845,0.0119447864508879,1
0.125229566319795,0.0150194926842882,1
0.124173203021669,0.0159075617619254,1
0.135484263304094,0.0165221272284014,1
0.134981962371063,0.0181308019247938,1
0.128214125797434,0.0170193286508314,1
0.143717388161717,0.0170855797537585,1
0.133599916929304,0.01233616080454,1
0.124528846867234,0.00824473346434387,1
0.135096115034217,0.0122323194152955,1
0.112221398055702,0.0112060907521574,1
0.114829839819287,0.0117335280269846,1
0.128085391246499,0.0149644671866343,1
0.0987372380911672,0.0118913619843312,1
0.105279823669017,0.0122670162989384,1
0.0997694865367254,0.0106990529228047,1
0.100171723226191,0.0129145616270428,1
0.0621450615208372,0.0123252788979371,1
0.0410610763194655,0.019630970566663,1
0.0439056921616511,0.0172099836097134,1
0.059566884759075,0.0181623411200891,1
0.0617869504965793,0.0156357408014046,1
0.0626283299795109,0.0142869915712714,1
0.0621158799533536,0.0137738124298205,1
0.0591399194402457,0.0150831615385049,1
0.0699050580507512,0.00929684453458578,1
0.106028684430765,0.0110228238781127,1
0.121315257606432,0.00834906753877882,1
0.133528550827168,0.00913626272611722,1
0.129433344089961,0.00675782010841884,1
0.15238897381121,0.00832869552076679,1
0.151039742487003,0.0087306526130002,1
0.151063510945358,0.00950682439818397,1
0.153552157889221,0.00975163856891218,1
0.169332106765521,0.0105379412458939,1
0.221347239030124,0.0156775227853766,1
0.460772117264888,0.0274104063997685,1
0.534531319038503,0.0263816247553118,1
0.569872704134942,0.0277731291438124,1
0.516364485550317,0.0239890338107754,1
0.436095986432081,0.0215857119281777,1
0.462495122977675,0.0226008656758248,1
0.451630099324413,0.0162331716957086,1
0.436050563659364,0.0144427219577817,1
0.447906425157862,0.01579790552387,1
0.512360975536658,0.0212517958349428,1
0.31358910912981,0.0165306224639011,1
0.216374334303105,0.0157055726902652,1
0.141292644897667,0.0084770351061216,1
0.239630488967886,0.0147056574156544,1
0.293443435157453,0.0157497555032347,1
0.280805509101895,0.0156850635052863,1
0.26217190337066,0.0223410392540692,1
0.247777432845967,0.0263701684356066,1
0.252785501734445,0.0235329191213002,1
0.247557337809552,0.0249612665734925,1
0.230416198677305,0.0236016144620416,1
0.222924674629301,0.0210437296566268,1
0.235398867688871,0.0255545330175083,1
0.193695881488231,0.0496991360673881,1
0.148415678329891,0.0520200535891081,1
0.110087632799184,0.0260999170300741,1
0.114009175469307,0.0242845824445119,1
0.101837579966446,0.0191084211153089,1
0.0968720880622569,0.0235558501667796,1
0.0920033933369506,0.0219902678866511,1
0.0920605883266614,0.0232752360967834,1
0.094378839702872,0.0257245384905868,1
0.0925936968436675,0.0218520166527796,1
0.0816381706249661,0.0187941628248589,1
0.0847949661288323,0.016618276017901,1
0.0715092882162868,0.0208240956412808,1
0.054879815494146,0.0138214212532317,1
0.0908019033768569,0.0156299046511281,1
0.104945650982071,0.00916494577587508,1
0.123279869059771,0.0112624558321167,1
0.14292725876186,0.0129705067954027,1
0.158174392232117,0.0152603476048338,1
0.17751514957478,0.0173817356132314,1
0.181755922020277,0.0136912547839516,1
0.184551314231147,0.0117436174883466,1
0.193819552799114,0.0121655020346686,1
0.181107112328207,0.0124131076160694,1
0.0672727427052539,0.00346282603270052,1
0.0655093352859174,0.00572112439515433,1
0.0724267082891848,0.00675022987756565,1
0.1007109506602,0.00682206980486887,1
0.162022530767833,0.0107542529060152,1
0.145537561418515,0.008927396867232,1
0.249485244684242,0.0136025839083162,1
0.522018764006756,0.0320620775083647,1
0.613411711965523,0.0228013921147825,1
0.588035902711137,0.0197929201283354,1
0.493909162381439,0.00919980820476241,1
0.630971943486638,0.0109402675315136,1
0.592569088179883,0.00517671864879126,1
0.657114414934651,0.00727765150298451,1
0.795483903524607,0.00994697689597151,1
0.783191904013213,0.00699137197919858,1
0.789371575336177,0.00840205238496812,1
0.687440451520349,0.00675774754502453,1
0.610665445752855,0.00666751071176242,1
0.609796225670272,0.00682982811011206,1
0.605512146181594,0.0140842301250327,1
0.352381797868834,0.0076544386559296,1
0.330668737608289,0.0199266949927942,1
0.327370633067818,0.0188617085481543,1
0.285303056176036,0.0136698078794725,1
0.24910339121339,0.0442103646055512,1
0.144140160554036,0.0268752395481638,1
0.0743530547509205,0.01306360617168,1
0.107252716094586,0.0201838318706697,1
0.129830998523919,0.0235145258858932,1
0.202023420962805,0.0326001017478665,1
0.171497703783907,0.0190992983618841,1
0.187886965655275,0.0177186272534585,1
0.253105946948192,0.023301916506197,1
0.259469764224254,0.0173940535224673,1
0.263063841807542,0.0173648914997872,1
0.254867167093495,0.0163000653595432,1
0.260247398183218,0.013958826610113,1
0.269088297206813,0.0126347539455364,1
0.277330181104,0.0120643233377076,1
0.237843777010206,0.00872832287245834,1
0.223683469580416,0.00843760369722585,1
0.224567023074517,0.00928358461136087,1
0.129319740498104,0.00206378755572933,1
0.174447382544626,0.00630217680837802,1
0.18199688676208,0.00743960377112782,1
0.205995112417257,0.00954179980008941,1
0.236089714639278,0.0146662327205449,1
0.200193575169158,0.0145128386693396,1
0.178033060555919,0.0154801234767725,1
0.148028498264186,0.0187947434863028,1
0.166850676752495,0.0288920930231177,1
0.0836654078852918,0.0165057388459303,1
0.0417618486628064,0.0191307910770651,1
0.0446169598641185,0.0301829533084555,1
0.0369040904125703,0.0253658899607839,1
0.0360955411317309,0.0256542203946581,1
0.0413366347054389,0.0220321033719373,1
0.038202735425923,0.0181661797785417,1
0.0337754095629324,0.0201243173603667,1
0.0320512302246934,0.0203987450768754,1
0.0245781228104587,0.0158793737921269,1
0.0686846998192825,0.0152713416209964,1
0.214946449787731,0.0344124356709562,1
0.231316233982008,0.0248334342927714,1
0.296858875480661,0.0200118303227432,1
0.340464292592308,0.0196187723475728,1
0.337324159829817,0.0207800982566608,1
0.284919829499065,0.0165654377226065,1
0.245304055655222,0.0138129956116388,1
0.247156044204162,0.0132685777248733,1
0.233330231617445,0.00820109192711404,1
0.243248109790995,0.011396707251567,1
0.25738405135665,0.00975718751250684,1
0.304326592277315,0.00906330692071457,1
0.288666262999085,0.0130283151970091,1
0.285110281624447,0.0128709254203471,1
0.340129273678565,0.0147618776951833,1
0.35724588210081,0.0146374733356934,1
0.348640327415498,0.0141748486408727,1
0.34504158861461,0.0130522598818532,1
0.35805794834678,0.0118096820713561,1
0.3800229818963,0.0121870753531021,1
0.298528881597437,0.0111597873313442,1
0.194029538508468,0.0102576493412289,1
0.213893082781527,0.00850579614396504,1
0.23901756656028,0.00913007824586438,1
0.204442168528745,0.00704677313059479,1
0.188787223802746,0.00699956088036646,1
0.193272878060624,0.00646010269014736,1
0.164518794282844,0.00565022687905672,1
0.133113667312942,0.00853829348499648,1
0.136732072527936,0.00636072375504431,1
0.165436114823109,0.0079019424493411,1
0.164735553305663,0.00822393120422913,1
0.15087245009521,0.0076350856803006,1
0.115703704601667,0.00641139199867909,1
0.171917432773672,0.00318501763031605,1
0.354862168537907,0.00840556823888984,1
0.353538961605247,0.00853114609354758,1
0.349596300505241,0.00666371665751282,1
0.386791025136186,0.00676457200309257,1
0.391121091131419,0.00770388500825841,1
0.396339275900968,0.00733345257625069,1
0.394235641375565,0.00692783747764388,1
0.410808957753742,0.00716753682528682,1
0.456995648428784,0.00828928997929742,1
0.414474417426636,0.01141242498321,1
0.237629285884819,0.00716937415593688,1
0.251628330300516,0.00846089601713947,1
0.257148330997296,0.0131380578659357,1
0.198445007935638,0.0117086952684267,1
0.17487089649148,0.0116928125516384,1
0.14670230181231,0.0129438335464562,1
0.149077535977508,0.0138871432910913,1
0.135709456484366,0.0118437482753641,1
0.0982476686457341,0.0086454533238391,1
0.0870648809074107,0.0144600941887749,1
0.0660290743487055,0.0122010155561081,1
0.0597428480731283,0.0111655801076358,1
0.0648797223269161,0.00612399725142057,1
0.0929240334972128,0.00305261534676058,1
0.128120672727779,0.00420086075946882,1
0.130973399086279,0.00467837543739282,1
0.154293536401161,0.00633242342819837,1
0.159223407601408,0.00612087454274016,1
0.164129723256844,0.00551027405143009,1
0.174238727057615,0.006220785123689,1
0.177330056065266,0.0061066673341579,1
0.190571859384452,0.00691434821805281,1
0.1959605209588,0.0068186963991393,1
0.171805499211428,0.0127501427280539,1
0.0953732973023718,0.00973124612745971,1
0.120347489149052,0.0109904040081073,1
0.180363629125435,0.0174198848029328,1
0.183088491737539,0.0189655442074122,1
0.204507346818509,0.0237692253265556,1
0.215917376142427,0.0217250387147931,1
0.198437056935428,0.0197119696774687,1
0.130922128505878,0.0134493899549883,1
0.0627066336529124,0.00879147506549249,1
0.0923869713485243,0.0157897422765224,1
0.0925013687761382,0.00680482008257803,1
0.13457749862966,0.0122625011847278,1
0.139025752202405,0.00776644890764885,1
0.22891311370664,0.0111192062139081,1
0.264318918608727,0.0137845598930776,1
0.292938163554704,0.00791178320035003,1
0.41211085430307,0.0121035199295927,1
0.431397915331312,0.0081735022066224,1
0.462912801334963,0.00936617890989271,1
0.477112853858613,0.00961659586813563,1
0.465376614939866,0.0113468754853112,1
0.413257130886537,0.00991888797995387,1
0.386307641446071,0.00891786903124424,1
0.475883597681353,0.012371855505483,1
0.495820511323243,0.0067213897298687,1
0.506475122272486,0.0103364908730741,1
0.361078566505816,0.00601630030599851,1
0.345899057247793,0.00586999412690402,1
0.39059932593012,0.00711598188250831,1
0.420786181725181,0.00763531559500185,1
0.433068151249872,0.00846637984675518,1
0.447872536927093,0.0068626585811495,1
0.500965947227205,0.00964956148752,1
0.36956131020592,0.00678003051292463,1
0.368327245010235,0.0136421356247248,1
0.328147010725248,0.011666876530339,1
0.275667350509813,0.0100168914829728,1
0.48903430915482,0.0173419872699474,1
0.547636591574945,0.0165395798110432,1
0.449908328936674,0.012707051206774,1
0.380408842731741,0.0103394380909447,1
0.380253438696437,0.0144717711544323,1
0.372764569233931,0.0131598262776891,1
0.396868234597807,0.011671542684087,1
0.467148251091916,0.0132594014447838,1
0.435445126620568,0.0125751755412641,1
0.418290971156403,0.0099778932559048,1
0.409371836349833,0.0182883140726182,1
0.332990475062497,0.0158579041170118,1
0.275870108586004,0.0121709200491766,1
0.266034694621644,0.0100666593669008,1
0.330594600505247,0.0103140500827723,1
0.315724068206422,0.00780860920691596,1
0.300294032476016,0.0072379199610953,1
0.310389784009805,0.00761436549517282,1
0.263173926469731,0.00704927110035515,1
0.235437714308587,0.00920757438571039,1
0.189983919517321,0.00767597789687896,1
0.192036961225789,0.00584357397351325,1
0.265312112148348,0.00901191767294367,1
0.275754056421456,0.00723300519334986,1
0.226887151438172,0.00674013172321394,1
0.215097805709475,0.010343325263659,1
0.273664476182752,0.0131864196555567,1
0.312793178313159,0.0103816730557505,1
0.361363660535392,0.0110985001483526,1
0.404961647749296,0.00902458356742989,1
0.532036280792561,0.00933095107481619,1
0.508671725503568,0.0093543209140316,1
0.389241740577947,0.00678291198062113,1
0.377284755528172,0.00821643113883036,1
0.448085966641092,0.00946052198166586,1
0.463485599220887,0.00882538406968298,1
0.427508524010917,0.00956485701186326,1
0.379181905899205,0.0112283754772293,1
0.40201452243277,0.0124308397140812,1
0.391210540324826,0.0104498527047458,1
0.267093127275718,0.0102150368250474,1
0.218441940164981,0.00773729147334671,1
0.225500283173782,0.00784428226380742,1
0.210708038487494,0.0065692717684194,1
0.188587589891648,0.00677803853242322,1
0.186560930603179,0.00788735737565634,1
0.205924419854294,0.0082683020738337,1
0.211848841843772,0.00639405904039544,1
0.169979118225715,0.00471419538546672,1
0.14779500183613,0.0067643508336765,1
0.234517912821664,0.0138704680484394,1
0.292681569233435,0.0138109818005789,1
0.276204140578296,0.0124181336488031,1
0.268362493595863,0.0133426721658087,1
0.264099188852811,0.00910347993971279,1
0.311913470193796,0.0111949243312118,1
0.255657548286398,0.0112285638143654,1
0.233404564519962,0.011671306059587,1
0.230476014087025,0.0107935056903957,1
0.229912795397059,0.0125623681408773,1
0.173215820992396,0.00958435007295861,1
0.166682629995247,0.0113309404642079,1
0.187487852267469,0.0106865130334313,1
0.276527860897721,0.0125862282218978,1
0.267842058434422,0.0144861311529104,1
0.182366607743032,0.00888974341406067,1
0.167833626665208,0.0077932049765202,1
0.216672714047231,0.00545299694677289,1
0.395093304765764,0.0118576172145037,1
0.352700718739733,0.00766786659237864,1
0.347788554152564,0.00787143487111115,1
0.356347865888913,0.00819788936939529,1
0.358166428559946,0.00965208081393723,1
0.383307691571427,0.012123694235942,1
0.367615662740248,0.0103977987368001,1
0.405532946144023,0.0118847065912962,1
0.422082548834294,0.0058847433962155,1
0.50564773077392,0.0130072737151078,1
0.307565558313377,0.00707373555486597,1
0.305930831754138,0.00927603880193552,1
0.319192467974753,0.00487954072496354,1
0.501684431076479,0.0097062642497553,1
0.519169990306867,0.00590059949961468,1
0.659625690743958,0.00776460746086064,1
0.706034281881607,0.00724087571149547,1
0.587601216584167,0.00634259821401858,1
0.530687559576191,0.00983344567245206,1
0.482455231454197,0.00898889794098608,1
0.493593459379309,0.0091990783045734,1
0.484373539362265,0.00871018826929704,1
0.480930588688068,0.0139160517864248,1
0.234286607226281,0.00612790695114906,1
0.184342263613499,0.0100976063790101,1
0.126206054190542,0.00610937586657176,1
0.120388802445171,0.0109979306584165,1
0.140214237777156,0.00800113688235505,1
0.215340024136284,0.0104392786170897,1
0.263595868742194,0.00917699275736272,1
0.284167463900152,0.0101845143222532,1
0.275804332235919,0.00839352786552976,1
0.299792873430619,0.00799541588983211,1
0.319515187832232,0.00785668786722798,1
0.320062146291538,0.00543377755514769,1
0.377344995833069,0.007382608113629,1
0.37600454813327,0.00653281237038958,1
0.363713146090305,0.00664524647351436,1
0.307806248968369,0.00618599410400367,1
0.268984337423896,0.00723565399400178,1
0.280402231623668,0.00619649369196658,1
0.307590715778829,0.00615631254560542,1
0.30705042313494,0.00542452274172173,1
0.247368642063241,0.00394053865709906,1
0.312637973451846,0.00764319659041401,1
0.280007842668122,0.00426251585795557,1
0.285966880778384,0.00492525891608002,1
0.298031602290595,0.00673598526955549,1
0.292979943089232,0.00618132690891787,1
0.291179462026096,0.00372161820971467,1
0.40493366235272,0.00762358856894624,1
0.355216854605166,0.00760175787346927,1
0.395659375999927,0.0115388795616815,1
0.411466181009598,0.0108286046093611,1
0.341552950768251,0.0118932841759018,1
0.308427558339021,0.0140206090387836,1
0.446791503823877,0.019628761901111,1
0.531101548369235,0.0211042447393708,1
0.519500359004741,0.0190854706183424,1
0.508290395280201,0.0336840905310156,1
0.364616922444424,0.0247140933912097,1
0.351283558487231,0.0286284130903156,1
0.255067242751949,0.0228795096474551,1
0.197597822272544,0.0213653287212718,1
0.178649581678289,0.0143939928908157,1
0.204073543164918,0.0259934184356213,1
0.191208209475899,0.0307796078092257,1
0.14400021104355,0.0211886613429103,1
0.225053439411498,0.0123387925751734,1
0.513583117905496,0.0244057215364467,1
0.590133633387753,0.0215419170940264,1
0.61562984919253,0.0158673915999187,1
0.589556642795867,0.0146468118506683,1
0.486123492164079,0.0119092725827762,1
0.483402617867461,0.0108401441923961,1
0.681645053517755,0.0148667281465598,1
0.71431637100073,0.0113800340883083,1
0.714947023415005,0.0114369699412267,1
0.664644648455794,0.0184104842331792,1
0.457132781507251,0.0125060818420477,1
0.303435713571939,0.00791963440838967,1
0.291385332141053,0.00972554649135072,1
0.332985236319235,0.0120255881222574,1
0.3799664501696,0.0119082094905664,1
0.383680902582761,0.0156295292268927,1
0.299943836674347,0.0131881430501109,1
0.293595229823383,0.0196870781465368,1
0.275994394775149,0.0178046507848158,1
0.27625266093194,0.0185873464573737,1
0.177904452301172,0.0163151962752411,1
0.0956724354133278,0.00879875401097545,1
0.0717231194003632,0.00873897980409905,1
0.06192644905824,0.0101899231390188,1
0.034170679590803,0.0051276141003551,1
0.125184051681001,0.0128517046616995,1
0.356200038665428,0.0333702932241905,1
0.421607632434678,0.0164366073701492,1
0.415609147495718,0.0180236624360097,1
0.407496681423175,0.0179859344300868,1
0.394270984238093,0.0162594138347888,1
0.420134015994974,0.0150716597057043,1
0.421680569655556,0.00986237370678247,1
0.512135658814957,0.011714984575396,1
0.482569914867482,0.00692031440133876,1
0.49728540161603,0.00975768935945416,1
0.35632752171972,0.00560761568429663,1
0.301972918995621,0.00669714712717677,1
0.399727677132482,0.00721784327124167,1
0.556398997316494,0.0114141148906109,1
0.680534675535371,0.0156376905348958,1
0.600984308579404,0.012551127156839,1
0.563565294630556,0.0174837306661059,1
0.527943211813489,0.017911361049364,1
0.512777383744678,0.0286796440642727,1
0.468463050113091,0.0220573279975243,1
0.417577530531381,0.0172777121342028,1
0.326431344738942,0.0144129781449553,1
0.386383344332991,0.0243537319944513,1
0.432535093429637,0.0253866317085208,1
0.463483681642369,0.0225387711727802,1
0.43597140678303,0.0249574241412358,1
0.437526850437647,0.0265256996276507,1
0.557047477493666,0.0228125627227286,1
0.707971114798403,0.0283298402884193,1
0.57714792551976,0.0315543086309341,1
0.287597778381981,0.0202396113421194,1
0.178552409848612,0.0117698395251537,1
0.18932093939159,0.00984733923258333,1
0.313866974510717,0.0135856711161672,1
0.306179317696098,0.0120459730670285,1
0.338132922240378,0.0124174720331137,1
0.32789238784744,0.0122463379770156,1
0.291849846466158,0.015270319858354,1
0.224842080846062,0.0130644551956059,1
0.224914780959563,0.0131634455122656,1
0.179679039281432,0.00862151612876543,1
0.218077256323264,0.0107620417250004,1
0.201459809579706,0.0121119304594116,1
0.192307942652872,0.0135277085021463,1
0.20301608970473,0.0109183386323103,1
0.149497420060029,0.00846896476098331,1
0.161532304354758,0.00732329468594419,1
0.162421029831935,0.00647249910530845,1
0.20671052142429,0.00743149982633589,1
0.223830028946076,0.00766074050051699,1
0.217596236304606,0.00873078311071487,1
0.224651380596638,0.00998849416559175,1
0.224140970217798,0.0112123334992405,1
0.12855795440617,0.00488803613130709,1
0.107860358920719,0.0048827549057614,1
0.107570320281635,0.00505861665567279,1
0.123000448731899,0.00698194569182684,1
0.0888318365108348,0.00363371457965804,1
0.146473517757207,0.0107900513595391,1
0.175049929049201,0.0137828463506043,1
0.227333414638842,0.0171828333800989,1
0.204494806218954,0.0137815723269566,1
0.243817618482378,0.0154957670564928,1
0.201965556246983,0.0184438764333459,1
0.216104516576622,0.0107944570648002,1
0.259482269096817,0.0103432979411635,1
0.305162574650608,0.0124091528752474,1
0.374748189460615,0.0174159566675704,1
0.434354056327045,0.0206660902989336,1
0.41383283419305,0.017928550399269,1
0.38811696478196,0.0160249840504657,1
0.395329366169352,0.0175429108598492,1
0.298824375626439,0.015169603280339,1
0.191574863210138,0.00884874748144087,1
0.168938939759529,0.0119176996373665,1
0.144204103658621,0.0162605594952595,1
0.18473043627663,0.0191191294281178,1
0.20046584989597,0.013430074669332,1
0.262841936899913,0.0132804328912778,1
0.243832686096945,0.0114611437324599,1
0.271596567204381,0.0141288425034668,1
0.294732967175012,0.0129788511197636,1
0.276381260598601,0.0119524648316124,1
0.204134853574008,0.0064959452378798,1
0.226719765453433,0.00657002510551316,1
0.320994840647262,0.00439001877120581,1
0.366057244454786,0.00151519658292881,1
0.482267424748357,0.00394191989129791,1
0.506463346030077,0.00399972732189353,1
0.503978507605176,0.00432230250762232,1
0.50837578928575,0.00491635601679294,1
0.500535788998526,0.00539964626416916,1
0.479838117609518,0.00541999800814923,1
0.465186111610688,0.00436805727255728,1
0.446326694280673,0.00458947115139788,1
0.339952292156537,0.00785833199256419,1
0.271032268386114,0.0166519016453027,1
0.174983278604748,0.0100639957305234,1
0.166385289527734,0.0107698953362374,1
0.168298487660985,0.00908184637416303,1
0.304630801047376,0.0105409299966848,1
0.414562725295163,0.013669090153324,1
0.437947992376466,0.0143691804990212,1
0.46707066333318,0.014292004563389,1
0.504052631988904,0.0132402849806552,1
0.54832464961633,0.0135075176889519,1
0.541845980928422,0.0140685961974938,1
0.525189457841313,0.0140084674811497,1
0.524406114234744,0.0137831619751494,1
0.510524786439949,0.0124803591219506,1
0.469326963524286,0.019339736075824,1
0.386201259153217,0.0149669957072079,1
0.27682491307191,0.0134120567685871,1
0.107061470266031,0.0076452274591707,1
0.100119281790213,0.0125609806046844,1
0.0999401258862969,0.0108763189492105,1
0.11098630359622,0.0148906017077994,1
0.123111809762416,0.0222628643512285,1
0.0846609072236778,0.018209039619392,1
0.0713793899152162,0.0252930205894327,1
0.070937853526943,0.0275941327531451,1
0.0553407529984962,0.0257515707523586,1
0.103106975019235,0.028479455064055,1
0.106239682699255,0.0271771095663325,1
0.112258793284315,0.0168285833164137,1
0.210586972300663,0.0285729177643171,1
0.261129705863026,0.0258779883181262,1
0.266122009923888,0.0269470484294747,1
0.269140093838812,0.0268157443748676,1
0.275448392100837,0.0221784410669757,1
0.327005840647895,0.0253189871961289,1
0.38519939048125,0.0287819396763673,1
0.329231877060483,0.0203871045173692,1
0.317799866711235,0.019329476934868,1
0.355675416143451,0.0195942794641525,1
0.307603807014462,0.0118050478225847,1
0.254017049797719,0.0107153703006199,1
0.299252516224377,0.00803273025138498,1
0.485844177625598,0.0141554041524927,1
0.531402753765607,0.0151568276871461,1
0.493774614672933,0.0141051411404288,1
0.37124986640927,0.0087020062355063,1
0.354014868932059,0.0102023662853576,1
0.380060242996259,0.00989339577024521,1
0.31152463921624,0.0100291191209003,1
0.389439397150335,0.0142036742487339,1
0.617437644900295,0.020913898727542,1
0.659927554390285,0.0221692316267047,1
0.529463533442285,0.0124579146081941,1
0.738870770902144,0.0171670194132069,1
0.658653847651137,0.010950336803228,1
0.582808737540991,0.00982925962173057,1
0.490345386188794,0.00785041254469558,1
0.459406824969063,0.00758207187982519,1
0.406228550892122,0.0061323061237633,1
0.439881219051812,0.0079933474736512,1
0.439207293177604,0.0047839770306573,1
0.456036942446357,0.0063211476957366,1
0.414998700099091,0.0100382756424415,1
0.267241952127532,0.00577220435906367,1
0.211370190890442,0.00764539986943031,1
0.221085303122551,0.00759186381497811,1
0.253561204688403,0.00903152222082699,1
0.336901328812829,0.0123037007377584,1
0.331915762746755,0.0114986307563192,1
0.24864112146807,0.00634907825836053,1
0.299676988292835,0.0139189840521487,1
0.31578882402194,0.0135678903083992,1
0.235902090035612,0.0107879397424086,1
0.34809963736592,0.0150989710113379,1
0.410460168475725,0.0111957790159916,1
0.418991800716437,0.0114367895047637,1
0.441712728373179,0.0123369412651022,1
0.434038943087815,0.0123482533038924,1
0.448568283875803,0.0123061795511872,1
0.511579520587833,0.0194018694636475,1
0.485920437867576,0.0181472725710692,1
0.522273904495958,0.0254659616917109,1
0.511675517731932,0.0195733787779519,1
0.32714761127555,0.0132116416138893,1
0.166583841388793,0.0132550892462478,1
0.198308170125901,0.0174575805701506,1
0.297492445363542,0.0170639359233015,1
0.508442263511076,0.0308975645107811,1
0.632738177507435,0.0498083627466355,1
0.53752274917934,0.0266664591267489,1
0.463739573301718,0.0218296306447071,1
0.345794257734325,0.0169898357216808,1
0.214212608421712,0.0121645247715106,1
0.209765262772628,0.0110722970084076,1
0.225817265649215,0.0126676254620215,1
0.306384147847482,0.0159564945548547,1
0.38094993465607,0.0225784085426484,1
0.291135055895298,0.0144058142730663,1
0.230604591807225,0.00992981173907775,1
0.266411742777315,0.0138270569885101,1
0.269534602320024,0.0144049989238671,1
0.27387083512765,0.0124310102636667,1
0.289983066605326,0.013342683466429,1
0.292509873377352,0.0146581243307906,1
0.294211199498509,0.0146890286452888,1
0.237420936129921,0.0106662738966552,1
0.138621814995221,0.00538804660491797,1
0.138794400182076,0.00543501599233243,1
0.153882672925671,0.00675807537380279,1
0.142020699296534,0.0056655426849465,1
0.126770229603607,0.00438104734653437,1
0.126187202895553,0.00529883854949325,1
0.122644517015896,0.00534009925090051,1
0.123978056338932,0.00592740421768886,1
0.139892938949066,0.0049609955065985,1
0.208164315283531,0.00693121661828942,1
0.501631984397609,0.0123471686149403,1
0.492795841656826,0.0104761038828991,1
0.55173537900115,0.0119510985653226,1
0.544892518312468,0.0125906006405015,1
0.488186014494919,0.011935970287091,1
0.509769425868761,0.0129393492689449,1
0.530946554791667,0.0127950677372368,1
0.509850992134871,0.0118516405547554,1
0.552943695855908,0.0148696880902324,1
0.49911525636419,0.0203921229958795,1
0.111767938236123,0.00448729772404348,1
0.242506438271537,0.0206712848230497,1
0.345346786858908,0.0313812240403739,1
0.386128073323129,0.0381410636505623,1
0.398218304630867,0.025143806452454,1
0.430555999658485,0.0227110754135243,1
0.436884207037651,0.0187911659906482,1
0.449671776636073,0.0200351649990522,1
0.391833153073041,0.0108657743254703,1
0.510196119558134,0.0142576828434207,1
0.556261185889227,0.0178062572763672,1
0.505996498146271,0.0162057334209287,1
0.398954169120387,0.0128136845698791,1
0.351396172269384,0.00836057328504034,1
0.361208028526614,0.00965277600575658,1
0.346611953052034,0.0109969325385003,1
0.278141349919196,0.0100900277991565,1
0.202464553326757,0.00595008856411751,1
0.182730236127435,0.0111416016790434,1
0.106583822191936,0.00684997828419914,1
0.0967762703502591,0.00644538571331227,1
0.13632436418863,0.00931696316091991,1
0.146149698777872,0.00517294848133912,1
0.139313877322079,0.00759455496026126,1
0.147045960337385,0.0098448465545277,1
0.194573234411855,0.0118585271288207,1
0.188754235237737,0.0132542648365616,1
0.186046986487344,0.0129407572821609,1
0.188363615207009,0.0118482245823657,1
0.192095546666996,0.0110805506792838,1
0.202971254737661,0.00785035264949041,1
0.16992412899238,0.00615589383802818,1
0.159168952097517,0.00739754635680585,1
0.176593947097761,0.00723283517201221,1
0.170895722038328,0.00737566616708574,1
0.141704872552096,0.00507760503715394,1
0.177052884613225,0.00706013827003318,1
0.174955663749593,0.00673663145367983,1
0.184858883292956,0.00781659949686413,1
0.177509865755721,0.00716087538843253,1
0.245655074950103,0.0129179854881266,1
0.239102518837049,0.00818277925352422,1
0.317341071336463,0.0118211494660388,1
0.326604706459172,0.0137213781298475,1
0.381044327489557,0.0167668159126298,1
0.403272413305507,0.0198684304000153,1
0.479356131003555,0.0215134720763812,1
0.556324001837379,0.0235643441712953,1
0.521969004342168,0.0223065440382459,1
0.484547151798116,0.0192219264866949,1
0.25339706172859,0.0105537189058002,1
0.157855511936628,0.00784345694578063,1
0.284762490696504,0.0123674069553476,1
0.301022816219134,0.00818956286798982,1
0.321731657496269,0.00934124964571518,1
0.372088935917955,0.008148755241163,1
0.364993927118401,0.00638598454159649,1
0.309652443685845,0.00425895613776747,1
0.315597971954291,0.00441811373474821,1
0.284394130188153,0.00365964051485254,1
0.313823709648705,0.00427253675936607,1
0.388717391038219,0.00693524378288441,1
0.314906138317187,0.00427270963996646,1
0.355455646178006,0.00903760366124186,1
0.319899829516404,0.00622810105075673,1
0.301381265608083,0.00725760295147348,1
0.336749667774357,0.012871492360814,1
0.366134317345231,0.0165454260214811,1
0.358914455384041,0.0120731170736768,1
0.392487271449297,0.0124280555208389,1
0.432581871767164,0.0178141159853821,1
0.351189605500488,0.008401369389314,1
0.32916631142447,0.00982703626723848,1
0.325867799974703,0.0103908186958281,1
0.340268657325675,0.0111706246102204,1
0.365010210250381,0.0112211353485281,1
0.309922012183724,0.00855720144446865,1
0.262096283337208,0.00523575162000241,1
0.301881264290062,0.00794219884118978,1
0.316071267734199,0.00903504979385618,1
0.344122920779273,0.00921671916027731,1
0.397827453180758,0.0172695723547354,1
0.357491608814331,0.0172442133382842,1
0.395928605839172,0.0206221301955255,1
0.215510341260887,0.0143625428820091,1
0.187333687837779,0.0180408583891993,1
0.109177414040087,0.0141161826101815,1
0.0618757672895228,0.019605838245773,1
0.062264708180958,0.0199892205158353,1
0.0280412373415573,0.0124753420089132,1
0.0140168468341234,0.0204371920541462,1
0.0105707852583226,0.0163855685415557,1
0.00983966807779614,0.0162015259678544,1
0.01386641335926,0.0280038688550701,1
0.00983649781320562,0.0214234949088025,1
0.0282312997174248,0.0178489096884066,1
0.0823351225195258,0.0357923653287155,1
0.267951417063863,0.052701282224011,1
0.369607109796668,0.0531348649292068,1
0.503163034276629,0.0489061262073877,1
0.614116596630551,0.0466503802421189,1
0.622003742889165,0.0466842775561279,1
0.528836135973832,0.0407930453635234,1
0.430145753110479,0.0332024576847815,1
0.265682674697266,0.0227926965575543,1
0.148635290150783,0.0135280067007907,1
0.169198680033726,0.0138433731765073,1
0.198224823287072,0.0107197249247292,1
0.196935450038013,0.0105030445783487,1
0.194508017021676,0.0149497799913646,1
0.232491270552743,0.0169156314971606,1
0.247008153796433,0.011071996148886,1
0.266506193844459,0.0125325684994792,1
0.278030285773913,0.0112772264826526,1
0.342082888289634,0.012514541602899,1
0.347956240545298,0.0121354169672385,1
0.400148577894256,0.014420668756882,1
0.393686986097411,0.0143940816216019,1
0.372488518056162,0.0136393053231487,1
0.340673043338124,0.0121301603813311,1
0.249706294046319,0.00771138936484654,1
0.213288701828361,0.00938137682252763,1
0.234498370852852,0.00662965899119629,1
0.425451918144915,0.0103137262282425,1
0.624878270932863,0.0164360573941367,1
0.647572175261007,0.0128888309114302,1
0.615490137603499,0.0138017840423671,1
0.655243290340012,0.0126674006832909,1
0.793137478002604,0.0159569103630542,1
0.90361701767224,0.0177894393634226,1
0.928640338199761,0.0188518133476993,1
0.972522096932618,0.0192283735569946,1
1,0.0240357125584173,1
0.765877148607285,0.0338129544125477,1
0.39047950915647,0.0185531100199372,1
0.305685281662231,0.0192493258870063,1
0.185847231550816,0.00226271430337216,1
0.199697872501501,0.0118829485663433,1
0.376336716147913,0.00909007447767266,1
0.722919152786527,0.00877210845981637,1
0.819602431502651,0.00881168127103059,1
0.8756329822031,0.00892720213669823,1
0.88445092633251,0.00847240267401582,1
0.894213360714159,0.0083998441191708,1
0.868676723316522,0.00884161171270855,1
0.738375804537206,0.00618317899393345,1
0.758124602626514,0.00786949647300106,1
0.75635819081416,0.00777809108181605,1
0.674307277515495,0.0103266072695874,1
0.377461959767851,0.0104406175034001,1
0.362476748892868,0.0153263015934424,1
0.303313941050723,0.00687943939524777,1
0.334318504757871,0.00915500336176037,1
0.358281708517033,0.0105399316776473,1
0.398835624765047,0.0112628758821471,1
0.453154267360207,0.019398710392108,1
0.455966230105991,0.0184189841804408,1
0.439637246641913,0.0176020262065185,1
0.43291535778148,0.0196859123407504,1
0.417742894319431,0.0201616940024031,1
0.282262595599033,0.0190548029016921,1
0.0844116014398463,0.00973296056434428,1
0.0961509718935676,0.01114850870833,1
0.0957997792750979,0.00743330826375254,1
0.149520829932461,0.0110887147439209,1
0.142733895039264,0.00885202679907965,1
0.127485827395917,0.00859746818898001,1
0.158520067673473,0.00767452325635184,1
0.30783217464537,0.0157692442169117,1
0.367244399982394,0.0185756330816415,1
0.301582341973254,0.0143978693047243,1
0.542947153152717,0.0206470360239899,1
0.676901801571834,0.0161173286270585,1
0.59377712243678,0.0157244238962183,1
0.58302464575613,0.0160858286741816,1
0.460024521946589,0.0106377816616896,1
0.369000399468114,0.0080782779013067,1
0.323576159350378,0.00883614686214347,1
0.340321757048942,0.00903353757027483,1
0.368211490460679,0.0108778261824042,1
0.404682849254331,0.0129174019567416,1
0.249608321016469,0.00743704505964428,1
0.177617317544667,0.0083943241519043,1
0.185278210635987,0.00557943772301484,1
0.204361869542772,0.00606735683272659,1
0.281655148378053,0.011129378828167,1
0.288220681977033,0.0113147332046895,1
0.325688054437011,0.00994731761026084,1
0.546800641981201,0.016705990632409,1
0.753031804754966,0.0214822250138838,1
0.858127884628286,0.0231638502638684,1
0.842753759459875,0.0295735251293977,1
0.455039966184449,0.0176610386975526,1
0.318157573074296,0.0151354347126974,1
0.312001393081641,0.0158580606264837,1
0.362010100684977,0.0170276840258373,1
0.31093272557214,0.0155838241356306,1
0.341627007107114,0.0245684818314537,1
0.338997204770268,0.025884138313687,1
0.245062853317049,0.0141404802079008,1
0.19256956785862,0.00863292634283556,1
0.240040106758753,0.00815067252542575,1
0.264255175130521,0.0035950694452011,1
0.286557723715471,0.00484529484928134,1
0.340678860059981,0.0035555336074294,1
0.417187906716454,0.00359530881960817,1
0.441209559168362,0.00331589334541956,1
0.463633149865783,0.00281063916441361,1
0.462459573893629,0.00261181284625894,1
0.492430238669894,0.00375067156580255,1
0.449159653718452,0.00305206259800674,1
0.381152617606723,0.00217924096502588,1
0.391050623634008,0.00484665925459584,1
0.420038705373437,0.00518212144590014,1
0.357391854206819,0.00812224438407052,1
0.182995397925104,0.00409766046622962,1
0.180956280608624,0.00570081274488505,1
0.168829426295943,0.00800527028702295,1
0.144002667651409,0.00874297346691299,1
0.187713516373392,0.0126874200850639,1
0.164003893186028,0.0158612536282385,1
0.162087315003112,0.0260940111751232,1
0.183584669046656,0.027190295966197,1
0.190693473404341,0.0267855492105423,1
0.187990304630807,0.0220584694737479,1
0.176585733455754,0.0239046877551085,1
0.102304714346407,0.0120831713967514,1
0.1435890377253,0.0374470035865509,1
0.166665719821342,0.024566302698937,1
0.162317639647508,0.0271644825073539,1
0.143484752796197,0.0241822797325014,1
0.115834155120352,0.0211155500667828,1
0.0884696927079482,0.016188057021246,1
0.0608434513361734,0.0049107397930062,1
0.0681601878212893,0.00607555215995066,1
0.0703350352636058,0.00537748604273657,1
0.0828612398281559,0.00761747310617444,1
0.0533950226744391,0.00187756098634782,1
0.0504239387811575,0.00246510453557588,1
0.0568635061549376,0.00338156760868895,1
0.0806174782167038,0,1
0.203618146366772,0.00911004136016061,1
0.338880586679148,0.0161343168599695,1
0.454817652659596,0.0194395001629868,1
0.402180186759213,0.0158627909804703,1
0.401810701990878,0.0158489104378228,1
0.336645038440164,0.0132838184104942,1
0.315521784002048,0.0136496214051528,1
0.309700680595678,0.014147167810267,1
0.23404661577929,0.0106562523938898,1
0.20162370632811,0.0175345467746042,1
0.182782696889521,0.0145215368225171,1
0.127824957456304,0.011092404645051,1
0.0333557061157848,0.0018422227214573,1
0.0290419218236119,0.00435407752013731,1
0.0252035957258983,0.00360703865142859,1
0.063279523377231,0.0155450155670076,1
0.0954298459409874,0.0226003146984871,1
0.113928943168487,0.00835669548632636,1
0.141858378144128,0.00917514628948291,1
0.129422183874086,0.00859039165493544,1
0.124797465708664,0.00947526029423072,1
0.123889872653081,0.0101286294494934,1
0.130956852346533,0.0102235747584562,1
0.142879860383858,0.00762471851041461,1
0.158116413446602,0.00893809893092715,1
0.135526978595434,0.00778610364547095,1
0.122829011433192,0.00484981361599117,1
0.135268220431058,0.0154076028562289,1
0.09879825081606,0.0130893858368959,1
0.12023179587985,0.0143696882114601,1
0.133839435169218,0.00461987540323731,1
0.218871461302129,0.00905554820688712,1
0.188497649499273,0.00560074530211181,1
0.184157211101006,0.00780976329006576,1
0.182444638080688,0.00856726877734474,1
0.173733707240991,0.00786855178754621,1
0.173596855851421,0.00912411971590918,1
0.166735513866997,0.00788725083017941,1
0.16977774593108,0.0078606365519601,1
0.14775707289246,0.00563160381083976,1
0.134187038940043,0.0135528892875039,1
0.0475868310597623,0.00533481416513087,1
0.0543896669100088,0.0144241237837279,1
0.0527966881890033,0.0115156220848146,1
0.0491545747927049,0.00915574080452488,1
0.0781692503069046,0.0148999544613378,1
0.115490841560753,0.0223959093518487,1
0.152970537940302,0.0349761260292201,1
0.166958466637686,0.0462244095923337,1
0.164474339693174,0.0535369426500621,1
0.165567089401174,0.0614202486060688,1
0.140806809946031,0.0562676964832154,1
0.070743943919981,0.0488834278172186,1
0.0416688473904772,0.0539453907161662,1
0.00572365344479832,0.0347363569156108,1
0.000762223008537977,0.241537687816463,0
0.000217939160180618,0.701967366915433,0
0.00015085923966701,0.801936696515897,0
0.000166311424780265,0.734128876108311,0
0.000152134708681569,0.67737762473313,0
0.000133071984067657,0.589568673985809,0
0.000126044184536966,0.477065153248404,0
0.000108070110746963,0.448059283617242,0
8.81687244495475e-05,0.400698882818167,0
6.30370487529675e-05,0.339079740750022,0
5.39221865849438e-05,0.30989290967009,0
3.96410422659969e-05,0.272048866945221,0
4.34891311492222e-05,0.400136553407327,0
4.68165582980415e-05,0.4965281169651,0
3.45686572029488e-05,0.44935775232848,0
2.85972864182068e-05,0.522415638178517,0
2.79908228632696e-05,0.705694948934481,0
1.61979550154242e-05,0.566977334827709,0
1.28727486470322e-05,0.351292492004083,0
1.43326577194866e-05,0.281226648675384,0
1.41137768065328e-05,0.298498847394564,0
1.35759241481586e-05,0.294408659758609,0
1.24018863747863e-05,0.281456258070178,0
1.20431798883416e-05,0.285158255190699,0
1.19078064387087e-05,0.28504970856005,0
1.21074093238978e-05,0.286597138495469,0
2.45389032511554e-05,0.190384474723261,0
0.000140555394168374,0.36662668564285,0
0.000272497255421261,0.277890913701824,0
0.000277434872950412,0.226264813790268,0
0.000277994672251903,0.223609594269726,0
0.000283041350971069,0.224028183515008,0
0.00029408794043561,0.224182481899687,0
0.000306508236304304,0.226354667917724,0
0.00031571829389903,0.230350266180573,0
0.000331189433957839,0.233050883895736,0
0.00033939756098413,0.304244458967987,0
0.000225092970333178,0.327049777027137,0
1.92681664724716e-05,0.202302654092683,0
2.46511508258146e-06,0.325654802364121,0
2.43668184470712e-06,0.287759174939711,0
2.06674506432567e-06,0.256281767215053,0
2.21695024572938e-06,0.268397627307735,0
2.20369021603233e-06,0.265164402144813,0
1.96257418069372e-06,0.258695525849777,0
1.82327803222349e-06,0.257643262734783,0
1.75368969359441e-06,0.254279959362847,0
1.76479468845504e-06,0.253279113874582,0
2.6098165749159e-06,0.303113408617996,0
3.59640565560126e-06,0.414172363365199,0
2.2318431700722e-06,0.369192639595551,0
2.25433435423168e-06,0.394347455239837,0
2.33147487612762e-06,0.388059456084452,0
2.31662784621383e-06,0.378748266584057,0
2.13873958230561e-06,0.367053642176995,0
1.62829500410323e-06,0.324983574483014,0
1.57695316131009e-06,0.297559864452738,0
1.71364698638155e-06,0.304272736921638,0
1.48551670689029e-06,0.289304074298572,0
1.25363637903286e-06,0.252969225896723,0
1.16122812829031e-06,0.245717045635232,0
1.4260710370781e-06,0.261285051009802,0
1.67535300261155e-06,0.274523648204768,0
1.63904012836158e-06,0.270337546017976,0
1.55461914735798e-06,0.25946009968473,0
1.32660542514681e-06,0.231114887361107,0
1.44605478274962e-06,0.247531032060933,0
1.41831415008807e-06,0.246204614399559,0
1.46058801861092e-06,0.243854129701381,0
1.87249998948498e-06,0.280797471474263,0
2.29369592983901e-06,0.309804356166085,0
2.02944582409293e-06,0.291220336621583,0
1.78787667232798e-06,0.276765279069562,0
2.02076685974494e-06,0.284452308822795,0
2.80273508221255e-06,0.338220481468207,0
2.82522462728528e-06,0.33335370823196,0
2.85761006755844e-06,0.32229341421715,0
3.09987000332868e-06,0.337895751268138,0
3.23090752214225e-06,0.359995901310632,0
2.62669115514101e-06,0.320307835798169,0
1.61188519603248e-06,0.253264451963577,0
1.99086390741695e-06,0.283525458256684,0
1.8641530312645e-06,0.269935549435402,0
2.1378267931059e-06,0.301159806523284,0
2.18514740973592e-06,0.307557488583259,0
2.10517982743553e-06,0.310100479403717,0
2.58087685923541e-06,0.332106307422536,0
2.84678134987578e-06,0.342238753779081,0
2.76767592720656e-06,0.351631653061552,0
2.74342035721971e-06,0.352326766665557,0
2.84858853407943e-06,0.356005675520795,0
3.01272030712572e-06,0.359138213501228,0
3.34906746483407e-06,0.381729573264075,0
3.09687593819635e-06,0.358898354108297,0
2.64009251054017e-06,0.328004950196185,0
2.30538152565109e-06,0.309621864503781,0
2.13940250183612e-06,0.319073606062427,0
2.09907732533979e-06,0.3127443949429,0
2.16875654222318e-06,0.303353314992992,0
2.82621682113205e-06,0.334640171084795,0
3.17233949222499e-06,0.324844303078816,0
3.19848711468506e-06,0.342406477525318,0
2.99586539594162e-06,0.34839815588428,0
2.88683971947315e-06,0.34756206589988,0
2.8067284439009e-06,0.35061378019935,0
2.67665489021784e-06,0.338440661970788,0
2.53299804250621e-06,0.34369246224617,0
2.45755069722434e-06,0.351628456383044,0
2.44326059256448e-06,0.363580725017054,0
1.40895332565154e-06,0.295853027747886,0
6.36004451213942e-07,0.226692415223683,0
5.40189267598491e-07,0.207017864239473,0
5.47045749599819e-07,0.204629991803919,0
6.05064867576152e-07,0.220486940106437,0
8.97076731990802e-07,0.255720555569641,0
8.50843558359878e-07,0.251169352652913,0
7.55394801693712e-07,0.243925334368076,0
6.59533541528475e-07,0.214815847777419,0
1.59919738973237e-06,0.314641782864177,0
2.51402998425822e-06,0.384068536598301,0
4.31843502526529e-06,0.472553013892993,0
4.37187125668506e-06,0.462920983493484,0
4.03139305400125e-06,0.443686093200795,0
3.85467546227494e-06,0.420468263052639,0
3.49604965532253e-06,0.415971148543913,0
3.18103175138775e-06,0.396576934487769,0
2.71324313104201e-06,0.361885521899903,0
3.17841595105346e-06,0.3998339141646,0
3.2323242394576e-06,0.404216235570106,0
2.74800542922527e-06,0.381288086365756,0
1.22191076223746e-06,0.264615466489627,0
1.47482840430598e-06,0.284030504243589,0
1.44738062181065e-06,0.272924119720287,0
1.4789749295452e-06,0.273470576585464,0
1.40733536490729e-06,0.253937831995805,0
1.42980688002575e-06,0.256297698149976,0
1.49051719632692e-06,0.262052698418954,0
1.02016176612869e-06,0.225361774339629,0
5.97382285852182e-07,0.17258971796857,0
6.82509349004076e-07,0.183489588703731,0
1.06276199503579e-06,0.222512988266047,0
1.17888455289578e-06,0.234071096689419,0
1.04581019561262e-06,0.236564747379665,0
1.14673423051104e-06,0.257289385534477,0
1.14840682748034e-06,0.261550799909223,0
1.96536700239714e-06,0.333604941944363,0
2.14552321600688e-06,0.336742536495835,0
2.09698931093942e-06,0.328764102676902,0
2.05568232147907e-06,0.32741430786747,0
2.26255255308182e-06,0.337527984620947,0
1.63791844666146e-06,0.293403378217846,0
1.15061704490406e-06,0.264838478185539,0
1.58375355012037e-06,0.275425538003105,0
4.20616705308206e-06,0.423806486195665,0
4.41091958460215e-06,0.374411084049621,0
3.54418635503393e-06,0.331849741963083,0
3.40140514388899e-06,0.327900076148567,0
3.45203926544708e-06,0.320195768617988,0
3.54840518221096e-06,0.322073646188209,0
3.85536315022747e-06,0.329202974012216,0
3.77570062018357e-06,0.32972251512596,0
3.70620097435982e-06,0.321505859146437,0
4.05227210528048e-06,0.353585517704827,0
2.5118226807665e-06,0.270884170115129,0
3.03764098209208e-06,0.334043059382622,0
2.74883389651767e-06,0.327066334078508,0
2.39569648049152e-06,0.311746069109143,0
2.93749259946851e-06,0.340698533042665,0
6.14844751858751e-06,0.496858819839377,0
1.04805219310724e-05,0.651866094991762,0
1.1978942803714e-05,0.682009348114007,0
1.15810847268868e-05,0.69930955061594,0
1.02525619344825e-05,0.616696778051982,0
1.18438705818018e-05,0.677680164922206,0
2.62806886219168e-05,0.420949222780022,0
0.000103753229758059,0.687064067149669,0
0.000133853263873689,0.554377707342215,0
0.000377562496722396,0.0396683378478752,0
0.00429430236292697,0.0640777250818924,0
0.0051628531741546,0.0431245592538213,0
0.0049438580010097,0.0413844229128606,0
0.00475680018898945,0.03535338225625,0
0.00540732003333055,0.0356880583546671,0
0.00512469201268676,0.0328204041250208,0
0.00440430026989406,0.0277243550452014,0
0.00391908601199985,0.0253788133574018,0
0.00365592385463795,0.0229537815534377,0
0.00378884561968302,0.0326919341369348,0
0.0025136972030248,0.0461294965404667,0
0.00221449015299073,0.0635275970476634,0
0.00219708213671755,0.0568509427420185,0
0.00233478529684079,0.043984836605275,0
0.00206539749461673,0.0292915330207119,0
0.0017025021216463,0.0254450590038745,0
0.00181663258610168,0.0274873330880278,0
0.00182372540620047,0.0257320581498532,0
0.00179824256017408,0.0252771953245726,0
0.00184114966673395,0.0233070055188599,0
0.00284994201779549,0.0211865526596373,0
0.00402932497617728,0.0249083851975559,0
0.004003065060066,0.0246807478231466,0
0.00392573316076855,0.0323340076683959,0
0.00482765358260434,0.0442017850284326,0
0.00573844357727583,0.0445712780274132,0
0.00489505672374047,0.0352724586050006,0
0.00484948440420864,0.0342295313737672,0
0.00527614688099892,0.0384923222685826,0
0.0046849681742588,0.0367641600475678,0
0.00441680818023111,0.0516125184631206,0
0.00406879799857433,0.0431572304050084,0
0.00464230050694853,0.0503956549659724,0
0.00492016448242954,0.0560585119338808,0
0.00388833427043557,0.0668815748917617,0
0.00195973490508632,0.0467841311264157,0
0.00151992627506164,0.0465096554265919,0
0.0014558172868848,0.0507122280670807,0
0.00145673568103271,0.0435932758256878,0
0.00148692163534736,0.0401952181085012,0
0.00123797354377183,0.0461160551221795,0
0.000939591158166769,0.0737206773724282,0
0.00094504026856116,0.0731426706077385,0
0.000961856398952722,0.0631411660597442,0
0.001014934027877,0.0557227822486229,0
0.00111119839265363,0.0616893911710828,0
0.00105711827787475,0.0613472373916537,0
0.000956412060850468,0.0635841630899407,0
0.000381535148549647,0.0495373319993054,0
0.000492063100476431,0.0755580786486612,0
0.000539207937800829,0.0441626966669755,0
0.000609422725733838,0.0462417587118357,0
0.000602516052710737,0.0457103072588484,0
0.000558056719159565,0.0475269976068241,0
0.000670643050251896,0.0647943686166784,0
0.000744076810241566,0.0633023398029804,0
0.00077979796379344,0.0588044467333437,0
0.000796177838497698,0.0551706059714537,0
0.000845086547522589,0.0572163116070075,0
0.000619799112476945,0.059417667121535,0
0.000594469682056549,0.0641622434722923,0
0.00127142331009304,0.100886864372916,0
0.00201220746859666,0.0874139064042027,0
0.00379731502861108,0.0729775898462671,0
0.00344998380859109,0.0482948944071857,0
0.00304152696775372,0.0438811574665215,0
0.00300517110790734,0.0447963734616407,0
0.00293751586867252,0.0433771043806463,0
0.00272243638490149,0.0415629694733876,0
0.00274013792937644,0.0414904307229086,0
0.00302186748935266,0.05095407332082,0
0.00283063367621402,0.0468310185470894,0
0.00255519216732468,0.0544958437632075,0
0.000851718875851005,0.0508631020565405,0
0.000949113262183271,0.11620683930979,0
0.000921662371797343,0.141506730419903,0
0.000679606403982429,0.124582399830186,0
0.000622959008022554,0.137361071825101,0
0.000623297005012139,0.137909192068886,0
0.00065008041337852,0.146583799281274,0
0.000649158896041859,0.190781995434611,0
0.000200013052625305,0.163393144894057,0
9.69075675504973e-06,0.5194921376976,0
5.45097603935556e-06,0.47452233426611,0
4.51385714651414e-06,0.435196379040459,0
4.50730735585605e-06,0.459923294925393,0
4.46830492236799e-06,0.452995583580787,0
3.49587044850439e-06,0.41411094502061,0
2.19990210442938e-06,0.340232183656105,0
1.63033912740282e-06,0.307825864042342,0
1.81036567103845e-06,0.309288202423684,0
1.69469185870682e-06,0.292999243872349,0
1.4308367728678e-06,0.289851942584514,0
1.26544053545328e-06,0.25993987666043,0
1.26223684933754e-06,0.249200266590421,0
1.28642958766559e-06,0.248381376879564,0
1.46671310367968e-06,0.278485468262595,0
1.72074386777306e-06,0.31290774547506,0
1.9055920582687e-06,0.329309164087342,0
2.12363084487387e-06,0.350585374929639,0
2.0907913775706e-06,0.375977404045819,0
1.26888771701196e-06,0.313151107398361,0
1.10723733918635e-06,0.306992776409793,0
8.4181182611886e-07,0.294862359254924,0
7.64717745014206e-07,0.316473467488536,0
1.03554769134215e-07,0.153698291140843,0
1.02811716473637e-07,0.15189123781356,0
3.03517524925591e-07,0.198451181107746,0
4.24208217561371e-07,0.206766939415082,0
5.92100784098078e-07,0.210177254028717,0
1.34689221974657e-06,0.292840663389141,0
1.36287677586574e-06,0.268855150356048,0
8.73250202067139e-06,0.302146729263704,0
3.10833147907686e-05,0.383658956707173,0
3.05236650104137e-05,0.317859866920285,0
2.96590549445506e-05,0.32066364471609,0
2.86947894969346e-05,0.317468779810557,0
2.83074130156404e-05,0.313635151152205,0
2.69444444509166e-05,0.306693844608205,0
2.62424126681011e-05,0.27707839093316,0
2.65714547804005e-05,0.279679801376559,0
3.0281083995761e-05,0.230280020917007,0
6.85042366351384e-05,0.398571335265619,0
8.35121338075249e-05,0.53472186964851,0
0.000119761192036038,0.693753979348033,0
0.000239157938596552,0.670742846340344,0
0.000282687902674922,0.342289002870728,0
0.000263590440531249,0.325754773436603,0
0.000271217135042743,0.269546744092095,0
0.000295987834481969,0.192122237593311,0
0.000248233241405834,0.134757717068394,0
0.000254890641569439,0.14417290015521,0
0.000300984615758011,0.15955687655407,0
0.000324710831569169,0.163935910157982,0
0.000328775706066118,0.163854131139156,0
0.000294582493157155,0.166697934096184,0
0.000280831169971501,0.182288514595611,0
0.000297950232005535,0.184528848820236,0
0.000263336956857889,0.233505364688991,0
0.000130076015955613,0.227262681784182,0
0.000131022599481718,0.365489670268364,0
0.000128271463214677,0.301843323956637,0
0.000132219032279494,0.286525445395955,0
0.000128035003278437,0.281566692597828,0
0.000129431735573271,0.306546430638022,0
0.000101755781274921,0.285624158728619,0
7.79440983811707e-05,0.345767578815671,0
8.78250853591242e-05,0.417445172600089,0
8.79165675258523e-05,0.357924979329975,0
5.61238907741958e-05,0.261979606016854,0
3.11419503874841e-05,0.157831043871412,0
4.32672798468336e-05,0.19459320857521,0
4.24054922883562e-05,0.199356890834063,0
5.09051696850807e-05,0.207398605915043,0
5.43856474699039e-05,0.171706255773894,0
5.34469643419395e-05,0.155242021908985,0
5.22480765564519e-05,0.145280285825701,0
5.46150713530834e-05,0.150609985310141,0
8.28526199350375e-05,0.186607857369413,0
0.0001009808990066,0.201043522454087,0
9.81906852723216e-05,0.219841439615168,0
8.27280719249137e-05,0.214172098000255,0
8.89033165085563e-05,0.213284958313782,0
8.56208058003445e-05,0.223922174868625,0
7.2118784977748e-05,0.206857016831762,0
7.11386830381827e-05,0.225482030591629,0
6.8037536732637e-05,0.218499176134232,0
7.30164237343738e-05,0.221726293913072,0
7.91966447675139e-05,0.267838207129989,0
9.24399193555543e-05,0.329205683490871,0
9.60525148173601e-05,0.400548073815792,0
7.36760680053183e-05,0.361004454163366,0
7.13468310289684e-05,0.405336692281604,0
7.64461196977105e-05,0.400140477367336,0
8.19660559412278e-05,0.437068505735072,0
6.35752651064797e-05,0.373861520089419,0
4.86385285211582e-05,0.367772440453499,0
4.99015126119336e-05,0.391658298093106,0
5.89679452300797e-05,0.42807295058685,0
6.58525583309572e-05,0.45039355555737,0
7.19261294528146e-05,0.472057476007301,0
7.58014113316057e-05,0.436733844837824,0
7.63574624059378e-05,0.444523430584921,0
5.76497057037114e-05,0.445534005948886,0
2.84630971176914e-05,0.344880526636058,0
2.46652906808556e-05,0.348229279219396,0
2.55840033579632e-05,0.359554057268298,0
2.58349502713944e-05,0.371961637637002,0
2.3373675751192e-05,0.348282240256453,0
2.27923186343862e-05,0.346367721675883,0
2.26910740669676e-05,0.347880266422867,0
2.36026680081937e-05,0.435047848208088,0
2.08823157936699e-05,0.452053741303007,0
1.59377743978401e-05,0.490866565977321,0
6.73989558191708e-06,0.406970691295857,0
6.36863150550859e-06,0.407151922994626,0
6.51312756563688e-06,0.38351721335191,0
8.24503324994461e-06,0.401164628870493,0
1.18012120742546e-05,0.399496334368806,0
1.52679765308336e-05,0.273816501199885,0
2.84304028006259e-05,0.27057075081014,0
2.82473188138369e-05,0.256363890409784,0
3.12049854751609e-05,0.269595958521255,0
3.29187918171988e-05,0.272561704920598,0
3.54985404383871e-05,0.274293897665493,0
3.88586979641803e-05,0.284281492943328,0
4.07782433858418e-05,0.299970491260154,0
3.7732163110309e-05,0.306350021598627,0
3.27077226095807e-05,0.308959017912323,0
2.70285113891819e-05,0.49529277182054,0
2.00415872217728e-06,0.272255489363311,0
8.01229313002576e-07,0.307601036826902,0
1.04412448594931e-06,0.326786982253019,0
1.27641385701156e-06,0.323819346182266,0
1.22500681498986e-06,0.277107019712318,0
1.24218608322996e-06,0.27508961730144,0
1.23924574371893e-06,0.282855537818592,0
1.47902319154399e-06,0.279040824449193,0
1.82964788758044e-06,0.275537636486402,0
1.86407144116843e-06,0.263401862047409,0
1.96266305561979e-06,0.266660587132601,0
1.90372277088925e-06,0.266106295279827,0
1.85576400315073e-06,0.272397282710809,0
1.71597958894936e-06,0.264417161082056,0
1.6153891992652e-06,0.274185560738215,0
1.1511111384992e-06,0.233895799267138,0
9.11964010590373e-07,0.207149088003994,0
9.33728168715283e-07,0.223515857458437,0
8.21832269224586e-07,0.236593832029804,0
1.05367926898474e-06,0.28777928136651,0
8.89856554851444e-07,0.265003670518517,0
8.65051708682169e-07,0.263933027175078,0
6.14720181265654e-07,0.212569480678141,0
5.41791930199737e-07,0.195708323335045,0
6.13593946546779e-07,0.204517220463466,0
6.76464397065381e-07,0.210803264688959,0
6.02216499043938e-07,0.190710387891138,0
1.23383038321347e-06,0.276970461159278,0
1.57082935108658e-06,0.289575308585257,0
1.4830247486661e-06,0.281373175286335,0
1.57937737061522e-06,0.298654568910774,0
1.84590307513432e-06,0.326174054457762,0
1.79882941424149e-06,0.338835118080694,0
1.70609498523543e-06,0.357750619456138,0
1.63317146930902e-06,0.357430874652401,0
1.66338165934249e-06,0.344246327301254,0
1.64647502586536e-06,0.349856523068062,0
1.14516671721458e-06,0.296239053638147,0
6.92414532362775e-07,0.244909436839213,0
7.16055991180145e-07,0.24085728353772,0
6.60566530423277e-07,0.226004937265721,0
4.0244460579871e-07,0.178850622868854,0
3.52039410023544e-07,0.167575269228623,0
5.37636481043758e-07,0.198674329656222,0
6.14776456577447e-07,0.204196430123128,0
5.33389607271208e-07,0.198061540100689,0
5.39854893901231e-07,0.209163550742864,0
6.41455507386428e-07,0.235279537326421,0
5.49513850005737e-07,0.220694040776118,0
5.85079847059372e-07,0.236735119374982,0
4.88660568915702e-07,0.204772990632042,0
5.56902124597478e-07,0.198002780518001,0
5.65941141668502e-07,0.19191087789959,0
5.11737453407634e-07,0.181436667899901,0
5.12037588403867e-07,0.184601275512043,0
8.04701445104024e-07,0.227603145472329,0
9.61441665385065e-07,0.254321626844826,0
8.60128620564342e-07,0.241388652448406,0
8.84441012225235e-07,0.25315859892673,0
8.97371585485283e-07,0.252914869530088,0
7.22106042499846e-07,0.246083411994831,0
4.64168970436672e-07,0.213864889308018,0
3.74084762586674e-07,0.197197568514634,0
4.74855998175726e-07,0.217292566615553,0
5.35121757725804e-07,0.232087932166954,0
5.35694527484999e-07,0.238825368170838,0
5.04446795537968e-07,0.230992300984905,0
4.87847764007822e-07,0.224851323549709,0
7.08208043815048e-07,0.23744553032411,0
1.22089543905542e-06,0.294086913637027,0
1.25467883820667e-06,0.302989686522503,0
1.24646810630729e-06,0.299481872623593,0
1.30958077742358e-06,0.321527500822369,0
1.32667098861686e-06,0.313022613282776,0
1.38639930983327e-06,0.31709810302594,0
1.14751516428765e-06,0.275518119444966,0
1.220351990737e-06,0.274889901418559,0
1.32753788338753e-06,0.276651443199012,0
1.45052347959585e-06,0.30130819840782,0
1.46836402827971e-06,0.306631999436727,0
1.38975779858663e-06,0.295025171317328,0
1.42076130660772e-06,0.307381552053247,0
1.42346179309082e-06,0.305280226541804,0
1.43854266604779e-06,0.324177099361697,0
8.48757000925507e-07,0.249303842030584,0
6.10993262234758e-07,0.211043476059932,0
7.46863537274082e-07,0.246629744113705,0
8.91051266972371e-07,0.255584438333989,0
1.40987855369849e-05,0.394349759934929,0
2.89712854019202e-05,0.395722654085683,0
2.79968709112611e-05,0.369604115965471,0
2.60278161457943e-05,0.362441467533762,0
2.53628903730957e-05,0.364782118255451,0
2.60533409152889e-05,0.368634643943026,0
2.59451896005419e-05,0.368321574881628,0
2.50530301288049e-05,0.359708401081085,0
2.46719331709755e-05,0.357565592154458,0
2.40894337928249e-05,0.359553442593548,0
1.66790932688761e-05,0.556022045365712,0
1.72963136037997e-06,0.266600771356577,0
1.08454509371872e-06,0.244057433353955,0
8.10390715217695e-07,0.221722723013664,0
7.69736992888106e-07,0.225689734267266,0
6.2907657787856e-07,0.191735731623931,0
5.656175130955e-07,0.186391318551421,0
6.11662191750029e-07,0.188365049265004,0
5.81513922771602e-07,0.182599989653701,0
4.70645184311704e-07,0.164710081500478,0
5.7460280454523e-07,0.172596580651522,0
8.70315908965009e-07,0.21375358153017,0
8.59382836092514e-07,0.212775944501768,0
1.06033323271191e-06,0.235778513508173,0
1.20893083425412e-06,0.257398793019161,0
1.25914061446439e-06,0.275926188111525,0
9.7084201002437e-07,0.244492891791802,0
9.74340185393089e-07,0.251314653060834,0
8.95318902510438e-07,0.244722145614955,0
6.46627918811196e-07,0.224103238397484,0
2.70370637796085e-07,0.170310133735835,0
2.0539814957935e-07,0.162422589731403,0
2.49138454382337e-07,0.178200098570394,0
2.7359435719434e-07,0.175368664916014,0
4.25202414736394e-07,0.207639943072209,0
3.88071636197542e-07,0.194091041462776,0
3.98640467569754e-07,0.19657905569351,0
5.34402016521245e-07,0.222403281155615,0
5.97924277204603e-07,0.213614772000833,0
1.63431027035965e-06,0.311802413266396,0
1.74857191839469e-06,0.302678423584028,0
1.76134222539461e-06,0.30665096466566,0
1.68967497840267e-06,0.314200507570643,0
1.67948932908876e-06,0.329336278635754,0
1.69391238189622e-06,0.311543988735233,0
1.83780962899803e-06,0.317110490494691,0
1.79272836911175e-06,0.313821288058502,0
1.61088444251045e-06,0.282888393325146,0
1.66262931852366e-06,0.287406572572276,0
9.78864064826604e-07,0.229388207636976,0
8.74198723358026e-07,0.228244307825687,0
9.4622165217499e-07,0.221957281196838,0
1.27760765852873e-06,0.241058068202225,0
1.23338819403213e-06,0.234162184930554,0
1.31489870332771e-06,0.248730596457711,0
1.25598573670969e-06,0.238846059085582,0
2.99060483807378e-06,0.331939914633443,0
3.28007939619746e-06,0.328127266811475,0
2.89740800448311e-06,0.31314684886679,0
2.9467399626777e-06,0.311181420848334,0
2.70482241391772e-06,0.29822317506013,0
2.28462613436122e-06,0.274313339842564,0
2.53390573232491e-06,0.291577914058395,0
2.61234823546361e-06,0.295594416259381,0
2.7648989500084e-06,0.304181222311948,0
2.67640283509964e-06,0.30753344905281,0
1.3547744058127e-06,0.24092156921078,0
7.2158426655069e-07,0.18903459400399,0
1.00132610966606e-06,0.226355255245548,0
9.83587548602274e-07,0.226702594612405,0
1.00775424366305e-06,0.232371982224372,0
1.03988762881802e-06,0.240776144940445,0
1.51568774096248e-06,0.27744015208353,0
3.31759171770786e-06,0.336332554916441,0
2.04133271797015e-05,0.581198360710149,0
2.76547343170265e-05,0.568318522744879,0
2.69186852920165e-05,0.558035527364531,0
2.47490006624506e-05,0.533133717143616,0
3.07587510277151e-05,0.373177861687419,0
4.56629479164881e-05,0.433180129928322,0
5.07752942787738e-05,0.44542469461114,0
5.21376886167724e-05,0.383875538817853,0
6.30346884680457e-05,0.282180340100662,0
5.58096233898724e-05,0.246947384287445,0
9.08392877649146e-05,0.133716603371554,0
0.000214932664942853,0.137173677774666,0
0.00019429673302722,0.1183319478887,0
0.000168546819487085,0.108810898541636,0
0.000160882460036892,0.101198682378012,0
0.00018733415476169,0.104176929219703,0
0.00028568082700287,0.116408696152831,0
0.000280662376999976,0.106777617378777,0
0.000276595023293256,0.106630617266668,0
0.000233490371448434,0.0823295075923341,0
0.000270835080858251,0.0996348804538899,0
0.000265088218153401,0.106379321142961,0
0.000270561856024059,0.111966398315062,0
0.000245719951196063,0.0829325815770519,0
0.000387408957066417,0.0840630233050343,0
0.000429927349103839,0.0615079769611475,0
0.000450701538897546,0.0654816462546301,0
0.000450689640584698,0.0663464415687469,0
0.000444781949412967,0.0670076883023657,0
0.000445909967458228,0.0763054321408077,0
0.000392740910639208,0.0760098312059981,0
0.000415966665003203,0.086230437549221,0
0.000419394713866476,0.0846841676262778,0
0.000458607634504232,0.113783270646458,0
0.000188656897769967,0.0986957471291137,0
0.000102442206766415,0.225527383396034,0
0.00011063370671458,0.257986096617782,0
0.000101372793721584,0.259763581416676,0
7.17966153740759e-05,0.211025411104847,0
7.07920418693141e-05,0.209317325960335,0
8.17952878701672e-05,0.233257071503265,0
0.00017335323139997,0.274816814456621,0
0.000284337615261363,0.279515826462773,0
0.000242630079439796,0.255865335165249,0
0.000205008248175976,0.24566009791966,0
0.000203477081628217,0.203936822738467,0
0.000211388609714759,0.186744898951552,0
0.000202884054213742,0.164965218348026,0
0.000147114386295244,0.133258430609472,0
0.000115424209469336,0.112853341794661,0
0.000129904962319216,0.123422493403618,0
0.000147871582271156,0.157598749027222,0
8.68362226829941e-05,0.131772850966162,0
8.4090978204341e-05,0.135042055445298,0
0.000103746382017854,0.157236225294067,0
0.000112512570003075,0.162885674263082,0
0.000127737349677424,0.155063143292784,0
0.000164979090746922,0.174947189869903,0
0.000187906298936108,0.135884353430893,0
0.000224125176113907,0.158080884986547,0
0.000270170877558568,0.172421355011432,0
0.000307565355287897,0.200157062347622,0
0.000311116554202415,0.212473580532856,0
0.000320355280335025,0.211553283181957,0
0.000332979880718193,0.228585199530134,0
0.000339070836176255,0.266170543769639,0
0.000269044377671881,0.34136297636671,0
5.13726658195017e-05,0.175463922861907,0
2.46547294985549e-06,0.301893588840861,0
2.79772530461766e-06,0.323602581824868,0
2.94083487947511e-06,0.314897336722748,0
3.09979806563238e-06,0.33913217066722,0
2.85327723279182e-06,0.330524937407706,0
3.08245925961515e-06,0.346281334713795,0
2.86944227057438e-06,0.355131092570267,0
1.8498747644534e-06,0.30761774730499,0
1.93775913576244e-06,0.334177606503532,0
2.30120221867684e-06,0.353958709219054,0
2.11007013381833e-06,0.336838205531645,0
1.55031108101338e-06,0.312973486949918,0
1.32970093153696e-06,0.329396054686858,0
1.22697663302339e-06,0.310577133914295,0
1.03938934644563e-06,0.296578598882384,0
6.71505431159777e-07,0.246154315646267,0
5.83675149713532e-07,0.218687648501641,0
4.71209030154142e-07,0.192548296579042,0
6.88417346138668e-07,0.224458020913466,0
4.97620909822664e-07,0.193419507213268,0
4.87186301443306e-07,0.200912974654575,0
5.60229652823313e-07,0.209613115555829,0
5.78320799659371e-07,0.207357129368477,0
5.88381149897188e-07,0.210937614567036,0
5.43365453480959e-07,0.200523770257473,0
4.14687673226974e-07,0.171797421250661,0
3.83572525186046e-07,0.169512638473678,0
3.58813027083557e-07,0.168651072413086,0
3.03779778805795e-07,0.159526163154989,0
3.37753858382444e-07,0.163453253208436,0
6.34248807182578e-07,0.21204087515603,0
7.02283837933693e-07,0.212745179244222,0
6.75480034410866e-07,0.206497677196765,0
7.90830946652497e-07,0.214707593379716,0
8.30974184519439e-07,0.206773801708969,0
9.50470893517291e-07,0.228789040320493,0
1.37114505792217e-06,0.266331829782315,0
1.48510821004772e-06,0.244652885740791,0
1.7633878056602e-06,0.258870424365519,0
1.67518180910641e-06,0.251668021042678,0
1.59334257185682e-06,0.248058427238838,0
1.65627039041172e-06,0.25030181043421,0
1.93793378956183e-06,0.269655212695241,0
1.7651944435016e-06,0.254943662076622,0
1.72598894537714e-06,0.269208291553815,0
1.90206182964795e-06,0.263158924237854,0
2.21491759603705e-06,0.274587194614549,0
2.21600321782864e-06,0.292446433192812,0
1.92717792017922e-06,0.280146729869931,0
1.85770595670949e-06,0.281807606305892,0
1.91973355239643e-06,0.278635353467231,0
2.19691532412706e-06,0.28251265234252,0
2.54547786690965e-06,0.29913084061878,0
2.54531231914778e-06,0.292384957717727,0
2.47364416155209e-06,0.280613700289299,0
2.29656178196324e-06,0.287222565171268,0
1.59608166793895e-06,0.256875230829458,0
1.55884161695001e-06,0.256863717024644,0
1.71160140611596e-06,0.26792961632487,0
1.71691496112209e-06,0.261471263867692,0
1.59702505342468e-06,0.263716373418859,0
9.60433444912283e-07,0.230406615403697,0
7.67995918516754e-07,0.214785146765426,0
6.2346634817045e-07,0.207819395360377,0
5.41000615540372e-07,0.203651446645685,0
5.85471588792927e-07,0.215452715179545,0
5.0437121542666e-07,0.206420458935778,0
5.7435876274004e-07,0.217039108945286,0
8.81464430684922e-07,0.262045673376014,0
9.33712688451519e-07,0.273704695934706,0
9.40619617900637e-07,0.286299747117275,0
8.80735947684355e-07,0.268512319704552,0
8.33561027654449e-07,0.264536617773551,0
9.96955211662661e-07,0.28542894479064,0
1.1193332530485e-06,0.299202777576361,0
1.22626800118459e-06,0.302015903005676,0
1.24372882810441e-06,0.301602678230562,0
1.21742767785197e-06,0.294805922992526,0
9.31644707333662e-07,0.267373316731524,0
6.86366666492075e-07,0.236312931296076,0
5.07966279034453e-07,0.204952928488931,0
3.69403530825036e-07,0.184169383543354,0
2.91502472676504e-07,0.171184330390204,0
2.72504546625493e-07,0.173791617806626,0
2.55621953087375e-07,0.174376221027404,0
2.71171969096708e-07,0.177961341343667,0
6.14844205496501e-07,0.246205224495088,0
6.41127872156924e-07,0.25032581426463,0
6.02477295958141e-07,0.254047178776326,0
6.08169115762314e-07,0.252116965595253,0
5.95852471550994e-07,0.252545503866942,0
5.8982500320431e-07,0.240697515960771,0
7.22899906849712e-07,0.265811606664225,0
6.85320382782512e-07,0.242560730405738,0
8.35564355906006e-07,0.251543706054278,0
8.96024074054984e-07,0.247733852109863,0
8.26165286111954e-07,0.230528815616849,0
8.46389431173667e-07,0.238127815847123,0
7.1051587796084e-07,0.218985176707432,0
7.019722293302e-07,0.222865949340813,0
7.69451609672635e-07,0.232832571003394,0
8.30317639215179e-07,0.251756462310781,0
6.81701279235701e-07,0.236481632092575,0
6.99745256797471e-07,0.247978247606945,0
8.20263298962117e-07,0.27088921549182,0
6.71193822556286e-07,0.274525579653472,0
3.62362924745316e-07,0.231999240268056,0
4.0586701893537e-07,0.241871235049397,0
5.28128320920369e-07,0.257740202349791,0
9.43165665987616e-07,0.336575104613307,0
1.29548044258537e-06,0.363083601963377,0
1.27208521102219e-06,0.356049238135317,0
1.15492383640341e-06,0.324869323717789,0
8.68448807034558e-07,0.278951115841368,0
4.58244946676068e-07,0.214152634790388,0
3.90904888707494e-07,0.196726866794802,0
4.45917010978239e-07,0.206676122071521,0
4.35283162498226e-07,0.218446509459857,0
4.41294604218897e-07,0.237457683906253,0
2.98340014119818e-07,0.205921515467244,0
2.45265656630578e-07,0.195894735781584,0
6.74973192363222e-07,0.293568552753765,0
1.26891539936598e-06,0.379703214693164,0
1.47024861380217e-06,0.345441764656352,0
1.73400808624737e-06,0.34575876718031,0
1.72386031804949e-06,0.343645129892959,0
1.67785461323549e-06,0.331180112286233,0
1.63699600506199e-06,0.320098857577809,0
1.55017048379427e-06,0.312552657697701,0
1.8165350114495e-06,0.330993122075565,0
2.20856832032487e-06,0.38359269474769,0
2.02414975267882e-06,0.355384342238435,0
1.11123525389346e-06,0.276312045544104,0
4.97788460912794e-07,0.216168593700032,0
4.60427481745764e-07,0.232482749164075,0
3.23404382358044e-07,0.216145783494167,0
3.16702156632086e-07,0.213800545068864,0
3.68070589054751e-07,0.228238746444019,0
3.89586880838719e-07,0.227420116766118,0
7.11710590081769e-07,0.291596458387149,0
5.80952990861166e-07,0.231250029911141,0
4.73107638974367e-07,0.20328270933105,0
6.8569063426755e-07,0.240458486045959,0
6.98383539948663e-07,0.229734163855089,0
8.52631984126267e-07,0.246709876862675,0
8.94979247311423e-07,0.24753059557707,0
8.09601039645081e-07,0.244544310002122,0
8.05359811615786e-07,0.246021132392504,0
8.18401114291919e-07,0.242176666933407,0
8.71109773314876e-07,0.255841682414638,0
8.46924137696082e-07,0.252355846698747,0
8.44397212287868e-07,0.268170810634168,0
8.8913262486963e-07,0.275114034563316,0
9.64163277875181e-07,0.265149202914981,0
1.08442125160862e-06,0.284466756646327,0
1.27501425904672e-06,0.306737984262089,0
1.28904502375837e-06,0.301998518737323,0
1.27581850427935e-06,0.298215291086508,0
1.30470722614979e-06,0.300792383588671,0
1.11954087070366e-06,0.287540225095405,0
1.13140931574889e-06,0.292865224282926,0
1.14166835972511e-06,0.282321986781925,0
8.05218485913676e-07,0.244100929838459,0
7.49941377951474e-07,0.266975195693048,0
5.84645489070285e-07,0.237661147680914,0
2.94220624872367e-07,0.173770544956621,0
2.63955798613851e-07,0.173601880338016,0
2.7990010604724e-07,0.175837920172966,0
2.83076291929709e-07,0.180806702003068,0
3.40584925443394e-07,0.185851444496292,0
3.70860496826169e-07,0.180625089233794,0
8.55834395396757e-07,0.265598517059916,0
9.35762639615112e-07,0.254611475088542,0
1.07454302212095e-06,0.256085842031807,0
1.25274453371942e-06,0.26206530734361,0
1.23287734532798e-06,0.248327667747581,0
1.17037058994741e-06,0.239830752402353,0
1.15714570955513e-06,0.239892114524366,0
1.35515467393899e-06,0.260189222479882,0
1.55196164137192e-06,0.291388274112035,0
1.50956247377297e-06,0.305730212028806,0
8.22960871513213e-07,0.232064267088117,0
7.76396784479281e-07,0.245940999441125,0
7.51874589714226e-07,0.261517082274397,0
3.4145455202532e-07,0.192928733291627,0
2.53922402247055e-07,0.179867926394965,0
2.05532918934455e-07,0.16253061614642,0
1.72652838703906e-07,0.151904962148549,0
1.60645071284825e-07,0.149978175883124,0
1.17426542430994e-07,0.130598595084663,0
1.17894774879607e-07,0.127592690601914,0
4.21021104433895e-07,0.197566024572422,0
4.53074356458801e-07,0.190885498583709,0
4.68918861721113e-07,0.185723938887582,0
8.49565070693885e-07,0.235542830321552,0
9.86389294222452e-07,0.242463324137428,0
1.19987415147034e-06,0.258958707605295,0
1.15177770044471e-06,0.245193847973351,0
1.07027356537538e-06,0.237774969200915,0
1.12402104115714e-06,0.237819446251534,0
1.2289750440147e-06,0.258021971432474,0
1.11198267745204e-06,0.254243264929337,0
1.03087064835776e-06,0.256176138036339,0
9.93426440007919e-07,0.251783644506639,0
9.59805492565793e-07,0.251294767600787,0
1.0057509154115e-06,0.261319638376683,0
8.18153612192477e-07,0.239337209571618,0
7.9176049096122e-07,0.246088320230721,0
8.0303467599873e-07,0.249970526686436,0
7.18059319431701e-07,0.250579680961375,0
5.67093601775398e-07,0.227329566465128,0
6.50463928171428e-07,0.24634273404497,0
5.51439776938483e-07,0.231256427919927,0
4.36264611220739e-07,0.204626484018728,0
2.43526039225226e-07,0.157371761382818,0
2.22443741188845e-07,0.164576854342611,0
2.62514859238731e-07,0.194863609843742,0
2.91904595292818e-07,0.200746739412397,0
2.85632538778694e-07,0.204605296305545,0
2.95127586208072e-07,0.194896426887379,0
3.27702432061384e-07,0.197381326194353,0
3.00201470307015e-07,0.194894920865332,0
2.9331056748391e-07,0.199565737908633,0
2.68782544854851e-07,0.196474067617215,0
2.42149206354156e-07,0.190935254076145,0
2.48450584309053e-07,0.190520410458855,0
2.08807450021999e-07,0.167738349987383,0
3.21702646068722e-07,0.198388247708239,0
4.31434040443986e-07,0.220128211742709,0
4.32099691785753e-07,0.220281692054733,0
4.06487686451851e-07,0.222485397726278,0
4.0830015215726e-07,0.22891947786932,0
4.14443631421783e-07,0.233727218063013,0
3.11238716248591e-07,0.215696211644863,0
3.67703251501715e-07,0.231869559789989,0
3.93589166443828e-07,0.217281694323674,0
3.99902200126735e-07,0.212826042366312,0
2.92844520484298e-07,0.188428997766049,0
2.13819413065893e-07,0.15818479414057,0
3.40264210802394e-07,0.206250545057266,0
4.36410307820853e-07,0.230073895959416,0
4.69887561991115e-07,0.240940589666225,0
4.41126506766517e-07,0.222401015793826,0
8.50566552698913e-07,0.278195463250053,0
9.12633304347141e-07,0.276097863952114,0
8.63460701808933e-07,0.291511538167988,0
8.25707798787599e-07,0.2982044293264,0
8.92501858747248e-07,0.303275332220391,0
9.65853358436494e-07,0.287968765946861,0
1.43210087299453e-06,0.314798967864964,0
1.28723091896621e-06,0.276104629557899,0
1.54600574648004e-06,0.289800304059781,0
1.6471060742646e-06,0.286111144991873,0
1.56501332493081e-06,0.289038880408108,0
1.59784241135132e-06,0.292054470773427,0
1.6825052487111e-06,0.283548152011433,0
1.94019208686358e-06,0.294116212086279,0
1.5656500190733e-06,0.250170741708434,0
1.30384761620912e-06,0.23082469397644,0
1.23967409172326e-06,0.227918045936479,0
1.47484388456974e-06,0.256640412843415,0
1.28742706301411e-06,0.242530726588585,0
1.09736493756268e-06,0.228348079969572,0
1.33643994565445e-06,0.242925575501592,0
1.38265490721036e-06,0.249888625245203,0
1.18526806730898e-06,0.237390506255108,0
1.06872244294643e-06,0.237434276003044,0
1.08558627804728e-06,0.257436656671559,0
1.24633971117844e-06,0.287823061370158,0
1.11124982355347e-06,0.278598109730164,0
1.05622112829446e-06,0.265331221191834,0
1.0441683770501e-06,0.270213479895047,0
1.07571442278586e-06,0.280908244629333,0
7.47799637929807e-07,0.258604859440922,0
3.23640410850227e-07,0.179231112612008,0
2.39748308505041e-07,0.15593596964584,0
6.32694770821621e-07,0.21732285130259,0
1.53396082642793e-06,0.324058467483362,0
1.52824077790748e-06,0.322339113851859,0
1.6415805307053e-06,0.333817816504684,0
1.61891232517669e-06,0.34365340525363,0
1.60357775801477e-06,0.325754626509657,0
1.53399579361196e-06,0.309900520202673,0
1.43434806093053e-06,0.293422332472255,0
1.45299667938277e-06,0.301649165638282,0
1.74874529734882e-06,0.338691664249611,0
2.16133767134542e-06,0.417049145178493,0
1.46543552661743e-06,0.341693783338398,0
1.24874825809906e-06,0.319266689537487,0
9.51414825365276e-07,0.287485438127405,0
9.21192979603791e-07,0.280936253772918,0
7.90434105537939e-07,0.273225133105644,0
4.77016678755405e-07,0.211058320263688,0
5.20829831858449e-07,0.231987946361682,0
5.19495797363662e-07,0.226400893239485,0
5.23004353615138e-07,0.228321578079696,0
4.98684495003491e-07,0.217560474215798,0
5.61450043970012e-07,0.229798568435896,0
5.60569125901578e-07,0.233033853098394,0
6.18075756087011e-07,0.235624690099722,0
6.1238557536959e-07,0.232240338141569,0
5.3379027292152e-07,0.22272286709082,0
4.4357475601067e-07,0.208327769726012,0
3.89199327882418e-07,0.194343654834252,0
4.42584019129899e-07,0.20610892912933,0
4.92986300973065e-07,0.200739631004196,0
4.36062639308833e-07,0.186615283389263,0
4.10211145188495e-07,0.182334298458239,0
6.66100997899329e-07,0.219008261313836,0
5.82668568327499e-07,0.202222351838612,0
7.82842402068289e-07,0.225316159452236,0
8.04485632015107e-07,0.218431214455714,0
8.51912242921709e-07,0.226950338137911,0
8.16350616766075e-07,0.225693760503963,0
6.43677380538155e-07,0.207745141523196,0
4.97920498456648e-07,0.191221524659193,0
5.94761386136896e-07,0.209272864882132,0
5.81378424933497e-07,0.206168252426191,0
4.31706310965447e-07,0.193905449199717,0
4.46139926776413e-07,0.2014263302889,0
3.70245110811441e-07,0.188044909984124,0
3.29720147852202e-07,0.184505264821857,0
2.87526594580166e-07,0.17786060435057,0
3.75930920630858e-07,0.198161554268251,0
3.79372092204783e-07,0.197428857258569,0
3.69445236476819e-07,0.2080384312387,0
3.50972910910715e-07,0.217585126722992,0
2.71131174048676e-07,0.203279181480711,0
3.15127176384863e-07,0.21050500773292,0
3.7868731818425e-07,0.246969377613889,0
1.229038239915e-07,0.163754876430487,0
2.2779098853375e-07,0.205668827898173,0
3.34169722019659e-07,0.237229130821525,0
3.39324649852414e-07,0.24740153146554,0
3.44077090827357e-07,0.244097543313592,0
3.43921377585987e-07,0.239803171866982,0
3.37994257772631e-07,0.238005945203618,0
3.35110922056389e-07,0.233218985756144,0
3.12724639448995e-07,0.23987752547396,0
1.8801126368409e-07,0.191059254544372,0
1.07582369523594e-07,0.162626198168913,0
1.88684381976613e-07,0.174805572381717,0
3.60718010130038e-07,0.211066476744938,0
3.75426081911466e-07,0.202174261118523,0
5.81482415881827e-07,0.244800575864799,0
5.69714683611435e-07,0.222284267791458,0
6.23501315354477e-07,0.229712246335362,0
6.18493905329335e-07,0.226775727626015,0
7.95182904097878e-07,0.250067972289337,0
8.29254054034352e-07,0.249521465214709,0
8.33425529816343e-07,0.250127798808521,0
7.2872777085424e-07,0.255926173043992,0
5.19743481583854e-07,0.236908122317275,0
5.29722423846358e-07,0.241130173416158,0
2.06568639640509e-07,0.161271846043121,0
6.39486053594397e-08,0.118379659259678,0
1.1358652641426e-07,0.127867102883048,0
1.75722666068291e-07,0.145607259247905,0
1.34011732784131e-07,0.134992421279337,0
1.35716383005455e-07,0.139033923724002,0
1.88521201784486e-07,0.153268063556688,0
2.42663697473306e-07,0.162044843779903,0
2.50322785620507e-07,0.162205503913416,0
2.3799685325093e-07,0.162410602079302,0
2.60823139590667e-07,0.166239757115556,0
3.07513254183696e-07,0.178997681201344,0
2.4882065367334e-07,0.171680792136784,0
1.93355414976242e-07,0.162834948515513,0
2.00668837939675e-07,0.160934177959055,0
2.06246103792009e-07,0.164770074559317,0
9.58051669741934e-08,0.132763433976462,0
7.13257705854219e-08,0.13412085822721,0
7.11451068012818e-08,0.136256677577075,0
7.36119323619484e-08,0.132920482444358,0
6.21177454582672e-08,0.127302663231671,0
6.21164706130162e-08,0.129417733500601,0
8.65525222632537e-08,0.136826330278052,0
6.00942018034448e-08,0.120360713334702,0
5.4308407692199e-08,0.115489772815916,0
7.5824881596918e-08,0.115647767961634,0
1.03581723005236e-07,0.120817028929307,0
1.26747482423236e-07,0.127764553761361,0
1.38053538592021e-07,0.128719816256739,0
1.45649977201174e-07,0.131229396023537,0
1.98756387942439e-07,0.146127538461561,0
1.7723991403772e-07,0.139973740473766,0
1.53989104229404e-07,0.140232534903554,0
1.96570938940741e-07,0.152651689986061,0
2.59166022885128e-07,0.170163775047811,0
2.67015245095478e-07,0.174345437558778,0
2.25269708868791e-07,0.168543950619437,0
2.7017048709168e-07,0.168722922366099,0
4.40739500172466e-07,0.213436599102697,0
4.36469314943898e-07,0.216203087548016,0
4.66460231594202e-07,0.228828730153064,0
4.82099851012605e-07,0.219903376006783,0
4.86561080908071e-07,0.210875550897983,0
4.22702261078451e-07,0.196062531200797,0
2.49944885063964e-07,0.14876435474836,0
5.98224594321587e-07,0.208263748055063,0
5.64078956998304e-07,0.197596099079386,0
6.61746672884195e-07,0.220594083055158,0
6.92481370678076e-07,0.221331277455781,0
7.01611630244921e-07,0.222696045737879,0
6.86319315097038e-07,0.222218535308367,0
6.58768634377879e-07,0.229554348425488,0
6.11044256044798e-07,0.225818450387459,0
6.21968769242037e-07,0.236247915717965,0
5.74184655302907e-07,0.245651114886238,0
1.48383427540048e-07,0.15250385757564,0
1.44266041620849e-07,0.159008960164086,0
8.37546011788294e-08,0.135628781236606,0
9.27256872100499e-08,0.142021199018045,0
1.25489938643509e-07,0.147148995447981,0
1.58080811122833e-07,0.15946463915687,0
1.62445881262225e-07,0.166005446634653,0
1.68432554560877e-07,0.173964662577264,0
1.10857811214889e-07,0.150109017570835,0
1.11058690402296e-07,0.150276966548916,0
9.54919192839491e-08,0.140917080473697,0
9.01439434560441e-08,0.136331849874675,0
1.01158606424603e-07,0.141233839121907,0
2.06422943040395e-08,0.105972463753201,0
6.38160214533368e-08,0.133228813608019,0
2.11417604613027e-07,0.198160847648125,0
2.50090581664077e-07,0.202885249574664,0
2.08949504207109e-07,0.185680533190593,0
2.57737285600269e-07,0.19924243807596,0
3.08382880765621e-07,0.221470022425341,0
2.9014458036345e-07,0.223366365873792,0
2.8923106268074e-07,0.231133782953682,0
1.94840063331396e-07,0.194083787974893,0
1.04174526046947e-07,0.139204237551355,0
1.27217353958601e-07,0.152180261474334,0
1.12176365445914e-07,0.148238072232365,0
1.27186757672577e-07,0.161400284833159,0
6.7253550612258e-08,0.144950862956467,0
6.37437195155308e-08,0.142898767838652,0
7.46026692427183e-08,0.140678290089085,0
1.15297004499589e-07,0.157317682149308,0
1.15039303638139e-07,0.157202275683286,0
1.04332060495819e-07,0.155119145000677,0
7.69906365185739e-08,0.147612815584018,0
7.00715049791973e-08,0.152809365369871,0
8.19980465437147e-08,0.144429706573045,0
8.86390796976248e-08,0.142776998604504,0
2.00187128555551e-07,0.17768784040824,0
2.18465677643504e-07,0.178126575543624,0
2.81274571348558e-07,0.197488399279723,0
5.34118090271774e-07,0.247213998817193,0
6.35989881553931e-07,0.254485618757928,0
6.00774102702817e-07,0.245096291211608,0
5.43318102085923e-07,0.241914510127701,0
3.76764123062756e-07,0.196038957333311,0
2.79532222131954e-07,0.171764901984187,0
3.1316755711334e-07,0.178421550227987,0
3.54445771495164e-07,0.194009276624486,0
4.7822086115534e-07,0.236919573497795,0
5.20542081073226e-07,0.24934568230581,0
2.92842881397547e-07,0.207513181961347,0
1.4235013132936e-07,0.158492023778116,0
1.22056051899591e-07,0.143441494486956,0
1.60106904468157e-07,0.155758763487269,0
2.19663850058685e-07,0.178516964705167,0
2.10329068889431e-07,0.180479701009083,0
2.14014646510045e-07,0.179075345058706,0
3.3991162503012e-07,0.211293758030536,0
4.16144639228106e-07,0.222047016961437,0
4.88354606055465e-07,0.216121482915353,0
6.1996525886973e-07,0.226962810570107,0
6.45348520541453e-07,0.232008428390475,0
6.97341809257854e-07,0.231728051414909,0
8.65121825170973e-07,0.248586408905811,0
8.20844628396568e-07,0.238476661391329,0
8.35431589879153e-07,0.235079331408491,0
8.67200733533839e-07,0.243763248119033,0
7.78997468791302e-07,0.242203084690191,0
6.77256075966245e-07,0.228325519193402,0
5.80955176310167e-07,0.232047229047036,0
4.51537985810607e-07,0.207860981006095,0
3.86345313606951e-07,0.195998575038572,0
2.0943886266274e-07,0.172648323460489,0
1.42460860745446e-07,0.162175698553176,0
1.28388754623512e-07,0.172364604275793,0
9.9060575382973e-08,0.172302046141688,0
7.5317857428524e-08,0.149362719039525,0
7.20311242507201e-08,0.134326226632325,0
7.57272648748421e-08,0.141088738963787,0
8.80235115621466e-08,0.148593714790373,0
1.75098174016056e-08,0.125352085367883,0
0,0.124047688007459,0
3.17516600626719e-08,0.129456016368039,0
8.80541078481704e-08,0.139846638070972,0
1.47453701110575e-07,0.147383703062682,0
2.95915804814684e-07,0.186634856536525,0
3.0673232040709e-07,0.190540954075764,0
3.03480372292562e-07,0.193439357304742,0
2.82014892197883e-07,0.175319204689578,0
2.2333922891729e-07,0.158331361070955,0
1.92345737537458e-07,0.149086870495032,0
2.15639163601307e-07,0.147828857175379,0
2.88687614362317e-07,0.160442928004968,0
3.25323206581535e-07,0.174250217971464,0
3.05599529341209e-07,0.177277716961137,0
3.85757974187744e-07,0.198114328508522,0
4.1410342986052e-07,0.19012416519612,0
4.65872163691995e-07,0.195049456295667,0
4.5490120970347e-07,0.196522969893881,0
5.37606795361485e-07,0.208453314103547,0
5.58722603615892e-07,0.201549677266367,0
5.29237982650982e-07,0.201706787757463,0
4.55528615687708e-07,0.202381358102284,0
3.76765762149506e-07,0.187746454909079,0
4.05320656684946e-07,0.206684489030232,0
2.70494479906181e-07,0.162299715725389,0
2.6419984041904e-07,0.164680103000963,0
3.03832958064836e-07,0.184193341447522,0
3.88819241876873e-07,0.208427589257734,0
4.12347603708405e-07,0.21398626891781,0
3.71039157282058e-07,0.207053581246825,0
3.70581669957701e-07,0.210857424105641,0
3.18282964743314e-07,0.199938571838246,0
3.07433121053633e-07,0.199672526100741,0
4.04423347748998e-07,0.211564992252804,0
5.60730302765452e-07,0.245671414011188,0
7.91455438704732e-07,0.279327089894961,0
7.31763541638349e-07,0.272165486093833,0
6.28257034502923e-07,0.253206254230748,0
4.03906124818597e-07,0.206585718865122,0
3.63004536148063e-07,0.206427723874385,0
3.39713477653966e-07,0.197962384865086,0
3.54511334965216e-07,0.199301141477281,0
3.63926249264531e-07,0.201697158328628,0
3.66695213149681e-07,0.199962177163656,0
3.35369715642342e-07,0.194544223862158,0
1.4681555000208e-07,0.141220463387463,0
1.87974839534061e-07,0.149444299167165,0
2.81799079108966e-07,0.169815070984512,0
2.95496016485608e-07,0.165287114104903,0
3.03680705117718e-07,0.160949738412411,0
3.25745726721863e-07,0.16303269918591,0
3.33807848089128e-07,0.164752697370441,0
3.24984461986271e-07,0.164279465117398,0
4.55347041299817e-07,0.183465273030765,0
5.60014932458897e-07,0.193897397523743,0
5.26978774745477e-07,0.201164710165736,0
5.36238704286422e-07,0.20281013361946,0
4.92517157920698e-07,0.192337340700933,0
5.29283877080018e-07,0.203286635057745,0
5.25646561458192e-07,0.204394817605927,0
4.7423023127824e-07,0.198515285870223,0
4.58341106432142e-07,0.18847329344269,0
4.40416964323967e-07,0.181914746532406,0
3.56993094427394e-07,0.17570654371126,0
2.95453218109325e-07,0.177836755231497,0
3.33588392585207e-07,0.189789296517636,0
3.98100115304085e-07,0.19837799785366,0
3.57460962634507e-07,0.190729278184888,0
2.8197191170085e-07,0.169594256480348,0
2.85642737540702e-07,0.171493850177494,0
2.67525365316624e-07,0.170516899356743,0
1.64354506723708e-07,0.145389628380955,0
2.29899218337388e-07,0.161941684551464,0
2.21196578291875e-07,0.165520595975234,0
2.851255146103e-07,0.177814990879183,0
2.9258936931335e-07,0.175516330007663,0
1.89034053816884e-07,0.150631019746535,0
1.98756387942439e-07,0.160393679732531,0
1.21726777583335e-07,0.139329085826947,0
1.29008693656993e-07,0.137569753880094,0
2.02835892745609e-07,0.154152749212563,0
3.13568222763651e-07,0.173311348218491,0
3.50787876228571e-07,0.182638314715672,0
4.83228999663482e-07,0.212698773477545,0
4.72945733627492e-07,0.212958909812867,0
3.92100147190672e-07,0.196996354148191,0
4.68630382452888e-07,0.207129757162666,0
4.92177684842435e-07,0.210788614190731,0
5.07152563522821e-07,0.214745443445612,0
4.96783336492763e-07,0.222004454041008,0
3.69352719135746e-07,0.198715994078124,0
3.80736722985592e-07,0.199608168321983,0
4.15706092461765e-07,0.202249815237891,0
3.23739302417554e-07,0.182348758288756,0
2.55066120557943e-07,0.169096657363387,0
2.34328394980829e-07,0.167169117047757,0
2.46881614046583e-07,0.175683378822511,0
3.34353299735801e-07,0.199513097253775,0
2.88899056553232e-07,0.184625070923166,0
3.43003489005273e-07,0.198954420750789,0
3.30233910488351e-07,0.191249911065221,0
3.20190133238796e-07,0.20062311363362,0
2.54417042204439e-07,0.189385776241327,0
2.65121189294007e-07,0.182528182936363,0
2.41027342533285e-07,0.173255781647215,0
2.48324010387705e-07,0.171208301818372,0
4.11760446409949e-07,0.209297791115705,0
3.28892773284309e-07,0.181284193657757,0
3.58032093306951e-07,0.187561992163643,0
2.6652880057185e-07,0.156582407716229,0
2.88910530160491e-07,0.170646401398667,0
2.84963062901174e-07,0.169472106837044,0
5.94340140841818e-07,0.220225874707945,0
6.83660898507223e-07,0.225460236672314,0
6.83461476285818e-07,0.220031716748989,0
6.70654016652866e-07,0.217056021412921,0
6.201838037699e-07,0.210109805700937,0
6.14876987231526e-07,0.219995026402499,0
6.48286674603485e-07,0.228759057490887,0
6.44428628632489e-07,0.23461097594679,0
6.18804239087577e-07,0.220941406810486,0
5.24558754217596e-07,0.200649337112935,0
3.32726050833287e-07,0.170315341621648,0
3.19252029254817e-07,0.174330142453583,0
3.35495561080689e-07,0.174965177182071,0
3.54979567413829e-07,0.17479673634607,0
3.46973721358357e-07,0.172255826382974,0
3.53061653794088e-07,0.167439418587122,0
3.69831332467118e-07,0.161276988174131,0
7.40650123641505e-07,0.219875425298661,0
6.57077096850567e-07,0.20536959296751,0
6.98819172783001e-07,0.20566488729245,0
9.86868636036823e-07,0.244555251626413,0
9.29245630692049e-07,0.232137051622683,0
9.03638178376901e-07,0.226936053354971,0
8.56978842190646e-07,0.222278013364272,0
8.7890017052293e-07,0.233735354586641,0
9.04733816809751e-07,0.242348532128519,0
9.47248813205789e-07,0.255549809800474,0
6.71619256628617e-07,0.21423678760004,0
8.04337203603742e-07,0.243840566554126,0
8.58559650301874e-07,0.269149878166905,0
4.69419875904752e-07,0.20417107460765,0
4.68481771920773e-07,0.211394909131946,0
4.58718460626438e-07,0.223967162034883,0
4.70361075941483e-07,0.234753993378073,0
5.0201457291983e-07,0.23043599089581,0
5.46747071569587e-07,0.230579113155328,0
3.01909580822592e-07,0.186276863454695,0
2.36981530068891e-07,0.18136355899918,0
1.93063475413765e-07,0.162877452646207,0
1.80210849834779e-07,0.153360852054227,0
1.70313497668338e-07,0.157163138345646,0
1.38251503847425e-07,0.15427329204014,0
1.78905408297764e-07,0.162385613079847,0
1.68936664797268e-07,0.14695866325074,0
1.44182266075784e-07,0.13145035025706,0
1.29444144370582e-07,0.127269333086614,0
2.36091141721449e-07,0.156925897295288,0
2.42798466828411e-07,0.152185474022772,0
4.34299710447462e-07,0.185668458721489,0
3.49788397551795e-07,0.171567599571126,0
3.23895379900425e-07,0.168667076536357,0
3.21593373618636e-07,0.165027879284695,0
3.55909111722551e-07,0.172642318474379,0
3.5151927316114e-07,0.183761360521395,0
4.27822221727179e-07,0.216744659292494,0
5.04890623806064e-07,0.240024813397637,0
5.84289443003759e-07,0.256826103980864,0
6.10535957031153e-07,0.256821820698794,0
3.82903231429276e-07,0.211787841407474,0
3.31271998764157e-07,0.195838021109247,0
2.92407248563208e-07,0.18440210324685,0
9.53314709030751e-07,0.256064705237827,0
4.05665957627213e-06,0.501853160025562,0
5.5037278609963e-06,0.576347224401749,0
5.42590037963082e-06,0.510083506910353,0
5.04209401140159e-06,0.499991191716126,0
4.65101574373996e-06,0.484832608394378,0
5.03012285025329e-06,0.522822770120535,0
4.86789824570249e-06,0.521817606697858,0
4.808062109002e-06,0.523540064920077,0
4.96673025954402e-06,0.522371114497814,0
4.84329737477336e-06,0.622415662599226,0
2.5796967167745e-06,0.48809780082792,0
7.62606601278565e-07,0.26133062410146,0
2.64870773262562e-07,0.176008297648077,0
3.68074777832004e-07,0.178652786916726,0
3.66926870743862e-07,0.168178733866115,0
3.0820021365323e-07,0.151150415975997,0
3.45295114404303e-07,0.153440742808416,0
4.48152543186227e-07,0.175053312811999,0
5.55909930750707e-07,0.193406876755946,0
5.55192921357399e-07,0.194721808991522,0
5.42829107871794e-07,0.192593073317315,0
5.95051140250371e-07,0.201059345849349,0
5.35239771971896e-07,0.195163280353019,0
5.18022986857267e-07,0.201199866379694,0
4.55460138285655e-07,0.198468661076303,0
4.84675766902605e-07,0.206179901032982,0
4.21271520465339e-07,0.199280937523307,0
4.18721829963358e-07,0.194725976612028,0
4.04643167494419e-07,0.188058227220888,0
4.6524803588126e-07,0.191474488269556,0
4.53667341621262e-07,0.189264991109804,0
3.93039890261403e-07,0.176444637334065,0
5.73332148071495e-07,0.209626828809946,0
6.34655847059145e-07,0.20650832773603,0
8.78814209528863e-07,0.228091113250023,0
9.20123020196711e-07,0.222756189803365,0
9.05166535712089e-07,0.221698664006421,0
8.79864135653427e-07,0.22336117750884,0
7.96502368932653e-07,0.210800498113094,0
1.438816575656e-06,0.275227154711416,0
1.50529356338965e-06,0.270390241816554,0
1.6472401151367e-06,0.286387415298213,0
1.35883205612585e-06,0.261719222732722,0
1.2145064610197e-06,0.257959828468073,0
1.09288276378095e-06,0.253046853666846,0
9.48391620912927e-07,0.248109233987597,0
1.0085919991137e-06,0.252817604381081,0
1.18283511620784e-06,0.276421018346639,0
1.22544845780896e-06,0.285684277944814,0
7.24174752100704e-07,0.235822401733013,0
7.34123098077184e-07,0.243853853184429,0
5.64306243694481e-07,0.215627946106507,0
4.66824473094485e-07,0.206696164150488,0
5.21752091337165e-07,0.225038984218272,0
5.02820821480705e-07,0.225497569434677,0
4.9529559208486e-07,0.229180917050836,0
5.48619272881042e-07,0.231138613583444,0
5.2362338204487e-07,0.209856491024632,0
4.72033855031533e-07,0.212128754748714,0
3.87823951977349e-07,0.194363027270378,0
2.6311786104245e-07,0.168370777320684,0
2.67727155107781e-07,0.176598667181024,0
2.73746610141459e-07,0.175112928322523,0
2.09727524051714e-07,0.158995014950588,0
1.78829463944955e-07,0.155900379757984,0
1.75831938518376e-07,0.152961877374983,0
1.14849898057991e-07,0.143041822999356,0
2.36802505371502e-08,0.102397200560642,0
1.28739883429784e-07,0.144670782813482,0
2.09489856472779e-07,0.170380282296139,0
2.14178555185172e-07,0.167402600709536,0
4.49135995236991e-07,0.214696152138695,0
8.65968322417631e-07,0.282401953287177,0
1.83820173497308e-06,0.39528946236817,0
1.90506409021404e-06,0.352980481089364,0
2.05227666345142e-06,0.34971527252338,0
2.0728388246254e-06,0.350488456757494,0
2.08935189516148e-06,0.351657519014243,0
1.81945331434976e-06,0.34077014507781,0
1.4513590495975e-06,0.300534057264402,0
1.43713541901144e-06,0.292787204470355,0
1.46647998911949e-06,0.286910961543567,0
1.3305829423299e-06,0.273658062941276,0
5.74590966696473e-07,0.181678774096228,0
5.11336787757322e-07,0.182983109259659,0
4.37905701300264e-07,0.181511393240521,0
3.89436813340603e-07,0.180012727344211,0
4.11802880544731e-07,0.187742524123167,0
4.72688761249042e-07,0.195465131537551,0
4.65319973577566e-07,0.194886181770574,0
4.30855624941537e-07,0.191991141080867,0
4.03310954207133e-07,0.192553590507688,0
3.88690846748023e-07,0.194229788305292,0
3.41120906811061e-07,0.193981386167353,0
3.15518553876916e-07,0.196582546641982,0
3.12737752143006e-07,0.182543453125336,0
4.08474988077396e-07,0.194689714980184,0
3.92828630191239e-07,0.189155402900584,0
3.85704066445702e-07,0.186685892709468,0
5.03140079155704e-07,0.216449064545718,0
4.57399906395412e-07,0.211554816030338,0
4.13463093303022e-07,0.216160114835023,0
4.08476445043397e-07,0.217559835866548,0
5.07969921449456e-07,0.240411935753593,0
6.26004565065172e-07,0.268122699117465,0
6.10525758269145e-07,0.264835893985263,0
4.57663799362368e-07,0.237919099596585,0
7.54315007766123e-07,0.279774168338802,0
8.9739507906205e-07,0.278757310703245,0
9.29859013378525e-07,0.275672808932144,0
9.25209834868913e-07,0.270062932677302,0
9.32423273540518e-07,0.271161658637998,0
9.28168932817212e-07,0.270482315424266,0
9.24767099325318e-07,0.267652132080952,0
8.23359351714522e-07,0.252968479346846,0
8.73336927968355e-07,0.270560548913317,0
8.58974885612197e-07,0.263814049110402,0
4.3491618918669e-07,0.208717090581461,0
1.6790895740422e-07,0.161941625680293,0
1.69155209697438e-07,0.168603374817232,0
1.22050041914836e-07,0.152792757412337,0
1.38256056866179e-07,0.149890483509717,0
2.66283301800659e-07,0.193135891391205,0
3.13007290853215e-07,0.207051633344728,0
3.53585250950745e-07,0.201626061170045,0
4.24043580403243e-07,0.213356138995066,0
4.59876748597336e-07,0.214800678961508,0
3.86727767182248e-07,0.187865673565926,0
4.38729797694655e-07,0.200975470557393,0
4.55784131100156e-07,0.192214008100518,0
6.7569074811878e-07,0.235486392319238,0
6.8629527515802e-07,0.236128196200092,0
9.18013333427071e-07,0.252565060176879,0
1.17060024421334e-06,0.266191645417646,0
1.08665040959036e-06,0.271426876492726,0
8.84683050702172e-07,0.25527879386744,0
9.08595505195753e-07,0.270261579454553,0
9.11224418224045e-07,0.286490569462246,0
7.62278237566058e-07,0.265657292362811,0
7.35015489752877e-07,0.272447455518143,0
6.55826473659344e-07,0.250022721170277,0
6.27996055467971e-07,0.255944628875541,0
4.91645892252023e-07,0.253411186046192,0
2.63737253713681e-07,0.202570749274602,0
2.72599249415567e-07,0.193524256071048,0
2.72194941350253e-07,0.187759450782936,0
3.28625966385351e-07,0.188413130921696,0
3.56614283267099e-07,0.183028003724305,0
3.47633544836121e-07,0.177395914054729,0
3.47923481070346e-07,0.177517189490366,0
3.13091977002031e-07,0.172857205288523,0
3.2607773284937e-07,0.179819299319885,0
2.54059903413411e-07,0.168152302409161,0
3.17151084281185e-07,0.199631341603533,0
3.27380260454383e-07,0.205026949579454,0
3.02459767608769e-07,0.198311571154417,0
1.80898355666563e-07,0.178978588536621,0
1.9334029895398e-07,0.183115343512472,0
2.51071666145089e-07,0.196812632328043,0
2.77273924830199e-07,0.202209116853947,0
3.04593312196677e-07,0.196357136364945,0
3.11839714724058e-07,0.190734717312491,0
3.38443003300979e-07,0.18675864832514,0
3.98327219879511e-07,0.19430362621297,0
4.89231881708896e-07,0.20536485796654,0
7.58065420373787e-07,0.250527337114044,0
6.76483883985646e-07,0.227355852819943,0
6.38855005195157e-07,0.220150601634385,0
6.29298765193732e-07,0.224426821805534,0
6.46665799927226e-07,0.221700220980468,0
7.94834689223608e-07,0.25099896252454,0
8.87723738746535e-07,0.272420624054358,0
1.17105245003594e-06,0.317405781585423,0
1.33272923537032e-06,0.346956977508561,0
1.2892692144018e-06,0.350690942935606,0
9.57782677393972e-07,0.31293511675902,0
1.08550523431347e-06,0.32518582227496,0
9.93746426165918e-07,0.296076182218136,0
9.48295461156851e-07,0.292457258475363,0
7.99734648006165e-07,0.274577160405285,0
7.69789443664149e-07,0.278522841905675,0
7.54255454280826e-07,0.270407310884376,0
6.29948389909487e-07,0.25204309079983,0
4.53700669718537e-07,0.204210585533531,0
4.22284293956876e-07,0.203726084640509,0
4.59114209016494e-07,0.208488020438093,0
2.49109315062315e-07,0.161078818201656,0
2.11286295552175e-07,0.16863187585419,0
1.96250588541242e-07,0.160535718930876,0
2.56230782755098e-07,0.17192944763078,0
5.50712750903918e-07,0.232334070192171,0
5.15971396606924e-07,0.230670723525619,0
5.23008724513141e-07,0.227205343622323,0
5.39246428475009e-07,0.233319691963595,0
5.49623122455822e-07,0.218667692371571,0
7.52505638113467e-07,0.250050990337192,0
7.78181567830668e-07,0.262917039232552,0
7.99286630960816e-07,0.266231723115421,0
7.80874223121512e-07,0.264559957488014,0
7.47021618085205e-07,0.280303808307419,0
3.69284970216693e-07,0.216489570059686,0
3.62465458727645e-07,0.206210263094535,0
3.68651190006202e-07,0.200434222147163,0
7.37134646801523e-07,0.25634655975351,0
8.13940066517204e-07,0.266094960476282,0
5.88854663847556e-07,0.22810390923149,0
5.56220082388198e-07,0.221983511999336,0
6.01196622843145e-07,0.219015713594706,0
5.94322657249804e-07,0.212771130938406,0
5.41143398208483e-07,0.200138707715508,0
6.72887545532602e-07,0.21508684829866,0
8.78001404620981e-07,0.251483679423612,0
9.57185321333509e-07,0.280076643962568,0
5.8610700809017e-07,0.247318598106686,0
4.68730184623966e-07,0.262066745157771,0
5.35806531746336e-07,0.28817956046585,0
5.79552846534078e-07,0.309706269870171,0
3.31548640183622e-07,0.245950772916177,0
4.9241535242137e-07,0.249189006563431,0
1.26831221544151e-06,0.377282917240691,0
1.38022122762622e-06,0.393241474581292,0
1.31738865822365e-06,0.376661693644233,0
1.35684857903606e-06,0.369790993355341,0
1.3196469555254e-06,0.362133847788551,0
1.22382466920069e-06,0.345350781435116,0
1.02106089627214e-06,0.313347382664438,0
7.64476070778769e-07,0.2703500644589,0
3.6866138876821e-07,0.193947035720702,0
4.20918934693065e-07,0.228732010971929,0
1.78960590885057e-07,0.153932913163259,0
2.20642931211445e-07,0.169306530353845,0
2.46531942206312e-07,0.177428341527962,0
3.2188021380011e-07,0.193367258613698,0
3.28358795244894e-07,0.192722427500439,0
4.0068113057509e-07,0.20813749462121,0
4.46179993341445e-07,0.21111962399369,0
4.76603628894084e-07,0.201326786120384,0
9.45025483088059e-07,0.268861883659844,0
1.0190808794766e-06,0.272422045318246,0
9.80605321318706e-07,0.28912094941166,0
9.06052188920027e-07,0.262755721029834,0
8.94800222614033e-07,0.255100710303673,0
7.47600762070656e-07,0.23596785252104,0
7.73112236750479e-07,0.235238698870072,0
8.02256474033375e-07,0.233083530772217,0
1.21246324832387e-06,0.276452566002717,0
1.70613632664571e-06,0.329778650652503,0
1.31384531690889e-06,0.301355901642077,0
1.14007589588587e-06,0.293992530544327,0
1.07838595206968e-06,0.283735062207696,0
1.04078093109746e-06,0.292643115539136,0
1.06749713453947e-06,0.305524100297631,0
9.26623091890011e-07,0.287920488003213,0
2.62630014189046e-06,0.315630582633843,0
2.77353994217999e-05,0.600093071499292,0
4.35723044209666e-05,0.596679239159811,0
7.40964362068629e-05,0.62147412744524,0
0.000160265625069475,0.784827467933844,0
0.000242388674196706,1,0
0.000245421262967069,0.376517032552393,0
0.00021676774549241,0.255964640540835,0
0.0001951861351908,0.196176383938894,0
0.000167278132102898,0.164855208413088,0
0.000180200725378037,0.174418810583851,0
0.000223906302850025,0.201755894009308,0
0.000239937999650524,0.186330673954339,0
0.000240741461217561,0.169227351327122,0
0.000229853733315798,0.166610449044533,0
0.000169662274843001,0.142155066383548,0
0.000137244042453928,0.1587148670662,0
0.000125675815634122,0.200185601573385,0
5.89082629854131e-05,0.164610587840048,0
5.62756332368514e-05,0.186419136171211,0
5.5405126647461e-05,0.18664487162154,0
5.2017525345829e-05,0.184608221920301,0
5.20025419074734e-05,0.233113274322954,0
2.68972578751586e-05,0.243687106949379,0
3.26239470645157e-05,0.339857278908202,0
3.28934466187638e-05,0.306225830286756,0
3.78071400376932e-05,0.282340377372943,0
3.80885094939525e-05,0.268170299752574,0
4.00280734463489e-05,0.295930078263678,0
3.99791762103849e-05,0.296381556591022,0
3.57101035574795e-05,0.238921682060462,0
4.08942479294557e-05,0.222027231695534,0
4.20124984746446e-05,0.20642768314053,0
4.67478046188103e-05,0.223354365328826,0
4.48021270549525e-05,0.2459588169153,0
4.11953756658979e-05,0.24220828442951,0
2.81177042044442e-05,0.230393849738594,0
2.69786418105329e-05,0.274426246527589,0
2.65571042116516e-05,0.278929580262726,0
2.70075727844174e-05,0.285216424566412,0
2.58562702370098e-05,0.355566481002931,0
6.3313814378784e-06,0.244406775906528,0
3.31867151163545e-06,0.299584807829178,0
3.37093852783931e-06,0.290915534183134,0
3.23782883913063e-06,0.296871128312001,0
3.2041377751997e-06,0.285090630855762,0
3.24370605785845e-06,0.273213506173758,0
2.98491538583936e-06,0.260978908174185,0
2.84151951716269e-06,0.254449160964236,0
2.73398358843038e-06,0.251164048474364,0
2.83549860516301e-06,0.275077814036056,0
2.63619221255514e-06,0.264130906049108,0
7.20444190654804e-06,0.362208300061644,0
1.26802592162229e-05,0.392329058845117,0
5.2791336197777e-05,0.509099480650913,0
6.48359996417493e-05,0.455165980142889,0
6.40876144856078e-05,0.442144534401746,0
5.83610076148298e-05,0.419096090416984,0
5.59337248399168e-05,0.357888656551263,0
0.000124237811863374,0.263082303340672,0
0.000223727995708391,0.337855576223454,0
0.000299895909023031,0.268019037859056,0
0.000288760289283421,0.255144173980327,0
0.000274016550427922,0.251014807012892,0
0.000271401574736396,0.255605748630131,0
0.000256311607944011,0.249755375679773,0
0.000224905511988092,0.229795965276088,0
0.000201079655729082,0.215079755398716,0
0.000167215929671291,0.190879937337631,0
0.000295645916432635,0.121212985458598,0
0.000650102129456766,0.180616490533973,0
0.00160959847478101,0.19983601460077,0
0.00480630591369112,0.220127661541375,0
0.0161875023852861,0.0365625142156346,0
0.0507240469202258,0.0448739701622272,1
0.0626196430887215,0.0439353537761519,1
0.0955394167689675,0.0548895046011369,1
0.150353454492486,0.0700220211731693,1
0.178195876735835,0.0795316096854524,1
0.196145255536544,0.084354716639547,1
0.189081406626817,0.0494444078008849,1
0.14142194151822,0.0338392652021573,1
0.109986610254626,0.0161174081109799,1
0.123131797855492,0.0163784764080503,1
0.11780629950461,0.0074576284358983,1
0.121630558711775,0.00815707704245216,1
0.132279532785406,0.00863883847330509,1
0.132384678884313,0.00777420038256206,1
0.132116266166056,0.00803219746737441,1
0.12615179977801,0.00906097293734383,1
0.122377342771554,0.00970522745641204,1
0.124483401211227,0.0106305066288797,1
0.115105953546793,0.0177643326832272,1
0.0453668965054735,0.00760054976729944,1
0.0392596724849096,0.0230454090382528,1
0.0280115432453056,0.0148229079256676,1
0.0283784696061113,0.0128196456314664,1
0.0315717539287166,0.00922412949818965,1
0.0333233040544435,0.00783161634816778,1
0.0473055483184769,0.00782393920122114,1
0.0488538691824758,0.00476142198505508,1
0.0567265041085264,0.00620053276918895,1
0.0565278842674376,0.00578215628247634,1
0.056120962849492,0.00585016873699533,1
0.0552251418357026,0.00628970985687833,1
0.0578771683868112,0.0051179095611665,1
0.0566495256231043,0.00473173497689999,1
0.053026739568681,0.00711472635292488,1
0.0504404320870392,0.0077418580043768,1
0.0334510377777326,0.00518087003479218,1
0.0385084246898003,0.0123017040745635,1
0.0347827461490791,0.00952723981208236,1
0.0426521888941281,0.00862046736920796,1
0.0463816883247269,0.0070564583022782,1
0.0653713450883759,0.00866889705346906,1
0.0712655588000881,0.0074708107037216,1
0.0771706999671582,0.00930518044082383,1
0.0859769804960251,0.0102343564741336,1
0.0885570562038952,0.0108062519268768,1
0.0890349793105546,0.0118597504141473,1
0.0856813201308606,0.0118254828263373,1
0.0757176592364084,0.0109546613432182,1
0.0663383994967354,0.011200020674524,1
0.070433037695576,0.0151887300521235,1
0.0175956334153532,0.00242234804147682,1
0.0196420740257406,0.0101848673336972,1
0.0242275265363687,0.00712661641633442,1
0.0261956786596754,0.00498603331118233,1
0.0284168685504405,0.00345447283928026,1
0.04438898936936,0.00668775968359121,1
0.0474279659805962,0.00685601568428176,1
0.0482542620308637,0.0074098712706906,1
0.0441937037009905,0.00717760962668607,1
0.0427913518802768,0.00650539072469129,1
0.049962826125454,0.00761709963458629,1
0.0360023919491239,0.00480656774734416,1
0.0390164431282175,0.00850373909730398,1
0.0429550571190593,0.0123771126188117,1
0.041393074319835,0.0157891853755329,1
0.0301270084424539,0.0142103625695234,1
0.0309211685243657,0.0151777110591439,1
0.0266554830531557,0.0118398726228824,1
0.0275770588345497,0.0108982118242521,1
0.0275304220900782,0.0128421842475147,1
0.0126543648654476,0.00973043702799467,1
0.00993961639713326,0.0084091254837673,1
0.00950440216970653,0.00926860759766225,1
0.00891399512442928,0.00822411071377132,1
0.00960068608969871,0.00542346301912273,1
0.0236231023047565,0.0155437241273691,1
0.0214152108311002,0.0097858194906745,1
0.0681407637050006,0.0130928235903521,1
0.106435067155201,0.015915873613399,1
0.106387589422089,0.0148168780918347,1
0.131099642743849,0.0171390752384073,1
0.139115833169235,0.0189477479880099,1
0.14541304236122,0.0183179825434344,1
0.248308973473051,0.0219329196636774,1
0.362814246198296,0.0201901181240522,1
0.338429147912904,0.0177002278930312,1
0.267287027145958,0.0141233688284853,1
0.26828510453469,0.0184826349848187,1
0.283353443463748,0.021393395663395,1
0.255977093139594,0.0192955360471677,1
0.257531544685779,0.0185340167470506,1
0.300753134727713,0.0191848070982198,1
0.310991753684238,0.0208288264760245,1
0.231567758411083,0.0220920585965387,1
0.0723971327171173,0.00976122757743065,1
0.0703829590510476,0.00684298449081145,1
0.117006159613166,0.0124067419738924,1
0.121432631863452,0.00827119836309142,1
0.12162916284073,0.00831212826838249,1
0.121966013224296,0.00949306810200478,1
0.128689433025265,0.0129047148209339,1
0.150707251219867,0.0102135225346534,1
0.360203820611592,0.0215668473926716,1
0.39983145853122,0.0151342904548896,1
0.396240412759048,0.0186445975212544,1
0.365190658393354,0.0203929141340332,1
0.259984696865295,0.0113288410733464,1
0.274596774756029,0.013628518463012,1
0.275750018429439,0.0134865462849728,1
0.28888455464214,0.0131906847434853,1
0.29664581004313,0.0141714223529791,1
0.290526813636928,0.0191061640835241,1
0.157570628746242,0.00595361976945762,1
0.342963355696629,0.0226641080111612,1
0.418560962232701,0.0190960235676996,1
0.419445150787686,0.020462577034291,1
0.395487566033538,0.0224409686042876,1
0.345453508093229,0.0213832601011452,1
0.335452425234656,0.0211098858900139,1
0.295505557548577,0.0205656067008673,1
0.319667443652487,0.0190329076554899,1
0.345534199114514,0.0166829313173857,1
0.354652515334966,0.0261172883923541,1
0.222402732310655,0.0203620306326001,1
0.276599649313291,0.0193090929563166,1
0.35268602829724,0.00971476551338673,1
0.390752812022847,0.0113815252242208,1
0.36709522133844,0.0104250546304733,1
0.380584055212572,0.0107981116765251,1
0.405898413691213,0.0111722947520894,1
0.3981360426797,0.0113210485133343,1
0.396330128296221,0.0125788439887341,1
0.351854537379331,0.0101073143380141,1
0.405131677009653,0.0111705988689084,1
0.225743187573148,0.00612632206329502,1
0.153081644545763,0.0102891672308669,1
0.177260867672,0.00825155055802893,1
0.182634646139042,0.0079847399909671,1
0.194258928901645,0.00887487161907201,1
0.184077093666838,0.00859936047631188,1
0.180978584644591,0.00927010442138819,1
0.170191865453858,0.0103417632335936,1
0.168744461288752,0.0130266748350271,1
0.110317597522713,0.00948763062830142,1
0.106500689585024,0.0129414252129693,1
0.0610510789278428,0.00910155859527862,1
0.0661729525195693,0.0212360279046078,1
0.0741338197451451,0.0255603855073679,1
0.063075551109101,0.0195291682358298,1
0.0853193178554659,0.023749715660383,1
0.120691551650732,0.0296410270026209,1
0.163525263866457,0.0349977972716509,1
0.180488156410217,0.0312655036079276,1
0.176523612636644,0.0293401215201772,1
0.194369538252077,0.0234381249297753,1
0.204910172386678,0.0321557174232153,1
0.141517572767162,0.0285024187182721,1
0.068606461347295,0.0128116265152794,1
0.0436550287577771,0.0107222228018034,1
0.0481979241764368,0.0120483593634279,1
0.0548031210684678,0.00643433395687025,1
0.0626071274336996,0.00417719193497337,1
0.0767206196075365,0.00793304561086772,1
0.110152736466245,0.0111618546238789,1
0.149210845869372,0.0171906015148227,1
0.142811233135948,0.0137747683084709,1
0.133569976803399,0.0129732303784761,1
0.132212940632705,0.0122785567460017,1
0.129795751069898,0.012257654500547,1
0.148688077536964,0.00925768867911436,1
0.217035044809452,0.0203773325696903,1
0.219405607364145,0.0216234400873355,1
0.288129209502589,0.0154110921196119,1
0.302326231599607,0.0157849343988462,1
0.318620612227334,0.0135614594198615,1
0.328095021834565,0.0154819498815416,1
0.266233392082597,0.0112987566759059,1
0.226706325271529,0.00912684978078901,1
0.220434129567433,0.00831826952125875,1
0.291295829247886,0.0151408261711305,1
0.293638570573472,0.0143755973878978,1
0.270827962888734,0.0155482294903157,1
0.195386848705327,0.0158544688060277,1
0.187623050123559,0.0167371056478845,1
0.173842062606012,0.0243319173643598,1
0.110488372542045,0.0112466885390833,1
0.0725796330870352,0.00740251714083271,1
0.0733347368801678,0.00733319903493237,1
0.0840848974474628,0.00523007477669854,1
0.145725165318148,0.0117150284223567,1
0.162233503254763,0.0127504110165398,1
0.205889694961528,0.0119002706323754,1
0.215004468174492,0.0103455773747872,1
0.219351328256768,0.00946062990429441,1
0.187972992855881,0.00991908964036282,1
0.202387946571458,0.00658836073155652,1
0.292248046679397,0.00868698583208617,1
0.258714602757669,0.0081812691506898,1
0.260276422219349,0.00959251147385129,1
0.29215785566228,0.0112323626998887,1
0.29805356257838,0.011652177896055,1
0.265225391681796,0.0125891931993287,1
0.24265852135536,0.0130020907362092,1
0.250235822373154,0.0128668586800111,1
0.273833811223578,0.0129382166965682,1
0.271039558928883,0.0271946673888383,1
0.131972010978832,0.014065673177002,1
0.20563727128557,0.0126698696370024,1
0.255392948803119,0.0107971419194783,1
0.239251241713081,0.0107284293856493,1
0.242721782956995,0.0111477427176738,1
0.2544328064571,0.00978100464833438,1
0.239669207774713,0.00828455482118951,1
0.24034809231032,0.00790289440139927,1
0.322061212184688,0.00925816430920914,1
0.469709484012932,0.0138315427654852,1
0.426221261482345,0.0071440861795551,1
0.448526828162349,0.00978661124482226,1
0.479367922173127,0.0127941676691844,1
0.500101782431095,0.0118570849798618,1
0.475238520375579,0.0114604293180035,1
0.488815785186881,0.011623542789717,1
0.58534426897656,0.0156492805068908,1
0.590300526436092,0.0174601742237557,1
0.509533198192024,0.0186807128701951,1
0.226629076606331,0.0100262839450686,1
0.194315934522017,0.0223080922670377,1
0.236648930075667,0.0288494481945662,1
0.244910883697367,0.0217527642412983,1
0.330132382277516,0.0213601565935883,1
0.337709884574981,0.0203179131540055,1
0.372187571625479,0.0284484549617011,1
0.208427076442143,0.0169110105531745,1
0.131731787255946,0.011003169704044,1
0.116853552058007,0.00972099272581823,1
0.216126464209929,0.0163944142960571,1
0.251000007731864,0.017978898485707,1
0.318679955154818,0.0198486790960896,1
0.431162719863082,0.0336101756355817,1
0.401007490289139,0.0126630516215117,1
0.463134618953208,0.00768276112003514,1
0.457570983168429,0.00791597811479399,1
0.438254327439613,0.00591400563856664,1
0.430902991453506,0.00545465035623897,1
0.416949886926188,0.00546888747731238,1
