Activity,Complexity,Tag
0.000462862405730053,0.09310099914157,1
0.000406189231045774,0.110875019974131,1
0.000420200123695969,0.114007104773643,1
0.000433521716558632,0.105246678514801,1
0.000515283176461177,0.122375543539537,1
0.000527525454147127,0.104380971770208,1
0.000587427529967459,0.117740325907722,1
0.000726070688712159,0.139538890163064,1
0.000631370242703302,0.145868250293157,1
0.000660623379614423,0.236574487070677,1
0.000747583644622972,0.255939422158354,1
0.000831385141683638,0.280387706802939,1
0.00088157626089425,0.270700379217357,1
0.000837757922495876,0.161521078582688,1
0.00205480458823379,0.108148713390252,1
0.00388323514375136,0.113104678472147,1
0.00404255784621709,0.106262476900355,1
0.00388117318226868,0.103894226769994,1
0.00375635570519475,0.0993871420674577,1
0.00363458413035759,0.0862898028025338,1
0.00332215573573397,0.0678776915523989,1
0.0032462476224625,0.0676674553887433,1
0.00298653340762216,0.0673107799872023,1
0.00327187553460742,0.0808521517538782,1
0.00290959184403145,0.144426767076319,1
0.00164895176765814,0.16631840554196,1
0.00156568818510863,0.179070976196635,1
0.00155753965806665,0.190419917541846,1
0.00108377560657102,0.210221362931875,1
0.000171271066190118,0.107447272030114,1
5.36267743966334e-05,0.338879179652062,1
5.37643649346389e-05,0.460860386067056,1
1.19667284678391e-05,0.375962379327146,1
1.20906660778298e-06,0.291440078497907,1
1.01512592011823e-06,0.270726621924946,1
1.68567204476078e-06,0.326434492554899,1
1.53004778860862e-06,0.308752936436219,1
1.61715626117162e-06,0.332257922277581,1
1.67301844604155e-06,0.327519778127944,1
1.69914705423732e-06,0.320233374243632,1
2.48232691003769e-06,0.38748772909877,0
2.88402017008065e-06,0.412389394161858,0
2.3728372132766e-06,0.380004339078961,0
2.34872642723343e-06,0.381169637193925,0
3.08794144223448e-06,0.432326273139933,0
2.83229045593133e-06,0.422908752203596,0
2.71472402407396e-06,0.420847272450451,0
2.26184569846831e-06,0.373259110182782,0
2.24655942985869e-06,0.373250298682729,0
2.39247603098017e-06,0.392803799399992,0
2.25134104100587e-06,0.402855401878716,0
1.73476303736874e-06,0.355895743094581,0
1.66878329897628e-06,0.352919372557134,0
1.66240485886178e-06,0.351032900402012,0
1.53766016035437e-06,0.339285676168456,0
1.57724098347474e-06,0.352350654322723,0
1.15360605081527e-06,0.302250031386017,0
1.12689809790068e-06,0.316503873421512,0
7.11335462460124e-07,0.252770590829862,0
1.10820273258217e-06,0.302240857003143,0
1.12859437566548e-06,0.290938034797831,0
1.2171209517707e-06,0.289263360200623,0
1.12778244582801e-06,0.269677051113966,0
1.19443775018958e-06,0.273144594855076,0
1.02457355587922e-06,0.257444048995392,0
9.83156056691734e-07,0.261603669066838,0
9.2311561027559e-07,0.262484055061077,0
7.78573339087694e-07,0.231992605191842,0
7.38286288300006e-07,0.237256924234355,0
8.18355883906805e-07,0.241348576728267,0
1.462769769363e-06,0.301980186817323,0
1.35512280032e-06,0.300334846278346,0
1.32996104422633e-06,0.313109929765516,0
1.3057639212961e-06,0.314547025870596,0
1.20827444667199e-06,0.307010055964845,0
1.22714087199104e-06,0.298015425032182,0
1.55242275943404e-06,0.323073102068107,0
2.20923365360866e-06,0.399555977283619,0
2.34265077138875e-06,0.404754383135477,0
1.84750126036651e-06,0.395918830519204,0
7.88310042042989e-07,0.291739054403212,0
9.22484624801895e-07,0.293234013185557,0
1.53970138222403e-06,0.350882931350082,0
1.54416447480889e-06,0.346812920581707,0
1.78400733846775e-06,0.364863912664467,0
1.73973184625237e-06,0.36387946476205,0
1.84424648075717e-06,0.377267201590094,0
1.43502073076116e-06,0.313289744845267,0
1.32230207476817e-06,0.306147870150177,0
1.2925239175986e-06,0.302725831987061,0
1.32375749682466e-06,0.312522144279818,0
1.7362541641659e-06,0.383952319383245,0
1.29744996148209e-06,0.336314322369578,0
1.29070600164946e-06,0.352282956245024,0
1.30455944103286e-06,0.346232983730446,0
1.47463887239579e-06,0.366712960040926,0
9.98663815726589e-07,0.328203244240672,0
5.12642615016205e-07,0.259157075176796,0
5.56221158762408e-07,0.269133043549519,0
8.38900230316066e-07,0.319633862493891,0
1.05183826068236e-06,0.357378018067422,0
3.39503448754453e-06,0.316165468041343,0
4.65662884068926e-05,0.584600041144059,0
6.9580046292707e-05,0.426367913492136,0
6.64042947898413e-05,0.382309279379847,0
8.39873386221263e-05,0.250625029041429,1
0.0001144528848713,0.258414453814774,1
0.000298371707718531,0.069139387296878,1
0.00209889594404124,0.110450799578875,1
0.00232417879772248,0.0640620769866723,1
0.00225541078111949,0.0572152465165029,1
0.00221646779232793,0.0528022285932295,1
0.00220531526629423,0.0513028588222968,1
0.00207150299486984,0.0494245842670611,1
0.00171752131915749,0.0412737885530135,1
0.00165454089981335,0.0408430596463052,1
0.00170947462526347,0.0429933323439374,1
0.00182499492837086,0.0633889205404567,1
0.00100491869343345,0.0712566145473789,1
0.000856614421291855,0.133344256691935,1
0.00081197937709307,0.194800671682943,1
0.000929358380646093,0.203747410884929,1
0.00164516966594404,0.294738035063727,1
0.00372327981218353,0.23583856774464,1
0.00491964111573973,0.098095482093816,1
0.00459312546288415,0.0943548733647398,1
0.00419881371721464,0.0839182620875994,1
0.00446844523463167,0.0770353844279163,1
0.00556694574253129,0.0884428496965464,1
0.0057398331006051,0.080226685415276,1
0.00491501329721568,0.0660480566491555,1
0.00495196802980057,0.0597413878450496,1
0.00470262814749681,0.0544919043506033,1
0.00515604492318473,0.0560891687492584,1
0.00575699001925036,0.110208392480982,1
0.00532540429442001,0.0679133357647258,1
0.00774587251832909,0.0574453140257838,1
0.00679830477500679,0.0377887518242548,1
0.0067470874033106,0.0363201382131696,1
0.0068820286376562,0.038343991513905,1
0.0116672187463502,0.0293945117127984,1
0.0176742635764336,0.0288136577142915,1
0.0147872263557656,0.0239371196415783,1
0.0133895764043569,0.0213927091064706,1
0.0133278300975884,0.0159482428122002,1
0.0161440984947261,0.0217218613196191,1
0.0155942833020126,0.0172262899070553,1
0.0152791778498491,0.0175517000376487,1
0.013727140419204,0.0151928034281966,1
0.0134704688372969,0.0146220088923511,1
0.011577579905846,0.0195371201939964,1
0.00812824592725469,0.0175321272338888,1
0.00882848813173514,0.0192097192106873,1
0.0109404853875354,0.0270844832922023,1
0.0110388126882218,0.0418078580998851,1
0.00541517095608035,0.0257025628221945,1
0.00424495422578205,0.0324646726341541,1
0.00429533531236802,0.0440267903465284,1
0.00366646397245019,0.0442906992720691,1
0.00309675991386699,0.0323208930158378,1
0.00298509474379752,0.0274339208313223,1
0.00499514804893117,0.0270302530946863,1
0.00578098320779653,0.0219300654186544,1
0.0203124717885153,0.0206884339518813,1
0.0496717896213356,0.0455930066017214,1
0.0580803949029108,0.0284156060309246,1
0.0564168987175555,0.0294542018168297,1
0.0564584058971672,0.0280053504915386,1
0.0571633208292717,0.0261853915327403,1
0.0559636706127775,0.0249236913856468,1
0.0552863397369473,0.0235854915986481,1
0.0472148498792866,0.0231823837684143,1
0.037560284828656,0.0192082563818503,1
0.035392461786044,0.0289988334865157,1
0.0239415458741304,0.0194559378500647,1
0.0200541001750043,0.0236881597974633,1
0.023006046535081,0.0233224088176808,1
0.0212967533810784,0.0154948748317426,1
0.0220498512723069,0.0120749023954941,1
0.0248717369859538,0.0126677152836446,1
0.0220994257274775,0.0116802763689848,1
0.0209350079888899,0.0114996961961548,1
0.0359996775963818,0.014907271180258,1
0.0954265328225973,0.0323500488944677,1
0.156076892440774,0.0494314807140655,1
0.211209634470404,0.0644050681347335,1
0.20112624847782,0.0676136721820825,1
0.18093346608248,0.0602334035725356,1
0.194444817172424,0.0497244957347338,1
0.16208904881862,0.045867861138029,1
0.136116490432706,0.0411467127015453,1
0.0730083524798761,0.0181187335791946,1
0.0518565205839848,0.00687442446968814,1
0.0778146451531829,0.0103123360603186,1
0.080415208440072,0.0111429180603743,1
0.0849421822315116,0.0104686878680323,1
0.0854963468627705,0.00979963413996697,1
0.0578780776351668,0.00624627511012189,1
0.0609329056942106,0.00798598081807314,1
0.0874577654762338,0.0146717014329011,1
0.0952181460371982,0.011789462470723,1
0.097442667288359,0.011170363105528,1
0.0839398134546675,0.0126409769632136,1
0.100765312473151,0.0130563782883161,1
0.127234927554544,0.0102999664593476,1
0.141552788626989,0.0117263601027909,1
0.12961686462791,0.00989717733786407,1
0.166574949193424,0.011994018675627,1
0.261720790646948,0.0206910553975065,1
0.270362028500598,0.0159120597981107,1
0.251366198895767,0.016645863076784,1
0.252938381532753,0.0147885408010407,1
0.265637915017127,0.0115822195888105,1
0.182262698089963,0.00539619466327881,1
0.225136333462032,0.0103435442652894,1
0.238632686532781,0.0109452307081603,1
0.225949451221441,0.0111658391208572,1
0.263502389749272,0.0127675682115142,1
0.294097433087502,0.0142792061956612,1
0.320890042583915,0.01655535558823,1
0.320997746940966,0.016920037319352,1
0.406110712001958,0.0232156560786828,1
0.489144513471736,0.0462866911795425,1
0.330492819441074,0.0303073697137691,1
0.311606625568218,0.0330932424973108,1
0.251551312837579,0.0288516416971904,1
0.136389510988635,0.0144683419010139,1
0.0923870680930796,0.0153215060318175,1
0.0930404918217284,0.0156525234712981,1
0.0793061093460267,0.0151103454746454,1
0.0741355906642215,0.0166472438519039,1
0.0687862262353728,0.0190623962778682,1
0.0360993266508634,0.00741248757350299,1
0.0311161301238115,0.0147663681663162,1
0.0326264574547176,0.0137602488778923,1
0.0344763623751712,0.0164318830676257,1
0.0286791620594326,0.0149438576308044,1
0.0337321201431721,0.00837806276057235,1
0.0426390164990754,0.011060656499003,1
0.0470545796070942,0.0088211815677445,1
0.0478992257450474,0.0093002633969993,1
0.0517907419074594,0.00863830153767125,1
0.0644565782266522,0.0101545452209732,1
0.0623687280264566,0.00795182203448186,1
0.0826245450566718,0.0109724858165235,1
0.0789815308928089,0.00607188705178147,1
0.0759845346930457,0.00543409216185001,1
0.0710292836363446,0.0054844385377331,1
0.0863895502282358,0.00576143398825469,1
0.116825848927181,0.00906030907549335,1
0.099112417221578,0.00809559651609889,1
0.100621839207547,0.00935548500926899,1
0.0994196359497942,0.00845593064458282,1
0.115044436481172,0.0130156655736478,1
0.123619689307489,0.0139834822383123,1
0.119416260198614,0.0180769833557251,1
0.0898209934020489,0.0132054852721042,1
0.0863940633104834,0.0141805761428959,1
0.0857403500783162,0.0132101180449073,1
0.153710858751915,0.0201350096634734,1
0.152571831739687,0.0127354476268297,1
0.130684531394205,0.0107487007149102,1
0.120316219966913,0.0106614152894886,1
0.117248545374852,0.00795387633982334,1
0.121099481555706,0.0105242404556212,1
0.108086823244243,0.00972103671636641,1
0.113964570994755,0.00859647408435338,1
0.114159128573195,0.00815244590042022,1
0.114836534556267,0.00982620076008099,1
0.065130869448777,0.00512463020382584,1
0.405656639611989,0.0168632347573062,1
0.64160703997685,0.0119991179598701,1
0.641136709214345,0.0114891079305656,1
0.626303856152325,0.0109620038518303,1
0.667671759276413,0.0121778117590398,1
0.67127812224176,0.0119644094473269,1
0.634009409167081,0.0118316640648907,1
0.604880259949212,0.0100087948479759,1
0.612079015900049,0.010169423606721,1
0.642966023801692,0.0106935284888135,1
0.505450403752808,0.0197695623258914,1
0.391236672669492,0.036352845310598,1
0.495904536181951,0.0514339143761719,1
0.564522156475826,0.066811409852303,1
0.434681830850213,0.0588588292461345,1
0.357144574307593,0.0496227463116651,1
0.221581910593857,0.0335334448201654,1
0.0721443747276064,0.0219506884139483,1
0.0605302826938151,0.0207157440758856,1
0.055181532822225,0.0165752119454747,1
0.0469522237974026,0.0156355166318555,1
0.0463337558692128,0.0140690143083785,1
0.0389691761259779,0.0105080459863799,1
0.0304119441600666,0.00802341525122737,1
0.0331066261237525,0.00956395184430715,1
0.028440216443602,0.0081410828424794,1
0.0250496824339265,0.00808392580656913,1
0.0239841546337496,0.00720568143925905,1
0.0357523952919465,0.0126054904879011,1
0.0394530285785796,0.0146380748083457,1
0.0375202809644716,0.0168634240297461,1
0.0387819268478277,0.0188741612646365,1
0.0414319103149477,0.0140036563614708,1
0.0472509144188563,0.0214241997457136,1
0.049064938879061,0.0258019526658804,1
0.0544088790354351,0.022389650014393,1
0.0612382532220944,0.0218753549535783,1
0.06599619312211,0.0188041923335819,1
0.0662611757598455,0.0143612297967258,1
0.0751500419979312,0.0138091073352537,1
0.0775829835227137,0.0152527657703263,1
0.114864264847863,0.0190190018199664,1
0.173180601146122,0.022340321927415,1
0.173106408600253,0.019455041951876,1
0.19704703787741,0.0215177568618543,1
0.235832469257289,0.0293969579445711,1
0.209697956349478,0.0242572121448629,1
0.223249441670692,0.0132534526105853,1
0.316887220949665,0.0232506298118126,1
0.247175162395051,0.020429486060277,1
0.216108897981277,0.0190036063772506,1
0.24035017646969,0.0222162188611161,1
0.238411092162177,0.0214091289641878,1
0.206936061804258,0.0182078972649029,1
0.206470026900595,0.0140895418669647,1
0.216530996892765,0.0145723762608046,1
0.17354283008136,0.0124953537597079,1
0.133179029464339,0.0212215291873693,1
0.117683346526414,0.0184753602079121,1
0.141011278231285,0.0193325677750874,1
0.346062749055071,0.0287396422770986,1
0.42630590908188,0.0171084303318645,1
0.415801016028667,0.0191759133255317,1
0.412302498859153,0.0184571215392899,1
0.543403233259577,0.0299848444284231,1
0.57720828369526,0.0264890629727508,1
0.581228660459901,0.0271306707586595,1
0.592734111655959,0.0278681319548807,1
0.597377203838601,0.0261743177462483,1
0.590064389920926,0.0220855671146334,1
0.322299240872413,0.0140488760591242,1
0.13952381948763,0.0103225657502416,1
0.146147772659401,0.011183612250826,1
0.160551585688725,0.0142003085290204,1
0.158320785105135,0.00911213038033844,1
0.190383086777922,0.0093510378204573,1
0.267590781015852,0.0137144910584748,1
0.328422852550486,0.016506085038631,1
0.463246953210523,0.023604508591881,1
0.542055355947645,0.0342685001671794,1
0.524306940807325,0.0361525932160046,1
0.528431941148694,0.0361831513765767,1
0.484183678380387,0.0323063892693953,1
0.359476232948729,0.0248853414924416,1
0.0843169985742393,0.00577974075910539,1
0.0501861298303507,0.00913251523512488,1
0.0519481038828804,0.00993732807006894,1
0.0473667313587647,0.0106000625884982,1
0.0428452632173587,0.00928955431595531,1
0.0515333690874711,0.0106816647821617,1
0.0489776656367852,0.00965031564447232,1
0.0422919566194316,0.00870039080236016,1
0.0444538484284457,0.0131859318796452,1
0.0562282009688803,0.0202478832169871,1
0.0553480036067144,0.0228523682801812,1
0.0563731248507228,0.0229872596772023,1
0.0559192421558049,0.0255085293543642,1
0.0771501773582062,0.0173112861110381,1
0.099435997503181,0.0157147973866653,1
0.0769634798344913,0.0112337493819088,1
0.0822405551115775,0.0119644192601317,1
0.0743048409387138,0.00982219957622792,1
0.0830311380068687,0.0128026539889478,1
0.0792624434955155,0.0122725202575911,1
0.0835051095111782,0.0124158552355313,1
0.0823935431556063,0.0121151288638191,1
0.0647063088015249,0.00771624056734637,1
0.0645739061460005,0.0160864112787004,1
0.0661002688279498,0.023295226112856,1
0.0702296324838965,0.0115746190527182,1
0.142433177724016,0.018948440508705,1
0.216354552440622,0.0360636576126001,1
0.259055622695348,0.0433396473656613,1
0.253511701857238,0.0338500831417157,1
0.284219150466313,0.0270404568918171,1
0.290970795711697,0.025161422753346,1
0.358082721960655,0.0216964520003901,1
0.38169218341701,0.0241805420736722,1
0.250637759169673,0.0174689025411501,1
0.221660898103438,0.0175053625723293,1
0.246374391414649,0.0186709433883185,1
0.248973669374042,0.0182165197370106,1
0.246170024100316,0.0178623804406389,1
0.170412893367035,0.012367498080363,1
0.15666390606182,0.0158988621941121,1
0.181839756240785,0.017223695552853,1
0.224239078182196,0.0401934841081695,1
0.222169914469749,0.037404348069856,1
0.218139494366007,0.0301220288416903,1
0.183711265181586,0.0301403502553893,1
0.120549641612547,0.0230569111698943,1
0.0869523770091157,0.0134109709121227,1
0.0741692743713383,0.0102580154071725,1
0.0703787545293497,0.0128349286485715,1
0.0906309895030406,0.0109918727462136,1
0.0943336106214579,0.0126277329496607,1
0.090536609408034,0.011336149440364,1
0.0950866932127007,0.00925635287044372,1
0.147564024001655,0.0157630946977918,1
0.169119819657753,0.0152423564136082,1
0.168442808990308,0.0150473398980494,1
0.158229877430305,0.0167438276036004,1
0.121555669034602,0.0124407228175897,1
0.108292313268931,0.00813438836350082,1
0.128424293282724,0.0120127018958597,1
0.173978656622644,0.00954925155844029,1
0.262468397954333,0.0163207168429945,1
0.270689073941001,0.0191325712250211,1
0.2891824400496,0.0223944948190419,1
0.302277424600369,0.0299714546073922,1
0.294939667333105,0.0283560782697055,1
0.255245703627578,0.0234756834474647,1
0.229626669689326,0.0219985972034455,1
0.183264642958541,0.0202234577697077,1
0.0698550852809965,0.00831759415669086,1
0.060732689358766,0.0362201118105955,1
0.0447433473662952,0.0193029791809156,1
0.0531406810602435,0.0190516336992435,1
0.042653945570399,0.0125777350011592,1
0.0387613355164004,0.0103989878853338,1
0.0346620759577286,0.00848066958722789,1
0.0384205685353726,0.00875966646875367,1
0.0440974565122827,0.0101463684609625,1
0.0448545773161514,0.0114313504993009,1
0.0409620565143218,0.0104183331380262,1
0.0483555563287452,0.017876769099787,1
0.0536999462769012,0.0343314953791447,1
0.0355548187774265,0.0230343830564815,1
0.0427214586357681,0.0303940872639352,1
0.0407145208454156,0.0365775911942688,1
0.0379479294972891,0.0354974439649712,1
0.0408214499934418,0.0330527818465443,1
0.0603878515057642,0.0391844156218231,1
0.063150008046319,0.0250812454110516,1
0.061335860889698,0.0231480615657796,1
0.0534953562795645,0.0177518854238392,1
0.0460184070315492,0.0145051680708887,1
0.0534196956118458,0.011786273170849,1
0.12956571978404,0.0301640478456645,1
0.172307385029023,0.0345774657122396,1
0.305201780724024,0.0497319323714009,1
0.381236952233716,0.0518824372950658,1
0.460209769367215,0.0487557363068025,1
0.531071458624367,0.0400661482635497,1
0.376321470522579,0.026895711384743,1
0.280417177096837,0.0201719788785856,1
0.206486178333398,0.0141524450866024,1
0.16007996190647,0.0103935946691651,1
0.184926378560482,0.013648233681283,1
0.161457210450457,0.00785593794786867,1
0.164484887576139,0.00908972714442228,1
0.166480144159354,0.00947884679942555,1
0.162684907235981,0.0126457960759775,1
0.146594259574994,0.0145909443613571,1
0.258030740109693,0.0272222723224775,1
0.329895075697416,0.0313778683264179,1
0.362362885583751,0.0367813275748837,1
0.354125297527428,0.0458168030532635,1
0.300235815204567,0.0368557430318602,1
0.281927636465084,0.0400199373967151,1
0.238090220158581,0.0368468517701566,1
0.209901217113986,0.0312565171001568,1
0.136894824058032,0.0144789874244409,1
0.0798739692922741,0.011086347939507,1
0.0845986244824224,0.0130935144298271,1
0.0732099575655317,0.0151713185116706,1
0.0466153240018808,0.00887349097015755,1
0.02907426748195,0.00480585067784813,1
0.0292431076796285,0.00470979017057645,1
0.03946541974806,0.0104948338702158,1
0.0333482892427271,0.0112429171216657,1
0.0320014309925082,0.0135325150632752,1
0.0296113614011384,0.0188895286667147,1
0.0277385994557176,0.0217892586380386,1
0.0299244673265005,0.0323410711706879,1
0.0350802482435879,0.0401714004438202,1
0.0383248064859574,0.0388178527053894,1
0.0340128415718041,0.0250298664455932,1
0.0343969532178182,0.0301540735912061,1
0.0525784934095527,0.0488804709553843,1
0.0596034148753674,0.0500611847319484,1
0.0947656316625211,0.0518665384328667,1
0.110329668485427,0.0483022124160031,1
0.111864085202931,0.0521070670655881,1
0.109397130667621,0.0517699958900526,1
0.0705289845157008,0.0437269585813136,1
0.03272058215089,0.0212113180166318,1
0.0318283594724078,0.025659499075475,1
0.0409465889592284,0.0306591543434145,1
0.0410710007219219,0.0296566669606783,1
0.048423047131099,0.027159108521151,1
0.0493562020859824,0.0368170242910199,1
0.0475814578214366,0.0417976759141599,1
0.0472410824719923,0.0418829637864156,1
0.0444236623189952,0.0402529166492377,1
0.0520970358726042,0.0324146211349952,1
0.0521886367638509,0.0252252440374137,1
0.0460488238799614,0.0229815962953437,1
0.0363465586935134,0.0198841968770561,1
0.0369552570227801,0.0153995839599471,1
0.0365837919995455,0.022455340783245,1
0.0315107359918211,0.0194227111477369,1
0.0334677701224353,0.0171968288575723,1
0.0337428374756198,0.0164595740780147,1
0.0329034896896069,0.016012784862536,1
0.031834223974854,0.0201366024005895,1
0.0393789937070641,0.0396220574392889,1
0.10757345363068,0.0319907452083646,1
0.249119935574199,0.0626157445865275,1
0.394467386729285,0.115559630591486,1
0.454877726253539,0.108901358512078,1
0.431609691227223,0.11397790354212,1
0.363292224065762,0.0921384213791786,1
0.31380723792206,0.0563757313354495,1
0.245944092881022,0.0395370035294663,1
0.182923810683427,0.030471162899582,1
0.13772003167986,0.0213077444364255,1
0.184618351743613,0.0387367061807022,1
0.22892794373729,0.0418075531093798,1
0.195424328461551,0.0350812823566258,1
0.164725601585443,0.0293521901814224,1
0.13804854833612,0.0241133949625015,1
0.100042791179396,0.0103452215859823,1
0.160878420771924,0.0153442122612163,1
0.220830640360929,0.0228053396720989,1
0.210841125868485,0.0190825495313574,1
0.236169096763819,0.0188193346757267,1
0.234748391102059,0.0158547854119933,1
0.235971859015677,0.0107408166830077,1
0.269779785852905,0.0114521390988507,1
0.270288149718106,0.01198562107215,1
0.276536139462674,0.0124790582043348,1
0.286871160239798,0.0154532703565051,1
0.248765177245336,0.020700975032436,1
0.159945615122772,0.0118037903133749,1
0.0976677902927232,0.00633593181944526,1
0.0988670100768686,0.00819622024759011,1
0.0655222772129057,0.0102091208800102,1
0.0501200602812218,0.0218327272808077,1
0.0516417687384697,0.0387812314029749,1
0.0399083069213802,0.0302843194817291,1
0.0549636902250828,0.0371052401769876,1
0.0617234851455072,0.0357894293401806,1
0.0625429142017615,0.0194651561583994,1
0.0926301032770565,0.0309647749472189,1
0.0879902767910015,0.0248976613517962,1
0.0875412381509895,0.0243717156133111,1
0.140215275805189,0.0205750718060378,1
0.227439888556432,0.0320688626728315,1
0.237708067146951,0.023688656803974,1
0.242511196013907,0.021489894505387,1
0.210601328856975,0.0145026629553541,1
0.149891748827801,0.0093082212598045,1
0.138958527382357,0.0108600643322043,1
0.145026391650567,0.0114129257969609,1
0.153497358116503,0.0128631897164463,1
0.148383835322142,0.00967849564350987,1
0.161093318509229,0.0121544866261576,1
0.128303804508617,0.0075070279934755,1
0.15735141904716,0.0113300982972757,1
0.155909196996791,0.0118445799213383,1
0.134305272851268,0.0142576044923932,1
0.125981840650246,0.0128135214951876,1
0.117135956481587,0.0121400577017525,1
0.110110379183026,0.0119020648731526,1
0.0970616899243045,0.0106877528404439,1
0.095562103517804,0.0129517448598884,1
0.0789959241545873,0.0122855387560019,1
0.0852785420178441,0.0156080276783931,1
0.113053272411644,0.0130211194592832,1
0.128603462726324,0.0141562091028703,1
0.129738133379339,0.013122786613475,1
0.133449341005976,0.0135974657797325,1
0.128823921558081,0.011459326602421,1
0.14417203320346,0.0131940437222544,1
0.135243915638309,0.0123375417829438,1
0.137983625385431,0.0114600788091202,1
0.277848777759907,0.0163057496111301,1
0.542462665951711,0.0258012618137781,1
0.586638933278882,0.0275613402656049,1
0.625485342325169,0.0307632599159953,1
0.808405558532067,0.043844684971469,1
0.691791481599111,0.0194371843429025,1
0.653105605889678,0.0182772308634039,1
0.606734160047994,0.0138620485386931,1
0.537767123114278,0.0122830801428681,1
0.386838583582796,0.00654206932763862,1
0.492010963818824,0.0116513078480958,1
0.636217556415399,0.0157467910902377,1
0.687994690321896,0.0103406607620016,1
0.703267378502286,0.0104963802646016,1
0.591042024330247,0.00761753716488829,1
0.506118384866632,0.00997187150871158,1
0.486853784227625,0.00959397201484261,1
0.492535818484135,0.0128539968759053,1
0.369796154241047,0.00777487780973905,1
0.244338042761996,0.00407206303793885,1
0.284288653161815,0.00624624456628591,1
0.326294038466116,0.00763052182133682,1
0.309933071781836,0.0169210356726262,1
0.201025933064755,0.0163762375578145,1
0.203990857954846,0.0164345877894074,1
0.191932530016688,0.0130686975654764,1
0.199808175298359,0.0144690674659008,1
0.181459968233716,0.0133642765804527,1
0.179176736328544,0.0112269568084348,1
0.172144584571851,0.0107772764050196,1
0.170514203778431,0.0185133932144655,1
0.170394413501814,0.0194593727382613,1
0.176798350491855,0.023861929112875,1
0.254907862648031,0.0244863964306123,1
0.324253287590804,0.0252722399238432,1
0.299187864243667,0.0238893977687664,1
0.297128297785982,0.0179551333493478,1
0.403434878161381,0.0256319391678013,1
0.495213536218786,0.0365153674959346,1
0.501608478024144,0.0371546905123173,1
0.513704834896419,0.0366106231312537,1
0.522393517550192,0.0332864306023922,1
0.519634572467292,0.0269450043620705,1
0.389260791880672,0.0232988957756021,1
0.253525099772716,0.0167855307621369,1
0.26716570559177,0.0226495683550187,1
0.264936191516152,0.0328862705626467,1
0.189955939717784,0.0264843223417093,1
0.137722180211218,0.0187087564657903,1
0.0979186863768407,0.0127365893071481,1
0.0694293278681258,0.00947240375263039,1
0.0594671813894285,0.010582035076244,1
0.0558617165933741,0.0192509164283991,1
0.050674801396584,0.0270074337465729,1
0.0475808764853212,0.027700739852539,1
0.0274153455531664,0.0183369530700675,1
0.028315908076391,0.0226347976435239,1
0.0355174763339211,0.0272885429846608,1
0.0366542783572241,0.0372628090753545,1
0.0397967098184653,0.0413534588452804,1
0.0394544739565093,0.0410273448539009,1
0.0368481232974828,0.0514674956173379,1
0.0212417997426707,0.0335371604783173,1
0.0284836028022445,0.0420946552983039,1
0.0271666085780879,0.0153957371443947,1
0.0359537803204095,0.019437220429482,1
0.0367300208507275,0.0204476303679773,1
0.0369516877572269,0.0210367922520748,1
0.0388132209139103,0.0227604933715231,1
0.0387267265572388,0.0248569199593052,1
0.0566906002576982,0.0249185065149924,1
0.178923882026194,0.0389632712453705,1
0.23215267769943,0.0258530242004324,1
0.196017851844547,0.0217080012431711,1
0.203833614000941,0.025902452093948,1
0.295875628372981,0.0348813603877555,1
0.353278389023133,0.0412789130425153,1
0.37741498150881,0.0309576112997595,1
0.333410057613876,0.0193528850386274,1
0.261138199880454,0.0125881945325501,1
0.24810423337533,0.0113874726981304,1
0.264434307949025,0.0104813416943904,1
0.244267351998914,0.0128303672814424,1
0.200452889034244,0.0104163864316713,1
0.227080027904338,0.0100366323108019,1
0.267353264684191,0.00567745224815111,1
0.368337254672122,0.00857130189597643,1
0.445682885767098,0.0118860531776253,1
0.497835530850634,0.0155103815808279,1
0.633705654084147,0.0239166590873215,1
0.613591719369747,0.0217100867273532,1
0.543972735676545,0.0219641334200664,1
0.554778252564223,0.0213692395751452,1
0.548965417392272,0.0226503467230328,1
0.342481573747892,0.015609168401696,1
0.127400593988687,0.00771611816410006,1
0.181816516758739,0.00738747530639357,1
0.20071860829124,0.00824337316784593,1
0.207797087541016,0.00812374171324502,1
0.180353746999058,0.00619550196797539,1
0.168595644537574,0.00684856721105219,1
0.173355665877521,0.00712234240095796,1
0.172113671685142,0.00677633857794608,1
0.158660124037741,0.00452885066017807,1
0.166234727684007,0.00616738107324799,1
0.174521557192916,0.00984291228300034,1
0.12815567586285,0.0152342885877204,1
0.151126105627076,0.0172472025089835,1
0.22492211154305,0.0322791322855272,1
0.245044785929931,0.0326234940399278,1
0.205593469030971,0.0220383786465412,1
0.211334276681378,0.0216925962062737,1
0.158929332807801,0.0177552841473976,1
0.13062684695879,0.0178403598709188,1
0.122243580967769,0.0168723823384846,1
0.139680039748091,0.0208138087839661,1
0.147454499903477,0.0232091839666372,1
0.151704494503958,0.0402171960487582,1
0.106883925641038,0.0222878318569701,1
0.0581533700956466,0.0102934542206439,1
0.0317633069929893,0.00490372399500763,1
0.0336845406599269,0.0053200608425944,1
0.0532314789381553,0.00719806911383805,1
0.0544167543314447,0.00549575632362949,1
0.050184288691191,0.00454054184444049,1
0.0528159172604893,0.00551752890190697,1
0.0585224972109904,0.00676013499870338,1
0.058134213072469,0.00619789253539663,1
0.0578122821745892,0.00692422789063491,1
0.0572738862947404,0.00755190186708023,1
0.0568650011003936,0.00719295315914786,1
0.0544137804983192,0.00577001640555797,1
0.0351827631291957,0.00325462097188623,1
0.0788823088240592,0.0125012270268823,1
0.124793308414743,0.0137522874295291,1
0.128826842246213,0.00931798654021965,1
0.134287127990921,0.00801284766771985,1
0.13393511272556,0.00949349321126074,1
0.174975465557324,0.0130408213063057,1
0.191005047455801,0.013368650055338,1
0.245892090953123,0.0159806374585685,1
0.272231346014527,0.0184158517612457,1
0.259495998923097,0.0191514325055634,1
0.266692049083961,0.0210309099063553,1
0.28936872747411,0.0265127168023965,1
0.316976700878657,0.0264233145865059,1
0.540274332605849,0.0397661963736224,1
0.528035678872608,0.0161220804638114,1
0.479393726812543,0.0167065455264069,1
0.441443976676668,0.0156743359017366,1
0.421952192934311,0.015343521636395,1
0.39512899362039,0.0147208558830155,1
0.365523367025337,0.0122433300490847,1
0.48061361332846,0.0135884663567851,1
0.556946367599195,0.0154686271532924,1
0.632225452367161,0.0239961203415293,1
0.354552191569452,0.0127732735000834,1
0.225722776229028,0.0165952908842859,1
0.302182792286066,0.0182892915351471,1
0.344620279593442,0.0202995860935618,1
0.350984964702893,0.0137985251228112,1
0.429278333807417,0.0169700912481632,1
0.404002807651991,0.0133728560599353,1
0.355996050477635,0.0152301501047098,1
0.342346118201079,0.0124306117180414,1
0.31581678137439,0.00830499947749833,1
0.441509683603609,0.0102184872310155,1
0.505550987061367,0.0101656165938967,1
0.423644310703055,0.00876284631479262,1
0.393801126221468,0.00753244106035321,1
0.39024338022654,0.0106249711696667,1
0.408417374289917,0.0113784224731716,1
0.412087617828238,0.0146570799132104,1
0.406278494709739,0.0117470935447634,1
0.306972853268565,0.0106406373970319,1
0.111285999440538,0,1
0.109452970103326,0.00204168916825273,1
0.131997875126742,0.00780017533826455,1
0.109982906416201,0.00670659040902332,1
0.108497162173648,0.00700739696087706,1
0.108128442965399,0.0067983007071055,1
0.116421912573489,0.00762798239184486,1
0.123740084515004,0.0077490436108919,1
0.187106370733264,0.0142042492260603,1
0.191658560146341,0.00981666107085844,1
0.261666642581522,0.0159160436840769,1
0.309868225558013,0.0226551572445462,1
0.348722347088104,0.0252135618072357,1
0.380388645809345,0.0293695137489195,1
0.387017005924063,0.0300710208981679,1
0.381977437553192,0.0275369666266596,1
0.365994945948922,0.0273628685986238,1
0.327961651535559,0.0283835910532813,1
0.209012849847926,0.0245361943377643,1
0.206825407567929,0.0560913646114944,1
0.224823884592656,0.0631621648539669,1
0.189487375158055,0.0364454178214085,1
0.139408847018295,0.0289180445429264,1
0.0953549296246647,0.019191453025432,1
0.0624011569497684,0.0124591362563292,1
0.0550635553719169,0.011952397674745,1
0.0540754816710332,0.012473830689595,1
0.0551232023813404,0.0149645479436943,1
0.0513497377311565,0.00806533618632335,1
0.101606753000957,0.0143843451972894,1
0.0964562956205619,0.0113104890363139,1
0.10084156136457,0.0169018247095076,1
0.108042472831984,0.0182265500430552,1
0.114472374489382,0.0218281549568274,1
0.115240332039901,0.0185629378129232,1
0.115860380406767,0.018732204393996,1
0.129536428201595,0.0200548440645024,1
0.135393888787551,0.0207769777397859,1
0.134675820856939,0.0263957803679114,1
0.0864364675000935,0.0245219124610671,1
0.0849917105811708,0.0374124750619596,1
0.0922590728359893,0.0250807075926492,1
0.109810980907935,0.0282172669044383,1
0.112573329024394,0.0291549114576703,1
0.118050704298175,0.0176372645440943,1
0.179990591339611,0.0255418228996318,1
0.268935827349124,0.031349592425297,1
0.40122666332177,0.0351179200046176,1
0.407296033124548,0.0262072591847542,1
0.410293183662995,0.0187269925342862,1
0.494435769286395,0.0223022829170119,1
0.445451254658735,0.0228810917607449,1
0.487312948155977,0.0214234202992213,1
0.409938384970629,0.0133931499442828,1
0.353104573205639,0.0140746903471355,1
0.373626505437445,0.00758393706242537,1
0.413541157543908,0.00686978504555417,1
0.481023058202887,0.00930222366190297,1
0.453717760706092,0.0106897103447653,1
0.341706611477548,0.00740137897906544,1
0.330895073214107,0.00724510698825067,1
0.345305305223151,0.00718299922237649,1
0.434722101500421,0.0132088410876347,1
0.55626452259862,0.0179598763385875,1
0.696336235045664,0.0226402399782463,1
0.839633335298617,0.0406381130907632,1
0.867909766219896,0.0546858445001663,1
0.728528155958266,0.0516184896215005,1
0.544150301511109,0.0407788283653647,1
0.364823728066167,0.031052658836358,1
0.15994175535881,0.00990434689234564,1
0.102579986328556,0.00757281868375004,1
0.108085960173921,0.00787651578401289,1
0.110388781365445,0.00707634661375207,1
0.126306360206376,0.00568148193884244,1
0.17396640976749,0.00891851283054647,1
0.165800845566418,0.0113876821754194,1
0.137424665962126,0.0101251439108611,1
0.141905543423462,0.0107616399915099,1
0.143923677103155,0.00897509396838928,1
0.151631613088412,0.00541192161546772,1
0.203288050665515,0.0104120003086967,1
0.190024021404347,0.00861537398011061,1
0.192204214740664,0.00955494202404205,1
0.184589099129564,0.0133116865325401,1
0.105989607320206,0.00639954785180408,1
0.115892029065706,0.00838518608360269,1
0.11502877681178,0.00796572889985399,1
0.132425592564666,0.00983977979134149,1
0.116696292377225,0.00906900559954074,1
0.310557434214136,0.0200894300525607,1
0.455227448395041,0.0212265621636515,1
0.438195303204327,0.0143066776990941,1
0.425332141593608,0.0140150372946593,1
0.385632679809872,0.0122526232260359,1
0.383464802725816,0.0108140310922509,1
0.466526100119456,0.0134413763839373,1
0.606841100994318,0.0179650638227637,1
0.735204313214547,0.021698013015687,1
0.781365945608643,0.0212314615285979,1
0.591898152194162,0.0370913727118782,1
0.236677263477729,0.0192890995353415,1
0.162562475860936,0.0226166827346316,1
0.167953357498999,0.0244080776138356,1
0.0866859962441359,0.0170151228640956,1
0.0669137312218208,0.0209388418576916,1
0.0678048287434669,0.0336922326361158,1
0.0691740536697149,0.0255829531992328,1
0.104477080478229,0.033846750727139,1
0.111910051446746,0.035517617752598,1
0.112018475096777,0.0335373087491053,1
0.0984824808766208,0.0212239670630469,1
0.0889469494917181,0.0202387420984972,1
0.0927565027156033,0.0230971867704132,1
0.0760773475244258,0.0186673865868761,1
0.064750723691503,0.0148152149372856,1
0.0589417943363777,0.0117278634076486,1
0.0565454442724485,0.0152261008217669,1
0.0387600041840521,0.00928527556155193,1
0.0370686757482804,0.00761443010583809,1
0.0317218560788041,0.00582067405142503,1
0.0231073865894808,0.00651013359683821,1
0.024913966126315,0.00778586337023092,1
0.0287119093114867,0.00895318348699344,1
0.0353880210028704,0.00856653888079335,1
0.0386386800077706,0.00992770841161151,1
0.0340046291143145,0.0106823589254432,1
0.0332993791783452,0.0114585498714058,1
0.0325720847312305,0.0138068133504009,1
0.036731160469194,0.0181253220577233,1
0.0373016568496604,0.0196362330509301,1
0.0376143477737785,0.0243695091376089,1
0.0332676627247769,0.0275710628073746,1
0.038515941392625,0.032060892588161,1
0.0533615147984347,0.0659493185919734,1
0.0453362814530353,0.054042812896119,1
0.0375183618925543,0.0385156073590855,1
0.0264057080850966,0.0288834744073255,1
0.0262080727021333,0.0265797172012814,1
0.0390506057234277,0.0357747607715055,1
0.0352444681679408,0.025179619168882,1
0.0272227210560141,0.018036390213828,1
0.0323327828795194,0.0177271879384989,1
0.037679507886449,0.0215944544278772,1
0.052576442146582,0.0281844159035651,1
0.042744503148144,0.0256521085658543,1
0.034796023847458,0.0261126982932025,1
0.0317522839041043,0.0238328732430365,1
0.0287738463987707,0.0235979359871336,1
0.0294034343066102,0.0247531805966697,1
0.0249613612524687,0.0338897101817594,1
0.00903084261531704,0.0189758671216987,1
0.00833969142199948,0.0330662925035891,1
0.00938131766752737,0.038729556544635,1
0.0106140790436339,0.0467384811127287,1
0.00840468665118609,0.0744250256065098,1
0.00585235548844546,0.0914549872298997,1
0.00645895018335067,0.0916160450976302,1
0.00503303528949035,0.0802984332804771,1
0.00358073705488686,0.066481215431635,1
0.00345564409092682,0.100184828257685,1
0.00315820353056972,0.0854918052050633,1
0.00316773810051572,0.0737460096700174,1
0.00282740506401318,0.0663787625884183,1
0.002903352562236,0.0578729755969232,1
0.00287534346301153,0.036199433730724,1
0.00354861276119494,0.0494837421947523,1
0.00297642568823416,0.0486935713539705,1
0.00263192544150866,0.0468137108754379,1
0.00261887836444384,0.0474824418268816,1
0.00260865293015681,0.0516082055105163,1
0.002447998113066,0.0525198225479546,1
0.00231635300421773,0.0591041776764734,1
0.00224777992359726,0.0657931334357644,1
0.00101200719291894,0.0530751777386984,1
0.00101200850007555,0.175745143799186,1
0.00105310237472107,0.129417827395729,1
0.000782151038019942,0.0973761859322443,1
0.000708597862791968,0.0816767616780362,1
0.00115307654426624,0.104819339812714,1
0.00120782885634964,0.113865912649447,1
0.0016400384281262,0.147035768037264,1
0.00188668124411478,0.0972774137625247,1
0.00180025602957271,0.0770373395051441,1
0.00155456665946386,0.0700881031367972,1
0.0015368180951106,0.0667751377569911,1
0.00175865304889699,0.0640308895727391,1
0.00162747267678611,0.0525278311959409,1
0.00142936126228403,0.0393896092454906,1
0.00177260139168284,0.0317685645958264,1
0.0020073666232498,0.0233986083157777,1
0.00213217362491592,0.0241702851340671,1
0.00196476675996097,0.0250956259372948,1
0.001897733594346,0.0248434963192976,1
0.00217627614783489,0.0254250715622692,1
0.00222762147584075,0.0252078710392697,1
0.00288308810468376,0.0316846232779397,1
0.00324190805617708,0.0278688079176003,1
0.00377913548204775,0.0305532201100684,1
0.00435724235098611,0.0489828043363315,1
0.00494347929528094,0.0751630356531748,1
0.00599687464555423,0.0855683703858715,1
0.00731021186429615,0.102825745364855,1
0.00824729421699889,0.114747769652344,1
0.00919235600494168,0.138908653533209,1
0.00879584724672595,0.171782770937559,1
0.00497111131996665,0.191520829129984,1
0.00109424400274261,0.234846258834715,1
0.000456017071666322,0.816555005588515,0
0.000228859278539246,0.567534839448447,0
9.92689829635304e-05,0.405184114489354,0
2.55753826042394e-05,0.316980302108208,0
2.13523515493614e-05,0.322261342310402,0
1.9146503996188e-05,0.308790939870544,0
1.91316185485938e-05,0.326259209243959,0
1.67743068458615e-05,0.342929047208151,0
1.31328781790478e-05,0.355656500289565,0
1.32558138373608e-05,0.3801191718637,0
1.33870943189077e-05,0.516691528804737,0
8.99989105089298e-06,0.494261340811191,0
9.57338281461563e-06,0.570033580767289,0
1.11949846185843e-05,0.620230556015176,0
1.21243667134316e-05,0.751511894299084,0
9.79483592132955e-06,0.707965939258484,0
5.82933368004837e-06,0.606550088364168,0
1.1723155366527e-06,0.340058609319582,0
8.06811149365605e-07,0.298128126008186,0
5.18282753713275e-07,0.247833546506871,0
3.33395335888454e-07,0.222220719843351,0
2.35257729446257e-07,0.200328074781159,0
1.53311718597681e-07,0.174471920990898,0
1.62749066552032e-07,0.17580225989107,0
1.83270013244238e-07,0.182307221310853,0
2.7278603428183e-07,0.20704880342639,0
2.63881029890482e-07,0.201868217115595,0
2.51325871360241e-07,0.185800805482372,0
4.79578209652286e-07,0.236278640814289,0
4.91608084878981e-07,0.22685804592095,0
7.4984171409124e-07,0.272295162573535,0
8.47303956286018e-07,0.291248487570319,0
8.49076686574638e-07,0.291539396719901,0
7.75444232096673e-07,0.283920806233261,0
7.88451247232116e-07,0.282399621155345,0
7.47945530122983e-07,0.276597898599176,0
8.00028257245114e-07,0.291095679257804,0
7.52176037589182e-07,0.295444239558719,0
5.15854024460316e-07,0.249677364200803,0
6.04847384576446e-07,0.282631541941565,0
4.33903374012668e-07,0.238741842172964,0
3.61951059563596e-07,0.214048297283394,0
3.56963490561986e-07,0.209438331548607,0
3.93962679381736e-07,0.208314221456152,0
4.4061344459991e-07,0.211049424226605,0
4.24028895137125e-07,0.207700790974963,0
3.12679929478652e-07,0.185131875799439,0
2.4389383881317e-07,0.169611334353544,0
2.24501121582078e-07,0.169076447232045,0
2.09229982099858e-07,0.165201609963591,0
2.20178427299549e-07,0.171792089677512,0
4.63943971112315e-07,0.228472366101227,0
1.55043801964004e-06,0.394747884054483,0
1.61313231672494e-06,0.381705039117131,0
1.69966850482859e-06,0.39523458756789,0
1.70981833382293e-06,0.380973610659735,0
1.81003044621508e-06,0.372482210180326,0
1.80301597758442e-06,0.364387059389369,0
1.68917716099827e-06,0.354876184916645,0
1.95988768072166e-06,0.364403054466899,0
2.51606849514431e-06,0.407297502691866,0
2.35825354134372e-06,0.412103205093081,0
8.57451162898272e-07,0.262696893790242,0
5.26276782913064e-07,0.230702370734319,0
5.1417569992671e-07,0.230326710281989,0
4.41944807811664e-07,0.22654507056933,0
6.50643051513617e-07,0.284091309310705,0
7.16924767289106e-07,0.292914302714696,0
8.198583071191e-07,0.306073565202985,0
8.40738923600177e-07,0.319966330132876,0
5.15110276557023e-07,0.248029111446369,0
5.09763642931636e-07,0.234763000977533,0
5.76515773708614e-07,0.237742289213712,0
8.51367236463952e-07,0.277174734478933,0
8.31671129797937e-07,0.27212000773321,0
8.28112759031976e-07,0.269216705441956,0
7.82126666811187e-07,0.26033263644395,0
7.6067255554056e-07,0.262701644436763,0
7.36998496975182e-07,0.25402080411009,0
7.94436733477445e-07,0.27495354988458,0
7.21634363789838e-07,0.275443459630839,0
5.31612523566717e-07,0.247760777834345,0
5.52733794034405e-07,0.261402888227872,0
4.95502927438458e-07,0.24628465664045,0
5.06050349901034e-07,0.245164239407214,0
5.74471324291776e-07,0.256089857555811,0
6.41541368465986e-07,0.26213605461621,0
6.75328139233131e-07,0.261289433394402,0
6.25438328698118e-07,0.264113678433677,0
6.00554545105333e-07,0.252009875292329,0
8.33010561877642e-07,0.283903543500626,0
8.75775562012782e-07,0.285733232419607,0
8.01412874985337e-07,0.273717022896417,0
6.9789272845538e-07,0.265921643322174,0
6.64254424858516e-07,0.267696440760533,0
4.25029434762928e-07,0.231201950474988,0
2.94497744161761e-07,0.20610505189062,0
2.42183843972861e-07,0.202491539860722,0
2.4964048656718e-07,0.207589232842659,0
2.83641687500098e-07,0.231570235897039,0
9.14089774586689e-08,0.164057428902232,0
0,0.112926284042047,0
4.8151171213481e-08,0.143777594460367,0
1.3470490910492e-07,0.186920221303479,0
1.59653848806402e-07,0.191907077525353,0
5.0979531323834e-07,0.274434599458271,0
5.71146950696365e-07,0.281722161063258,0
5.84996153924092e-07,0.275272056076506,0
6.00683646992533e-07,0.265658257485108,0
6.00202742462712e-07,0.25904173138784,0
7.25500965311491e-07,0.283264917401591,0
7.46388238608628e-07,0.292590039137609,0
7.44010948388851e-07,0.299791809499386,0
6.53889762255007e-07,0.280681144845828,0
6.81617821800177e-07,0.287027999741444,0
3.17393963856756e-07,0.215747425505832,0
2.21248359189723e-07,0.183838164152469,0
2.49731463053316e-07,0.192777419372246,0
2.17943350877392e-07,0.179768661494354,0
3.16561054962614e-07,0.199987439921779,0
6.06824055502503e-07,0.260845992839126,0
5.86784416783517e-07,0.246914835951137,0
5.57290283765785e-07,0.238943149459846,0
5.85665869963944e-07,0.251514214237581,0
5.90116657525179e-07,0.254903119921636,0
5.63408704610591e-07,0.246916272727764,0
5.53179195545247e-07,0.251942939632042,0
6.0327395532619e-07,0.270578428363653,0
4.90502649969826e-07,0.254232136436989,0
4.39942114786469e-07,0.26888608813472,0
2.50180092111338e-07,0.216482625618484,0
6.17173387256906e-07,0.332205255555931,0
9.23031895770605e-07,0.361968057692244,0
8.89560617740306e-07,0.322829200114225,0
7.12481039987329e-07,0.283380668372859,0
7.04093653474975e-07,0.284675442212507,0
6.83348593975457e-07,0.277844680026403,0
6.97314795788458e-07,0.271364960802409,0
8.33922545677694e-07,0.289700490154223,0
8.2306164769526e-07,0.275027864616579,0
8.54482828101159e-07,0.280149159946929,0
7.46052573701907e-07,0.262599996776553,0
6.65473630805764e-07,0.25649290775438,0
5.96448499927263e-07,0.255022843462905,0
5.99521931729428e-07,0.24945363858839,0
6.65096814672497e-07,0.264157129555372,0
6.55423855774006e-07,0.268537685768614,0
8.25496832042579e-07,0.293559676593724,0
1.04931593256118e-06,0.338792110146469,0
1.24741955092305e-06,0.374952585022443,0
1.24659975393932e-06,0.360139447203469,0
1.51792834894768e-06,0.395816985575735,0
1.24096385139793e-06,0.331556226318584,0
1.00231477675228e-06,0.291978761395529,0
9.12750342506983e-07,0.286932908769645,0
9.7304415137676e-07,0.286548985242931,0
9.86778978401296e-07,0.279081857954345,0
1.23439982732058e-06,0.310883636439333,0
1.59101615483902e-06,0.336792489195724,0
1.31450432078126e-06,0.305397046792826,0
1.32027335964383e-06,0.310972663765684,0
1.19306866502016e-06,0.294990762630272,0
1.07517685606271e-06,0.287933897090429,0
9.81345604445446e-07,0.274569443230766,0
9.86590368612963e-07,0.278083409287064,0
1.00237307432322e-06,0.27821966829982,0
1.157605183493e-06,0.290574791440152,0
1.24186816977343e-06,0.30249085475443,0
1.18905440321503e-06,0.278530055626397,0
1.38081508448138e-06,0.296380020847851,0
1.41775980844246e-06,0.294436444560165,0
9.85919845686316e-07,0.250082678579931,0
1.08795451362668e-06,0.265131040732181,0
1.07274812680976e-06,0.256881577450326,0
1.56846467752719e-06,0.303535159103512,0
1.73828751888931e-06,0.300537579161434,0
1.79026716622338e-06,0.295877251014333,0
1.74299328267777e-06,0.304480145376931,0
1.86593075648607e-06,0.338295354958538,0
2.09937440269546e-06,0.354840785953359,0
2.595638627825e-06,0.406353818419058,0
2.50135894887142e-06,0.404705955637317,0
2.24855143163385e-06,0.355894489185836,0
2.73704574037091e-06,0.38412475493935,0
2.55832656865049e-06,0.383694100965511,0
2.1665362302426e-06,0.371928921590537,0
3.09277711479693e-06,0.456684121133445,0
3.14094825645859e-06,0.416732392103143,0
3.16288024643356e-06,0.412999987505624,0
2.96385839089897e-06,0.400615754048896,0
2.32535414432938e-06,0.34711412728049,0
2.05288138384571e-06,0.322100367191033,0
1.89864275404227e-06,0.327706816984222,0
1.52775723871931e-06,0.302581440395822,0
1.51619354233843e-06,0.294979028520194,0
1.54201734904739e-06,0.292083132479427,0
1.05708302484988e-06,0.244421554660956,0
9.03886892785579e-07,0.247985752442284,0
9.00364630203692e-07,0.244653008302615,0
1.03412709553205e-06,0.248439582669118,0
1.13084054678107e-06,0.24912609342432,0
1.2930726006192e-06,0.267803407389981,0
1.69068785480021e-06,0.297110338766244,0
1.93424804592365e-06,0.317114180808925,0
2.05466944498344e-06,0.318020954463971,0
2.92362842735204e-06,0.389453377039489,0
2.63607979399054e-06,0.361173177175867,0
3.05494925323872e-06,0.371501899999116,0
8.15810983127536e-06,0.564586855297129,0
1.00544356098858e-05,0.520920521864878,0
1.04999500848785e-05,0.532526080367767,0
1.0354887976873e-05,0.526519380533472,0
1.02282836060248e-05,0.539855778117016,0
1.01134765252846e-05,0.535485946813837,0
1.01832117165427e-05,0.551089538573026,0
9.08893040355644e-06,0.526360157481405,0
8.87332924332322e-06,0.534475786907017,0
9.04962372022468e-06,0.563553461027567,0
3.88688282296672e-06,0.434691325519323,0
4.60108838175667e-07,0.215127314867151,0
4.64687920737308e-07,0.22734117717879,0
3.59191506724688e-07,0.213271976059608,0
3.29169468021326e-07,0.221113652199021,0
2.88204027160741e-07,0.226239882664119,0
2.80136772984304e-07,0.220737785069966,0
4.78197626346036e-07,0.258673791392884,0
7.30358625539106e-07,0.285288796221638,0
7.13531808316121e-07,0.257278129330079,0
1.75258716667035e-06,0.388786618711367,0
2.62687018983407e-06,0.448576131011387,0
2.63398935202638e-06,0.434865307910122,0
2.49048130798798e-06,0.407973733180096,0
2.29304801083106e-06,0.370880229991619,0
2.30216926088347e-06,0.361899391124281,0
2.24467353369707e-06,0.363954564471851,0
2.33615936712296e-06,0.381496172695392,0
2.73092126787515e-06,0.419634352608514,0
3.36553773214472e-06,0.496752769093657,0
2.73133782318307e-06,0.469385750413574,0
1.33021359979317e-06,0.337130419220338,0
1.28971756532558e-06,0.343887540661316,0
7.14672544522555e-07,0.26398567517832,0
2.04813204817032e-06,0.409378233117854,0
4.82977744752652e-06,0.627167660018134,0
9.21326419496348e-06,0.753431450649336,0
9.53869293580318e-06,0.648786253487065,0
9.19508846474094e-06,0.645358724573434,0
8.53145393066269e-06,0.606109706470294,0
8.40576416599664e-06,0.585481620606908,0
8.03343533191911e-06,0.575717603769239,0
7.46035104602795e-06,0.551931475527814,0
7.44971163847075e-06,0.553422821843326,0
7.03754882054093e-06,0.565483553910212,0
5.68979128288571e-06,0.503098344054041,0
1.56047548964817e-06,0.292019065816058,0
1.1776756856319e-06,0.292142209319219,0
1.27962885800596e-06,0.309613698740338,0
1.36785971010082e-06,0.332181789613125,0
1.45511059818314e-06,0.363241504372691,0
1.30432120770663e-06,0.344227056447245,0
1.21234418194428e-06,0.342859594419527,0
1.22468087587478e-06,0.342035174729405,0
7.14281406148679e-07,0.276398497653481,0
5.36737263323478e-07,0.234991666831327,0
4.78467933422362e-07,0.213652775291723,0
4.78435657950562e-07,0.213532335042084,0
4.7752851547128e-07,0.20982539036455,0
4.99384052922421e-07,0.210762229850185,0
6.65842983236175e-07,0.213532757890585,0
1.33211038892652e-06,0.296192295943691,0
1.79273886219817e-06,0.341725355112057,0
1.92125414269863e-06,0.350915514019941,0
1.6381819155541e-06,0.334401562811474,0
1.51815750479746e-06,0.338714866022396,0
1.58001929643163e-06,0.352590044866278,0
1.57829961894978e-06,0.337850015059756,0
1.6619172975159e-06,0.350785114606574,0
1.34431858613491e-06,0.3019188146369,0
1.41300179873403e-06,0.357525321795005,0
1.24990314847806e-06,0.347462183934268,0
1.0772939252911e-06,0.326967671504638,0
1.10928557466106e-06,0.347342412610301,0
1.23206449521414e-06,0.365182724258961,0
1.23185309087386e-06,0.379892071407819,0
1.30007536939133e-06,0.377760825129165,0
1.24479817744778e-06,0.380589785304845,0
6.12220514387481e-07,0.274073661106073,0
3.33817337682239e-07,0.227847476806962,0
3.36247680708787e-07,0.228545671870806,0
4.92656029103989e-07,0.246946232842646,0
5.94055273693285e-07,0.263208319779487,0
5.23543655616691e-07,0.248248424169348,0
5.43837867119501e-07,0.238423870002489,0
5.64267232160473e-07,0.221039839932812,0
7.66368167704784e-07,0.272517502349729,0
9.06977269210438e-07,0.308257263601181,0
8.94435827755712e-07,0.288459651815291,0
8.76127566377101e-07,0.270292550917295,0
1.0020688780015e-06,0.278267847322038,0
9.80069916422547e-07,0.279335876241163,0
9.73053228853204e-07,0.282642658644374,0
1.14403960097372e-06,0.293871688506147,0
9.52452400368293e-07,0.275491632443531,0
9.00248438505213e-07,0.292120331347483,0
6.92492235136427e-07,0.250233588123977,0
6.71512169857865e-07,0.238201815102125,0
5.85795980459639e-07,0.233645735615743,0
6.06146270594699e-07,0.24462673969366,0
4.7768202568403e-07,0.223532934712581,0
3.42431459383989e-07,0.199678578586502,0
3.9204390258322e-07,0.197944193137518,0
6.56000779832433e-07,0.24714125856755,0
6.26459040493796e-07,0.232281130236157,0
7.02682408470515e-07,0.226226101180163,0
1.26568766968361e-06,0.293211242544566,0
1.4757830378711e-06,0.294370636328088,0
1.83943077864289e-06,0.330480941553185,0
2.02206153582379e-06,0.352417551692844,0
2.09274340701413e-06,0.363344648725968,0
2.12095862446178e-06,0.351385969261113,0
2.52799024754048e-06,0.390707671320917,0
2.40485044686833e-06,0.375994801805689,0
2.5473448393705e-06,0.393213783232362,0
2.59869612361297e-06,0.394997096428994,0
1.92825771835755e-06,0.343524857240719,0
1.69097026517846e-06,0.355063416840533,0
1.89572585827833e-06,0.373609587444939,0
1.99815045426238e-06,0.354302442494484,0
1.94775230504652e-06,0.340914338033447,0
2.38982218031141e-06,0.370740825015075,0
2.01290034487503e-06,0.322032167552705,0
2.37103200579448e-06,0.355015556942106,0
2.37445582818737e-06,0.350096044073412,0
2.30302920048525e-06,0.36050177743065,0
2.09845213108877e-06,0.350338973862896,0
2.32410609217921e-06,0.375583510749783,0
2.18898382087957e-06,0.351047346246353,0
2.08266781160493e-06,0.358651077233324,0
1.99283609610879e-06,0.35454192677002,0
1.22844802859894e-06,0.286118413767653,0
1.55102624011359e-06,0.339923980382342,0
1.12266678354769e-06,0.297494983286477,0
1.13821549208739e-06,0.291313497733247,0
2.35752472084614e-06,0.396606448121575,0
2.50369387753445e-06,0.367941904816474,0
2.18493163539507e-06,0.343687856734378,0
2.13163535053326e-06,0.346182865750759,0
2.01987749499141e-06,0.344440975237763,0
1.82661035607879e-06,0.326382663396226,0
2.17858950518635e-06,0.35401442940136,0
2.38974471917908e-06,0.350424278267151,0
2.47678258914752e-06,0.355117328962759,0
2.38541173708992e-06,0.353154530847233,0
1.73579585246634e-06,0.311159061645782,0
1.87742889331485e-06,0.344942629843274,0
1.91970976137299e-06,0.333877801784035,0
1.78332249330049e-06,0.328586048221003,0
1.81315208950324e-06,0.333998225104463,0
1.7960122002038e-06,0.340149734920174,0
1.26769661608146e-06,0.304250942240921,0
7.86346684749049e-07,0.268352418815507,0
7.66708673932276e-07,0.261627615836001,0
6.5077941538197e-07,0.253567417178787,0
4.12930167271863e-07,0.214560191112181,0
2.26383386753119e-07,0.180086634822943,0
1.03811029219558e-07,0.149360533993011,0
1.13319383211869e-07,0.149207731479266,0
1.53151955012271e-07,0.153590410470128,0
3.66142836463635e-07,0.202216198141869,0
3.75162015336476e-07,0.195049749276321,0
4.6190234579926e-07,0.20784495646045,0
4.82213501924765e-07,0.21787645886414,0
5.06416071340869e-07,0.220933795084028,0
5.43290797872489e-07,0.217514066760544,0
6.02026508341116e-07,0.216641463916386,0
8.46154142603139e-07,0.256038750042091,0
8.64506782755474e-07,0.253956047017603,0
1.3239285568252e-06,0.284876854349683,0
2.51131915946892e-06,0.381200001891672,0
2.53206099142126e-06,0.382416622014565,0
2.55915927582293e-06,0.39390076161354,0
2.54179446682938e-06,0.394730266808793,0
2.74563020898295e-06,0.405978330891703,0
2.72815203239469e-06,0.413729927102306,0
2.84938939572593e-06,0.434470138593315,0
3.4480806374999e-06,0.478966444101097,0
3.58557112154286e-06,0.473903567993895,0
3.30524815943061e-06,0.513174460991759,0
1.41123713731336e-06,0.3462850937188,0
1.06575645273106e-06,0.29960205499634,0
1.1792902661087e-06,0.311341679563272,0
1.18157698328573e-06,0.304860910462251,0
1.11110833193098e-06,0.310350522118917,0
1.14329887889591e-06,0.322330677176915,0
1.07779903642477e-06,0.313240487986809,0
7.76028216414555e-07,0.266250178784899,0
8.62360262159068e-07,0.297975424891194,0
6.08720441192458e-07,0.264332341306483,0
5.46541543047856e-07,0.264172277203474,0
7.66281023930924e-07,0.299364610858851,0
1.10249481539432e-06,0.345674839481227,0
1.12761400820955e-06,0.34957720063714,0
1.13596427792933e-06,0.341068477397414,0
1.13226409680915e-06,0.329199155330176,0
1.36013376903866e-06,0.332229862890527,0
1.5977207789404e-06,0.34869622869121,0
1.31179620697554e-06,0.317471208458629,0
1.13660918220024e-06,0.292329891814342,0
1.05633100635693e-06,0.283496585651408,0
9.547439588661e-07,0.27998010768169,0
7.51841179569256e-07,0.263426043456079,0
6.42028526368468e-07,0.246793044716652,0
9.83758195962502e-07,0.281746041892619,0
1.10009654611788e-06,0.267770623690116,0
1.18435973412e-06,0.292632643639912,0
1.08721157261018e-06,0.281122148943105,0
1.46609232746312e-06,0.331212164166693,0
1.65727063818518e-06,0.335994229551936,0
1.72717023262776e-06,0.339117529580288,0
1.74007658863553e-06,0.338445397419316,0
1.82379492632933e-06,0.346748787584301,0
1.93943794178911e-06,0.357088403085697,0
1.36864158340517e-06,0.310208365198311,0
1.16597663399115e-06,0.308679111514874,0
1.14429235826225e-06,0.310170347507925,0
1.28405059764258e-06,0.322427642929395,0
1.10311289067929e-06,0.292380123579473,0
9.10963895142847e-07,0.281833168225282,0
9.00074352679191e-07,0.287000809581842,0
9.98791909005294e-07,0.292463537225725,0
9.40791474128613e-07,0.261521682219082,0
1.25619141899322e-06,0.296651270325551,0
1.27329580527368e-06,0.283524579771108,0
1.22488158896503e-06,0.28231263575174,0
1.2172823291297e-06,0.282581306502018,0
1.24306236223003e-06,0.283114098581996,0
1.46137304832085e-06,0.310199962836324,0
1.85095574445761e-06,0.348149386171284,0
1.86702005365932e-06,0.345342377864784,0
1.77582389259283e-06,0.352601046416068,0
1.73610892454281e-06,0.367303675376635,0
1.13201698772818e-06,0.293285071037086,0
1.42926762791279e-06,0.34086096507606,0
1.46533244182393e-06,0.334133851348006,0
1.15553067754305e-06,0.303748350365417,0
8.16542002391637e-07,0.26534845581642,0
7.90746840163897e-07,0.269821901912601,0
7.2087851258462e-07,0.258161918290441,0
7.2204264850811e-07,0.262770427603307,0
7.99629856890082e-07,0.280967558601129,0
6.09009104943371e-07,0.238514551405731,0
5.77388825220807e-07,0.235670108432767,0
4.20877195315844e-07,0.200727992074998,0
1.25223505131562e-06,0.335263923206649,0
1.4174951495737e-06,0.352654298488392,0
1.42481361280438e-06,0.353283606574291,0
1.4469459124262e-06,0.347881361902519,0
1.37214811169456e-06,0.338939864182348,0
1.33437774082048e-06,0.323094465407453,0
1.04544610349235e-06,0.279667443894835,0
9.77028760092179e-07,0.285349748762064,0
9.89571008433704e-07,0.295722948479021,0
9.22671822538336e-07,0.30865231285352,0
3.58020512263439e-07,0.212033708751951,0
3.74471320239954e-07,0.203746011747542,0
4.95352846494588e-07,0.213405388699828,0
5.02534945856907e-07,0.213036535624463,0
4.72193379982723e-07,0.202450555000368,0
4.71464156041739e-07,0.198864685190255,0
9.6393601323477e-07,0.274037555141141,0
1.40672966595478e-06,0.318888104805648,0
1.41475496201787e-06,0.321840837556465,0
1.3172426928418e-06,0.309725679253322,0
1.31168021699875e-06,0.305451678109332,0
8.95751053231566e-07,0.276497377012485,0
8.40755061336078e-07,0.280388464143096,0
1.00724162752256e-06,0.311036574705052,0
1.12268130751e-06,0.345484775017175,0
1.05568650552942e-06,0.35420647255422,0
8.17945985414943e-07,0.330076920078537,0
4.96402606214886e-07,0.25615131804664,0
5.61693263284416e-07,0.267304298138657,0
5.61754586680836e-07,0.27020835019077,0
4.79319804156186e-07,0.267273732822175,0
2.84542374885019e-07,0.205584339226388,0
5.41380695107019e-07,0.283335393199658,0
6.99926083178787e-07,0.310625150139677,0
6.03072233627439e-07,0.282863602961346,0
5.37588327170507e-07,0.268088085202972,0
5.28265557141047e-07,0.265774931639451,0
4.8938006871628e-07,0.273519442387037,0
3.35269733913245e-07,0.220070818118468,0
2.90908711697589e-07,0.19825251414936,0
2.73332901807143e-07,0.193316792270164,0
2.53093962049791e-07,0.196113524422971,0
1.73371932929941e-07,0.169991834413111,0
7.38495070258209e-08,0.134850812028805,0
7.50598372183248e-08,0.138140611365534,0
4.83276776998878e-08,0.130512928616118,0
3.98039273191788e-08,0.129742939075433,0
6.28018147503442e-08,0.14932892466751,0
2.88462029213443e-08,0.140682373850545,0
7.38805721674275e-09,0.148353167367253,0
5.88543228274921e-09,0.147157779985285,0
1.67067928122286e-08,0.140566971479728,0
6.20740028612517e-08,0.16918484660639,0
4.23647842848184e-08,0.153603856619534,0
2.3265773847106e-08,0.140870929195255,0
8.15762549747665e-08,0.16293027224235,0
6.02060599308205e-08,0.155466903323469,0
7.28959685558271e-08,0.153077195044413,0
7.52319058273594e-08,0.153117787721557,0
4.12240480783835e-08,0.12675120120467,0
1.81999166542108e-07,0.186769708845242,0
2.18873086186934e-07,0.205570606160045,0
2.29935302424722e-07,0.209881963041044,0
2.60814860069472e-07,0.211235119216537,0
2.65057470837596e-07,0.215494389064349,0
1.79693689247087e-07,0.199872036210991,0
1.48290663794077e-07,0.18986819626756,0
1.18504236034857e-07,0.179494111595401,0
1.25304677943139e-07,0.192386755367351,0
1.35582196772787e-07,0.188840944037643,0
6.50796561726365e-08,0.155518165312031,0
5.20441982776701e-08,0.144281126761378,0
3.83238952154449e-08,0.139972226927662,0
4.80035109299955e-08,0.160474864942739,0
5.43440273651264e-08,0.160847095094741,0
5.41116439681655e-08,0.154673031982206,0
9.33731416394042e-08,0.167473954567038,0
3.46869336756504e-07,0.26315198441506,0
4.27315950218266e-07,0.268749305597736,0
4.3747465496735e-07,0.27737230944392,0
4.68599506197782e-07,0.290344083973115,0
4.9289184176983e-07,0.29240252728254,0
6.43511584297681e-07,0.315339930631905,0
7.05196667723744e-07,0.307454941917577,0
6.26108044737969e-07,0.285854176182955,0
6.60488482464541e-07,0.295009967845959,0
7.42516594044506e-07,0.309158957135453,0
8.63933691409323e-07,0.312164754137238,0
8.88723069247094e-07,0.296446884747735,0
1.16014667517556e-06,0.332758987512102,0
1.20655577779863e-06,0.336310790762404,0
1.20200090184084e-06,0.341523484654504,0
1.09371568534299e-06,0.344269051325954,0
9.12009015264075e-07,0.335615633421529,0
8.58745611039156e-07,0.322822513150505,0
6.38636576003975e-07,0.267103745177933,0
2.3254477431976e-07,0.170688652883002,0
1.92116518342948e-07,0.170499714358096,0
1.95493541301733e-07,0.184383835271531,0
2.93571438121098e-07,0.22916881526173,0
3.31186685008833e-07,0.243147301935719,0
3.13782338562324e-07,0.230860927857036,0
3.02661017866803e-07,0.22738955361265,0
4.81345090011643e-07,0.241099355638659,0
6.54041456972467e-07,0.268773527236257,0
6.99049602397715e-07,0.27287829266332,0
6.80366945546223e-07,0.274598095152939,0
6.98547113646127e-07,0.257007924279764,0
7.30030827778636e-07,0.253649687361816,0
8.14710369366983e-07,0.271961030312813,0
8.46096651918995e-07,0.274161040956618,0
8.8795491301825e-07,0.280661319863097,0
8.88393657713033e-07,0.272340190414711,0
7.28955449402596e-07,0.259057663356517,0
5.93823495461421e-07,0.230547159783532,0
4.78150826911926e-07,0.22085973992406,0
4.80239049937393e-07,0.226318969099791,0
3.95588556273666e-07,0.226583585923971,0
2.18088590500493e-07,0.191997541443069,0
5.04227794352822e-07,0.256303166578288,0
6.40114590890721e-07,0.266893369146274,0
6.45775910366159e-07,0.262493915300336,0
7.59911661292873e-07,0.287855706216471,0
7.36810492351946e-07,0.293657396067431,0
6.90488533502737e-07,0.291025813193068,0
8.83600750150718e-07,0.32011388521896,0
8.15660882011496e-07,0.291504231779523,0
7.81925953720929e-07,0.290437681973449,0
8.16171036187636e-07,0.293697509687014,0
6.94116498254767e-07,0.287580978236695,0
5.98278519178328e-07,0.294787892145296,0
5.81438791766621e-07,0.30286892838953,0
4.5609276087524e-07,0.272837944272784,0
4.44477827182876e-07,0.283454569908511,0
4.20215346422243e-07,0.280696258026276,0
3.20653584786867e-07,0.242728577534556,0
5.52365651934185e-07,0.323785830462123,0
5.51458912898302e-07,0.285807868816844,0
5.26301796403709e-07,0.274900517814355,0
4.20715817956844e-07,0.245925139840963,0
4.07905683199382e-07,0.242617707301345,0
5.91380242246152e-07,0.271078502890915,0
4.88965530625346e-07,0.245862756008298,0
4.25592440024141e-07,0.223905201376008,0
5.32953569420012e-07,0.24172741631633,0
7.0953913073275e-07,0.275041676151344,0
6.35775153707197e-07,0.272221161278286,0
7.00862071860989e-07,0.302619482681369,0
6.66257723048807e-07,0.292274582118176,0
6.84804822918738e-07,0.286791140218538,0
6.39684721950684e-07,0.272645640905923,0
2.91937492361217e-07,0.199870195785127,0
2.25996081091519e-07,0.189882249200086,0
1.14761289914539e-07,0.15768595484038,0
1.60010492769793e-07,0.169298986283071,0
3.52185106961981e-07,0.222269551243547,0
3.89831418991323e-07,0.220153791313106,0
4.29502613432723e-07,0.231881782718485,0
4.10831252996362e-07,0.234821218820848,0
4.16777403510437e-07,0.23634910687371,0
4.24056127566455e-07,0.235587766889006,0
4.34790949487171e-07,0.235705221121701,0
4.19737669439602e-07,0.220321750285878,0
4.58094848735341e-07,0.218600058982142,0
3.754325241345e-07,0.212745717175134,0
1.28481592976764e-07,0.148317541409258,0
2.20841688245042e-07,0.188197466884052,0
3.15486483473369e-07,0.217211148687429,0
5.43966969006702e-07,0.245376215202636,0
1.14978624872773e-06,0.343278367331881,0
1.17120747936146e-06,0.349462835059766,0
1.17418590024351e-06,0.345477672034485,0
1.31620604503192e-06,0.371724208114083,0
1.38235845719852e-06,0.401855870609444,0
1.46603766088276e-06,0.431271894212991,0
1.47089330389339e-06,0.410721007424241,0
1.44958503741096e-06,0.404017230248754,0
1.28977142501915e-06,0.376667518226737,0
1.12569260902895e-06,0.389302211240564,0
5.40076766046295e-07,0.290936905749465,0
5.00061837830222e-07,0.290216360396579,0
5.10139047013011e-07,0.292821225268628,0
3.82218442080473e-07,0.269830176503968,0
2.84311605261648e-07,0.242100171690862,0
1.32934599476684e-07,0.180316879608628,0
9.74116100483924e-08,0.169383246802582,0
7.8671462512757e-08,0.147982170644349,0
7.80372494918852e-08,0.144570106273236,0
6.99693901503526e-08,0.14798806080817,0
6.61243728504659e-08,0.143804358916072,0
7.01701032406093e-08,0.139607800601209,0
1.30861102135226e-07,0.16675906557422,0
1.30402790435665e-07,0.159909313941397,0
2.20844915792222e-07,0.183914510614692,0
3.26293723483936e-07,0.206925138919607,0
3.78166861761066e-07,0.224009374804573,0
4.17850562947789e-07,0.23935799428975,0
3.95465102594032e-07,0.244983867880995,0
3.92592585603822e-07,0.244307846989177,0
3.97730840714399e-07,0.239777053572986,0
4.32421929857044e-07,0.248627142050155,0
3.67154470782871e-07,0.237257620217025,0
3.5175100186627e-07,0.233046955046406,0
2.58316940273843e-07,0.200149273243316,0
2.75386630422123e-07,0.209595023548113,0
4.55103517664568e-07,0.270403668681797,0
4.03725807879569e-07,0.260539483754731,0
3.99570340885306e-07,0.252431333614927,0
3.95001142686906e-07,0.247948212585684,0
3.88798402172021e-07,0.252977284592267,0
3.24469554162134e-07,0.237898666199953,0
2.59761267636899e-07,0.216958861245874,0
2.23669019574731e-07,0.207282017048542,0
3.44351849956096e-07,0.236771425476265,0
1.67886030643737e-06,0.473822642193471,0
2.13156575654719e-06,0.45781161110752,0
2.09660173794613e-06,0.438350340127065,0
2.36597282558981e-06,0.473621209318796,0
2.47518656706701e-06,0.483887806639002,0
2.50141684299895e-06,0.48250645830355,0
2.34991577836926e-06,0.472015432632497,0
2.22428511816094e-06,0.471074817819949,0
2.16118495701814e-06,0.472355434626525,0
2.16731830526865e-06,0.508301432594442,0
1.09634230358243e-06,0.414199875996312,0
2.43168245862765e-07,0.245683751291864,0
2.22552288250447e-07,0.266224127324234,0
1.19583850566571e-07,0.186260513849313,0
3.37808199770322e-07,0.268461536224312,0
3.62216323597454e-07,0.2593868830022,0
4.8688053514706e-07,0.291208540788623,0
5.77359979017886e-07,0.297429615833775,0
5.98221028494186e-07,0.291194898498565,0
6.17421908389766e-07,0.292085039607883,0
6.34011299173322e-07,0.276685311176518,0
6.35515336159207e-07,0.271294124734963,0
6.34900690143114e-07,0.277050318514732,0
6.17429775536019e-07,0.295684361408854,0
3.4866708053577e-07,0.222054297182612,0
3.3089640748433e-07,0.22459983130222,0
2.2638338675312e-07,0.185548060769141,0
1.95405590641077e-07,0.173376000009931,0
2.43386105297416e-07,0.184764719486306,0
4.72307352742517e-07,0.241901255157962,0
5.04476920650779e-07,0.238061595092352,0
5.00387618373706e-07,0.243129384380063,0
5.17183975620179e-07,0.241949013356729,0
5.31735170359557e-07,0.246241396092728,0
4.91137669877494e-07,0.243591264870821,0
5.20237033530769e-07,0.258587391093104,0
5.94957978295194e-07,0.297705471332785,0
6.90788695390478e-07,0.327529192675912,0
6.78091726506016e-07,0.335182163546865,0
3.66565443422517e-07,0.25092077615845,0
3.2325922396963e-07,0.259172726098933,0
4.69725920163604e-07,0.26646548227697,0
8.68250737484287e-07,0.340797679083392,0
6.79008148183439e-07,0.282329031217649,0
5.23424236371031e-07,0.264861045936377,0
4.81948641334304e-07,0.25205202336854,0
4.86310671348089e-07,0.242469738242361,0
6.87467549342247e-07,0.267993744590352,0
1.08698624947267e-06,0.334045423624957,0
1.14624744496654e-06,0.346026825504518,0
1.20793051117562e-06,0.361350621065541,0
1.17385406804906e-06,0.39383276581832,0
6.38502431074307e-07,0.298772088416095,0
5.3433274067437e-07,0.295242912052657,0
4.38612365348305e-07,0.256339759323504,0
3.22772671232244e-07,0.224739356960424,0
2.61996142337356e-07,0.214494902978974,0
2.31105288277475e-07,0.221974966563995,0
6.75664812748344e-08,0.150304141196505,0
9.10361957593775e-08,0.153858602029037,0
9.04618940830346e-08,0.145116382798562,0
1.06270218449027e-07,0.153075538690779,0
1.36899641187327e-07,0.169233848930611,0
1.47544091787002e-07,0.166674281911845,0
1.70458062991487e-07,0.177498704654173,0
1.58881052978488e-07,0.166753926218097,0
2.14828767848682e-07,0.175729078656961,0
6.22453452721704e-07,0.249495591023968,0
6.70087409499589e-07,0.247513922808194,0
8.10296698598318e-07,0.277705511399664,0
8.35314425399074e-07,0.274801391119716,0
8.26260348672349e-07,0.266855501132879,0
1.06420783524975e-06,0.297443832568137,0
1.23368956521928e-06,0.311383680118982,0
1.16482601342148e-06,0.294471898384394,0
1.16058562159204e-06,0.301077440094283,0
1.14061295447704e-06,0.31190184343258,0
6.14140904959586e-07,0.246428868663475,0
6.13032242503253e-07,0.251557476926521,0
5.93169917157469e-07,0.243767380459875,0
5.75524916724351e-07,0.242653531259787,0
1.19126365925974e-06,0.322143487522251,0
1.34544822764792e-06,0.31337867142202,0
1.19349147370074e-06,0.303160602116685,0
1.39798160104506e-06,0.337160061174044,0
1.45122806064728e-06,0.321109522011291,0
1.51879817291269e-06,0.323762640522128,0
1.60964555716204e-06,0.328651930167987,0
1.62386391109848e-06,0.325916606744007,0
1.64838419219012e-06,0.327741583974112,0
1.49038930263424e-06,0.316095198168479,0
1.16381801009282e-06,0.299098304033257,0
8.82287138448453e-07,0.287789693779131,0
8.23433824229455e-07,0.27742785986274,0
6.38889131570812e-07,0.242898800866188,0
7.32124900733365e-07,0.291250457168672,0
7.28784994567151e-07,0.295277497431294,0
5.55808032723366e-07,0.269616977290248,0
5.62460814348161e-07,0.293908613552409,0
3.92222829730011e-07,0.269396488287463,0
2.86023012153848e-07,0.213688391980813,0
6.26960924080288e-07,0.291114393445834,0
6.91599011454359e-07,0.28994155244958,0
1.02395225304707e-06,0.339485724539174,0
1.02876775343964e-06,0.325263789914292,0
8.8616927254091e-07,0.297354334116389,0
7.76096196627036e-07,0.276542627030795,0
7.41582219135893e-07,0.275562533401646,0
6.0804991826581e-07,0.245915068901841,0
5.56666358551551e-07,0.238956958094001,0
6.16845589496436e-07,0.249632697408179,0
7.87521511922574e-07,0.297226003935923,0
8.01202479253542e-07,0.293945426031056,0
7.37050742895158e-07,0.293398089298803,0
7.91510760237067e-07,0.327827704789178,0
7.36423186690346e-07,0.300554758962593,0
8.29926640547143e-07,0.321663822067915,0
8.18435160534413e-07,0.312106419721301,0
7.78267528992387e-07,0.307853374222207,0
1.00978332092682e-06,0.338901367858637,0
1.19911446605342e-06,0.376437931134564,0
8.13024177687125e-07,0.30686529006383,0
9.15393703647411e-07,0.329196842458372,0
1.12485445537064e-06,0.363507521689653,0
1.2939446435229e-06,0.385024221697863,0
1.21981111234524e-06,0.396288243486346,0
8.42273017119176e-07,0.329889285010251,0
3.78480135559225e-07,0.227602377910754,0
3.11262431101532e-07,0.213996698427198,0
2.94876779233713e-07,0.219174600754493,0
2.86261043758374e-07,0.228527299535581,0
9.2383696707032e-08,0.161799200727497,0
1.01874500911552e-07,0.171659493248357,0
1.25588702094981e-07,0.180546580380288,0
1.27044325873165e-07,0.172285650717657,0
1.26934589269045e-07,0.169718747825455,0
3.4897531129146e-07,0.222548274355507,0
6.41140950893965e-07,0.269872757519423,0
5.09372504557758e-07,0.245334241120982,0
4.36700043644147e-07,0.222600840629494,0
5.10184232673531e-07,0.233729369536066,0
4.52156968810917e-07,0.216592798551841,0
6.12649778162423e-07,0.241976508673706,0
7.7781647927398e-07,0.261311812739187,0
7.27336027605026e-07,0.249731510917852,0
6.16265639612528e-07,0.229066956114944,0
5.26958400533142e-07,0.233425017394002,0
4.79682298048841e-07,0.234580479278852,0
4.46737917095679e-07,0.220637160295244,0
3.46759600152383e-07,0.196038117834066,0
3.69339520223737e-07,0.205291240726706,0
2.40462149274025e-07,0.181621882601661,0
2.15225756151823e-07,0.180099846045584,0
2.61368586132543e-07,0.198960323055359,0
4.51585491238355e-07,0.276048152316278,0
4.72260553308407e-07,0.271677392892945,0
4.76996171908278e-07,0.256701865536682,0
4.54611316719616e-07,0.251260660879651,0
4.17268595846894e-07,0.241884261267659,0
4.25798397878566e-07,0.257834071517128,0
4.98185826031842e-07,0.256244646707693,0
7.01759329977032e-07,0.288769746791367,0
7.32010927973573e-07,0.302744994965075,0
7.66665303767043e-07,0.322942145737132,0
8.62608178126834e-07,0.318339639091975,0
1.09322187062445e-06,0.379761311250324,0
1.11977005995363e-06,0.396313025219618,0
1.02817549853211e-06,0.39140733248519,0
6.05903599391103e-07,0.296623181619812,0
3.12004766952934e-07,0.209310495160262,0
2.48577816658161e-07,0.201957090242762,0
2.35995022255191e-07,0.201705373377864,0
3.20414746295547e-07,0.227223492395447,0
3.90383127837405e-07,0.232352408993745,0
3.82060897433748e-07,0.227546967623725,0
2.78653513333391e-07,0.197041065993263,0
2.29352730158729e-07,0.182287562208816,0
2.58566873458595e-07,0.195691897040705,0
4.04068936489144e-07,0.233121056087982,0
4.54045083911223e-07,0.252825827262952,0
3.4787734008516e-07,0.226348125906118,0
3.14254367337401e-07,0.213102486989124,0
3.07509600617974e-07,0.220158325032448,0
3.89643414368087e-07,0.243510990985711,0
3.07661093613735e-07,0.214396743141763,0
2.1448846334289e-07,0.17571488720146,0
7.26303212507423e-07,0.296184473537066,0
1.11279553221933e-06,0.349743055837092,0
1.03290082932535e-06,0.360746211553286,0
9.35389367036071e-07,0.354993027301289,0
9.64013676088789e-07,0.338836861355646,0
9.38881573084842e-07,0.313941766779565,0
1.6677139722512e-06,0.389443665752539,0
1.75398146705211e-06,0.382827176510872,0
1.72718475659008e-06,0.398389497593534,0
1.69582610991079e-06,0.412593528587391,0
1.34982094891173e-06,0.376076613707387,0
9.82144422372502e-07,0.327010288498967,0
8.29725927456884e-07,0.296008913703919,0
7.83630098631974e-07,0.279048084035113,0
7.75445644148565e-07,0.286647190122197,0
7.90628026083334e-07,0.299151898944949,0
4.60515509120349e-07,0.253413981322651,0
3.45869805739194e-07,0.237379580339777,0
3.29613255758577e-07,0.23280542667121,0
3.25227019140942e-07,0.24429482355175,0
3.95576251250043e-07,0.251438903874711,0
3.93552780889875e-07,0.235824679131637,0
3.9655682042767e-07,0.224038345983037,0
3.49143143744821e-07,0.192370715887233,0
2.61761116386142e-06,0.377636088455097,0
1.08166757447473e-05,0.765205305644046,0
2.58290274682485e-05,1,0
0.000126765414156057,0.407712288971667,0
0.000365952617944756,0.42799429786854,0
0.000379386516337373,0.333019094989604,0
0.000360133402019952,0.308921969814025,0
0.000368394559968982,0.288036716027607,0
0.000324972809456177,0.239426200280495,0
0.000276712506803672,0.210124557853395,0
0.000256961975623335,0.185219960117402,0
0.000236231441901622,0.154840278686672,0
0.000229881069344291,0.120668303917663,0
0.000285747860529205,0.192156255377707,0
0.000205007176569839,0.192893428498845,0
0.000219118606709526,0.230502216076983,0
0.000234416868884473,0.26812929574983,0
0.000172033307737031,0.264435738616965,0
0.000144113782225998,0.258612156449347,0
0.000146358074909127,0.263713575771097,0
0.000146205753240627,0.309871656792566,0
5.42678429294375e-05,0.275982123314588,0
9.12145177410731e-07,0.195616951587171,0
7.41085176870172e-07,0.226094105406264,0
1.2687891408019e-06,0.281402262724573,0
9.09998150492861e-05,0.147152173419495,0
0.000484890812020206,0.19207122182233,0
0.000500364216437712,0.139868530518264,0
0.00049198962634304,0.145426693802912,0
0.000490281995479318,0.148039315081823,0
0.000492006025510262,0.146166614245024,0
0.000496716409532505,0.151961678634078,0
0.000484324732520305,0.148316543620845,0
0.000478173825001079,0.146282588657436,0
0.000479416857508497,0.143721853594507,0
0.000442647593299923,0.269925990186107,0
5.82868102966424e-05,0.189067209844156,0
8.5024544192503e-06,0.354263993018044,0
7.85051812992599e-06,0.377508728877563,0
1.21849510015476e-05,0.281908349528159,0
3.42176079713371e-05,0.380693761078144,0
3.21861768660497e-05,0.315300294394388,0
3.26294804712242e-05,0.33035875971784,0
3.14849295057441e-05,0.330392901216905,0
3.19427570732286e-05,0.314157436685105,0
3.40764463540986e-05,0.304245987978633,0
3.27834118788804e-05,0.288981919272252,0
4.93894568058847e-05,0.306091928186889,0
5.37152204857808e-05,0.274082094873922,0
4.98568695833287e-05,0.302298279581024,1
4.56637250101725e-05,0.314685796154776,1
4.49179001802685e-05,0.327918503571213,1
3.65192220941056e-05,0.28187033187088,1
3.9594779034367e-05,0.235507530560548,1
5.74083946010363e-05,0.287699518388064,1
0.000100696405846508,0.365594351459493,1
0.000174117218961187,0.318019381397769,1
0.000721742511835581,0.377960478073278,1
0.00130144442551283,0.497994430255801,1
0.00296984518914223,0.209363775275329,1
0.00391006177761019,0.091138692548617,1
0.0035554721601024,0.0816613950015953,1
0.00335501514989385,0.0786338113640336,1
0.0034347600018067,0.0826358851167247,1
0.00346608280818832,0.0783801305162017,1
0.00327994946980652,0.07319785909625,1
0.00319444949056633,0.0701650493279425,1
0.00436889298941915,0.0730024970744975,1
0.00617702068037992,0.0900696373091003,1
0.00820770460365379,0.131622512827816,1
0.0104455304322503,0.294154449234133,1
0.0107054259714981,0.214212424722554,1
0.0105685523225551,0.0958471938150662,1
0.010721860653842,0.0619884480574551,1
0.00734768022329278,0.0422681242006107,1
0.00539789315631229,0.0316480168042254,1
0.00338901357513619,0.0212075881359665,1
0.00415577617331298,0.0244698931972701,1
0.00665644360305473,0.0344792240531417,1
0.00721522872206939,0.024259286042385,1
0.00873318611894169,0.0260195156748751,1
0.00860867092748154,0.0254001784605019,1
0.00815960309148122,0.0347371916137884,1
0.00741921438157053,0.0397945930674284,1
0.00702946706681051,0.0413635570397706,1
0.00612325831692797,0.0390099674342798,1
0.00610091465411708,0.0398755486698451,1
0.00563077646704715,0.0438897027366203,1
0.00335494949351534,0.0127609971037742,1
0.0123686127399741,0.0354569279300827,1
0.0191802505115746,0.0492536174650941,1
0.0234385577322362,0.0584323060126203,1
0.0293699929469336,0.0705184246577059,1
0.029875190427175,0.0602239496866985,1
0.0266969620319835,0.0515523972205409,1
0.0276095708475552,0.0532225318102345,1
0.0254828573273426,0.0373287479496508,1
0.0187944799163961,0.0260980961191583,1
0.0187449251746802,0.0333501637206788,1
0.0221732649061506,0.0125147734204237,1
0.0312010937813351,0.0170387500002891,1
0.0315227617101688,0.0154695521571421,1
0.0313902784700533,0.0154649398711281,1
0.0329017366632921,0.0160431872547972,1
0.0331036990208706,0.0154322083900816,1
0.0312402806226125,0.0145099502458765,1
0.0297876653381824,0.0154791169451661,1
0.0288029661750462,0.012692379561609,1
0.0299486528060543,0.0120054093187714,1
0.0269060141207603,0.0228887520962112,1
0.0194174141832763,0.0186621677265485,1
0.0211598299918006,0.021224910347869,1
0.0206894279327783,0.0198639124300835,1
0.0219796942521305,0.0162146224645189,1
0.0334710009824908,0.0254321890838787,1
0.0423829796578931,0.0273438316380258,1
0.0897993622809963,0.0398450547349567,1
0.118818101043208,0.0479164299299647,1
0.26421489580275,0.0665235656046534,1
0.311008814184248,0.0495244676586996,1
0.268420752274012,0.0344304892603849,1
0.250241779346933,0.0335133517201955,1
0.229987482938656,0.0288909486483232,1
0.285084521932156,0.0355259887496793,1
0.389703421717016,0.0444504754362711,1
0.467623701722182,0.0514079467046333,1
0.453104720616615,0.0418699786514739,1
0.423965917934233,0.0406145175274879,1
0.278967854172567,0.0310073814377891,1
0.210763151415764,0.0303476871196421,1
0.263960083193814,0.0478895485508369,1
0.277208338960288,0.0449141648411286,1
0.279113215282964,0.0433434707933264,1
0.248606931993332,0.0397212235164231,1
0.174901085748764,0.0291795342984326,1
0.112996573155353,0.0192516173872821,1
0.100420360502149,0.023782796518698,1
0.101049951982077,0.0228146835173471,1
0.100686405291571,0.0159171880541231,1
0.117500180483761,0.0223388161184048,1
0.190619466017076,0.0309860178986528,1
0.288987511918082,0.0353594872483474,1
0.263087303440085,0.0278003939901223,1
0.240651165437981,0.0287995742697738,1
0.232916506259331,0.0299131144331267,1
0.203262332130703,0.0204708446039608,1
0.229374941157248,0.0244779535893342,1
0.218365897933201,0.0276936446539729,1
0.182651374782339,0.0145718607352538,1
0.233444663812456,0.0134692792308512,1
0.229931401328789,0.012265973260819,1
0.216590869249331,0.011904642846626,1
0.208186406845904,0.0135991714593709,1
0.195519293026017,0.012214060256516,1
0.189027935259493,0.011068696031822,1
0.200423079615053,0.0136184834423963,1
0.242180279705569,0.0166655264897174,1
0.251582649046148,0.0107796362633995,1
0.257129849311838,0.0151869925960763,1
0.220927047099782,0.0149924742219538,1
0.230142198444203,0.0221180122873412,1
0.222468325350207,0.0246369555556708,1
0.211395913089157,0.0236306572410775,1
0.197632349849448,0.0197283157492568,1
0.193695584234853,0.0152679724246135,1
0.241754300363326,0.0167072399689981,1
0.240822423910282,0.0156031536671518,1
0.227278730144752,0.0249053416189284,1
0.205959065823942,0.0197634333751607,1
0.202476937704097,0.0221448018457771,1
0.19393219917855,0.0191856159139605,1
0.20072450761307,0.0158324203411408,1
0.189569170569737,0.0133809201245363,1
0.253292992816583,0.0172946826127819,1
0.250908365665551,0.0182630472053097,1
0.267114996803241,0.0268369964650412,1
0.305046117301586,0.0288244657366106,1
0.38720879173017,0.0343249343886815,1
0.408335252466707,0.0416006616155578,1
0.292399734827754,0.0337258013584304,1
0.181482843429169,0.0201499170638487,1
0.162051335037339,0.0201786398290367,1
0.0990673023708206,0.0148075669319266,1
0.107324644722652,0.0387040149909602,1
0.0943077514087581,0.0322379003760992,1
0.094562082967319,0.030776609031268,1
0.0896472218358409,0.0392620796780023,1
0.0574200837660949,0.0277267672572699,1
0.0370375449904369,0.0181856804206788,1
0.0368552825883744,0.0140810845808294,1
0.0317129197962531,0.0170248302544886,1
0.0255712621964764,0.0135173071278374,1
0.0280356016368996,0.0144611823044805,1
0.0142041958216461,0.00655255906381181,1
0.0156172606783814,0.00719350079129384,1
0.0260418232245024,0.0121552433379892,1
0.03293363137651,0.010410576621801,1
0.0386185815542662,0.0108128361314122,1
0.0374665225071587,0.0115011136347739,1
0.0408985072641955,0.00965777380281547,1
0.0539958644403703,0.0142382345129228,1
0.0661081233074904,0.0179929326451607,1
0.114987556191558,0.0278484800952381,1
0.147352764042661,0.0264109267156833,1
0.13717486201381,0.0265953015567656,1
0.0923094005881651,0.0213725039301912,1
0.0906366397697808,0.020539569183291,1
0.113087028795055,0.0297268136036682,1
0.0859898213774654,0.0199364116308682,1
0.0756727017794648,0.0164732543790656,1
0.0957544383216178,0.022461095976176,1
0.109251053565419,0.0276415369063197,1
0.145973489545322,0.0369679402656703,1
0.250186752150102,0.0651003008656543,1
0.331067212619389,0.0586131924074043,1
0.291966209588126,0.0197364159408024,1
0.286932928367206,0.0172761328724272,1
0.317054509204481,0.0144619296663342,1
0.346236575284631,0.0177629679317884,1
0.326138500726786,0.0159016999472316,1
0.318961642908955,0.0150080787852034,1
0.316526531677886,0.0141330932182657,1
0.31552941163832,0.0163221504803217,1
0.314005445862815,0.0167525545338395,1
0.28711224503759,0.0174322592691834,1
0.249825795837726,0.0274609535970947,1
0.166206602778171,0.0216888835957246,1
0.162574159333206,0.031150195063519,1
0.127074791034731,0.0228936573055579,1
0.154970889118604,0.0230852804316861,1
0.160583819046077,0.021797999415783,1
0.170998185333727,0.0233281218994926,1
0.169862869573509,0.0150889262442317,1
0.19500606564723,0.0151840356514494,1
0.265911498137757,0.0134432177431403,1
0.398255570819586,0.0215307472900212,1
0.49055819343764,0.0289612120857434,1
0.475733190137697,0.0253788989132558,1
0.406236543729278,0.0216169922508416,1
0.472453477722154,0.0263421437571898,1
0.465348536264098,0.0249039620661262,1
0.421756234070068,0.0220252809962901,1
0.362596990472075,0.024126898519185,1
0.101164933300943,0.0059763490787777,1
0.0747999930594097,0.0120367190288312,1
0.0741995423929104,0.0115911376805329,1
0.0726582008032832,0.0117837477101799,1
0.0696541643929816,0.0110304626267483,1
0.0736625822946865,0.0162610940534258,1
0.053589788474848,0.0080135120699336,1
0.0503009132467149,0.00934045562241193,1
0.0401201506534889,0.0100077156494738,1
0.0540269142511288,0.00287220704979413,1
0.126887609444095,0.0111870597944682,1
0.135783427670743,0.00682264512360014,1
0.147152157535493,0.0073410401706404,1
0.144979639830241,0.00768117204737002,1
0.16312220229227,0.00988556126096293,1
0.157164281150251,0.00720216417741748,1
0.154165825908938,0.00839613448673025,1
0.153429860409216,0.00884127043000636,1
0.140932402868479,0.00777814186615712,1
0.131872696976718,0.0148689594638202,1
0.0692738973162435,0.00790797799372177,1
0.0618364041514914,0.0140975397245982,1
0.135795676928,0.0167576115067374,1
0.186433696507637,0.018343925466165,1
0.418477192793307,0.0312492743335797,1
0.449089701080024,0.0279695185091892,1
0.414607930244737,0.0263574507822922,1
0.371851525064308,0.0224282140608198,1
0.44141612025273,0.025467357251911,1
0.477994566323869,0.0219446093551985,1
0.374262139941101,0.0154561643230706,1
0.228241680942553,0.00762778429980212,1
0.230348823031406,0.00870357747194223,1
0.261029087025848,0.0103217970455631,1
0.236096779063797,0.00663899650668339,1
0.246978746681592,0.0102604507380335,1
0.243920505343745,0.00875188123406111,1
0.264132960034522,0.0113106093735537,1
0.29605302247924,0.0139428661878835,1
0.257961996582306,0.0145292241092924,1
0.275275876815668,0.0173524820390367,1
0.278454529994799,0.0227034571697504,1
0.223684246622893,0.0205964132475305,1
0.224627683302705,0.0224484182880846,1
0.179481880020887,0.0351386156073812,1
0.0844424635255185,0.0165056988876667,1
0.0905822992283683,0.0154783077289722,1
0.115339391758186,0.0104224878307134,1
0.139006622858411,0.0124629578029447,1
0.134889627122712,0.0103942147644005,1
0.127572419348787,0.0099217106371717,1
0.164213224797063,0.00830189218151369,1
0.202869484384902,0.00594571424113804,1
0.268432866996411,0.00913240726360013,1
0.307334758276881,0.0111777827317075,1
0.397350271150325,0.0142841728611927,1
0.439816645690211,0.0189829301583301,1
0.471249452290712,0.023393704027026,1
0.486655505839197,0.0228139786192107,1
0.475962021740827,0.0240838194000604,1
0.450064498257715,0.0219683167570192,1
0.284952054684133,0.0251026262653597,1
0.0532787151148724,0.0101739889655998,1
0.0627514345182511,0.0187743457065737,1
0.0647635366963568,0.0201403266015141,1
0.0971808522862572,0.0400948354998637,1
0.10462339784227,0.0433387843656302,1
0.0981357822050954,0.0354013746782265,1
0.152077832733244,0.0468469995616218,1
0.15661129907957,0.0501795642848531,1
0.156011207803475,0.0450997870821904,1
0.107029189583707,0.0362507439098819,1
0.0911741744956632,0.0264592466901864,1
0.0837052784168084,0.0163707778781422,1
0.0587365286439699,0.0115379483049248,1
0.0545841998710889,0.0101264160000518,1
0.0725852498324821,0.0136348085131696,1
0.106730153887231,0.0263182690228117,1
0.15236550298845,0.0344778269435168,1
0.163654697684135,0.0336866426954531,1
0.152847525416355,0.0337390174403666,1
0.159061106382104,0.0286568384484431,1
0.127655117068284,0.0217493535244747,1
0.123255047119087,0.0225747061752588,1
0.119671533497346,0.00519191917831145,1
0.155131588024594,0.0114688770764633,1
0.224162381778248,0.0148805722565518,1
0.305493511791545,0.0182375259248145,1
0.253647552697892,0.0147588617892505,1
0.243497387409275,0.0106728305253865,1
0.358573950990895,0.0155339096040282,1
0.372363512241348,0.0115920232659577,1
0.395402757601467,0.0128813149083231,1
0.323675343543552,0.00985722964702885,1
0.282689655232773,0.00969862254124917,1
0.376963451208024,0.0112546441196085,1
0.42677440407425,0.0113060650120585,1
0.424306043069091,0.00807369962477568,1
0.456041373152192,0.0100110768988464,1
0.452411977229088,0.0102747023477026,1
0.408725316344741,0.00826151908624665,1
0.407674651665601,0.00938034328129145,1
0.456947056618771,0.0106264050814999,1
0.477508562723982,0.0115672404217534,1
0.533849638991806,0.0194880452261224,1
0.472155005235283,0.0223668352349203,1
0.346180845222633,0.0159698666352872,1
0.30688790505889,0.0190262836690138,1
0.323714183821101,0.0180347130378087,1
0.321213106997978,0.0306396460810789,1
0.196917750642059,0.020326554604127,1
0.0718767248228937,0.0082944404708663,1
0.0721126553345496,0.01623544110605,1
0.0734424835894161,0.0182616765529522,1
0.0742630177513698,0.0175828001876862,1
0.0750941487820105,0.015579833291501,1
0.0814862787410042,0.0205798939452389,1
0.0877013261242569,0.0219663142973075,1
0.0889550583822617,0.0241901124450813,1
0.0846618712387581,0.0231494863114543,1
0.0771685031532349,0.0211084104740945,1
0.0709374142926509,0.0361527749485431,1
0.0605982459261683,0.0328641257745043,1
0.0488943992202475,0.0294026990826028,1
0.0293246831468801,0.0209208503002075,1
0.0219744719950615,0.0173727662651218,1
0.0319275069025153,0.0204352656100848,1
0.0344137404411061,0.0110664122026666,1
0.0375870692712112,0.014079376589872,1
0.0368008722913968,0.0114151574685524,1
0.0407515589116549,0.011954258025298,1
0.061087186791273,0.0166805973195788,1
0.0758409258504899,0.0153594842944227,1
0.0731790976727267,0.0135763572603021,1
0.0750650231394664,0.0137532591910492,1
0.105661617185014,0.00455001088127465,1
0.209247010784221,0.0119995554352533,1
0.208713573152923,0.0134553257915814,1
0.223706596919927,0.0116792511476149,1
0.258740454097031,0.0120280958622985,1
0.256471100756486,0.00858542780759933,1
0.280380830691538,0.0111496460038735,1
0.285703128424796,0.0109836616298616,1
0.263302282167845,0.00998308224186858,1
0.234999280591289,0.00838109180472347,1
0.225157489676144,0.015715239745162,1
0.229164151823853,0.0173667350263769,1
0.255342183075201,0.0206196497247508,1
0.285903725965636,0.0287971729156251,1
0.273344498207655,0.0290856786922621,1
0.237661202549672,0.0393291373716181,1
0.155281055424857,0.0234970379786309,1
0.113904916198874,0.0086884799017451,1
0.153007190847214,0.0121443610272109,1
0.153996928109831,0.0108219025550594,1
0.208823376593695,0.0122202775089834,1
0.21694561125689,0.00799395994973869,1
0.231463753957454,0.00930427756748679,1
0.222972662071252,0.00753546427440739,1
0.228970892129278,0.0075106770498339,1
0.244390702115638,0.00770983840884763,1
0.245303473047475,0.00793587984711188,1
0.223700207077493,0.00958578256172189,1
0.225225877185712,0.0105835090592816,1
0.248826581070618,0.0129172789772793,1
0.196913099194662,0.0121768921227287,1
0.185410867223149,0.02238707200434,1
0.165779350150613,0.0187624985744134,1
0.162400513444256,0.0213538290001296,1
0.222396051657791,0.028429089575954,1
0.223815284754175,0.0273000028289253,1
0.204322907075964,0.0266669444701875,1
0.209570574898435,0.040347802935725,1
0.196009728570439,0.0154525000297883,1
0.274634157905278,0.0207603903164064,1
0.290496034760442,0.0147867261417073,1
0.321584325085209,0.0125852025182248,1
0.397669690354852,0.0154056555427657,1
0.422702748097706,0.0168772758394702,1
0.437917552622936,0.0180891998562061,1
0.503452420841125,0.0229093462540202,1
0.571469982104119,0.025603025649523,1
0.578126463800097,0.021213104260871,1
0.49450932702477,0.0319851011413591,1
0.235892218911589,0.0151646253089429,1
0.108021457421029,0.00818337252739857,1
0.102006917454203,0.0134637334669727,1
0.0996997844478522,0.0132581933499855,1
0.106113619986807,0.0148335979019143,1
0.124400620274579,0.0158101035002566,1
0.17265931272296,0.0215834206427815,1
0.221935972995568,0.0259821565579699,1
0.17916605226767,0.0299012028904105,1
0.143625309703204,0.0261991518204502,1
0.103896613079522,0.02030698035595,1
0.0765529916173125,0.0223996248981594,1
0.0699214515163483,0.0215192749403168,1
0.059887691906135,0.0193286485707316,1
0.0623519104835904,0.018836444869644,1
0.076493057083664,0.0301478614768584,1
0.066263022713028,0.0280521584978337,1
0.0320243779135401,0.0172980983697845,1
0.0323324627792573,0.0268726898185127,1
0.0394794595048664,0.0415101504786333,1
0.0684107821334214,0.0692972076647358,1
0.104739179938386,0.11833908098496,1
0.154850020346203,0.111502099358885,1
0.206223752618047,0.0599961378819371,1
0.183449794688274,0.038001951684076,1
0.217166945551138,0.0155025098241541,1
0.269032640187847,0.0139902357261754,1
0.223521738863704,0.0108967239957507,1
0.206615704387068,0.00975681638061726,1
0.193561714025931,0.0088810761931927,1
0.221125523194234,0.00983623094622446,1
0.299723565109315,0.0133018898681677,1
0.288909399913151,0.0114841295448241,1
0.23392037578772,0.0102140991657841,1
0.267938916651697,0.00816604129449406,1
0.347074196742398,0.0166635515281242,1
0.297772865211506,0.0184935029682057,1
0.34009573878254,0.0202092788313122,1
0.326834486097505,0.0189956793269858,1
0.414233937537266,0.0206143588698589,1
0.506046969001791,0.0252811756564224,1
0.352282824944727,0.0124508383990923,1
0.298323558286966,0.011801993540078,1
0.355227474206725,0.0141884031379821,1
0.41433411554679,0.00915170915806357,1
0.506230025931765,0.0112503905482104,1
0.505965940712716,0.0111284760720623,1
0.601020365561079,0.0140928917453828,1
0.579671839276429,0.0117073400647841,1
0.592977255693807,0.0126974484456641,1
0.57385761229072,0.0125907188852588,1
0.53467833178141,0.01291177859491,1
0.446360846191135,0.0108403892637674,1
0.307244473363734,0.00512591768589424,1
0.361979957176503,0.0192123692307101,1
0.308923627795537,0.0164710138011797,1
0.316540850259266,0.0140871762837568,1
0.265990698253133,0.0131964739446403,1
0.291584861817242,0.0168222735952727,1
0.356303463718823,0.025600973328264,1
0.314362977797056,0.0206384654207556,1
0.278661719861069,0.020608678538682,1
0.298191938607357,0.0146100929908296,1
0.30507913979725,0.0168626968018721,1
0.300895463411262,0.0191469587292211,1
0.295261743256581,0.0204356771009993,1
0.226240652107855,0.0138515542635551,1
0.237615166114775,0.0131391417455118,1
0.300017847756823,0.0179198913527645,1
0.316969031636723,0.0187009117751811,1
0.394849539218053,0.0229060192353666,1
0.443885724489697,0.0261322449759516,1
0.501646998959501,0.0344211681646993,1
0.51046337910372,0.0385270605357886,1
0.504005415143604,0.0373975271550525,1
0.299469471656593,0.0348866973313127,1
0.106699021383486,0.0226500171394913,1
0.0555257787216915,0.0153766798033817,1
0.0694286203928098,0.0113613582731951,1
0.177007154721751,0.0263870125046122,1
0.235685448562506,0.0347327553252053,1
0.338169147950491,0.0364368816721015,1
0.428340296635513,0.0491846961286391,1
0.461724801336907,0.0464674735396011,1
0.411873141423213,0.039370245785599,1
0.314417271891038,0.0275364837364021,1
0.196232653600045,0.0183341849912349,1
0.11343607534154,0.00958933888058062,1
0.0655328226393321,0.00529240822545696,1
0.0703787109477802,0.00572311212103986,1
0.0844350325677447,0.0100649568643007,1
0.10721010694744,0.0179565037963862,1
0.109328988512962,0.0141573582275458,1
0.132971662233861,0.0183187710491642,1
0.161289998272761,0.0192674399175461,1
0.161275132245318,0.021536146794536,1
0.182402127240564,0.0169004509485674,1
0.276497074925061,0.0232913758122918,1
0.26723718560875,0.0137737933024153,1
0.293247119313763,0.0175528624947991,1
0.290484109076893,0.0163565788415188,1
0.260639723592322,0.0139465541369784,1
0.298819630105098,0.0169172643045333,1
0.306107562516415,0.015147725452229,1
0.276702276386052,0.0149316685398957,1
0.279517248470939,0.0163651652441303,1
0.264937824683468,0.0240457466367966,1
0.233697848890583,0.0160750342027502,1
0.306965641677491,0.0227093785940767,1
0.2869659415635,0.0216278194722174,1
0.283721823673749,0.0225109396352691,1
0.297463849075578,0.0248139450119642,1
0.543946491959694,0.0264942394890732,1
0.636838912619078,0.0242176548832663,1
0.615892882269921,0.0181471829048104,1
0.57041691662813,0.016543271739604,1
0.530539811059119,0.0130535817912991,1
0.671449883628647,0.0150435004580175,1
0.749861357548542,0.0116817274033676,1
0.739818377070234,0.00959327662548733,1
0.756127299367828,0.00930587162556394,1
0.803059642768647,0.00990023257831235,1
0.698400239306891,0.0136748177668592,1
0.615007949625022,0.0115401466247891,1
0.670861150855402,0.0141691726263642,1
0.688953234984041,0.0146140351872688,1
0.705091043806488,0.0173480804013773,1
0.387582032089736,0.0148930095490678,1
0.0634250000052117,0.00275256420555318,1
0.12825876794242,0.0149178582058476,1
0.17078950169629,0.0150712145801658,1
0.159913169675226,0.0131339722135053,1
0.134594713321899,0.00914861783439869,1
0.155917111919818,0.0160175419706066,1
0.166482491085415,0.0211713787991403,1
0.150447970680486,0.0120888286515354,1
0.16332914871212,0.0107183928673003,1
0.144877235631347,0.00686267241526471,1
0.166329666445846,0.00868086404703412,1
0.18419578294745,0.012267530858928,1
0.195868566861216,0.0197190087575664,1
0.178820664754306,0.0100589386792706,1
0.192533548193297,0.00771278812030037,1
0.251306442035565,0.010229816367951,1
0.323379391410956,0.0137533603333699,1
0.328998340973536,0.0173118174637321,1
0.196081623197324,0.0104597582552804,1
0.186883602068637,0.0126421593903229,1
0.187871077222712,0.0122815687533296,1
0.22760457736129,0.0103004013786531,1
0.55742272448922,0.0224413328834462,1
0.632771339284565,0.0197004680113661,1
0.599133640299071,0.0243632695466295,1
0.555083942168132,0.0252525049722657,1
0.494729853207166,0.022050558253687,1
0.437833428254361,0.016699750333194,1
0.365175907654023,0.0138629845147434,1
0.28803596865986,0.0108736536410083,1
0.218228706660533,0.00815755795073371,1
0.20797800804596,0.0101564739765783,1
0.121226633173317,0.00808947767115168,1
0.123324988211516,0.0176525799390902,1
0.117318809984709,0.0158556672165833,1
0.116925291597368,0.0147335555860682,1
0.111001437848837,0.0165402863335819,1
0.0951227024351375,0.0184210217067233,1
0.0976283606188648,0.0184160177828268,1
0.102517649413131,0.0143231641012671,1
0.0974261338753469,0.0111833729601728,1
0.106269340134394,0.01233314999061,1
0.0971277184632103,0.00961834335720104,1
0.0779838055751825,0.00603124421003144,1
0.154647861600246,0.00210015068176353,1
0.452972249959092,0.0164863900587887,1
0.498768269770652,0.0107763063325528,1
0.472634916404149,0.0093862379328929,1
0.481874472313019,0.0110331754085401,1
0.657226564534486,0.00854977515988777,1
0.911236791572153,0.0129535238361622,1
0.933079568471124,0.0073054922024449,1
0.938978246324081,0.00902747084427727,1
0.883744266534738,0.00783790169725657,1
1,0.0162475232261803,1
0.909043599676269,0.0138940217486202,1
0.88892476825296,0.0181406697167138,1
0.869419141540575,0.0182272919866959,1
0.861800211922247,0.0152639315372751,1
0.754749000742174,0.0329763632120084,1
0.320430362295218,0.0147908350380642,1
0.140943504317166,0.0209249792822636,1
0.141521129469847,0.0181940084540764,1
0.164645159266435,0.0213829309184181,1
0.165900779772676,0.0122377164750024,1
0.219332541371967,0.0136126922361448,1
0.255797853954307,0.0135170951010629,1
0.176420900550625,0.00761631452992286,1
0.158184396297523,0.0106746754966779,1
0.164717473138586,0.00979579317601407,1
0.180952565335992,0.0109299076328977,1
0.204494431651461,0.0122556028436054,1
0.209577697922185,0.0145383910842613,1
0.142399224888886,0.0105932945292221,1
0.0925105887701393,0.0128510708591551,1
0.11393714591394,0.030890883778881,1
0.106503039461041,0.0317120874168399,1
0.112416140437447,0.0232159681092174,1
0.136010558811391,0.0249692306092699,1
0.136346208642239,0.0248710562195815,1
0.132060848713168,0.0256437370045076,1
0.111607459992808,0.019987750511144,1
0.109859896763343,0.0160736052051958,1
0.113803360549971,0.0216713423481967,1
0.107492600719055,0.02288652405732,1
0.0818095908170675,0.0107925435080247,1
0.0938903169460341,0.016448288190285,1
0.102381467844508,0.0211236368815418,1
0.0728057843165332,0.0156101725202064,1
0.0701618560952581,0.0160572420743933,1
0.0659600620724756,0.0154098864316338,1
0.0811660822505264,0.0186771495092325,1
0.0938711416694634,0.0206943683520051,1
0.0934778033171255,0.0205705969473739,1
0.110362227849251,0.0228653808521891,1
0.108804283856984,0.0369027256513662,1
0.0757609786926923,0.0239032640562972,1
0.0491114964988813,0.0190146853345702,1
0.0481453822170806,0.0147849192336571,1
0.115721915400557,0.00479051379545636,1
0.372812713195716,0.0243548148201493,1
0.406329649807728,0.0284859379118747,1
0.406138840315075,0.0278321049974175,1
0.439262276740087,0.0283583645667131,1
0.378596904218276,0.02340942019409,1
0.346005752774874,0.0223720858682681,1
0.340755165469963,0.0199642560720282,1
0.366492036642375,0.0205521932231506,1
0.342736010962832,0.0208836763843642,1
0.330471278770418,0.0267355926625538,1
0.224840444132662,0.0216686112714998,1
0.215080834762656,0.0193831021835128,1
0.233513191350772,0.0221989778022152,1
0.194534738828364,0.020096913497529,1
0.223118854064248,0.0234194218557224,1
0.222292753360751,0.0189249106688382,1
0.205251964721631,0.0167960910949479,1
0.165416822076821,0.0109075722601414,1
0.122974642750973,0.00400870203368972,1
0.138339763768282,0.00926191997979601,1
0.132006107027783,0.00916349131239165,1
0.133171228308517,0.00966834745173203,1
0.158196289669895,0.0128680099857308,1
0.157792397306259,0.0125474594673706,1
0.218238720416138,0.0134400583453115,1
0.238447889486277,0.00679373815603394,1
0.27347467069868,0.0134757547919682,1
0.276073371824991,0.0139163613593058,1
0.260188849508964,0.0154881100590936,1
0.231247818366851,0.0112295955738506,1
0.298172466092249,0.0146273395232114,1
0.319740922591902,0.0151828998341909,1
0.342957799088943,0.014394344391139,1
0.39347441102571,0.0143387746088415,1
0.389533935690374,0.014521108150097,1
0.38575844233374,0.0226825741552518,1
0.301533822380486,0.0151943603689077,1
0.25674770186228,0.0123932895742317,1
0.244996189134505,0.0110343277299132,1
0.258799938054603,0.0136191575903952,1
0.279031301047317,0.0142528682716479,1
0.334828160225147,0.016944167194718,1
0.325344894305641,0.0207791843397341,1
0.215576033400174,0.0150784551985729,1
0.267732177099063,0.0242939076029033,1
0.271030001946779,0.0232203322570141,1
0.198933725506218,0.0204250708777211,1
0.192302462259813,0.0219587887468725,1
0.119206440698567,0.0191785029517596,1
0.0718080674209894,0.0175167012027817,1
0.0683896953613986,0.0223992427997377,1
0.0671998732981901,0.0229295998601933,1
0.0659187857088833,0.0234612721950131,1
0.0642893215903014,0.0161792123768944,1
0.0788769264961826,0.01926668866484,1
0.105403346403708,0.0580768872312402,1
0.0996422274981303,0.0486471045952219,1
0.120608567707955,0.0525904524356175,1
0.112013512858977,0.0391958545273327,1
0.0972914229775282,0.0335783851402767,1
0.085511803969285,0.0266618980255872,1
0.0616591919489834,0.0182976868018758,1
0.0409052995129753,0.012616388187166,1
0.0444101648540609,0.0114993623635585,1
0.0998005002996705,0.0300828713230799,1
0.199711506985365,0.0483259079143376,1
0.274334150287837,0.0455982913712115,1
0.229192032091296,0.0337300431312862,1
0.220134547461047,0.0263498062441965,1
0.250637219934692,0.0302749486598629,1
0.277097408220193,0.0341463390200442,1
0.336550525253056,0.040437385337836,1
0.374856427062621,0.037760394816607,1
0.396758021024606,0.0532982141185788,1
0.383611570835177,0.0510558346319057,1
0.251437174667404,0.0431737090920151,1
0.0913483085087627,0.0260510285440152,1
0.0486486497711634,0.0103141328573551,1
0.0875549461649641,0.0369470920528084,1
0.137992274929463,0.0525709746977848,1
0.176359573986367,0.0714340453142765,1
0.148941183945437,0.0500516005835311,1
0.156358704940116,0.0406000635281153,1
0.159980040135951,0.0458008481294104,1
0.121820963758398,0.038033668342747,1
0.094110517546381,0.020079686304905,1
0.064953451359219,0.0114074326114124,1
0.0676944352816529,0.0111248106579106,1
0.0685410753960349,0.00847997789464612,1
0.0703392031438803,0.00769712700772836,1
0.0993628763375637,0.00988766111328824,1
0.168758817477695,0.0210805239480174,1
0.180652328384178,0.0125031258701058,1
0.185302739247304,0.0121685773015713,1
0.189165866419312,0.0122384707742813,1
0.178545782162059,0.0127186011787822,1
0.156607134252689,0.0114995113438315,1
0.191494328320408,0.0163446131021061,1
0.187650630738743,0.0137389363665939,1
0.193329902123689,0.0129194466919175,1
0.217110077071925,0.0124028742154025,1
0.174391112977114,0.00873278139447838,1
0.160104239480653,0.0127412695230238,1
0.179744165749852,0.0149354792525562,1
0.186406723010094,0.0121180449426941,1
0.266339755059385,0.0109663181085661,1
0.342894447102264,0.0130570901741749,1
0.332426452913602,0.0115745385096579,1
0.32007032209528,0.0133050190653577,1
0.306216107713251,0.013839488844198,1
0.267482481174531,0.0091377639851365,1
0.365248140185732,0.0120569705163364,1
0.435774849595155,0.0157094242810701,1
0.411328498617931,0.0146420248377545,1
0.40294292689484,0.0170300650898091,1
0.350733578384617,0.0168830314288822,1
0.327671586356227,0.0170531338613851,1
0.342574453223481,0.0143181556281736,1
0.344876830809423,0.0138644574116257,1
0.353679352825238,0.0146921024619346,1
0.350363162364445,0.016082561381633,1
0.351387432897014,0.0144313656860456,1
0.394076184764659,0.0164579366895494,1
0.479104030281835,0.0204627101505013,1
0.485038729806483,0.0154042185261665,1
0.457688751903524,0.0178348911354425,1
0.435934016176525,0.0160655774617753,1
0.450756776191586,0.0184038453610508,1
0.456533098848689,0.0156135108279998,1
0.290941429183791,0.0110206733601671,1
0.181029224628393,0.00793885436419865,1
0.181318063068077,0.00875330471848139,1
0.209351716797749,0.00995939586653954,1
0.232752945396885,0.0106616966051619,1
0.169146229969495,0.0122993441815829,1
0.0964588226740139,0.00919978009196039,1
0.101475829657188,0.0131235115023294,1
0.0946648298161374,0.00878924805299459,1
0.104870050712472,0.0133688177798277,1
0.100187480641461,0.0084566289129354,1
0.0846724494278142,0.00631163901976094,1
0.073378668965721,0.00503664612752247,1
0.0831876908120051,0.0054180052872358,1
0.0842461488003964,0.00588159885048169,1
0.082720850136664,0.00512979812063212,1
0.0771400058594601,0.00570446755183878,1
0.0732996177379038,0.00512860772108091,1
0.0742455129410622,0.00937377604007908,1
0.0539202333525163,0.00312893948118047,1
0.0576632343078528,0.00858453550906689,1
0.0539626883346415,0.00678175062249041,1
0.0852712611474693,0.0160544859554138,1
0.154449356202287,0.0332150677872508,1
0.316569936043014,0.0635020794582024,1
0.466891911632064,0.0762935750241013,1
0.519573680717384,0.0757448887926202,1
0.471435455524045,0.0620203723730442,1
0.362320498198567,0.0486984331388068,1
0.288189085870327,0.0372302143328976,1
0.299691007337075,0.0335061044957083,1
0.354195892940698,0.0411049388758066,1
0.538829187396661,0.0641144194558872,1
0.706326442980049,0.112411666785761,1
0.705681058671008,0.188524059489237,1
0.567603859206532,0.135295883603366,1
0.392891893527966,0.0415889854327013,1
0.304746210745103,0.0317679885650869,1
0.325616502878264,0.0354170831615838,1
0.328368320289341,0.0442354691259491,1
0.389418506131773,0.0555738940185962,1
0.397660187069117,0.0665798285123718,1
0.35224309595137,0.0558650860318809,1
0.257617646109908,0.0463590341486089,1
0.173728052300118,0.0337735985963183,1
0.0850303241614541,0.0188208396775075,1
0.0422734346910004,0.0141134967245149,1
0.0409450382002695,0.0153444970758618,1
0.124976243957273,0.0110116012364899,1
0.345735726985538,0.0265113916066125,1
0.437981326778233,0.0373737271634595,1
0.441137900747867,0.0319392479671346,1
0.423633814884029,0.0320338676301424,1
0.341619685722685,0.0215184025456641,1
0.301223977334798,0.0184595277852562,1
0.304753663096673,0.0145119725573956,1
0.359269624538598,0.0171042928584325,1
0.399633856622196,0.0185690771456591,1
0.384919655961,0.0261955982700495,1
0.284151812041101,0.0218549151211644,1
0.238515528689032,0.0119757435233141,1
0.290006045306813,0.0132998978953727,1
0.243385836269456,0.0082301578234978,1
0.264153042007566,0.00699620808594227,1
0.268672685561682,0.00365558392370741,1
0.278951042811261,0.00733942013222019,1
0.290800184773311,0.00815189820727862,1
0.303603026661991,0.0063644501959507,1
0.318771678354467,0.00804100808248292,1
0.272140086241532,0.00588506601447822,1
0.274516014339572,0.0078649835916049,1
0.306284382447479,0.00999255569597776,1
0.342694312295065,0.0138881518272063,1
0.366352776966242,0.0202629778288571,1
0.35433464874911,0.0278269320308472,1
0.299641683411581,0.0228632284551639,1
0.24697016792009,0.0216932237789979,1
0.140853743463477,0.0188804312706559,1
0.161402248879343,0.0234348946138016,1
0.128912164731539,0.0196265058934112,1
0.147356301847295,0.0272487179828494,1
0.172249562107628,0.0310259753768286,1
0.193918023945652,0.0330569263569945,1
0.203524750962504,0.0320840281120838,1
0.151228235733789,0.057364509624746,1
0.0401813666062755,0.0261803956069364,1
0.015527561858149,0.0615021141056079,1
0.0121881133813225,0.0533008092794491,1
0.00857410197739822,0.0533314325732352,1
0.00193068139165785,0.0579658710717847,1
0.00188473026446427,0.0890735935979182,1
0.00170278724655184,0.0869426856309857,1
0.00184859805775424,0.101322104374121,1
0.00185782100943207,0.115580171465692,1
0.00190090360726998,0.141078148957548,1
0.000942495177067417,0.289870731027728,1
0.000179223097739114,0.60389444947255,1
7.18601334826716e-05,0.522749516536323,1
0.000573996498847068,0.0853579983185303,1
0.00271799925604462,0.154019260348518,1
0.00329624521834764,0.132914556400139,1
0.00386943107212273,0.145602036788618,1
0.00528816474108429,0.14804977170644,1
0.00671424539954883,0.110084101854107,1
0.00607128756128466,0.0742538111091101,1
0.00577142097474537,0.0670040260226644,1
0.00579755781964155,0.0668150220165366,1
0.00604617444533561,0.0679283405040177,1
0.0068876309930722,0.104629057896951,1
0.00685083886814696,0.117697519986486,1
0.0069998548112142,0.129526293485177,1
0.00667279988101566,0.136554779357316,0
0.00471185788670636,0.17055957218636,0
0.000892088058296217,0.126445327584629,0
0.000112083463411548,0.27202050860901,0
6.76816643648212e-05,0.522271366975686,0
7.12315912621948e-05,0.597707285752233,0
7.48332101517601e-05,0.582292725854819,0
9.26939172455594e-05,0.403064682013941,0
0.000103935289785988,0.347418718684719,0
9.27845177224495e-05,0.365072546652018,0
6.08172946312662e-05,0.331852975793583,0
6.21533200349221e-05,0.372606035593581,0
6.84031343254266e-05,0.392087982867721,0
7.04319008887951e-05,0.392614918162547,0
6.97218372816456e-05,0.385537714624166,0
7.11420849237987e-05,0.382474393635968,0
7.19195193421753e-05,0.405653264924909,0
4.46332044968924e-05,0.713101748508311,0
1.53115897258619e-05,0.82932144505303,0
7.56557231164348e-06,0.548874460942351,0
2.99049674982749e-06,0.358601768464218,0
2.18882889861494e-06,0.36148571400064,0
2.17089987402997e-06,0.373273685296322,0
2.44592078301226e-06,0.398708538960284,0
2.6208911586831e-06,0.418709277533988,0
2.10067349043541e-06,0.377338398761611,0
1.18061840177327e-06,0.28749922422262,0
1.19713940890095e-06,0.272781082738327,0
1.86261122421143e-06,0.348349381653402,0
7.5470171429056e-06,0.640762611321526,0
1.07783938076452e-05,0.578367933862715,0
1.12682888718584e-05,0.56702053194993,0
1.1869890554302e-05,0.588654083567716,0
1.14569131841526e-05,0.573670163996641,0
1.09404507670488e-05,0.564664813006192,0
1.07359919065678e-05,0.551166684729351,0
1.01877526737033e-05,0.517304986362891,0
1.01706063293095e-05,0.495528103038293,0
1.20135940666664e-05,0.542596319762588,0
7.49451967597083e-06,0.475169909788565,0
2.82799479235643e-06,0.349501438026938,0
2.76663831357764e-06,0.355113412108365,0
3.04834085038764e-06,0.3577745442458,0
3.53673328966684e-06,0.349496265973259,0
5.57215364326869e-06,0.439411090348842,0
6.84847265164156e-06,0.482139867234997,0
6.66925341182993e-06,0.50312141236179,0
6.21329076145038e-06,0.520405113367526,0
5.14878982457235e-06,0.500078839281848,0
4.6098509706287e-06,0.460538022409774,0
4.7533114083462e-06,0.44610355697278,0
4.84233421983034e-06,0.44256012553227,0
3.9251058573328e-06,0.403770769114805,0
3.58064265699899e-06,0.432254219229683,0
2.37802146093449e-06,0.351269631452367,0
1.28534161651458e-06,0.263589710229157,0
1.26582463871706e-06,0.263324413583273,0
1.39022237590261e-06,0.267333794498167,0
1.90328638754751e-06,0.302822211108601,0
2.46042396798734e-06,0.36371423994085,0
2.6539749293301e-06,0.382810013244199,0
2.73377462130397e-06,0.385712813945621,0
2.69075061050764e-06,0.382158066557284,0
2.7485438771997e-06,0.385817189982718,0
2.69024146493999e-06,0.389498453756016,0
2.47012032660289e-06,0.371249384757841,0
3.29399430757902e-06,0.385926561084456,0
3.71450114185595e-06,0.381469535785807,0
3.55152211256735e-06,0.377236384565035,0
2.96967100164848e-06,0.3461601159087,0
2.07854361147397e-06,0.297506882807249,0
2.01918256373922e-06,0.302757828977484,0
1.96325723997758e-06,0.308147437441857,0
1.60591774016913e-06,0.279676747642579,0
1.61738521529971e-06,0.278956661381898,0
1.44643656513686e-06,0.269256515275639,0
1.18421308244501e-06,0.284005980655383,0
9.50998592085396e-07,0.315237918051532,0
4.39772668559517e-07,0.237102073324142,0
5.98965986727671e-07,0.260693496743951,0
5.08156324435991e-07,0.231216086140401,0
3.84042006237179e-07,0.192557433600728,0
5.48758867960523e-07,0.218378949572063,0
1.02525073562192e-06,0.282126108114373,0
1.35795598157895e-06,0.324235488864667,0
2.59745432483546e-06,0.415508018697372,0
5.77496161336712e-06,0.581949242620278,0
5.84521220356553e-06,0.490358954247647,0
6.48293376994398e-06,0.512586164111618,0
7.48364586779968e-06,0.546363075311528,0
7.87148104886017e-06,0.560608864595594,0
8.05305801188679e-06,0.580391506854675,0
8.07778727665833e-06,0.597216965938415,0
8.17408376915604e-06,0.623659534430689,0
8.02073715270447e-06,0.601804691733317,0
7.53576268588889e-06,0.597954342536017,0
6.83655513540106e-06,0.226134176452976,0
0.000191885648665615,0.285732522567061,0
0.000289626499188066,0.180226864574962,0
0.000278737077757428,0.173671733136287,0
0.00027359225458834,0.178048245619533,0
0.000271999014855216,0.17585681637809,0
0.000265417208404959,0.184401819444291,0
0.0002591839338817,0.191887237125672,0
0.000257326819372059,0.187273137368404,0
0.000262090736903882,0.184893989432854,0
0.000266164746457251,0.207564460773877,0
0.000120986260362347,0.297684634032124,0
6.22223187402581e-06,0.410113321330608,0
6.7064912374193e-06,0.548995685194516,0
6.64773071518173e-06,0.552314854643766,0
6.12609111067954e-06,0.530776002392129,0
6.47211583868338e-06,0.591028932173761,0
6.43941170827343e-06,0.598797867886542,0
6.05696511895167e-06,0.58799222885011,0
5.28230376876785e-06,0.564993447372265,0
5.38310813606753e-06,0.554610552343281,0
7.10877130588393e-06,0.669444826306957,0
4.99098536030009e-06,0.57992534805155,0
2.38542686621732e-06,0.409242477086502,0
2.31850367543981e-06,0.413168094188792,0
2.31879919772848e-06,0.41293243332809,0
2.61302723997901e-06,0.419221779359076,0
3.05818164173949e-06,0.462770163327391,0
2.62818138087595e-06,0.415089445234346,0
2.2375150357735e-06,0.368328321290374,0
2.55226785742851e-06,0.400898142517174,0
3.17096444523268e-06,0.45664601382546,0
4.19508190835103e-06,0.519160404831659,0
3.81004380036542e-06,0.455235172533932,0
3.37540918519478e-06,0.42800866612721,0
3.10754798446625e-06,0.408523776352002,0
3.13685310425225e-06,0.427381591722516,0
3.02380826427238e-06,0.417650587252587,0
3.2765907680193e-06,0.428703920327569,0
2.94138477816286e-06,0.398216484921254,0
3.18178378854518e-06,0.446950363996661,0
2.60717549521995e-06,0.392568686606,0
1.876161879325e-06,0.323113694939419,0
2.05478583840361e-06,0.38545173748839,0
1.85683310787241e-06,0.329440261158746,0
2.3593549418189e-06,0.352692760173834,0
2.91944250038126e-06,0.36907441252924,0
2.99249621530551e-06,0.365306501806361,0
3.19893013293898e-06,0.374934782913775,0
3.89827182835649e-06,0.426683207378659,0
3.81779616697011e-06,0.413671477442783,0
3.86810717241211e-06,0.424740452383814,0
3.6186333079681e-06,0.41528653424755,0
2.98132890206267e-06,0.373533612775189,0
3.00479317006135e-06,0.404567546509469,0
2.92435159964206e-06,0.425180243495451,0
1.36883685000956e-06,0.315409103416317,0
5.35170894332678e-07,0.208229448795748,0
6.14731747815228e-07,0.239556094607306,0
7.60342337119704e-07,0.260592170381751,0
8.49816400043957e-07,0.256253749426264,0
1.33301993189402e-05,0.320905592033703,0
0.000122550831609366,0.544697706834449,0
0.000162682700314865,0.401855328346278,0
0.000157016297250897,0.385623009348552,0
0.000152260680768699,0.397143038764976,0
0.000151079713186665,0.39540558443595,0
0.000148551436696034,0.38952643876722,0
0.000141346823780084,0.397577208162127,0
0.000132023814105245,0.390434570642959,0
0.000131256835931123,0.377687326057887,0
0.000133590269432931,0.525530011371833,0
5.61466909349031e-05,0.619956057693006,0
7.96757622310251e-06,0.496117522029654,0
3.68388523447147e-06,0.411967389637921,0
3.27845689545445e-06,0.402975920397019,0
3.91089476537751e-06,0.446188422768915,0
4.19082154607341e-06,0.440352908823986,0
3.25441429134545e-06,0.410857961111717,0
1.45786873897015e-06,0.302367467472926,0
1.68851874137355e-06,0.322009361340975,0
1.90149005582013e-06,0.333041583125359,0
1.72281304393475e-06,0.319821456113368,0
2.32876182898638e-06,0.354702740989147,0
2.91570177319963e-06,0.374605813013733,0
3.04589053691292e-06,0.369303671257547,0
2.93753915569788e-06,0.350408120843971,0
2.36445850079729e-06,0.331808068458256,0
2.31111924921364e-06,0.333769573265426,0
2.2203356090211e-06,0.325448648122245,0
2.37597116158839e-06,0.348153008601363,0
2.3748552371509e-06,0.371781061916513,0
1.59804111299801e-06,0.325858583650182,0
1.41543052798699e-06,0.342280478234662,0
1.19891294607637e-06,0.330893994524419,0
1.79389513097541e-06,0.449039362377751,0
1.42792355623402e-06,0.313298204350438,0
1.68024815172477e-06,0.298453249560135,0
1.9048870492271e-06,0.319193665851243,0
2.15625487870068e-06,0.342764995932697,0
2.2122947803872e-06,0.343280829272337,0
2.5477977045842e-06,0.353898462367438,0
3.04555870471848e-06,0.367413002213566,0
3.83372088475628e-06,0.384074499827034,0
5.05541385882916e-06,0.413203633690092,0
4.77364233319818e-06,0.40508190268946,0
4.33633087108512e-06,0.440463119574172,0
3.61898430372393e-06,0.427086142821297,0
3.69899277765601e-06,0.422452324370445,0
3.69092713725315e-06,0.405947856153681,0
3.80931255920746e-06,0.409120880394971,0
3.55746806135972e-06,0.404099500506217,0
2.95944391324351e-06,0.383764028530574,0
2.22660431253147e-06,0.376615502395471,0
5.33057859538266e-07,0.218293257703515,0
5.26317127252814e-07,0.222960617903764,0
7.36982964404379e-07,0.247475856420819,0
1.49924185938392e-06,0.347535713686254,0
1.13111327451778e-06,0.310581338740592,0
1.03586613829698e-06,0.323523628268736,0
1.09573128855691e-06,0.339779942721082,0
9.84130775940097e-07,0.32141657918348,0
9.02386688511969e-07,0.313888797472793,0
9.68958278368566e-07,0.322148926873268,0
1.1526974962841e-06,0.337627998929761,0
1.19941886409683e-06,0.353534414786891,0
1.08423577411021e-06,0.368542980780231,0
2.76507194458683e-07,0.209686203562625,0
2.8021665477701e-07,0.217430849766432,0
3.0637673155779e-07,0.221363065049853,0
5.97325384151732e-07,0.283884920186358,0
8.89796228684447e-07,0.319549078220375,0
9.3921622938307e-07,0.317694869257682,0
1.16981822202216e-06,0.358829513736702,0
9.48210798208662e-07,0.310085540858045,0
7.06615981596153e-07,0.275084323588445,0
4.76632871128827e-07,0.222507849272633,0
6.21942088215372e-07,0.256323911616213,0
1.35254399012317e-06,0.355000466835537,0
1.65408081296284e-06,0.371718921360029,0
1.53356420126124e-06,0.380448998981419,0
1.30339974298674e-06,0.364923765653331,0
1.29080424011675e-06,0.356829840824536,0
9.87437599747716e-07,0.307421960578267,0
8.48175394024622e-07,0.288573979645703,0
7.90632867404104e-07,0.264152165448622,0
8.11353720299771e-07,0.269908467308266,0
8.37086348800899e-07,0.266761094918215,0
6.25680394736619e-07,0.233186008910301,0
5.62774491589719e-07,0.23798082162913,0
5.74869724646809e-07,0.232272234686705,0
5.64301323127563e-07,0.236167228924794,0
5.50458171550799e-07,0.238657744461926,0
5.75047239741709e-07,0.244692791423377,0
4.62832081108801e-07,0.221977781588743,0
3.73178889316058e-07,0.203345721000782,0
4.58223143735746e-07,0.21727922460209,0
4.7714120980968e-07,0.222743188863815,0
4.54257900303404e-07,0.217870587188871,0
4.14648836145219e-07,0.209067816556701,0
4.7919977974543e-07,0.223853367597369,0
4.57177216727724e-07,0.209192643530536,0
4.24685499266558e-07,0.206932680563195,0
3.7400191384696e-07,0.198023845002998,0
