Activity,Complexity,Tag
1.55185365072268e-07,0.141573465002292,0
4.15154496528313e-09,0.0853566562059911,0
1.20132060574763e-08,0.090673685398159,0
5.95767281806224e-09,0.0902301477685262,0
4.93902914370991e-09,0.0911568547381578,0
6.48340834725674e-09,0.0923813119297057,0
2.1463513583205e-08,0.109329241093223,0
1.18709540599837e-08,0.10255990800774,0
1.3401928748382e-07,0.140854248367236,0
3.79205526700429e-06,0.320969066910993,0
1.2968231753719e-05,0.577922765522707,0
3.07129288341288e-05,0.228394944767696,0
0.000305151288864654,0.134219111617031,0
0.000664261759856102,0.137206083066753,0
0.00116143880427103,0.0924844722593198,0
0.00173930962887085,0.0981872033956329,0
0.00288799162080817,0.0875355939930999,0
0.0029734320169017,0.0433828027463068,0
0.00265601476343276,0.0279806004680798,0
0.00277354389832521,0.0245678041411365,0
0.00218866117931206,0.0177445761359999,0
0.00179426688769417,0.0152528804761947,0
0.00186161627782544,0.017199959862447,0
0.00208138407425551,0.0193093088792286,0
0.0023963833795017,0.0254095272311614,0
0.00277224383307262,0.0282339603023755,0
0.00223142349122434,0.0303639596671474,0
0.00186357943198806,0.0353447596731946,0
0.0017971091252548,0.0694702322025022,0
0.000702828052536763,0.0703415775356983,0
0.000543045348116146,0.0856357954307367,0
0.000552290942458522,0.0793057382280905,1
0.000689762646130718,0.0782024977095912,1
0.000699396787007053,0.0646983238181829,1
0.000656788960391016,0.0630976669211968,1
0.000565211608949272,0.0519102798584112,1
0.000464222947297535,0.0470371100404619,1
0.000471400994406508,0.0832095551084651,1
0.000348791006496655,0.0679760456886316,1
0.000317532849008868,0.0616776240262823,1
0.000410737446043506,0.0741178821769057,1
0.000407631668129943,0.0788315521084127,1
0.000166846452173951,0.053445959527386,1
0.000129408461924902,0.0608876830572967,1
0.000372355876658859,0.028744596223452,1
0.0018798358032449,0.0461277691380664,1
0.00193396571102142,0.0291229944354699,1
0.00199398214348363,0.0301129089562998,1
0.00205203343100133,0.0258362050962528,1
0.0020925676720105,0.0247235802737397,1
0.00191189870316219,0.022958574700881,1
0.00188545865825767,0.0227110052789601,1
0.00260776284211344,0.023552746233457,1
0.00403997259983383,0.0213566662235481,1
0.00400042983174577,0.0201494290721086,1
0.00398746121688156,0.0178079914411802,1
0.00406682854891783,0.0185633452352157,1
0.0032218730186274,0.0143006357834717,1
0.0030151340345257,0.0129549078019723,1
0.00275265459400715,0.0112683644331375,1
0.0023985905351334,0.00925584173506222,1
0.00240506563156215,0.0090979540107628,1
0.00229377108239888,0.0107300232776082,1
0.00173288179343004,0.0115663004094466,1
0.00115392889021529,0.0114928270428409,1
0.00148292952227494,0.0169337438074033,1
0.00314885698063394,0.0357109842573876,1
0.00267989459070856,0.029715541773954,1
0.00345550895508095,0.0335877754513519,1
0.00334147584643745,0.0282310872705605,1
0.00558778026540195,0.0154189858431854,1
0.0099617251690448,0.0132448779507831,1
0.00895312810953542,0.0109918610852772,1
0.00825149110064366,0.00861922031281635,1
0.00834491445948987,0.00894003440670675,1
0.00950754816412614,0.0090282554224369,1
0.010257134780989,0.00769584503945595,1
0.0109370094522267,0.00750656345607569,1
0.0107108599078891,0.00740279816659133,1
0.0126860358983623,0.00798568214105847,1
0.0140487874655144,0.0100917286147641,1
0.0126775142406002,0.0125276538077527,1
0.0112649420524345,0.011908757253819,1
0.0107845389739874,0.0113289730245258,1
0.0126481900955109,0.00428798963181459,1
0.023816817702899,0.00818199852953375,1
0.0217605464869075,0.0066599065483023,1
0.0169153263928441,0.0047827778413769,1
0.0182644425365312,0.00451336118767306,1
0.0215383276932858,0.000813281013897845,1
0.0441272586027034,0.00474509128060698,1
0.0471378127118133,0.00321614114648151,1
0.0523706134288772,0.00369270886240525,1
0.0513872670948111,0.00365838213850688,1
0.0556838609563021,0.00578832348351405,1
0.047481788357507,0.00461683753871457,1
0.0472756843226569,0.0050441223698529,1
0.0470239244485306,0.00505363620485132,1
0.0462126236231076,0.00545972164239336,1
0.0499667309791746,0.0108918885455992,1
0.0233797002241393,0.00527053646857025,1
0.0220598323566075,0.0115961345732327,1
0.0233699972452334,0.0124268412940562,1
0.0232971839459308,0.0124166792796256,1
0.0225280540438636,0.0113485977649908,1
0.0206261128071874,0.0109811566933706,1
0.0337768370869589,0.0119335538777533,1
0.047280370022878,0.0145216980937682,1
0.0594400116523911,0.0146847325374549,1
0.0799225346075405,0.0123516510375487,1
0.0744063615350007,0.0134867040536405,1
0.0619151803383892,0.0115905776714982,1
0.0557291793433754,0.0113194128730772,1
0.0390754209402242,0.0045980364117865,1
0.112232716581631,0.00899713396747607,1
0.110331204324008,0.00535210848377803,1
0.110872805375159,0.00598035883269737,1
0.155084085551041,0.00509736610299969,1
0.198315594791741,0.00566040215164486,1
0.201112168158154,0.00632155185683213,1
0.192332086512074,0.00578801043363485,1
0.182376981482032,0.0052603847044957,1
0.172446308897935,0.00465289763299917,1
0.1591494995262,0.00431887152051612,1
0.131939776452061,0.00419386346817191,1
0.127301272056541,0.00607951857409444,1
0.131325645222251,0.00523167822960309,1
0.114620454570619,0.0104734687927353,1
0.0756374958426053,0.0107701128477753,1
0.0906278143133851,0.0133179099191383,1
0.0957886610216213,0.0147390815590361,1
0.121388660396264,0.0176059133169346,1
0.0996587357167092,0.0143210884341734,1
0.0624619015237556,0.00900354440938682,1
0.0590631175147327,0.00904804349487202,1
0.0490905846901192,0.00817068371433177,1
0.0525459998903157,0.0114068249421402,1
0.0508878785763469,0.0139466461769751,1
0.0403313840665308,0.0112953987073642,1
0.0383770234827012,0.0112358926812624,1
0.0309799342401751,0.0100472736846102,1
0.03228490224068,0.0130934272493271,1
0.0171689938524544,0.0125540509445573,1
0.0166020676139028,0.0203182581871915,1
0.0106922020553217,0.0219562882326789,1
0.0130745658793615,0.0358707473601671,1
0.0135269492267299,0.0479779938210026,1
0.0119989160379433,0.0439577043048156,1
0.0109319236999709,0.0472038903546353,1
0.00573420681998034,0.0405271821378477,1
0.00359067984920605,0.0326300809897208,1
0.00299410360901406,0.0326024740166747,1
0.00302697562100898,0.0309935539406065,1
0.00457160722187696,0.0321142967030712,1
0.00678853622024875,0.041191964838628,1
0.00724917448050166,0.0389350289022458,1
0.00513969913571773,0.0277127134499635,1
0.00551922064687967,0.0294463005747596,1
0.00524203324623179,0.0176600710973131,1
0.00463345923643793,0.0147570529421326,1
0.00430477572573666,0.0141572288230282,1
0.00571910938258611,0.0150371110354986,1
0.00426233149376724,0.00850105652534301,1
0.00412159267715313,0.00947933830044087,1
0.00477907173294618,0.0102476766411339,1
0.00506840037341266,0.0112907679190251,1
0.00614812493277505,0.0136666574132012,1
0.00624591223262121,0.00875309146194793,1
0.00689986758146848,0.0103152999316384,1
0.00652620263938258,0.0104426430558164,1
0.00747049475231322,0.00548581089296875,1
0.0143025979409806,0.00927106103996417,1
0.0150268880597113,0.00946034665632832,1
0.0187345150661432,0.010505551699904,1
0.0174097681677293,0.00906622978267385,1
0.0157409613922846,0.0074417705014452,1
0.0207925655580577,0.00835029489373074,1
0.0234466555789732,0.00415071973553142,1
0.026480499122815,0.0036300782551262,1
0.0402502287455122,0.00526612214150182,1
0.0417122708515411,0.00274666146077543,1
0.0430630754880155,0.00294889647884058,1
0.050361362463688,0.00264839621543461,1
0.0651640604493453,0.00300246299254799,1
0.0647687112875882,0.00281408810337193,1
0.0661755547843846,0.002317093539867,1
0.0678866775716427,0.00224193641396821,1
0.0685728630918453,0.00315095492835469,1
0.0612719944891209,0.00251105126282667,1
0.0530120970141462,0.00225830457727588,1
0.0499639073983862,0.00412640376829454,1
0.0450165873582537,0.00362282374294903,1
0.0416945183936443,0.00532744396405856,1
0.0291812463152098,0.0054628860503394,1
0.0255626727696974,0.00668985852146649,1
0.023038533960893,0.00783015718199209,1
0.0250467445029306,0.0105118558933351,1
0.0324903751323899,0.0207458766752703,1
0.0327225825724195,0.0227199795823324,1
0.0348311743858192,0.0168855286715268,1
0.0801794252674979,0.0199278387924021,1
0.151112080248826,0.0308789176100277,1
0.253935438997794,0.0490709713737444,1
0.267826197753373,0.023721458041058,1
0.2188802303291,0.0217744754973047,1
0.194298698703377,0.0226232049139046,1
0.207798640050916,0.0108304797174392,1
0.282260993144589,0.0137089856020314,1
0.239256390020201,0.0110851025943353,1
0.154273240362621,0.00667029685289047,1
0.147298640296611,0.00804557176890856,1
0.159853141649491,0.00758949173949409,1
0.172443410302098,0.00698630119975658,1
0.182047786527153,0.00594146483008921,1
0.179673425507036,0.00593084517210093,1
0.17333248744147,0.00386296750189184,1
0.230402578009018,0.0117359816799785,1
0.165948734027267,0.00819693471653929,1
0.149724049315332,0.00795657491240793,1
0.143030767477126,0.0080793847280422,1
0.146604298775043,0.00792808572034768,1
0.145417998261767,0.00919058124152242,1
0.0963584949362636,0.0073599239240484,1
0.0631648884788612,0.00864850147230284,1
0.0612273354823337,0.00922374732156878,1
0.0536074760300677,0.015814243420338,1
0.0274287356445185,0.00667998523964934,1
0.0451362260854195,0.00736285927820096,1
0.0496086318584583,0.00662908793178614,1
0.0532632895374437,0.00486829149484186,1
0.0989849858898775,0.0112448649088719,1
0.099009519651824,0.00921724849940722,1
0.0937385276183448,0.00832592331298669,1
0.13210372962233,0.0101617261485816,1
0.165984321516864,0.0111976791088044,1
0.168317974721552,0.011463014053966,1
0.148020625663897,0.0125276496981189,1
0.0886473450963664,0.00883196368267083,1
0.0820983862165606,0.0075651241019537,1
0.0621563341413322,0.00801586747520901,1
0.0648557666842874,0.00735169726385907,1
0.0772366980458242,0.0123070767865552,1
0.066071807890821,0.0112336481464801,1
0.0702145088653876,0.016500343943514,1
0.0828069452802685,0.0237711057879002,1
0.0885051876950844,0.0240731807061341,1
0.0710510322917657,0.0217111478805666,1
0.0745629075304813,0.0246143794036816,1
0.0678527459345905,0.0389730645294081,1
0.0275714434036086,0.0170633425233967,1
0.00761984754674368,0.0200142163398129,1
0.0068406022470138,0.0257420977793743,1
0.00595326668081731,0.0234810590326761,1
0.00365722738385241,0.0165967311391477,1
0.00403623363428062,0.0585098201397489,1
0.0076868303167953,0.0571649637722661,1
0.00959182014260043,0.021624381413193,1
0.00918828091447689,0.0177265874233575,1
0.0113770009764169,0.0170430808748421,1
0.0189371327596931,0.0202058273460287,1
0.017204653339343,0.0125171982869873,1
0.0168643262783265,0.0100444890679143,1
0.0195660403355389,0.0107231020244707,1
0.0186034748497096,0.00899114107488744,1
0.0170763266186819,0.00799468629135404,1
0.0168957380685933,0.00755117115750955,1
0.0158203152101325,0.0078333837114166,1
0.0113724895452135,0.00436672633447132,1
0.0128518495496795,0.00570505898291557,1
0.0112554932121933,0.00463990737858352,1
0.0235241954467248,0.00911574665904992,1
0.0301007118695541,0.00399802226965225,1
0.0328759992209195,0.004750941505539,1
0.0340084868500415,0.00524530178769369,1
0.0368925862557523,0.00575084155776385,1
0.0367175639501014,0.00590206713473818,1
0.0368502728610523,0.00661091287378074,1
0.0357218273824983,0.00556792528452573,1
0.036204730213517,0.00499906926192978,1
0.0390168533296836,0.00548360342970989,1
0.0216058223654816,0.00280790805381271,1
0.0105839200596482,0.00487759373623023,1
0.011927384008848,0.00085997623976314,1
0.0523678765352623,0.010410745926086,1
0.0538020929966494,0.00675845255256914,1
0.0533745728214673,0.00645287771731204,1
0.0540239869391829,0.0067734488044562,1
0.0515836265674126,0.00643877445356395,1
0.0505263380359942,0.00694486449033261,1
0.039795180776875,0.00515806511874242,1
0.0386947088872784,0.00509711122402247,1
0.0322160935349311,0.00374068742908953,1
0.028411716099608,0.00656385848050224,1
0.0113507141426336,0.00317384990314218,1
0.0101512573565036,0.00976089537884331,1
0.0115133969709814,0.0119823131167949,1
0.0113892893107695,0.00248477238799194,1
0.0308429965292383,0.0117721877724601,1
0.0396038278380829,0.00993061695040518,1
0.040055475504377,0.00933630328333424,1
0.0408715324059638,0.00834762168341037,1
0.0433591003827482,0.00749165761203722,1
0.0437727579167423,0.00834119547127895,1
0.0552755376298634,0.00714287771233534,1
0.0833039572597679,0.0117362983610103,1
0.103521608147031,0.0105493918549153,1
0.090787590126542,0.00959850730360146,1
0.091985371851383,0.0100809313946897,1
0.094457910071513,0.0121028471801359,1
0.0949623468482622,0.0113081787870191,1
0.1455501705901,0.0173949830869382,1
0.125078948435047,0.0129324794089951,1
0.101798700092647,0.00984655645996064,1
0.0911657115975237,0.0120936122383543,1
0.0920102582335246,0.0111117301779034,1
0.0895078954028984,0.0160506132821078,1
0.0649901255093833,0.0149684751972732,1
0.0599726799391237,0.0148745133928941,1
0.0607690480289772,0.0116455482319931,1
0.0745410322282032,0.0141637352649105,1
0.0965746259407568,0.00614008663183438,1
0.131608691527072,0.00492350409507748,1
0.133375756560552,0.00547282793524418,1
0.126039371533549,0.00475376760049267,1
0.145685471260698,0.00639596375908806,1
0.151162187876798,0.00526601252758284,1
0.151278578920108,0.00539390403672281,1
0.192437175104593,0.00221906692476622,1
0.442754556001765,0.0107280223399691,1
0.420900135974075,0.00706208409061551,1
0.415577776287329,0.0093882094428064,1
0.417659151140074,0.0111723085641553,1
0.370232776886291,0.00997207929324837,1
0.350852831049954,0.00932374270197161,1
0.368220141032459,0.00977208729349127,1
0.397729883535742,0.0104669089143528,1
0.471682525089411,0.0123256769748905,1
0.490417430760141,0.0257917487976487,1
0.265858097816695,0.0191121462674422,1
0.160786812785865,0.0137354135922247,1
0.116321505189278,0.00695165803320472,1
0.122518279190432,0.0094938842381829,1
0.128259304807812,0.0118902059580057,1
0.10792436334698,0.0101347784733007,1
0.126186732323147,0.0115806679011947,1
0.144980212381035,0.0155937574735814,1
0.167257471465966,0.0181456617425711,1
0.181714341503377,0.0203120085484948,1
0.189734398330083,0.0203267910449921,1
0.108946189030525,0.0231970495728593,1
0.0559514475165948,0.0488219920162398,1
0.0435243178421415,0.0387766977524022,1
0.031233764056939,0.0321625139766236,1
0.0112539370935939,0.0221667925437834,1
0.00840097700514255,0.0312181082991658,1
0.00669028465763169,0.0262700803444888,1
0.00315078078371603,0.0185690575709261,1
0.00846103421481132,0.0136706484189148,1
0.0149548409305376,0.0102873252307238,1
0.014891758533064,0.0109873249819381,1
0.0193983874713397,0.0084438636913956,1
0.0342619165328267,0.0139688666026353,1
0.0351793913723056,0.0144759385617196,1
0.0327995664074534,0.013588776948089,1
0.0338423073502126,0.0134707667806061,1
0.0292397875453413,0.00830047426686593,1
0.0269810629531465,0.00565662583718457,1
0.0275321305628704,0.00719912690424155,1
0.0274801479989832,0.00777329462724445,1
0.0220290342898285,0.00242266369853895,1
0.0497901310153109,0.00893650225968737,1
0.0531010613794315,0.0049271502333304,1
0.0587571523882636,0.00564484639209794,1
0.0589306211295095,0.00558842122442393,1
0.0608894685010004,0.00539486181835338,1
0.0673314191529152,0.00305088546285317,1
0.0869567293004894,0.00508380715793683,1
0.0882571319240782,0.00477978164191864,1
0.0853180552308608,0.00453572809598468,1
0.0795951209102896,0.00461701000247716,1
0.0627670251756932,0.00330987237018074,1
0.0726264755017033,0.00611983018079516,1
0.0635119126500186,0.00378159537386212,1
0.0648385569739655,0.00392204920419314,1
0.0525818590278828,0.00247014603766852,1
0.0497449827481972,0.00491821263264889,1
0.045202627907142,0.00318114359411518,1
0.0449805996993643,0.00334263955313593,1
0.0438816458946096,0.00346444571346332,1
0.0471030798871393,0.00447370596424745,1
0.0493656612740572,0.00407437639477625,1
0.0412074292405286,0.00250095052974609,1
0.041208329623925,0.00347158424875274,1
0.0413026399168879,0.00293764486949491,1
0.0379121629899287,0.0027600147466395,1
0.0353561039073621,0.0046853317085234,1
0.0285696219819069,0.00446311884794662,1
0.024637449465656,0.00457665116039106,1
0.026447145262146,0.00624960457882855,1
0.0261006341741726,0.00547161929737704,1
0.0195880670814821,0.00444022719347838,1
0.0164044513649231,0.00550879253457324,1
0.0148224329422475,0.00475277243776741,1
0.0304956473610103,0.00190415818689136,1
0.163467197825773,0.0176793776358138,1
0.28801770285232,0.0240732029747657,1
0.311766112981949,0.0235654800239674,1
0.343747891550837,0.0216865963616259,1
0.414800137858577,0.0242832268235204,1
0.392469440539845,0.0159932412024089,1
0.330202450136052,0.0133266876001635,1
0.252145135230979,0.00888603672074953,1
0.157453050822952,0.00483070266662589,1
0.0853663057415974,0.00254735086810318,1
0.0974471753922833,0.00424361002562279,1
0.102709742709752,0.00429105762794443,1
0.126018751082895,0.0063524926676857,1
0.153468752519424,0.00934073584098457,1
0.203230432066357,0.0121451537607251,1
0.182611844618137,0.00959420189905672,1
0.164439347556721,0.00977335126935137,1
0.161163130099632,0.0107434999131613,1
0.16178855609477,0.0109916094187077,1
0.245666081105454,0.0161197003071261,1
0.319171541276805,0.0195039657239217,1
0.354763028273083,0.0230670167385613,1
0.31835605556113,0.0213580404969669,1
0.256249532618358,0.0208729897334475,1
0.11453566817883,0.0109150836111083,1
0.0850822425626728,0.0109055828955495,1
0.152911220631635,0.0122360353870485,1
0.154259329568634,0.00793538415369585,1
0.154596474136006,0.00858153330007847,1
0.151006124027552,0.00830654042309891,1
0.143731580327682,0.00673661888686618,1
0.14097199158545,0.00640502169090394,1
0.14537149819108,0.00652783808156348,1
0.160043040228978,0.0079746368939906,1
0.17353651098117,0.00529624657366373,1
0.269843426788543,0.00957911425566379,1
0.35970322591648,0.00920048037411954,1
0.393091767553458,0.00866428241377787,1
0.441923102293331,0.0101221584043414,1
0.48418528697053,0.0114750470770133,1
0.571909693887751,0.0134210832581794,1
0.652395278739452,0.0151879417668805,1
0.701623418943669,0.0162494989879588,1
0.772572512684453,0.0166676592202194,1
0.782548252992433,0.0228825589012318,1
0.511597361147157,0.0207390418789876,1
0.0866714428281237,0.00775128552448741,1
0.0650178129278587,0.0331824131107566,1
0.0559674755355944,0.0301615878398037,1
0.0362843136964687,0.0219477593617349,1
0.0322620419885556,0.0291992062313594,1
0.029285615593095,0.0326253148717184,1
0.01635343815974,0.0242068954872775,1
0.0128252608613853,0.0195433402462122,1
0.0130085847502645,0.0166465250213082,1
0.0220353248759662,0.0207143657567332,1
0.0575029723826631,0.0482894374995566,1
0.0835605695344313,0.0283766078727492,1
0.0799035764432248,0.0272669621305364,1
0.0772087171944297,0.0248625919595831,1
0.0754901079053824,0.0239268590778033,1
0.067167086730738,0.0197100050644156,1
0.0484044215983564,0.0139513080541733,1
0.0368687268454929,0.00807207521863823,1
0.0325267457605154,0.00713018658039561,1
0.0435300998756473,0.0102795464707119,1
0.0440660289142701,0.00943645331303041,1
0.0440831542503812,0.0095537562209865,1
0.0398310332581926,0.00488506992789693,1
0.0562191675515388,0.00840300421300279,1
0.0717745498795645,0.00214529026242873,1
0.11246361675229,0.00578269412838469,1
0.0951293471383863,0.0043915612968008,1
0.0945896712204482,0.00430190438787176,1
0.128687324236274,0.00659640609619104,1
0.131273380535225,0.00421921432144558,1
0.135767686965592,0.00385872699603966,1
0.149225059067271,0.00509493842552969,1
0.155121760492084,0.00612593601891913,1
0.14568866395595,0.0054672195008246,1
0.138921280224742,0.012737184732426,1
0.0729251296798965,0.00546202853902127,1
0.0635225994332941,0.00442802420559226,1
0.0533997139381405,0.0038760520421346,1
0.0576997097675914,0.00419143026363806,1
0.0459683177029167,0.00597692364994792,1
0.0366656985531164,0.00462663031180967,1
0.0539856724324134,0.00845102284762802,1
0.0579501298293421,0.00547018950091946,1
0.059281872596686,0.00512953662407434,1
0.0518383227681021,0.00373045657253803,1
0.055960922108924,0.00454408476694583,1
0.0617154762138185,0.00273727797044889,1
0.0822312298927516,0.00432528127359015,1
0.084320935594835,0.00284270849544771,1
0.0904974484691557,0.00367862403059428,1
0.0867959947104859,0.00487792409377247,1
0.0762049505672229,0.00391184709641029,1
0.0690149550648875,0.00484710565158472,1
0.0691173937786173,0.00466871733741381,1
0.0672879810017628,0.00419327412903687,1
0.0647529692289257,0.00360749621953535,1
0.0668014244212251,0.00698978476452806,1
0.038890740995756,0.00270368364014065,1
0.0672448587113476,0.0145013564821953,1
0.0594100037646204,0.0135164978126489,1
0.0679538202354264,0.0164594750445333,1
0.0891054512435835,0.0148679583212473,1
0.16187997283637,0.0216764672511252,1
0.172112935910869,0.0211851906272949,1
0.149633624399548,0.0195621656865942,1
0.110549762214725,0.0171541984640145,1
0.129239519172686,0.0077080389506563,1
0.236769005953364,0.0146610679396438,1
0.286254125912426,0.0143892009833945,1
0.251496357919749,0.0126221601521332,1
0.213821845911122,0.00804313721225699,1
0.205491642436481,0.01002795068197,1
0.207147038403122,0.00978212269710999,1
0.226404993156541,0.00878271302189011,1
0.304837946703535,0.00895532858682936,1
0.26217584201805,0.00364941514114942,1
0.253921867606256,0.0033078743684715,1
0.325898617424174,0.00464632559162304,1
0.323899904098874,0.00402066834554329,1
0.332381869093787,0.00401768162572313,1
0.379026949525319,0.00534897218772953,1
0.356867813406865,0.00412349507700906,1
0.3459833737482,0.00406939661322686,1
0.292556526439613,0.00326652810331616,1
0.280723146563234,0.00469153413337943,1
0.328461612247467,0.00901306055506324,1
0.362002859296209,0.0161652809039938,1
0.177819170353645,0.00983601119755555,1
0.179214683615871,0.0108739170850082,1
0.215187239836483,0.0118240810685052,1
0.212638054947526,0.0100455787924497,1
0.212234568991905,0.0165269452156991,1
0.21138008708645,0.00377560996743942,1
0.372818607120456,0.00894632018516138,1
0.389230669790044,0.0103472125646951,1
0.347780626770552,0.00874426836472445,1
0.287630215271079,0.00771116779075844,1
0.274438957546984,0.00732406165093657,1
0.278825512802592,0.00828756704044306,1
0.333187911763253,0.0104256039380015,1
0.328431413768008,0.0105213265559939,1
0.390840872210287,0.0115134107497024,1
0.451646388791104,0.0273421319983416,1
0.371193363790704,0.0278852054819721,1
0.378582140153154,0.0284031904353554,1
0.351644789804753,0.0276984065059799,1
0.307726226587323,0.0253433691356986,1
0.258275508155493,0.0235469727681106,1
0.160494934934269,0.0204993715127512,1
0.143948031303299,0.0246611716217631,1
0.0429983302385527,0.0145137724312847,1
0.0266842336323208,0.0203015286653407,1
0.00887424792854183,0.00600845934792289,1
0.0194174958925607,0.0166904980757922,1
0.0564363642270479,0.0392284962718923,1
0.0668082362277589,0.0241903022754193,1
0.0675534537297028,0.0213936508600559,1
0.0659665395844151,0.018973534302391,1
0.0559859356915832,0.0160420979031918,1
0.0451725093330173,0.0131211070742692,1
0.04795372620374,0.0121511574408651,1
0.0417037511381797,0.00941659303298699,1
0.0253524559122684,0.00545567238521692,1
0.0240690170252781,0.00663844915718417,1
0.0191708813996438,0.00441188631878374,1
0.0212103054090379,0.00813484390024883,1
0.0213619956584481,0.012034318288803,1
0.0205202755007496,0.0132820482541541,1
0.0213492663777202,0.0144058152503996,1
0.0325169517224253,0.0101420582528784,1
0.0379389303641403,0.00501163942291498,1
0.0452487103204922,0.00641726960658406,1
0.0811081694595578,0.00545581744461729,1
0.103708072600033,0.00301148578006571,1
0.11798218180398,0.00395841153107619,1
0.115225347598216,0.00340045013557109,1
0.115102637367786,0.00277504853615926,1
0.121647357106855,0.00279021460015341,1
0.119460402042792,0.00245930410916763,1
0.121603848451186,0.0029526614323709,1
0.121294247610737,0.0038960373686698,1
0.11719001344534,0.00333292587591485,1
0.0806039559811409,0.00248884929819437,1
0.0549452018643251,0.00180051281401656,1
0.0875396282931396,0.00414660723360855,1
0.0919278358449917,0.00339766352732615,1
0.093551567770648,0.00396921925563508,1
0.0921612959103518,0.00408423148521682,1
0.0897064966106773,0.00363292358356805,1
0.0811958649361551,0.00327371726786448,1
0.0788618572038015,0.00361460238404564,1
0.0769959911002994,0.00340504968294372,1
0.073515820089876,0.00463923176147971,1
0.0637540011200843,0.00520878003522885,1
0.0502028862856704,0.00523846568988882,1
0.0621348922718132,0.013463006645355,1
0.0631074649410773,0.0152451670721274,1
0.0730061422451913,0.0172040361363975,1
0.0716884121763651,0.0136917223690717,1
0.0878287851802354,0.0127159283697423,1
0.0606163992133628,0.0066826903426605,1
0.0600919234585322,0.00610508000919754,1
0.0472235181396675,0.00455921879787518,1
0.0337866822195045,0.00268372747169545,1
0.0348314566979646,0.0018797478195294,1
0.110196551408326,0.00777257114404109,1
0.133990342897276,0.00793337633013441,1
0.216577047600881,0.0120057839953063,1
0.253668983797108,0.0142847278058516,1
0.271719471282349,0.0140656886001835,1
0.21451912269199,0.0118862041826073,1
0.195475052951517,0.0106627479817712,1
0.167848136638153,0.00708342412340231,1
0.156931351952205,0.00694586038753585,1
0.126053816175408,0.00200228656802393,1
0.17302513748223,0.00310905753072679,1
0.1795685858626,0.00372248517669697,1
0.165531632322354,0.00434475575872983,1
0.157135375150327,0.00404903945464766,1
0.155236057336552,0.0050886791054669,1
0.146126288606477,0.00466727877312839,1
0.174534164439204,0.00389285286939981,1
0.218795953482226,0.0065749674766152,1
0.253010373913039,0.00791256827330064,1
0.249321784297949,0.0120596079733049,1
0.255380316899343,0.0075489478418306,1
0.525091339965912,0.0161771235683679,1
0.605283985652091,0.0128186122380464,1
0.606704003300604,0.0127326008847802,1
0.652527926435166,0.0111000082932411,1
0.798893288669753,0.0133223752683492,1
0.757244027390496,0.0158254352203112,1
0.600000023165539,0.0119854928620895,1
0.436349855202258,0.00846626366550147,1
0.299177027790855,0.00515331077211065,1
0.373663143808268,0.0141322853185474,1
0.289581105560852,0.0112210720193193,1
0.288670537996282,0.0145306489067935,1
0.341789392306417,0.0154062631512212,1
0.402921463484259,0.0240456734060552,1
0.244752624988112,0.0172856024775217,1
0.155607290107329,0.0131539572855209,1
0.0983996520082092,0.0094884685617983,1
0.0978090499362228,0.0120548313686347,1
0.103463076007474,0.0157205700082011,1
0.159000426989966,0.0290797908476005,1
0.105100570022176,0.0189157696349823,1
0.124588917862771,0.0173134556896413,1
0.169339579368745,0.0266100763994903,1
0.227226368361686,0.0334316381723693,1
0.246272060357243,0.034145880756946,1
0.23192103476349,0.0303222185462544,1
0.192747845666137,0.0249893706915727,1
0.125444020651317,0.0161140271163571,1
0.0974072591012877,0.0141630067129627,1
0.0930151556570494,0.016730762057463,1
0.0169136051706576,0.00391142354829476,1
0.00320741662904176,0.00964647525537235,1
0.0105097694702073,0.0152934252991834,1
0.0184385495964363,0.022959093063065,1
0.0313039795311142,0.0320090418371325,1
0.0361741366147108,0.0312890954980197,1
0.0472395866348316,0.0249056764759872,1
0.061863674093254,0.0233216959629891,1
0.056971348256803,0.0213020962629106,1
0.0476399782241583,0.0147749475108795,1
0.0393907887839625,0.0120996578834809,1
0.0236733852416294,0.00722651625352532,1
0.0281419457526776,0.00918582903371732,1
0.032174677385255,0.00938373263824787,1
0.0328534737782692,0.0088386619708578,1
0.0332979594900846,0.00807824796112572,1
0.0358301340624994,0.0107492986653354,1
0.0357648174438376,0.00732382927954555,1
0.0390263228000704,0.00615294623444384,1
0.0344720906097083,0.00535027290307603,1
0.0342217401488508,0.00500026148475668,1
0.0340219856741608,0.00448542545188827,1
0.0359402533062614,0.00494102153238686,1
0.0325237444635854,0.00398301367795691,1
0.032839574860335,0.00356447894575565,1
0.0357452441532852,0.00364726654247551,1
0.0326776671153725,0.00360429685693925,1
0.0311180925267192,0.00553372678006775,1
0.0499613064568954,0.00692999743887871,1
0.0591447741186097,0.00333472487521194,1
0.0729978117150494,0.00499827686605532,1
0.0783255593087335,0.00537340313529383,1
0.0736555249141486,0.00485441357176889,1
0.0830193392110108,0.00562684212731299,1
0.0854118584541439,0.0054270257270802,1
0.0801307969425437,0.00471827239217301,1
0.0937367134625802,0.00504106084166316,1
0.100467323618601,0.00420254873270984,1
0.0611751212876786,0.00256891157171552,1
0.0372351192315503,0.0045841656926579,1
0.0371353700866578,0.00409141072941677,1
0.0373004137926969,0.00361606687364992,1
0.0370474388368249,0.00191169047087945,1
0.0757042577927922,0.00724458616490994,1
0.0970880985589155,0.00884273736644704,1
0.10501793282579,0.0110449697338702,1
0.0939837723325827,0.0113477016981166,1
0.0727280999291878,0.00982909594842353,1
0.0722512611109456,0.0106699661658992,1
0.0746814955889945,0.0064967387139903,1
0.121136113352307,0.0113393253322783,1
0.138707511344262,0.0129987783917432,1
0.107465996014154,0.0127785728831922,1
0.114292953525792,0.0103412191150353,1
0.322277836812932,0.0138660553965617,1
0.514876136011652,0.0110203034974755,1
0.497357753039629,0.0119364407309294,1
0.449132767872165,0.0112775334418005,1
0.339100023392713,0.00840586740983499,1
0.274062808901933,0.00754523325244846,1
0.285445009918397,0.00793819938930085,1
0.286682370289668,0.00804702365526094,1
0.265638242220939,0.00680110220610055,1
0.231491867132113,0.0063912997293277,1
0.176559223838037,0.0108937097954976,1
0.0592282678288206,0.00881969338498,1
0.0900193732092346,0.0187879838678016,1
0.106958429196572,0.0195696908804184,1
0.0932623029053332,0.0135742273657162,1
0.0873150879063819,0.0115335493218932,1
0.0985101615667075,0.00985166158290194,1
0.10025258321828,0.0104751859048642,1
0.0961496955642826,0.00984005554049288,1
0.152183126769721,0.00936754555701961,1
0.265562931922462,0.015357485989675,1
0.334313948650757,0.0170524314959142,1
0.400689968287086,0.0142502794608889,1
0.495895963529005,0.0140412348973943,1
0.461544620132594,0.0133250127962889,1
0.482553930911665,0.0119340020981486,1
0.459307960887615,0.0112961689011182,1
0.410901517681338,0.00777003497285295,1
0.332713034605901,0.00526735004295896,1
0.32365561528573,0.00691667761577584,1
0.383980137433613,0.00771889134747704,1
0.412175602409226,0.0055342195776429,1
0.396742412596056,0.00666516137478448,1
0.309082186631658,0.00533805541817488,1
0.335887005398782,0.00570179423717365,1
0.417519377495553,0.00888085727710345,1
0.42656901000542,0.0099212580355549,1
0.453769941755033,0.0137366305530466,1
0.468296857070809,0.0142883261276875,1
0.477343156537663,0.0136934704906334,1
0.537232910601857,0.0163558045388867,1
0.511112507657645,0.0353563220902034,1
0.308554822200829,0.0319866972691052,1
0.247075761449406,0.0241175827905252,1
0.168095767350244,0.0189173440863379,1
0.148676279895647,0.016640555787173,1
0.0528520800369751,0.00570177888679856,1
0.0108046947111157,0.0250715335699301,1
0.00934881813592682,0.0235791174204621,1
0.00418875810772245,0.0142289070388135,1
0.0054261761708819,0.0128582240042371,1
0.017333378507476,0.0371947458198181,1
0.0245362380547846,0.0464187863489939,1
0.029164247844006,0.034623755608773,1
0.0453875344028377,0.0330853869144141,1
0.0411077829874758,0.027711692388259,1
0.0426570899016822,0.0253824708316079,1
0.0362846600208938,0.016659243829527,1
0.0306587824111938,0.0029792630653226,1
0.134662883541344,0.0113007413324405,1
0.133139916191647,0.00561144490635437,1
0.130994466682516,0.00537865819570112,1
0.128494378451506,0.00529242136977687,1
0.146142900095422,0.00565291628987171,1
0.151399422338158,0.00455216438293477,1
0.14652957113167,0.00402345724547534,1
0.149403072147557,0.00407755413250858,1
0.137014683401498,0.00325047438821374,1
0.131908930607387,0.00475055234235458,1
0.0641690517219212,0.000977810595758573,1
0.0603274482206145,0.00284148102863343,1
0.0665758515727027,0.00351550325667317,1
0.0659800467397265,0.00324734778629834,1
0.0491420702341071,0.00297112422580674,1
0.0471838700336022,0.00477707221452658,1
0.0498206398987005,0.0036162999751325,1
0.0435773862336801,0.00288496874703743,1
0.0436791960604063,0.00348518370014155,1
0.0443345320086591,0.00264387787183139,1
0.0371548596747173,0.00183897371282587,1
0.0325586160317058,0.00287402040588409,1
0.0357835929044874,0.0037899452428313,1
0.0409289906935233,0.00269651774131868,1
0.0604354181615379,0.00560854662687763,1
0.0808561873904227,0.0062411472094532,1
0.177117923360934,0.0144907154156963,1
0.165344934294432,0.00855688710657305,1
0.170188918522166,0.00625884490756966,1
0.190249094830213,0.00726316096325832,1
0.188512809251256,0.00571287239721896,1
0.188671836387176,0.00492807637109171,1
0.154650903550887,0.00343614771088217,1
0.144462774033463,0.00346564706429874,1
0.144744312225879,0.00333155567259278,1
0.155239837588261,0.00494607736850557,1
0.0901303959772524,0.00016732012840118,1
0.124233626428172,0.00483433999076239,1
0.130348486221258,0.00818742544601049,1
0.176801520334365,0.00790207793023943,1
0.295056706128461,0.0142159099438883,1
0.259618510526555,0.0108889933411094,1
0.527225415914792,0.0114342712088534,1
0.884979815624822,0.0177648121508516,1
0.849016272191717,0.0121097065248178,1
0.679066997120367,0.0091492684987587,1
0.597258007077165,0.00858199326223177,1
0.566193271444827,0.00710567502360433,1
0.446546444003673,0.00501573121598104,1
0.382498766160858,0.00416461546924635,1
0.474041166226137,0.00402542253260967,1
0.665762248581962,0.00684072132708069,1
0.755238401783242,0.0122294550995771,1
0.590484663165326,0.00927292757042657,1
0.608435924175822,0.0123229695635044,1
0.596570789865398,0.0120038849595006,1
0.575767499389462,0.0106896953679703,1
0.551739625868385,0.0101062642960845,1
0.552144755715445,0.00945182732682221,1
0.587797253445111,0.0113145091504907,1
0.602662153205065,0.00683916065846729,1
0.578138786267566,0.00668685682612164,1
0.509865586139923,0.00676902436444592,1
0.497012745868,0.0066133899378471,1
0.44591226438713,0.00546696914251885,1
0.471010409142164,0.00729399082216103,1
0.523408456654252,0.00855968744419803,1
0.521387176581246,0.00784997097410355,1
0.492200504860278,0.00851461003006734,1
0.280247886772256,0.00326994016142941,1
0.228686356109505,0.0112259803728731,1
0.217736187825878,0.013637351925424,1
0.246091865805272,0.0143499807245261,1
0.231692483917398,0.0125587437040295,1
0.349359132814714,0.0162715465888867,1
0.421325452633983,0.0104012153607758,1
0.379270443866404,0.0102632802469192,1
0.320614815705134,0.0085890695716345,1
0.292636389420757,0.00715341793908441,1
0.254464522898275,0.00527643876007852,1
0.32038001684915,0.00974235466525574,1
0.42091218688002,0.0129020570334115,1
0.428577583089729,0.0126428175458262,1
0.51012829431755,0.0157859881600016,1
0.373508888997942,0.0157057675606808,1
0.224904497819818,0.0213066183994708,1
0.27030564864118,0.0264965848802148,1
0.218969604630447,0.032471415811986,1
0.121086345341404,0.022814422473857,1
0.0869083957722829,0.0217651373581889,1
0.0793150800209926,0.0188376854817855,1
0.0783253600175397,0.02174010134378,1
0.0303592615066258,0.0174537125188763,1
0.0236310906381198,0.0239789630893998,1
0.0189845280046666,0.019917252678347,1
0.00523414479351776,0.00926826619948311,1
0.00445585705490215,0.0159763186798928,1
0.00473082899720143,0.0191507960096533,1
0.00640505609463659,0.0239202747306792,1
0.0114866842968907,0.0339313351285248,1
0.0176383926894139,0.0414071172703288,1
0.0226555576023267,0.0409380690672531,1
0.0254767321434599,0.0370875616069842,1
0.0283564772076937,0.0342420668827992,1
0.0285545103476639,0.0200638097358895,1
0.0266875635973928,0.00790750869042217,1
0.0399418042528581,0.00964124669660485,1
0.0336182236702075,0.00674601957181396,1
0.0293549878579856,0.00577983208415672,1
0.0292547061707312,0.00452465312113814,1
0.037606874416198,0.00479989385242123,1
0.039392081546863,0.00427417875501618,1
0.0464916688189264,0.00442776715104694,1
0.0483169597048859,0.00343876989426321,1
0.0468497355462267,0.00382513429336388,1
0.0540566348484503,0.00852656131563447,1
0.0455438373045761,0.00577045628567195,1
0.0475829128454445,0.00682839972258162,1
0.0480231284216289,0.00615487753530644,1
0.0580604286523242,0.00511901981613677,1
0.0601591297516095,0.00463783069393951,1
0.0584938912556104,0.00499549461783951,1
0.0516450568094019,0.00500483546806639,1
0.0499127107721844,0.00652723061124148,1
0.0475617090085306,0.00640383117418424,1
0.0371899528813975,0.00450851671393093,1
0.0335420040482184,0.00318846881924893,1
0.0399273491461517,0.00428468380396612,1
0.0364707175405448,0.00398258831434093,1
0.0274937286156384,0.00698820653672308,1
0.0178370169774551,0.00720759558127107,1
0.0259997252570757,0.0110038367493972,1
0.0254258175114503,0.00764858228050141,1
0.0316224908311421,0.00829637073126921,1
0.0346210869021055,0.00553186455870061,1
0.0268626715934586,0.00322122568651229,1
0.0255524244651479,0.00562536253110924,1
0.0318142305459033,0.00313787933947091,1
0.101703419821114,0.0124879712527791,1
0.140934786670746,0.0118189648354265,1
0.139916572760569,0.0131217997250505,1
0.116502043483129,0.0125102970022412,1
0.144706119713378,0.00396689525169758,1
0.410155459674017,0.012782139365629,1
0.567975810312,0.0167378923190361,1
0.55409121174734,0.0143627330844682,1
0.479995833034799,0.0117435908231228,1
0.416415278095962,0.0106113150582806,1
0.493492238493572,0.00784421258719907,1
0.902727704966266,0.0169578551188408,1
0.862063985043632,0.0140345987316007,1
0.842253699807419,0.0119915954747698,1
0.886213064900184,0.0130999497409765,1
0.919389462723232,0.00912950546230246,1
0.949521574895209,0.00885499893033493,1
0.916559975091131,0.00851287409436251,1
0.716211433872228,0.00531991916147829,1
0.59710615123213,0.00387022885279826,1
0.627893148577913,0.00611886964091523,1
0.576411177871573,0.00538831619026564,1
0.897013095199761,0.00820369994717863,1
1,0.0134323819966554,1
0.735981716491871,0.00667808612945606,1
0.733583985302671,0.00990706039306098,1
0.734699844464625,0.0101369631787062,1
0.59655467608237,0.00911275073372191,1
0.475998027926367,0.00835735340056879,1
0.501281670432726,0.00831745471227001,1
0.525005885742029,0.00812672953896325,1
0.523429278830176,0.00879480967595082,1
0.461389289152831,0.00783896149252162,1
0.416979141751345,0.00706214870367672,1
0.324724032809658,0.00550948040815751,1
0.29320194546208,0.00726653700775713,1
0.37174338518772,0.00987896133280843,1
0.396307622019888,0.0071827699414244,1
0.386027106607332,0.0065273736604303,1
0.399450371277214,0.00741293097475919,1
0.391709824678302,0.00845356748987673,1
0.406232410335685,0.00807952234826969,1
0.526295205258951,0.0158644131975884,1
0.386925896087631,0.0123839910805138,1
0.301968118794133,0.0105439296397346,1
0.28873563782178,0.00746366501504074,1
0.282955601388777,0.00764797568502838,1
0.28793590304955,0.013082661900664,1
0.188006678548166,0.00967025785537818,1
0.198043587874102,0.0108282505805122,1
0.148126429929324,0.00907569641909431,1
0.116658611287059,0.00854936044307771,1
0.119777793725718,0.00862690057632846,1
0.0980852023299888,0.00761143972605853,1
0.0898942828250968,0.00848719531976,1
0.0839814291010366,0.012985841091183,1
0.0230670960875227,0.00574917991811062,1
0.0215271526673328,0.020745776433026,1
0.0277812098125024,0.0237731088490433,1
0.0276593349709784,0.0191669381247532,1
0.0257640704330222,0.0130084691549773,1
0.0201845870192287,0.00797032136106279,1
0.0138830340130292,0.00577270466060489,1
0.0166889366402168,0.00649282835597454,1
0.0278372260996458,0.0116710639540101,1
0.0286258355535459,0.0104830234569184,1
0.0426137849736289,0.0133854957632625,1
0.0394184179961286,0.00867081753739481,1
0.0897129502745547,0.00911003399565722,1
0.117503211215707,0.0103699859545834,1
0.107270925096952,0.00858577632891316,1
0.121254915016867,0.0095184580410928,1
0.113189125753158,0.00868746096441231,1
0.126614543734425,0.00955958222354597,1
0.144100099453223,0.0101054397677653,1
0.145643572399634,0.0105917025821798,1
0.139792808629605,0.0105163161456784,1
0.144374215980047,0.00973674268149765,1
0.150546718356485,0.0173509711376884,1
0.11270219652113,0.00978075831257207,1
0.109464574801766,0.0109244879506745,1
0.108373858490368,0.0117054433098907,1
0.10564091324697,0.00923221858256019,1
0.0946732897736979,0.0086428589597195,1
0.0768278180542431,0.00727139343355129,1
0.0749765710307281,0.00683613229580697,1
0.0780556731726562,0.0074869909388372,1
0.0779714874633037,0.0106735449433125,1
0.0319124923088839,0.00397751271123098,1
0.0309719125795322,0.0100138678393135,1
0.0386467939455222,0.0135207755474015,1
0.0207246174362323,0.00805564971873269,1
0.0272679295345876,0.0144416921187489,1
0.0359697897400746,0.0122118242819621,1
0.0422108419721218,0.00864267912318772,1
0.0764418567900566,0.0173002027547804,1
0.129975656559026,0.026241844704489,1
0.145753219356444,0.0182497790395243,1
0.132828449542166,0.0166718404583595,1
0.14465322816047,0.0127954459887676,1
0.29378730095511,0.0185722406349492,1
0.284164181027411,0.0147039027066343,1
0.294117655780675,0.0155622347813645,1
0.263217972021929,0.0144076419655219,1
0.207920232084526,0.0108064480558413,1
0.227620144170964,0.010497118445198,1
0.22428627926896,0.00868755177350841,1
0.352254990559149,0.012058894194869,1
0.351213504683754,0.00899292096777421,1
0.302291842991725,0.00879931693449981,1
0.308767175221687,0.00767610820823799,1
0.380994045505096,0.0102590730295116,1
0.418082329628984,0.00938505996589123,1
0.405127538229958,0.00906208453244315,1
0.370480181264013,0.00851003769511727,1
0.393199187946688,0.00626881336676574,1
0.515029774145145,0.00900317750871216,1
0.645001877247657,0.0156341407482904,1
0.626753736370619,0.0100346096985707,1
0.635927252805662,0.00995604737045259,1
0.620612501500385,0.0107853301504449,1
0.571474681078649,0.00920655020553312,1
0.621913827370897,0.0110781520411355,1
0.649613089009806,0.0106771758580069,1
0.656583551417705,0.0110084380345628,1
0.662151552269659,0.0158911377840993,1
0.525664080720417,0.0138955153967141,1
0.236082349441772,0.00538806702902223,1
0.163046346118715,0.00735190521551502,1
0.126006970364972,0.00689009022750464,1
0.12432238491428,0.0030518183243702,1
0.223359849816698,0.00680900882483858,1
0.190767041666627,0.00524399210996007,1
0.285594468531403,0.00770132846093932,1
0.347226103216069,0.00717940934826851,1
0.349023149338859,0.00648387041560666,1
0.369860325061655,0.00675049381226616,1
0.435404256382125,0.00821663184440228,1
0.525962123419944,0.0110370811287737,1
0.674121001530762,0.0130234858218736,1
0.756080943214445,0.0224206095966582,1
0.682133776869531,0.0227570709317833,1
0.760700144240836,0.0246536235341086,1
0.520608597772164,0.0382780584549031,1
0.234933959014204,0.0395950308056661,1
0.133812289150453,0.0327418052166299,1
0.0789171956292146,0.0343460958614606,1
0.0681370564693459,0.0332844859209114,1
0.0486805563253942,0.0275186450892764,1
0.0447042836074956,0.0293179804076866,1
0.0343267211646645,0.0307886285721266,1
0.0118843294870854,0.0221553551482045,1
0.00857495709071572,0.0247742772941756,1
0.0029011509314384,0.0196289247913434,1
0.0029303347623406,0.0390424062082821,1
0.00509431483772329,0.0326682633657982,1
0.00540209497545857,0.0234882542789835,1
0.0102195780443929,0.0244678666664787,1
0.0205584997115715,0.0414668783784004,1
0.037990874166099,0.0556284203794374,1
0.0465501917424444,0.0637735402218661,1
0.0637312286384371,0.0508547145085076,1
0.109218426415798,0.0391139643725785,1
0.102324239122094,0.0215066358167624,1
0.0859543532632797,0.0193637068168388,1
0.0753188677725881,0.0173588424122177,1
0.0550120010490967,0.0137652021863061,1
0.0605245621072867,0.00736178945774728,1
0.0918584345000127,0.00818638115870355,1
0.092937646481907,0.0075971090518659,1
0.0966518569296835,0.00786130204562166,1
0.0960283270259685,0.00855978573947677,1
0.0804785858688951,0.00548113153726313,1
0.111419116077465,0.00910164285281544,1
0.109833508653928,0.00533739639233616,1
0.111837959362269,0.00488329765497825,1
0.157587075509546,0.00531096658928201,1
0.173444707563451,0.004143635685615,1
0.154038603069841,0.0033200405028536,1
0.150928556219593,0.00336170347987942,1
0.149787948067052,0.0031173711235121,1
0.159050426326491,0.00346465726073543,1
0.176670428166855,0.00525469944238957,1
0.151672666497767,0.00364539399786594,1
0.152431828898863,0.00515038087605443,1
0.161302572544944,0.0049899736815173,1
0.104646210767704,0.00344825798088218,1
0.0669112760176051,0.00429015463086736,1
0.0768514520068994,0.00575674112825486,1
0.0598269759840314,0.0030637592902902,1
0.0626766232822255,0.00312579521346225,1
0.063463488047209,0.00352611219920274,1
0.0635709266740618,0.00320994980472814,1
0.0654229288202963,0.00402260011364359,1
0.0425836576410587,0.00161815279627781,1
0.0380203676371977,0.00251326428493724,1
0.0384244017041891,0.00408421025624029,1
0.0429998716334486,0.00747926828367477,1
0.0462119619293614,0.00931958758065323,1
0.0441006046028365,0.0139130296173285,1
0.0367696377846857,0.0152948909554712,1
0.0392240760801258,0.0154233267816203,1
0.0416835884135437,0.0183003545773098,1
0.0459412524727935,0.0373715991314911,1
0.019484624829151,0.0199704908356358,1
0.00623027648183586,0.0174068101831328,1
0.00488354350588252,0.0122427950939788,1
0.00656142393789355,0.00975995817612441,1
0.00689486573264896,0.00938713922226701,1
0.00708417204979978,0.00877807127985911,1
0.00730033952676009,0.0073575036803725,1
0.00965253212117823,0.00814178590495807,1
0.00921452271008406,0.00693293852268049,1
0.00944827378672192,0.00614003216373716,1
0.00946440149191745,0.005527962199929,1
0.0219432397862355,0.00994867654638893,1
0.0238189452894282,0.00579854494211049,1
0.0281773072596814,0.0077767861195078,1
0.0336057352688655,0.00960133503955924,1
0.0415059428200308,0.0120025334742421,1
0.0464854169480874,0.014021205620504,1
0.0515079837165925,0.0171457606086429,1
0.0572897663944559,0.0189809912661784,1
0.0536426792178104,0.0193189712180511,1
0.0489224226222117,0.0173044505375614,1
0.0168670590834398,0.00921231219692272,1
0.0037721554156041,0.0180405447484699,1
0.00326498943132444,0.0198036210065986,1
0.00341501239742174,0.0230019843275832,1
0.00366082374811979,0.025205305238863,1
0.00381060853003402,0.0255715141948579,1
0.00393682557386641,0.0271010762823188,1
0.00399369179480992,0.0268826117200016,1
0.00408372261337277,0.0308606066921164,1
0.00168992241885574,0.0434110351477659,1
5.76898582681499e-05,0.12833928649628,1
9.8165829178495e-06,0.488034081658129,1
3.55237196672914e-06,0.296797083216392,1
2.25266321456195e-06,0.199591039539619,1
0.000109678961022094,0.122816882177318,1
0.000247787948047479,0.0943965771597658,1
0.000248393308883578,0.0847920728318933,1
0.000254471046490947,0.085116977469637,1
0.000258620209481349,0.0865162425268777,1
0.000260283234311573,0.0851318277937816,1
0.000263412098829037,0.0859301379094185,1
0.00027163259593179,0.0872292498717549,1
0.000274946648675527,0.0901784900218092,1
0.000281091416816792,0.0909016214270489,1
0.000189165581554651,0.170300488429142,1
6.58923525350659e-06,0.124289862574219,1
1.75184976281277e-06,0.256265471709666,1
1.76215159278503e-06,0.255704241241191,1
1.87288681467927e-06,0.25332159685142,1
2.1846886446832e-06,0.272369684894289,1
1.98913952401472e-06,0.258500054079588,1
1.47897760423802e-06,0.22897230752774,1
1.80656754077135e-06,0.267369811355606,1
2.14717651938288e-06,0.297198060015698,1
2.20549486450876e-06,0.3164930871146,1
1.55594476345826e-06,0.265566345552012,1
1.31860476641104e-06,0.252422478264898,1
1.91601702345749e-06,0.259000907541518,1
2.51111022477558e-06,0.298931816733939,1
3.06951957050952e-06,0.316075523931787,1
3.14381229269998e-06,0.305794086278673,1
3.09414408761393e-06,0.301574358404671,1
2.92773014070113e-06,0.284419848720582,1
2.45433775100707e-06,0.257330771233085,1
2.41015308686283e-06,0.25676397994838,1
2.51342119800408e-06,0.264277269292402,1
2.19770383203071e-06,0.244709268478037,1
2.00906910347112e-06,0.255573441492674,1
1.85162760182324e-06,0.249442506912609,1
1.16576345064361e-06,0.208476656747597,1
1.13913161361304e-06,0.224837566947459,1
1.22431618826536e-06,0.221751652380564,1
1.30242795381157e-06,0.227591875118725,1
1.25939175072401e-06,0.230216290174666,1
1.23548993345301e-06,0.224639941050942,1
6.96440860754733e-06,0.290466569556388,1
2.58133104571089e-05,0.561667633668447,1
4.60909099227562e-05,0.738770762490161,1
5.70971260272132e-05,0.844249667924351,1
6.12873128025843e-05,0.683084646084112,1
5.59754771094843e-05,0.510310264785223,1
6.34640450344078e-05,0.380264477144528,1
5.49024950372822e-05,0.244772217049526,1
4.17078264544776e-05,0.187557738608334,1
2.68698181563706e-05,0.11881662039938,1
3.70767689062622e-05,0.149460659814554,1
3.94506241079957e-05,0.132040376003819,1
3.82105577387772e-05,0.126517293328029,1
3.90328429233598e-05,0.0854900868011657,1
0.000208146528820885,0.0806959063076726,1
0.000264197766061496,0.0510912134832377,0
0.000273757686212062,0.0545855308985998,0
0.000286796528549728,0.0582291896385787,0
0.000296294321383851,0.060055035621679,0
0.000305376085443653,0.061383452585894,0
0.000294503312157921,0.0602111863264104,0
0.000291958593033545,0.0586168979863369,0
0.000301756975156485,0.058545258165296,0
0.000300158915221884,0.0635187178126167,0
0.000112489770341586,0.0790328143071288,0
1.86415070171019e-05,0.185293335710982,0
1.88490800375969e-05,0.183988613430674,0
1.79606092512193e-05,0.177255515845749,0
1.7789089153935e-05,0.181988400233221,0
1.7700360340922e-05,0.172964869877299,0
1.84783736947081e-05,0.161638662940387,0
1.94402872973296e-05,0.17012276811968,0
1.96189074355273e-05,0.182244110861669,0
2.05865772702011e-05,0.158220320021091,0
4.60543859763231e-05,0.210584868366452,0
4.28584378291575e-05,0.139266748209678,0
4.62707980186623e-05,0.0988323512779158,0
8.82138223590326e-05,0.121411666848683,0
8.75215038965052e-05,0.100535721861594,0
9.12177718411979e-05,0.101693815984969,0
0.000104183701201573,0.117268550609468,0
0.000115622465342252,0.129051430677179,0
0.000121028854968185,0.128939252460409,0
0.000130554134643477,0.147698523580581,0
0.000114803451456226,0.145882273625622,0
0.000116147490108843,0.183103392823707,0
0.000111680673807233,0.355496927877549,0
2.66569284674693e-05,0.290224767832653,0
1.95454891154752e-06,0.20075137229216,0
5.8509838199427e-07,0.17945535775452,0
7.38940808628671e-07,0.185592717250644,0
8.0956643846069e-07,0.187308059481694,0
7.96748837148161e-07,0.182056529503935,0
8.45197206486479e-07,0.190929484651067,0
8.43071260331645e-07,0.191283241479704,0
1.19686801874918e-06,0.202346628937895,0
3.66934986282104e-06,0.298819845287286,0
3.82317612445573e-06,0.254967653831152,0
3.91560958236488e-06,0.25431061942524,0
3.90734342324136e-06,0.252594532800223,0
4.10768994278681e-06,0.260792847851195,0
4.10816643723994e-06,0.257293853571777,0
3.98525374802189e-06,0.252402694183705,0
3.83816282003771e-06,0.248525016421518,0
3.6334635634536e-06,0.240192249068825,0
4.39439138296394e-06,0.296251281615724,0
2.44485262655888e-06,0.254212154287067,0
2.60474287697129e-06,0.312711939460475,0
2.96137758760803e-06,0.352230023385678,0
3.12411088843187e-06,0.380857748748925,0
1.97669533419561e-06,0.318189722942594,0
7.55969268020821e-07,0.202568841680672,0
5.10271344390156e-07,0.172860851633272,0
6.46305909953837e-07,0.188836596808945,0
6.68079542839269e-07,0.196616987632845,0
5.77691330432524e-07,0.188414048981511,0
5.76224045843004e-07,0.192998901064819,0
5.17188845152837e-07,0.195407350191321,0
3.1613902377363e-07,0.159909070187367,0
1.6202241387483e-07,0.115447330721674,0
3.22632877197625e-07,0.167332272618213,0
4.67237503879474e-07,0.205635625798648,0
4.30441115028078e-07,0.205785044180152,0
3.10531509718625e-07,0.187077794086899,0
2.61842157538402e-07,0.169606545945467,0
4.16647520771214e-07,0.198165016407073,0
4.77782057539761e-07,0.19850305166287,0
4.39109409606051e-07,0.186934061955144,0
3.09250246971979e-07,0.159921246052458,0
2.43288219557756e-07,0.141699288978814,0
8.13526241660121e-07,0.220762899269468,0
1.20094259344659e-06,0.235271809308571,0
1.31707692524566e-06,0.23867380218574,0
1.53476625125465e-06,0.252657832105718,0
1.55090327308559e-06,0.24894742439365,0
1.37708227461104e-06,0.241726655688092,0
1.33926525254686e-06,0.244615326680866,0
1.39011872515048e-06,0.23776470257244,0
1.4866163126803e-06,0.237229568144584,0
1.42718879988166e-06,0.236897014274072,0
1.68128083482591e-06,0.255199407147973,0
2.67661060051218e-06,0.322044974629123,0
2.48937949131247e-06,0.303853166033395,0
2.00919655827657e-06,0.270403776129554,0
2.04338528398162e-06,0.279003035562436,0
2.06257587425874e-06,0.27754400869635,0
1.84359421869561e-06,0.261048474214859,0
1.73643929554595e-06,0.264077173174681,0
1.74260437774497e-06,0.27053187671105,0
1.80963889071721e-06,0.276525533712141,0
1.37769318725412e-06,0.270509331255999,0
1.34616522050216e-07,0.10362500831524,0
1.00189673464744e-07,0.100067995361591,0
2.4474742164742e-07,0.141465086569993,0
2.43345418787518e-07,0.136945330449567,0
2.35540832578934e-07,0.136741227138208,0
2.15719682966779e-07,0.137004655745398,0
3.32103701838376e-07,0.144520998001732,0
1.14181848525799e-06,0.242839102719735,0
1.23569982975701e-06,0.228319210752456,0
1.32275208360717e-06,0.238811890815327,0
1.43582439142176e-06,0.250533452772865,0
1.49131274248213e-06,0.247707346681493,0
1.3973249576773e-06,0.240239078119693,0
1.52736802826967e-06,0.241501407316877,0
1.61697994765164e-06,0.238214510458176,0
1.563234556599e-06,0.227281674222387,0
1.48240159986998e-06,0.233010011861063,0
7.45538118050843e-07,0.170410048054687,0
7.03458509907957e-07,0.176105157633866,0
6.15905762797388e-07,0.166093610659909,0
4.68281016784158e-07,0.147150482854107,0
5.99203214668723e-07,0.162678175370935,0
7.0694704119262e-07,0.159223256864478,0
7.36571890093506e-07,0.170246291111905,0
6.58044311016158e-07,0.170410601646627,0
7.47968463584927e-07,0.184935063725782,0
7.69356996438684e-07,0.189028511871835,0
7.76481036159265e-07,0.196810404340224,0
9.30946810051909e-07,0.226513037435018,0
1.07175378091608e-06,0.242531187340282,0
1.11198237224545e-06,0.242336329891578,0
7.57336702650564e-07,0.20850363548094,0
4.46491591937466e-07,0.180938158285108,0
4.33211422940784e-07,0.185777158742332,0
3.77425387193345e-07,0.172652092701654,0
4.05263381894958e-07,0.176675121509396,0
4.52624468483209e-07,0.17948928219745,0
4.87093221721789e-07,0.179130376740302,0
4.41955568671268e-07,0.159615466597085,0
4.91831307484425e-07,0.158386374714922,0
4.76051780839491e-07,0.155909127010501,0
3.26985116851678e-07,0.135166190583343,0
3.21247288029741e-07,0.136968124229733,0
3.33821046538874e-07,0.135730182215972,0
3.26059857137217e-07,0.134834474192387,0
2.86164637840444e-07,0.131242449126854,0
2.48385914390978e-07,0.118938455600206,0
4.24317813136012e-07,0.146216268074331,0
5.0277028713776e-07,0.164028955567153,0
4.9890909043659e-07,0.167723432943484,0
4.97560059037292e-07,0.174156600635415,0
4.84974860682206e-07,0.179562403922836,0
5.29445396629102e-07,0.187301039717273,0
5.57204058485957e-07,0.190013462899156,0
5.62546342199484e-07,0.18947611500659,0
1.38837389995046e-06,0.268131231251677,0
2.16390804016488e-06,0.320737253045266,0
2.00731147061749e-06,0.316206259804153,0
2.13641610080332e-06,0.329529031158094,0
2.24110897015023e-06,0.337445906344836,0
2.30617844088787e-06,0.319736066555701,0
2.34434214002287e-06,0.316319984693502,0
2.21606876386084e-06,0.303811275056259,0
2.15400200399334e-06,0.297645528186249,0
2.18143388416365e-06,0.295129837411068,0
1.66201066301173e-06,0.288404968811827,0
7.97852160551789e-07,0.214342975388597,0
7.95077624869928e-07,0.225157739586579,0
7.35325444269321e-07,0.210865799163895,0
6.50727659106665e-07,0.190153552431667,0
5.50221151647506e-07,0.178481985296697,0
8.25618034485443e-07,0.202358696061469,0
8.42325183421718e-07,0.195750501442287,0
9.1071569117775e-07,0.20899614306284,0
9.51156044003377e-07,0.208651563789815,0
9.69178775224155e-07,0.205883812636828,0
8.87348438012717e-07,0.189524309811323,0
9.80983204093004e-07,0.193783903290248,0
9.52942525164195e-07,0.192867344965166,0
9.25545710608652e-07,0.196559556301245,0
8.41064935174703e-07,0.198107897139479,0
5.32942010413621e-07,0.167513215724833,0
4.85808850321351e-07,0.169901595338044,0
3.52522707747685e-07,0.14140036586553,0
2.76285584783811e-07,0.130177290409857,0
3.34613007178761e-07,0.137459869289861,0
4.00150268138932e-07,0.160729806479735,0
2.28019382557667e-07,0.136148064743473,0
2.86622356024683e-07,0.156263324631278,0
3.03233882770337e-07,0.153489160459725,0
3.63567630322229e-07,0.160152561876102,0
3.68088856396381e-07,0.158366396812587,0
4.42406199124863e-07,0.173590586537312,0
4.26210237218039e-07,0.173785471578907,0
3.56639684482808e-07,0.171937434526415,0
3.39015731370385e-07,0.180077953624584,0
3.32818319171934e-07,0.170288933679456,0
3.67944241822006e-07,0.176129205637299,0
3.37352477245857e-07,0.160488252787898,0
3.55260312622507e-07,0.16973462622152,0
3.26385271016097e-07,0.168823770520611,0
3.57731443694333e-07,0.173032432728936,0
3.14398177650469e-07,0.158515423777278,0
3.3454225421847e-07,0.170770463824925,0
4.36503114267378e-07,0.18398847832909,0
4.22081944983115e-07,0.176374580678905,0
4.01799719840626e-07,0.170771938353496,0
3.45260892491072e-07,0.155327496307178,0
3.12584713374742e-07,0.151239917874857,0
2.52518683087361e-07,0.133975836392558,0
2.65530140050318e-07,0.132356969943336,0
2.99492182720906e-07,0.13513051897706,0
2.70750315842918e-07,0.133333950993365,0
2.60423989678785e-07,0.128944406928546,0
1.53302888682373e-07,0.105205669761209,0
1.49304911214384e-07,0.110425148051277,0
1.56874110157885e-07,0.116856834280864,0
1.50619498729673e-07,0.11624022069772,0
1.43686454698034e-07,0.117254014601228,0
1.35240242346914e-07,0.118053869756878,0
1.57170053998823e-07,0.133848668672376,0
5.11295210602877e-08,0.0975590640902589,0
1.99001964607613e-07,0.150008017361252,0
2.17557394742079e-07,0.145202400721631,0
2.18406554611726e-07,0.140561914978063,0
2.60652786597829e-07,0.145167706605685,0
2.57472509423118e-07,0.141606277190241,0
3.1219675338158e-07,0.15254519218066,0
3.34324524106922e-07,0.151551949174385,0
3.39067086331018e-07,0.15817030059806,0
3.07655631923165e-07,0.142788615016579,0
4.20033839519217e-07,0.165095936603977,0
4.54863196597594e-07,0.172751233990563,0
4.236516908016e-07,0.168106263086706,0
4.31751226081907e-07,0.165064488062599,0
4.25067371738184e-07,0.167428489763821,0
4.45918604870644e-07,0.176665792107147,0
4.4465935139284e-07,0.177262915624298,0
4.41209989145949e-07,0.181955394344208,0
5.38437115547528e-07,0.185150922349372,0
6.19755519652606e-07,0.190432152581437,0
5.96513358716136e-07,0.194934359554027,0
6.28395090269549e-07,0.200068388261613,0
6.48654187027829e-07,0.205980209804513,0
6.34045379400721e-07,0.219946493948684,0
5.5041911072094e-07,0.20762083042457,0
5.53247363940318e-07,0.203885809079999,0
5.63503931913373e-07,0.209925224175273,0
5.44727165628961e-07,0.206747508013712,0
3.8109446909021e-07,0.188637092554798,0
1.59607238571248e-07,0.151187765227814,0
1.84330113481616e-07,0.164820763870367,0
1.53006944841437e-07,0.151308932279043,0
1.49139157794228e-07,0.152258440929293,0
1.02055860508772e-07,0.12130266194815,0
1.07625573333673e-07,0.121735956082322,0
1.05946278555581e-07,0.121120649023278,0
1.34392325938783e-07,0.128092398648187,0
1.61201356235456e-07,0.144953404958154,0
1.36279900520896e-07,0.136079301660412,0
9.89710811785319e-08,0.120371141176912,0
7.59133255849666e-08,0.105273588429783,0
1.69612627317962e-07,0.143006985888756,0
2.16289063995205e-07,0.15862980289397,0
4.14301481927952e-07,0.200770599665469,0
5.3295096333654e-07,0.191145540241586,0
5.85886239211152e-07,0.192059359348364,0
5.9904504636382e-07,0.200068834924084,0
6.44493564793475e-07,0.194026838455378,0
6.42027407567715e-07,0.186182350712148,0
5.8352067802208e-07,0.173000581896458,0
6.31021280992487e-07,0.179436677154626,0
6.3818759840463e-07,0.173557336961055,0
6.61918812755555e-07,0.178071710270974,0
4.77274725241012e-07,0.159865189301297,0
4.0572657130987e-07,0.161137400941249,0
3.06751013669879e-07,0.145803766139162,0
2.86915688596436e-07,0.138013978392357,0
2.8421389541329e-07,0.136830477357443,0
3.42737162997096e-07,0.149257778123667,0
3.29589422651926e-07,0.147753369808768,0
2.40639024796761e-07,0.128031210716996,0
2.15692202467264e-07,0.128878398924668,0
2.12505956677273e-07,0.128126128119068,0
1.40385188717764e-07,0.110378771502032,0
1.54200667897318e-07,0.119249598715478,0
2.48867755728638e-07,0.141263225735483,0
3.74663286126648e-07,0.161619340896432,0
3.47599719257538e-07,0.165743128050338,0
2.80973932085786e-07,0.158119651256702,0
2.79884784143445e-07,0.169493038899109,0
2.67042313600586e-07,0.170593192732894,0
2.86536681526193e-07,0.164230806335271,0
2.95926432476066e-07,0.158234000385555,0
3.23441748914136e-07,0.153544733065949,0
3.65778007514037e-07,0.152448841525479,0
3.20096837434634e-07,0.143677059719274,0
3.75216377809207e-07,0.155038340706818,0
4.38744453650947e-07,0.159102305063764,0
4.35553109668739e-07,0.161071953659018,0
4.95023397543543e-07,0.165776825065299,0
4.52731903558239e-07,0.155536045797424,0
5.02804482329465e-07,0.16997200460305,0
6.56178621356736e-07,0.197796606607445,0
6.44813880480137e-07,0.198535347771674,0
5.9567924473084e-07,0.199534950200691,0
5.98042816381486e-07,0.204014518463164,0
3.77868059493235e-07,0.171279280129846,0
2.66649255415207e-07,0.148187965610309,0
3.28252328483187e-07,0.160584035239835,0
3.31575479386149e-07,0.162079191558427,0
3.70386773278952e-07,0.169501448125951,0
3.62730158990837e-07,0.167914101338978,0
2.68763139993331e-07,0.14951276908081,0
2.32884798779597e-07,0.159012579550498,0
1.89940238805804e-07,0.14910284863503,0
2.22598512076297e-07,0.152867590162278,0
3.17755523745135e-07,0.177553694666145,0
3.78899635167359e-07,0.201338273150756,0
3.92132428280261e-07,0.187726109232119,0
4.74945100089767e-07,0.20703781449723,0
4.1864800165903e-07,0.191932251614284,0
3.97424600494669e-07,0.176711060864232,0
4.48481752094694e-07,0.177911811068197,0
5.06910889641697e-07,0.180354538685101,0
7.23920912624194e-07,0.213629571426889,0
7.57009423579412e-07,0.215466273197741,0
6.60023777404343e-07,0.198299227496953,0
6.56740044231456e-07,0.198685914592039,0
6.21408826085002e-07,0.203640629081524,0
5.77982300427397e-07,0.198478015128589,0
5.4895182613142e-07,0.205711790766864,0
5.10345952081148e-07,0.206970911396676,0
5.46129665873473e-07,0.214645808773173,0
5.55285148673628e-07,0.218324898847687,0
4.23947137257931e-07,0.183946062058646,0
3.96737214968324e-07,0.185234831156211,0
2.81270000272873e-07,0.162548714982137,0
1.51945401744763e-07,0.12617851562115,0
1.45038843443427e-07,0.120951658188159,0
1.45329813438298e-07,0.119696980884162,0
1.47394332594214e-07,0.11777834647554,0
2.22270611274384e-07,0.134705942187174,0
1.90950426941844e-07,0.123809464714646,0
1.67163505514978e-07,0.118693507422536,0
1.64108569261134e-07,0.116647928354277,0
2.78271144133427e-07,0.14100338374446,0
2.86164264801988e-07,0.141584945532412,0
2.68887486144985e-07,0.135289834699439,0
2.89969630081066e-07,0.139754784416332,0
3.06537511327489e-07,0.136685399158431,0
3.18548976538841e-07,0.131586848227618,0
3.36290063726123e-07,0.13942309231844,0
3.32578704137696e-07,0.144170136103513,0
3.35189973322437e-07,0.147774648784657,0
3.10420219912894e-07,0.1493266416921,0
2.47949583744823e-07,0.135369884501169,0
2.73555938062695e-07,0.136703764850404,0
3.08268036720062e-07,0.147557978892389,0
3.09782572847211e-07,0.146501653792911,0
3.06835569053004e-07,0.150006055027423,0
2.52133583055687e-07,0.144803818211562,0
2.31982667449345e-07,0.140458765431712,0
2.3426951752442e-07,0.137435639279993,0
2.5093488615374e-07,0.138744805584062,0
2.85574739696996e-07,0.137618010439312,0
3.11899939117581e-07,0.14072239391355,0
3.54560616827148e-07,0.146823434713934,0
3.89924662357639e-07,0.146305410362254,0
4.58985893255693e-07,0.152174039449103,0
4.33297967862336e-07,0.151289636772121,0
4.32649378335307e-07,0.154535480047602,0
4.40895642074567e-07,0.150417500820889,0
5.66973686929136e-07,0.16704244229116,0
5.69911613454272e-07,0.165554758648971,0
5.30169712962487e-07,0.164025586625836,0
5.32130900466379e-07,0.16674532988685,0
4.2885831286367e-07,0.160571551325186,0
2.90372511612426e-07,0.144023958318548,0
2.1264025052106e-07,0.136103139394259,0
2.10130074757614e-07,0.137630472287686,0
2.34849467975736e-07,0.144871387436552,0
2.2825116378435e-07,0.151772024642017,0
3.14579598685732e-08,0.0874977136855232,0
2.84678079597417e-08,0.0911142953604407,0
5.94936649513161e-08,0.102221339736793,0
7.76835173999177e-08,0.10698860789399,0
1.06674076581214e-07,0.121475118051344,0
1.28212322201563e-07,0.129414960939683,0
1.32087943056325e-07,0.129046960282909,0
1.74190555237267e-07,0.127463467799147,0
2.28826264735752e-07,0.130853091724199,0
2.38044791034797e-07,0.127790793570397,0
3.97289311881669e-07,0.156138945268522,0
4.6509278145574e-07,0.158638445218437,0
4.28355954410986e-07,0.15615638908068,0
4.44136102786679e-07,0.163921625756423,0
4.44091213825932e-07,0.161244169525846,0
4.40999471111198e-07,0.158256587758237,0
4.5843093638086e-07,0.159926364244881,0
5.01417774046216e-07,0.180425992262475,0
5.53558229319453e-07,0.19536144001159,0
5.49285695548611e-07,0.199641889204593,0
3.20643463117307e-07,0.157130883077374,0
2.65183960364113e-07,0.1509803640128,0
2.77839041256428e-07,0.1508372555088,0
2.84437718486268e-07,0.151717346124267,0
3.1540849013266e-07,0.156973953889223,0
3.66775387996456e-07,0.167448125280002,0
3.82022713112309e-07,0.171832132362978,0
3.63612021898369e-07,0.163583813225627,0
3.10335167145163e-07,0.150667427150285,0
3.38686587106957e-07,0.156586228781184,0
3.75097005503618e-07,0.168831704084492,0
3.28241012983387e-07,0.151579039843996,0
5.32718809071402e-07,0.188597300884859,0
5.10151847738416e-07,0.180894013842555,0
4.57394262514518e-07,0.17318926995173,0
4.46535361782849e-07,0.176725874423149,0
4.2969192946436e-07,0.17282767227021,0
4.51673344769205e-07,0.180416492528118,0
4.00321368443608e-07,0.173809830836805,0
3.88657699418432e-07,0.169804871053788,0
3.48191606939414e-07,0.163194479112125,0
3.11783053735026e-07,0.171595386764585,0
1.73212572754506e-07,0.130336608003718,0
6.31555596406146e-07,0.233477461131668,0
6.74062084887662e-07,0.221690697769188,0
5.97437872353687e-07,0.211610179131963,0
5.66398088593127e-07,0.205320647152131,0
6.30725958882309e-07,0.204652331513864,0
9.15592049861026e-07,0.239362769928025,0
8.74062300400756e-07,0.228092320984943,0
9.59282189360139e-07,0.229652707855897,0
1.01745131910403e-06,0.231195173145541,0
1.15054758510412e-06,0.258593842270683,0
9.15625374629669e-07,0.235915254932374,0
8.81192806121221e-07,0.243290875577121,0
9.97982317793363e-07,0.245534945291474,0
1.00025188375336e-06,0.241638421351541,0
8.52082874634337e-07,0.239913115701633,0
6.85347741611808e-07,0.208283591262159,0
8.69502278327288e-07,0.213304878622735,0
8.18753132144911e-07,0.209575748195842,0
7.92318135072414e-07,0.205288328258907,0
6.83399859146143e-07,0.186949488618485,0
5.99024156210341e-07,0.172607390254992,0
6.40425829134407e-07,0.181449821745862,0
5.61789322828211e-07,0.178797079675429,0
5.62011778093521e-07,0.181549988161428,0
5.85155581224032e-07,0.185059352258347,0
3.06564370096246e-07,0.151085857520457,0
7.35179213194978e-08,0.102410085001622,0
7.03938486053342e-08,0.103831476084773,0
6.15060830696897e-08,0.104416774140081,0
5.48466005716906e-08,0.111350337173326,0
4.48087574793949e-08,0.116585018770003,0
3.69546815024527e-08,0.109737650459999,0
4.48724227090424e-08,0.112284950769313,0
5.60586025118654e-08,0.112052758325893,0
5.45226788466312e-08,0.109362114356865,0
5.88917052311572e-08,0.115401404459551,0
5.75736360236216e-08,0.116869255988914,0
3.95783853023591e-08,0.111226880896807,0
1.34029235175953e-07,0.139814115043456,0
2.06921322314174e-07,0.153289969435838,0
2.04837280812447e-07,0.148757554251387,0
2.21793122052032e-07,0.149979870190555,0
2.13938424344331e-07,0.145077137746741,0
2.13063649167443e-07,0.1514076919577,0
2.53894946293871e-07,0.158701291407036,0
2.36831172594651e-07,0.145433798836441,0
2.50922078500119e-07,0.147462085853071,0
3.10432032797302e-07,0.161584927967105,0
2.29849757910019e-07,0.152569683716906,0
1.30319243395194e-07,0.130172601971101,0
1.35712757723201e-07,0.128568417409122,0
1.0653319239139e-07,0.121421211571554,0
8.49806469636002e-08,0.11614115308339,0
1.00003651621869e-07,0.119690863524474,0
7.90676144139823e-08,0.113687644315395,0
8.11030365704117e-08,0.113976368884758,0
1.04135798587494e-07,0.117509583398823,0
2.58980206511926e-07,0.162543284617628,0
3.64656902610721e-07,0.180368829064511,0
3.80843911594626e-07,0.17530651109596,0
4.41025335110742e-07,0.180768872278155,0
4.41060276379357e-07,0.181669688256796,0
4.72459047479743e-07,0.182581648842675,0
4.15116570952047e-07,0.170135145072976,0
4.18274590165612e-07,0.165118512720425,0
2.96230707509165e-07,0.138962765850638,0
1.62086079104477e-07,0.114385360608197,0
1.63466818772446e-07,0.119036818501675,0
1.60907277586794e-07,0.121865258826267,0
1.92880154869367e-07,0.138657106547641,0
1.70751513720963e-07,0.130363108168992,0
2.27168854880351e-07,0.142923703955327,0
2.03770515177405e-07,0.139874947592821,0
2.18840771373303e-07,0.147316500517606,0
2.27935448905301e-07,0.158720682811314,0
1.40518612138488e-07,0.139707378050918,0
1.61002402392809e-07,0.139863290743259,0
1.97813215397798e-07,0.147128790825744,0
2.51840126137783e-07,0.150879293369559,0
2.51936743097619e-07,0.147613422611823,0
2.82543677904269e-07,0.154329341957077,0
2.2562111833071e-07,0.132805282769154,0
2.68582091996522e-07,0.137557831978112,0
2.55450143612612e-07,0.1347952702631,0
3.29692754303951e-07,0.146886067313183,0
3.39772750741656e-07,0.146205210551901,0
3.35701782082646e-07,0.146607002089521,0
3.28388238826944e-07,0.148155626696086,0
3.05130534621519e-07,0.149503047763829,0
2.89651303932831e-07,0.151985837279223,0
2.59255135853234e-07,0.148722664041763,0
2.4578397116761e-07,0.156693204720057,0
2.07699356185075e-07,0.147759509780679,0
3.19023854492009e-07,0.169359746050908,0
1.87981538224945e-07,0.135304221792035,0
2.83776818690226e-07,0.159026636249552,0
3.40874084606859e-07,0.156440019689477,0
3.99050053389095e-07,0.165559988575534,0
3.79058176510718e-07,0.163204790067915,0
3.83480050009698e-07,0.165598388212792,0
4.58994846178612e-07,0.176724860180075,0
5.58243965352243e-07,0.199373697475256,0
5.01663482041885e-07,0.194818486601978,0
4.84938427259771e-07,0.192775552237713,0
4.67326038339453e-07,0.200991378411919,0
2.63441124702525e-07,0.16372786067061,0
1.4728204801927e-07,0.156874873471535,0
1.39943511187087e-07,0.153967783078896,0
1.78330660356598e-07,0.171637306115862,0
2.43832233971244e-07,0.177586569586298,0
1.81464183378287e-07,0.158831850621047,0
6.34876633424529e-08,0.111950751259837,0
5.80143187850847e-08,0.114957907574273,0
4.84635395688189e-08,0.11297073337562,0
1.07735992716342e-07,0.135922408285805,0
1.13447460154128e-07,0.129507459837698,0
1.13665687650282e-07,0.125821865262665,0
1.12218298445026e-07,0.129026657019322,0
1.18531725602971e-07,0.127774254195357,0
1.02723226304701e-07,0.123732920081302,0
1.19261264474727e-07,0.126487675551025,0
2.08675224783258e-07,0.151996587135927,0
2.03770515177405e-07,0.146618517753952,0
1.89524922659279e-07,0.144156503086307,0
1.4972706639925e-07,0.13522137516118,0
2.04376827012872e-07,0.149079361578367,0
2.54712149202543e-07,0.155098346098707,0
2.61339799085719e-07,0.149962331258297,0
2.79658847185889e-07,0.1560508081767,0
2.73488293756195e-07,0.158034881217972,0
2.77641579567601e-07,0.169182594262529,0
1.46808040489164e-07,0.13437661627962,0
1.00003651621869e-07,0.120558660031741,0
1.00936247759277e-07,0.119208153875035,0
8.8782530550431e-08,0.111351687269971,0
5.99391972126934e-08,0.106977820400314,0
6.37846019526033e-08,0.11382708394427,0
6.64779395974363e-08,0.121277282502022,0
6.36894771465878e-08,0.117799479860857,0
5.34235832121584e-08,0.107007239042085,0
2.02777486810296e-08,0.0908436792671266,0
1.84165354830675e-08,0.0897919557909091,0
1.96480597690519e-08,0.0905218422329443,0
2.3841633733594e-08,0.0914740754842099,0
2.9951879279736e-08,0.0934215226950013,0
1.30563459237044e-08,0.0798535907457482,0
1.73686704630765e-08,0.0850569293016103,0
5.29829004506954e-08,0.103556049105764,0
8.10159942642534e-08,0.119984635246959,0
1.12964375354952e-07,0.124137120761802,0
1.45161075710503e-07,0.128439113733873,0
1.48476765844366e-07,0.129526780353128,0
1.43940618232016e-07,0.123525363894823,0
1.68005577653981e-07,0.134967921295545,0
2.51704837524783e-07,0.159593258569934,0
2.64459395338422e-07,0.165531412994064,0
2.65607856395101e-07,0.165837277485038,0
2.64376332109118e-07,0.167586865268096,0
2.89486172243434e-07,0.166135766815239,0
2.93212702062362e-07,0.184999778553282,0
2.69800684282734e-07,0.178434873397054,0
2.72666241347608e-07,0.179734877800043,0
2.79486876458151e-07,0.16765685859618,0
4.26586259980641e-07,0.190941933514815,0
3.01015547424823e-07,0.165642168950681,0
2.40264991572585e-07,0.144781097319681,0
2.35388632889309e-07,0.135285713309952,0
2.95600148174125e-07,0.136273096010059,0
3.26024045445541e-07,0.137360226882956,0
3.71664056948746e-07,0.140965976172666,0
3.67860681208095e-07,0.141466549794857,0
2.63550673662133e-07,0.122026887525794,0
1.58794512124035e-07,0.103096807336613,0
3.14057966579542e-07,0.135916612461489,0
4.03606096385709e-07,0.15445713229341,0
3.99318641076668e-07,0.157916384151579,0
4.03417711965953e-07,0.165315537243585,0
3.80701535250983e-07,0.176972534947908,0
4.13057025642195e-07,0.197806544844617,0
3.3868608972235e-07,0.189338432195247,0
3.25273989458762e-07,0.184848310595753,0
2.83398806389196e-07,0.171239067575679,0
1.21179801248601e-07,0.128763845790536,0
1.31507868258858e-07,0.134743836277011,0
3.58745113522619e-07,0.195400558988336,0
4.61899572281258e-07,0.214563554318181,0
4.76303830488895e-07,0.209725705198782,0
5.0006886699307e-07,0.1986485095385,0
6.47934968886661e-07,0.216137959841627,0
6.14050642560856e-07,0.206322102665842,0
5.67955524142598e-07,0.205192184959399,0
4.46460754091856e-07,0.182112380081772,0
3.94924745461811e-07,0.168584209549578,0
3.65173809563147e-07,0.165082875635247,0
3.43343972217169e-07,0.162148552104454,0
3.42134332853876e-07,0.163519772062678,0
3.03867177720712e-07,0.160158697579165,0
1.97968399395063e-07,0.145034331949988,0
2.30132396712729e-07,0.161259144336799,0
2.2462821430975e-07,0.162955633413089,0
2.76883441080965e-07,0.170929125479691,0
2.25468918641085e-07,0.156894657481821,0
1.61528137922003e-07,0.137555999991785,0
9.52823525897061e-08,0.115378319582404,0
8.71411613485943e-08,0.105794360238798,0
2.15251519705801e-07,0.136742791326811,0
1.95237757904734e-07,0.130219565074972,0
1.72348118308205e-07,0.1212281759263,0
1.61972675414168e-07,0.112927515356002,0
2.67746610203556e-07,0.140236763510637,0
2.22748100496737e-07,0.129464421301485,0
2.14339938068023e-07,0.128582275108819,0
1.88709087558275e-07,0.118664029462654,0
2.04943845464415e-07,0.124414062475671,0
1.85711847918799e-07,0.126853657283516,0
1.51872907938349e-07,0.123901618456685,0
1.95893310816255e-07,0.134454047242075,0
2.7402161440064e-07,0.15192252138076,0
2.83576372693758e-07,0.149416815677824,0
2.84338241564945e-07,0.149806013133752,0
2.83909620380193e-07,0.155486717119504,0
2.8631845403004e-07,0.151926572892912,0
2.95575776328401e-07,0.158152172106388,0
3.02668480818764e-07,0.156566026922352,0
3.13804922160926e-07,0.157366620002975,0
3.17694469784672e-07,0.161504327354375,0
2.97362754873826e-07,0.165056697759007,0
1.84150060254021e-07,0.136821974090876,0
1.42305715030065e-07,0.140457445540788,0
1.76798715768217e-07,0.144476373931923,0
1.51655923903712e-07,0.13005151487658,0
1.67093871670052e-07,0.144825985104771,0
1.6258843755716e-07,0.139506450378278,0
2.43101700330275e-07,0.164379001409685,0
2.43608410898267e-07,0.168496747162573,0
2.44046731082848e-07,0.164399998463934,0
2.83723101152711e-07,0.17552446048382,0
2.39914832809526e-07,0.172345330056608,0
2.61566606466336e-07,0.166827367417959,0
2.472225317961e-07,0.162830361390039,0
2.50535113276172e-07,0.158835582851795,0
3.16930984413516e-07,0.165673315927421,0
4.42101675399462e-07,0.189451561911614,0
3.75584442418103e-07,0.174092678149732,0
3.60209289458349e-07,0.169058646040922,0
3.59360378281005e-07,0.168962671042296,0
3.00458476665412e-07,0.148491844655756,0
3.27795356375857e-07,0.149465185056524,0
3.49836830871953e-07,0.157610017913709,0
3.27308416845979e-07,0.150382655712975,0
3.05788574456074e-07,0.145664322824625,0
2.39828287887976e-07,0.131755397381129,0
1.68049720537818e-07,0.118272277396142,0
2.20275104232636e-07,0.134529289951072,0
2.89794550699537e-07,0.143604277937481,0
3.0796500514848e-07,0.142266171428231,0
5.14516024623028e-07,0.169425426289887,0
1.51082899533043e-06,0.207101513871042,0
1.3107425706304e-05,0.393808995886079,0
1.67351252038976e-05,0.388239247644739,0
1.98945809885526e-05,0.354652125906344,0
0.000130954029877659,0.131128155242995,0
0.000389344097636333,0.139773725795018,0
0.000382109858252735,0.10264092701043,0
0.000371326003905281,0.0987573231471034,0
0.000371574992276777,0.0998838579137788,0
0.000376846913352581,0.0940789830872757,0
0.00038512723512974,0.0922887320331323,0
0.00040755500835441,0.0932688025945842,0
0.000423882014069656,0.098311541499364,0
0.000435508926372402,0.0983555158030082,0
0.000361285556507186,0.18123894008287,0
5.17480809916921e-05,0.137142899194069,0
3.38850860807907e-06,0.282491943888638,0
5.92015385372345e-07,0.184707328289101,0
5.59991899206048e-07,0.194122327068602,0
4.99880482573313e-07,0.177597013827051,0
6.44435743832957e-07,0.189658345396022,0
5.81516591095867e-07,0.169035594254028,0
5.1934550480713e-07,0.160192040772832,0
4.78518186757555e-07,0.152111712411847,0
5.30783361220902e-07,0.154212640325178,0
1.15990736863145e-06,0.20437312100989,0
1.84579576731065e-06,0.221570744539672,0
1.8903271085257e-06,0.222039364305271,0
1.96375550061601e-06,0.22629547732451,0
2.03881183252377e-06,0.227506555791085,0
1.99501413360348e-06,0.230276396485624,0
1.94055250871731e-06,0.239551192754242,0
2.01612015200068e-06,0.250611545194868,0
2.213135189451e-06,0.271527077927878,0
2.19887765970232e-06,0.27261478421643,0
1.38832478322056e-06,0.259917762685689,0
1.44926931906938e-07,0.124623550877949,0
1.32552375932754e-07,0.125812712898759,0
1.27282088641038e-07,0.121791694215069,0
1.50318954081124e-07,0.130181607141812,0
1.42247023646484e-07,0.12921103300639,0
1.43718287312858e-07,0.124235454131525,0
1.42395617297711e-07,0.118788990204778,0
1.2646898915537e-07,0.110117060222764,0
1.20255163264899e-07,0.110505181560899,0
1.13168303043664e-07,0.104240039882834,0
1.97872901550592e-07,0.12338625373763,0
2.09631073651025e-07,0.117672139072862,0
6.98553302917498e-07,0.188089151188136,0
7.30283953896649e-07,0.185563958653873,0
6.26855311873613e-07,0.174216400465837,0
6.17380010771401e-07,0.175138298052378,0
6.39836925760173e-07,0.184510575544157,0
5.78260711460951e-07,0.172158975955699,0
5.51314403012851e-07,0.169451580695678,0
5.38241270358674e-07,0.173828409444358,0
6.86656360511818e-07,0.192471745410284,0
6.92410478679622e-07,0.190301768786828,0
6.06380847580666e-07,0.183885104999017,0
6.40411902365423e-07,0.184632933936865,0
7.28388918545437e-07,0.186994915267261,0
6.9543569620322e-07,0.173964097439406,0
6.22204765801741e-07,0.166957695497675,0
6.39266923000989e-07,0.155921475141202,0
9.87680487821105e-07,0.173628127497728,0
1.22737945571136e-06,0.184592690357059,0
1.17460856544924e-06,0.18066496374014,0
1.52257336500803e-06,0.208243138416697,0
1.54050296096122e-06,0.209132809249505,0
1.49085266172101e-06,0.21613606198079,0
1.43784389727077e-06,0.213851510065249,0
1.65380319527179e-06,0.235055644290385,0
1.74625207210375e-06,0.238036583001745,0
1.53052841006012e-06,0.251728077752299,0
5.19313299153851e-07,0.171072498953161,0
5.21131239891038e-07,0.184119615941502,0
4.42623929236411e-07,0.17363003221943,0
4.10481568149131e-07,0.17980180044737,0
4.54713359484851e-07,0.198331211796663,0
3.65053815526802e-07,0.170495972603237,0
3.50656147665202e-07,0.180332633292064,0
4.25939286953584e-07,0.149840076083917,0
5.56898104779813e-06,0.367056690430293,0
7.38145614988842e-06,0.301050365628302,0
7.20643284847352e-06,0.29837628693645,0
6.7990903989229e-06,0.288906676411258,0
6.7349788909376e-06,0.287786242062814,0
6.55540626121828e-06,0.284059216698611,0
6.48844187947557e-06,0.282415479843113,0
6.25802000492179e-06,0.27775154133532,0
5.75250813383236e-06,0.264741211631875,0
5.91866294336512e-06,0.297565594548748,0
2.42177311038877e-06,0.253816627372385,0
7.52308517316119e-07,0.208721994639738,0
5.46295792332083e-07,0.17848125670838,0
4.71452465382102e-07,0.180399827535053,0
4.69893164640357e-07,0.178556733333003,0
3.98030414945529e-07,0.167092644513942,0
3.11694394928897e-07,0.151049456729911,0
1.53693335598568e-07,0.115012016161306,0
1.50619498729673e-07,0.118745143364505,0
1.83219080616585e-07,0.125453044034732,0
2.75734109601224e-07,0.142482207419774,0
2.23275328179751e-07,0.128985267276064,0
2.06397203284951e-07,0.129029745200378,0
4.20356642128912e-07,0.164404677579075,0
4.7331119165703e-07,0.164818452587048,0
5.23959244418112e-07,0.173128828818306,0
5.51725242697917e-07,0.177141493780923,0
5.51768639504843e-07,0.179930552148177,0
5.62919505000597e-07,0.177037372238066,0
5.68430402095766e-07,0.18114279312928,0
5.29301155093182e-07,0.187065493064965,0
4.99629303346972e-07,0.186524364676581,0
4.60405428922979e-07,0.174495312141391,0
3.71497930490136e-07,0.175747019818698,0
3.5184141518277e-07,0.185001624058847,0
2.95245885988062e-07,0.170612683363908,0
2.43885081085697e-07,0.154114336132217,0
3.56850078171407e-07,0.173786609478246,0
3.28024526333356e-07,0.169288416412543,0
2.24582454925941e-07,0.13675950331374,0
2.4764120528872e-07,0.142310614953228,0
2.1754545751152e-07,0.14062982784568,0
1.58751737047866e-07,0.127419268610949,0
1.77956751478573e-07,0.130842792116377,0
1.98087896046803e-07,0.132888929597265,0
2.34261559370715e-07,0.144719364834841,0
2.78609987396685e-07,0.157337122104321,0
4.00414503711197e-07,0.178399453870042,0
3.76663393976008e-07,0.179975192742174,0
3.66890159494432e-07,0.184017514214993,0
3.57529381197895e-07,0.170276638893149,0
3.95204399956881e-07,0.16497310566842,0
3.75032345504758e-07,0.154187352886273,0
3.09003544207097e-07,0.141907093459164,0
3.5104908150443e-07,0.150834325070722,0
3.48419284743092e-07,0.148063302373952,0
3.80727399250526e-07,0.151040265033511,0
2.33858677839354e-07,0.1241569324994,0
2.28011051365506e-07,0.119854377457273,0
2.93580642325107e-07,0.131744197904252,0
2.33448832923501e-07,0.122544039728379,0
1.52615876194483e-07,0.109168727389422,0
1.48745353531939e-07,0.109661123357742,0
2.1260045975253e-07,0.125738371611065,0
2.11072618587154e-07,0.126545701409743,0
2.07911117681343e-07,0.129458176044679,0
1.58169797058124e-07,0.117820965342572,0
1.3840659275264e-07,0.116271039913574,0
1.35061308234684e-07,0.12206907388413,0
8.25602491216486e-08,0.111903632836386,0
9.29605612460165e-08,0.110075243884309,0
1.10770909239769e-07,0.115173463925661,0
1.02659561075055e-07,0.115146289019991,0
6.89458376693198e-08,0.107650855804269,0
8.20187216311939e-08,0.113457502971874,0
9.35918666579657e-08,0.116319724912215,0
2.20893477644812e-07,0.146774971741731,0
4.3296981836812e-07,0.179242230712416,0
4.53980338920849e-07,0.184220075243683,0
4.35160175829511e-07,0.184309888515875,0
4.28874353517232e-07,0.188810947822435,0
4.32440476800527e-07,0.191626769358464,0
4.42690578773697e-07,0.190660902934897,0
5.34269032544076e-07,0.198939668328534,0
5.09440587750953e-07,0.183847171085265,0
4.81590158434177e-07,0.178982533018251,0
4.10930706448907e-07,0.179567551824291,0
3.63050972062105e-07,0.183402310884825,0
3.41996059933237e-07,0.174502796459655,0
3.18890182378981e-07,0.162668275149669,0
3.04352998135225e-07,0.158447073343591,0
2.49283196221315e-07,0.142478438181564,0
1.87941747456416e-07,0.128067312944529,0
1.64080591377012e-07,0.125343992077795,0
1.55135626611607e-07,0.131686022982104,0
1.62074141873918e-07,0.129126483216652,0
1.77749715136069e-07,0.131161657336629,0
1.33964948215547e-07,0.119079241892277,0
1.23194706290008e-07,0.115279256861723,0
1.28414136005698e-07,0.117047898738083,0
1.21776165391936e-07,0.112219160632086,0
1.27379576023934e-07,0.116664262569254,0
1.29772617712522e-07,0.123325507411438,0
9.45030752572884e-08,0.109310231938661,0
1.21187759402307e-07,0.120453125747138,0
1.34494165436989e-07,0.125032547326706,0
1.22445147687836e-07,0.127319827140503,0
1.43198396052791e-07,0.129664120484226,0
1.47873935701146e-07,0.132703393729561,0
9.21852629904517e-08,0.119299696995013,0
6.71403315472988e-08,0.115425887521219,0
6.50380111612793e-08,0.114426649349302,0
7.50149246392641e-08,0.113679805247925,0
2.95323477986695e-07,0.181181489949921,0
2.989016628467e-07,0.166148261513862,0
2.6188630042224e-07,0.154241660944614,0
2.65627627433215e-07,0.152632517021007,0
2.67427786670714e-07,0.155970156674156,0
3.32475123793368e-07,0.165665788146644,0
4.29346371508912e-07,0.170285277793973,0
5.75707138890577e-07,0.183634313871507,0
5.77425229667985e-07,0.177155453099337,0
5.96770382211606e-07,0.178587905430962,0
5.36771871884574e-07,0.168350962591883,0
6.14468321284264e-07,0.182964966309668,0
6.35617114757632e-07,0.182937400252921,0
8.04509031780604e-07,0.201413224926422,0
7.9592417347039e-07,0.195355093125686,0
7.38122735296938e-07,0.194858967864982,0
7.60565723516724e-07,0.211933231637275,0
6.29335768906813e-07,0.20210986844536,0
7.36471791441423e-07,0.214256190680118,0
7.17528401313797e-07,0.210689604689057,0
6.58837142079105e-07,0.208543136015636,0
5.1872688270265e-07,0.188652393400794,0
5.27536061470448e-07,0.196133318075497,0
4.39241713911413e-07,0.171497519457136,0
4.73250883773478e-07,0.170171597135905,0
5.0577983704625e-07,0.17136277975453,0
4.50918936667119e-07,0.157815539403615,0
4.29808317462309e-07,0.150826313662432,0
3.78461314982778e-07,0.14544152363289,0
4.08958949522125e-07,0.151791851180627,0
4.38501729962918e-07,0.152480004722105,0
4.51600353578185e-07,0.156009644672158,0
5.58629562768524e-07,0.175635412583741,0
4.05833011615686e-07,0.155680809925343,0
3.56591935560573e-07,0.157461090057583,0
3.5106338131187e-07,0.160651801940598,0
3.18879737302242e-07,0.159299072651896,0
3.03349275999071e-07,0.165356879545164,0
2.96599766887275e-07,0.170748660336449,0
1.64228438951329e-07,0.139097414513128,0
1.44992089290405e-07,0.145735004220078,0
1.41463642891062e-07,0.14323893374322,0
6.75696988089613e-08,0.115813316203335,0
1.18720110022727e-07,0.140484394674296,0
1.24350628115787e-07,0.140096484008703,0
1.16591428252556e-07,0.144354707876452,0
9.97190232807327e-08,0.130006154430648,0
1.16074645646281e-07,0.124935204980629,0
1.28234082778103e-07,0.123047405268386,0
1.73660218900461e-07,0.141277034334309,0
1.99423871100177e-07,0.14093247209394,0
1.51233146988087e-07,0.123226607614185,0
1.55655517871673e-07,0.119250399037785,0
2.87663755044788e-07,0.155413442011762,0
3.53536004537517e-07,0.176933386646815,0
3.6257783495506e-07,0.169557274081362,0
3.4944588657115e-07,0.166857175149458,0
3.80381343910472e-07,0.175620520484083,0
3.95238719494738e-07,0.176528369305107,0
3.76170361484698e-07,0.161170887135315,0
4.09012667059639e-07,0.170585891237,0
4.34121761117046e-07,0.175261762534739,0
4.1113463413762e-07,0.177838360881111,0
3.00433607435081e-07,0.147891900050148,0
1.75752218555894e-07,0.116607202423274,0
1.42452319142865e-07,0.108351232035901,0
2.07547032149298e-07,0.125670094934214,0
1.95824671740542e-07,0.123906185853832,0
1.7093616775617e-07,0.12340445238227,0
1.48442819344964e-07,0.125240684341367,0
1.52146469471988e-07,0.120635458066982,0
1.7961988125695e-07,0.124507627500932,0
2.4117334021042e-07,0.141247807628915,0
2.53093535346459e-07,0.141915952949292,0
2.80886392395021e-07,0.142859237276063,0
2.88876005677266e-07,0.145267065503661,0
2.57792825109779e-07,0.144484124411639,0
2.96698870770143e-07,0.147807146599088,0
4.11037022408571e-07,0.162734510818115,0
4.60032390468016e-07,0.167941719906465,0
4.37155807217411e-07,0.169891629225922,0
3.85043702866751e-07,0.169892836201593,0
3.69387030219651e-07,0.16924054620317,0
3.79348649120983e-07,0.187504755559198,0
3.20829982344788e-07,0.184680700724655,0
3.33403367815468e-07,0.18532333116982,0
4.26261965217128e-07,0.199427117412434,0
3.49665854913427e-07,0.195259893122121,0
8.68825213531531e-08,0.124449296939647,0
9.52441783211481e-08,0.137436766931219,0
8.93576315018324e-08,0.14018233246783,0
6.07539131983326e-08,0.122927742205955,0
6.0212758746333e-08,0.122642324934587,0
1.00922694028746e-07,0.133272826991123,0
4.50679570325184e-07,0.213032120566373,0
4.6734692849293e-07,0.198591015528757,0
3.70916114846545e-07,0.17695181292723,0
3.17758508052775e-07,0.168757102615785,0
3.45313615259374e-07,0.175086169319176,0
3.69372730412211e-07,0.178398943382264,0
3.65047473873067e-07,0.173655865774713,0
3.1795808362618e-07,0.156323342234554,0
2.92983407758712e-07,0.148277719707298,0
3.07542849963614e-07,0.161336372667697,0
1.46108096001502e-07,0.13082581195869,0
1.20126713690241e-07,0.131189887327157,0
1.30844481539782e-07,0.133200965629416,0
1.51234266103452e-07,0.138451223720367,0
1.432855627051e-07,0.137140265077115,0
1.24309718231892e-07,0.121443186714675,0
1.48091292774237e-07,0.129400765148767,0
9.719031994069e-08,0.121511356646231,0
5.68743132667178e-08,0.107812243833063,0
5.88439563089222e-08,0.107097743041333,0
1.08928596656859e-07,0.124466914718518,0
1.66643738601063e-07,0.137091497732559,0
1.80246585861288e-07,0.139605687794221,0
1.95163150213741e-07,0.14071682434119,0
2.13802140962118e-07,0.14619268850154,0
1.99679402441826e-07,0.145538046725669,0
1.88150027260437e-07,0.145618540964562,0
2.5489904146848e-07,0.158966851287556,0
3.36757605256343e-07,0.179268293056307,0
3.45164026838934e-07,0.1749890469349,0
3.11040831555801e-07,0.166531962440891,0
2.56629566861052e-07,0.163332116844814,0
2.52495679049304e-07,0.166448957681543,0
2.089338647787e-07,0.155128584917363,0
9.87472581055539e-08,0.117134482877369,0
9.10387914721989e-08,0.115300125655227,0
9.18066289586642e-08,0.118975370067146,0
6.79626326481888e-08,0.114051008584235,0
1.74227610390462e-08,0.0891505764433839,0
0,0.0825477919074984,0
3.58130594841144e-08,0.10235556991205,0
4.31813150465432e-08,0.101849392144562,0
7.16000062763814e-08,0.108808460092974,0
8.029714916154e-08,0.107960740240457,0
7.26195203737952e-08,0.106213056138919,0
1.04017421051119e-07,0.120562795607592,0
1.10047836367899e-07,0.117871819362454,0
1.23206519174415e-07,0.114042493096628,0
1.6857296914398e-07,0.12811821336458,0
1.89007518322245e-07,0.137148807628137,0
1.81987058945994e-07,0.12914692459664,0
2.36379547371842e-07,0.140666624769468,0
1.93600367779749e-07,0.134763432864971,0
2.12959198400053e-07,0.140880339454918,0
2.30738086817437e-07,0.143013491734168,0
3.27011975620435e-07,0.156789935356385,0
5.07001537986253e-07,0.188402645308448,0
4.94633448011955e-07,0.192055419016867,0
4.23114515426454e-07,0.175498464212371,0
3.27532239918957e-07,0.148152220591351,0
3.16714000378878e-07,0.151983014155748,0
3.16018283660372e-07,0.151835132870871,0
2.09932613068787e-07,0.130585039458481,0
2.24094147588395e-07,0.142116300517722,0
2.66552389763068e-07,0.150397111695532,0
2.15493248624617e-07,0.150299146438252,0
1.30763780887358e-07,0.123664199650141,0
1.80758518967649e-07,0.133164908427025,0
1.69607156087289e-07,0.125591206607096,0
1.82466910745227e-07,0.125247515977247,0
2.7855925416681e-07,0.149866871394093,0
3.26666666357291e-07,0.168978117418656,0
4.07745331081978e-07,0.182568286721919,0
4.51328159852213e-07,0.188324930848077,0
4.72274144752234e-07,0.184181005011533,0
4.82725065760324e-07,0.182499685804023,0
4.26576934019267e-07,0.179156827424154,0
3.11672634352358e-07,0.163656184959293,0
2.58731514208618e-07,0.153502521176964,0
2.83613054808496e-07,0.167470752831458,0
2.47569706251519e-07,0.156927088190622,0
2.1594599296279e-07,0.144975946863539,0
1.48893449798559e-07,0.126558043693921,0
9.53519864346325e-08,0.109561274873487,0
7.17560606967076e-08,0.10660312015654,0
5.47461288811537e-08,0.103493965264041,0
6.59277078763661e-08,0.109527177689712,0
8.52790777275705e-08,0.11301987543751,0
1.0602586009264e-07,0.112764723842507,0
4.51887593188507e-08,0.0881193972897188,0
5.45425742308957e-08,0.0911119302678705,0
9.72575912087352e-08,0.110268986027397,0
1.24295418424452e-07,0.113162097352071,0
1.7396524001047e-07,0.125496103320708,0
1.88622169598268e-07,0.133999049706332,0
1.86262079639869e-07,0.130346666895941,0
1.86237707794145e-07,0.127579827705725,0
1.72834560453477e-07,0.12654309459979,0
1.48000147045075e-07,0.126272584044902,0
1.37425750308391e-07,0.132757499817641,0
2.7164411598101e-07,0.165621506016104,0
3.7652151501697e-07,0.176092667348768,0
3.43496296252946e-07,0.178887247667379,0
2.7947481488144e-07,0.165213439523815,0
2.45642713939332e-07,0.152823537856959,0
2.68136559735144e-07,0.15687151675868,0
2.90315436728816e-07,0.162164646232884,0
3.60359623955698e-07,0.180556964205156,0
3.81025954360648e-07,0.178923512544103,0
3.77922771799963e-07,0.174522917675905,0
2.30089497290409e-07,0.155349484568496,0
3.47317453493283e-08,0.0974856456828969,0
4.04348815949539e-08,0.0972947726290779,0
5.12370804814688e-08,0.101079235381292,0
4.42606396429027e-08,0.0969682540599441,0
1.2924787695254e-07,0.13416131924332,0
1.33317353457732e-07,0.131243737199401,0
8.6860263392007e-08,0.113920590915159,0
8.35073937587997e-08,0.117368509691315,0
3.97849988679479e-07,0.199364393537995,0
4.82327779805788e-07,0.201793048983551,0
4.14586980692151e-07,0.182625345256862,0
3.71873953252738e-07,0.173257076347373,0
3.85094436096626e-07,0.176012615642021,0
3.58929643211674e-07,0.174179066145389,0
4.02457137944423e-07,0.188853545486853,0
3.96258357938303e-07,0.190727463924621,0
4.04968930207841e-07,0.184125109917132,0
4.78876303674319e-07,0.200015317273073,0
2.79304709345979e-07,0.17100640094252,0
1.4146053423727e-07,0.135151000028412,0
9.09607020889601e-08,0.120666737853592,0
4.52564036253507e-08,0.0999093173488945,0
7.86006946145198e-08,0.110973705040782,0
8.45280269715785e-08,0.113441161049506,0
9.21289341837524e-08,0.115788470153373,0
9.57137093897953e-08,0.122848452573676,0
1.56487144933937e-07,0.134802529883983,0
3.12968321252595e-07,0.164805943010465,0
3.28447303248981e-07,0.169535473782484,0
4.23445897920612e-07,0.190298330949013,0
5.49414393815573e-07,0.204349262692945,0
4.91246258840892e-07,0.193233006783394,0
4.12370013154306e-07,0.178082206826394,0
4.08802895101799e-07,0.172098659922838,0
3.93855368557583e-07,0.172526561910843,0
2.61815298769645e-07,0.14335926051875,0
2.17882684274806e-07,0.150980765531336,0
1.74063100431822e-07,0.147232918917915,0
1.8563226638174e-07,0.143090263086482,0
2.511837028032e-07,0.161160558692288,0
2.49676130060543e-07,0.173159580122555,0
2.60348014180124e-07,0.175754674006655,0
2.10184165333584e-07,0.158001293465825,0
2.43486676015797e-07,0.157959514985848,0
2.73664367906937e-07,0.154559273329072,0
2.74511040853552e-07,0.154765041037132,0
3.00011452250214e-07,0.155886693157926,0
2.82588442518865e-07,0.150495827548685,0
2.3019407240395e-07,0.141345441536856,0
2.00186734740576e-07,0.134413837832563,0
1.27867634669177e-07,0.108554156808288,0
1.20909224022602e-07,0.108325125587201,0
9.64313110309924e-08,0.106022828479069,0
6.94100218534451e-08,0.109738975700901,0
4.02397824830084e-08,0.105609580471121,0
3.64005950506811e-08,0.105340066529948,0
2.16561257721176e-08,0.0966662696634366,0
1.84921379432732e-08,0.100455621771838,0
6.82958803346226e-08,0.124872771185023,0
1.01902541703783e-07,0.127203551440531,0
2.20789026877423e-07,0.163358043121488,0
2.33795012609707e-07,0.17062689095435,0
2.47697534095419e-07,0.16514519482419,0
2.47710839133646e-07,0.15597744978218,0
2.50333050779733e-07,0.152180912016246,0
2.92909173106175e-07,0.15426172904674,0
3.91829645400982e-07,0.16432941279742,0
6.37074451655021e-07,0.194308618352144,0
1.87734835460063e-06,0.293162309797343,0
1.15187325186153e-05,0.510213470566948,0
1.46062411225385e-05,0.351877677692965,0
1.37710163530685e-05,0.342881213458902,0
1.30008925139126e-05,0.333141911743926,0
1.23522830914993e-05,0.325306959754385,0
1.19741016797039e-05,0.320078265354653,0
1.12525939528449e-05,0.309703455426647,0
1.188233173286e-05,0.317765487129169,0
1.23909139591261e-05,0.32287710929174,0
1.27492391556946e-05,0.343597757635112,0
5.78761838886732e-06,0.330693760541657,0
1.2288821789541e-06,0.273931122055193,0
6.30263391198154e-07,0.201035031680133,0
3.40551281997165e-07,0.163181678800446,0
2.38065183803668e-07,0.149155990383024,0
2.07911117681343e-07,0.147761689463495,0
2.32794274781193e-07,0.165675204986477,0
2.14101690841454e-07,0.164572120931989,0
2.15827615426415e-07,0.161621877329665,0
3.86745752990596e-07,0.198162785243173,0
3.10380429144365e-07,0.173447437019727,0
2.91242934674006e-07,0.174692088367146,0
3.04851004472601e-07,0.173741358978844,0
3.31085431202479e-07,0.184906863716898,0
3.71098033266415e-07,0.177175409461018,0
5.59953103206732e-07,0.199179340081921,0
5.55482486016304e-07,0.18984153492205,0
5.64117704517938e-07,0.181964164175337,0
9.33008966630944e-07,0.225761111460767,0
1.4007295553096e-06,0.267713861769522,0
1.32861624811919e-06,0.26487807151982,1
1.34165518558166e-06,0.257662471896805,1
1.58964953394108e-06,0.277550549852588,1
1.73111665852438e-06,0.285858820596007,1
2.286118919703e-06,0.337569049593889,1
4.58678285745731e-06,0.423888569760302,1
1.35223469294518e-05,0.590974867361276,1
8.71415816385866e-05,0.218319291708079,1
0.00049397208465346,0.274371628180685,1
0.000802285288869648,0.27252827779419,1
0.00119013578815689,0.271759378852836,1
0.00161144338053692,0.325886860831409,1
0.00275021904520835,0.141174337852783,1
0.00390331448805807,0.0776671750717345,1
0.00351515091923181,0.0623846750698089,1
0.00302419306052387,0.039110198631123,1
0.00237340681846347,0.0323982696431357,1
0.00192514262985648,0.0287344727310463,1
0.00199183903370514,0.030522438414479,1
0.00248415497484441,0.0341900088452738,1
0.00329985455532988,0.043349202039068,1
0.00397995159665577,0.0491446035096415,1
0.00369735348597492,0.0765599516908658,1
0.00224014360880186,0.0820024947047326,1
0.00167133040844603,0.105112923369011,1
0.000638319486399074,0.1857880028147,1
0.000577161617318631,0.118554561734653,1
0.000609500641170713,0.0903672392031755,1
0.00047215092107329,0.0740203665243479,1
0.00045722749878188,0.0858946513367006,1
0.000431911929431806,0.0779899258766782,1
0.000508570330318447,0.0725072387946619,1
0.000464460708454998,0.0545266669888832,1
0.000416287714114595,0.0411276473067225,1
0.000582299090858805,0.0444173871245719,1
0.000535063571625763,0.0406236057187685,1
0.000536257579558678,0.0425110365342911,1
0.000523287231433458,0.0486705407541689,1
0.000477760562566602,0.0483113983130174,1
0.000397173026717988,0.0430712891791509,1
0.000338924768057027,0.0397754455607553,1
0.000371470066382742,0.0423388226658386,1
0.000417137386912118,0.0506514410652155,1
0.000429734060427464,0.0565537669029424,1
0.000509859569000298,0.0398362301952786,1
0.0013401055107242,0.0540103332825235,1
0.00136347649116513,0.044842426243832,1
0.00173710983900778,0.0374831007088737,1
0.00182097910207716,0.0237050225847762,1
0.00163577409653328,0.0190685145727133,1
0.00143659731367105,0.0167323891366953,1
0.00154462428421607,0.0160047345764707,1
0.00184076006089922,0.0133177169922078,1
0.00175937201300152,0.0119006622132986,1
0.00157904424215955,0.0126496433930021,1
0.00192367347261391,0.0149693107685077,1
0.00205698662814556,0.0120469799866743,1
0.00248255782164194,0.014953296367079,1
0.00238588027178156,0.0180760289212104,1
0.00234837818382695,0.0202203836685211,1
0.00245352772287134,0.0210916535892474,1
0.00264015658772256,0.0242595094959448,1
0.00251469252996966,0.0316380268575794,1
0.00219584906332075,0.0311587869568457,1
0.00205152492487491,0.0280658553807728,1
0.00120041232375932,0.0149512598201139,1
0.00226988844067228,0.0274645695649546,1
0.00323032564363391,0.0383019668976788,1
0.00379691355010923,0.0408785309897089,1
0.00503432360898255,0.0322022495629524,1
0.00717406835989739,0.0396963567659495,1
0.0190281688215186,0.0230036363238644,1
0.0347898135392184,0.0305237257440709,1
0.0333042270106329,0.0230063671695782,1
0.0286581816885057,0.0192314281383451,1
0.0248843871842082,0.0164649708355355,1
0.0231420085146239,0.0153166929732447,1
0.0204404484823782,0.014184929119764,1
0.0168270097823501,0.00916081367876524,1
0.0147865909201821,0.00658458288911072,1
0.0209141916296864,0.00574020964452034,1
0.0289961068046492,0.0120326781498617,1
0.0289071763220737,0.00744520703563652,1
0.030855551535726,0.00826195182304147,1
0.0274204961074087,0.00768673137230075,1
0.0278351639210575,0.00833156589613769,1
0.028010092763167,0.00863532622374669,1
0.028712273741832,0.008695057856361,1
0.0283319395637847,0.00975983492968359,1
0.0289973722437263,0.0108548441006882,1
0.0222746377440818,0.0155066047071037,1
0.00905669972973747,0.00415731227354819,1
0.00819032772961905,0.00551754361914028,1
0.0105991702418656,0.00975536562664726,1
0.0106334372577729,0.0100148055542352,1
0.0110950996551888,0.0068676607557619,1
0.0132345943584273,0.00735490459250055,1
0.0132080863447972,0.00755344032210458,1
0.0147107185537221,0.00726149107117958,1
0.0169385110402038,0.0053615070035536,1
0.0199728496704867,0.00715588680871295,1
0.0199689291860378,0.00810966521314867,1
0.0184952053240899,0.0102121041203178,1
0.0161354414206984,0.00837804605244386,1
0.0153761075144272,0.00742067496000592,1
0.0151285741424943,0.00973721020762824,1
0.0142633587898858,0.0103669475673808,1
0.0142930885146935,0.00872681169031024,1
0.0212439499213757,0.0111855862984412,1
0.0331044328731265,0.0248112491884905,1
0.0272963588304303,0.0183934533150726,1
0.0202856625569358,0.0137689905105042,1
0.0211687500701344,0.0148202165025077,1
0.027881647636743,0.0187021894438448,1
0.0309902648499398,0.00519953107460421,1
0.0736521537407618,0.0114487778615533,1
0.120810605635231,0.0172063984058383,1
0.12712734208856,0.0177363107830612,1
0.17048355207983,0.0192129137429061,1
0.247360935766641,0.0178497287621735,1
0.238974295075725,0.0142452264880222,1
0.22931813164441,0.01262619294179,1
0.199916098925156,0.0113925047871599,1
0.14605905580566,0.00840832100850335,1
0.0888300715642843,0.00569854951323111,1
0.0949065346451106,0.00641884977527628,1
0.122532176981791,0.00665488459012045,1
0.127542114155391,0.00570380406215301,1
0.129036876400009,0.00529335030428994,1
0.177616184118619,0.00917532070636881,1
0.152124506386674,0.00389486158942782,1
0.159273220463415,0.00483061521321656,1
0.155383405061722,0.00465584876916295,1
0.177891201861958,0.00534115468290964,1
0.199569026041518,0.00637359350772605,1
0.215675730399701,0.00765728627550298,1
0.190254674714429,0.00739960224521236,1
0.178570125632807,0.00792897778959276,1
0.175898397889806,0.00959926560599097,1
0.0997639596820235,0.00623644537577823,1
0.060204657141311,0.00759025827474817,1
0.0818210101651435,0.00993694387483454,1
0.0639679765200003,0.00972332990649104,1
0.0652527064796538,0.013731979605167,1
0.065119747690759,0.0131832916035914,1
0.0677854692838493,0.0137590385611685,1
0.0739117046651477,0.0125658530174571,1
0.0782117110908803,0.0130620765112786,1
0.0882950574893903,0.0138865909224857,1
0.0942516956828107,0.0106196344797414,1
0.108669313291942,0.0127669453555221,1
0.0995162984933134,0.0122889732948873,1
0.148153580724397,0.0166408836066559,1
0.17353262799007,0.0187888952119268,1
0.213192922348837,0.0213379362887825,1
0.251025593815886,0.0234940360962663,1
0.238922140924469,0.0273996123518213,1
0.189073823857395,0.023234449743983,1
0.0771596159151573,0.0107641085723319,1
0.0542848410466767,0.0196175206857387,1
0.0504615805646726,0.028445377151058,1
0.015420514691036,0.0280691941451695,1
0.0119298115584589,0.0611704860501156,1
0.00510207424897498,0.057355144069487,1
0.00411163585055248,0.0574506749694886,1
0.0035792429307353,0.0285481935109858,1
0.00356809245717862,0.0309868946270328,1
0.00398887383691327,0.0321648613257968,1
0.00442489770022202,0.0214726693085081,1
0.0135226804391355,0.0252173478202793,1
0.0352030787701813,0.0470876489238678,1
0.0452859929872276,0.0551824750714483,1
0.0464575271169569,0.0442414367011556,1
0.0460548134797603,0.0442787219946219,1
0.0379974014610527,0.0353925835878533,1
0.0316024158960082,0.0221367412673222,1
0.0360928788217695,0.0185655014742402,1
0.0262715168666175,0.0136390704479242,1
0.0135828942871541,0.00646229512309104,1
0.0120373261146779,0.00650576847024971,1
0.011878084092567,0.00724412487536522,1
0.0167764690194277,0.00968099560370732,1
0.0183112249018298,0.00666192038753401,1
0.0194410109007865,0.00570802229898979,1
0.0215044604122061,0.00696905797402122,1
0.0225404106442535,0.00997530548590965,1
0.0168814633079497,0.00759869769650594,1
0.0162953684476043,0.0074129179053429,1
0.0140431603868359,0.00551831710691612,1
0.0171546461692588,0.00739734238369671,1
0.017200850413238,0.00707188039858567,1
0.0191277341413917,0.00819299672793521,1
0.0164439102346731,0.0119586271985555,1
0.0104819953594602,0.00887224615282686,1
0.0127313330139125,0.00829086192397498,1
0.0140801309508236,0.00386420493102271,1
0.0197002011936033,0.00680694327195869,1
0.0155996503459961,0.0043518209912773,1
0.0152553074418296,0.00459802640601796,1
0.019396419595878,0.00584481456583572,1
0.0211052072468391,0.00499439437932875,1
0.0195618781137157,0.00418893789810315,1
0.0224021171262956,0.00529931984509519,1
0.0233290900548012,0.00443066851012441,1
0.018450930379044,0.0037451841808654,1
0.0162370159989299,0.00544959409396089,1
0.0169473614322601,0.00609833442155975,1
0.0151183030300005,0.00492225550053799,1
0.015906589286865,0.00457817930077317,1
0.016322683347516,0.00426247183816294,1
0.0172085060039086,0.00391882669555317,1
0.0228280796641144,0.00713549313145899,1
0.0238683796401885,0.00499347569188616,1
0.0240407460065432,0.0060541728352017,1
0.0244585134981808,0.00523019199208115,1
0.0290784285430548,0.00716747189598864,1
0.0396856465796426,0.00967508647416846,1
0.0379815254921543,0.00969130771486645,1
0.0605173191920235,0.0145475505774077,1
0.0781393346312969,0.0240541289262339,1
0.160564176014343,0.0252622593432588,1
0.265826596116824,0.0327378587348648,1
0.346071256146906,0.0477399710697722,1
0.359693989994776,0.0305098819714723,1
0.308615119748232,0.0274379845927172,1
0.266018145340493,0.0184429074814152,1
0.290239473206555,0.0186034054702331,1
0.280122601856025,0.0178181224456599,1
0.269348550465762,0.0143427444055952,1
0.265540818135829,0.0142649412732224,1
0.263602252693909,0.0156049457357467,1
0.271604550056684,0.0139904897504575,1
0.235720061313455,0.0141001129936286,1
0.181938260132766,0.0117597603904351,1
0.222660873868175,0.0120818730650576,1
0.316038535783177,0.0208506241325125,1
0.229737302915565,0.0121754246532745,1
0.135693567604444,0.00697664522469725,1
0.109040236007082,0.00649056962675852,1
0.110032418703477,0.00610369107784836,1
0.122227121005743,0.008319637179367,1
0.131664343991302,0.0100622983838618,1
0.141657721617492,0.00951594452410771,1
0.168579593761185,0.0102762572000387,1
0.15680002966809,0.0104738755093405,1
0.0816914967037116,0.00475451661725033,1
0.081387894981772,0.00765741383593541,1
0.0818014859373547,0.00841591053960855,1
0.0782597728476403,0.00857165291731646,1
0.0809649254622895,0.00886268579341401,1
0.0791759582936264,0.00853418245559187,1
0.0850318717631583,0.00984345381593143,1
0.102800409536747,0.0169130851183475,1
0.0734322262077732,0.0128660887499486,1
0.0752507145763538,0.0158106681333344,1
0.13308186929417,0.00900011959784681,1
0.232862901484464,0.0144902097197119,1
0.288654483385609,0.0184573991191653,1
0.312233565489153,0.0185138574645479,1
0.342109576931116,0.0183141016566678,1
0.414159028767732,0.0245889234080527,1
0.404811066575877,0.0193840366196567,1
0.294932995956515,0.0150046115073229,1
0.235457851683693,0.0122622338597288,1
0.130930771660525,0.00548077414464924,1
0.118999757329595,0.0113650327082131,1
0.15022561516376,0.0158350925659125,1
0.168540440806842,0.0155323065388618,1
0.150180022543684,0.0159469193745561,1
0.121111565580652,0.0152199122025987,1
0.12101675960563,0.0151826810463452,1
0.0889914449867454,0.021305633766183,1
0.0196135637790322,0.0159077380975632,1
0.0156519272985269,0.0233548658678861,1
0.00793529647586136,0.0194057860040075,1
0.00920914604068052,0.0164855656498069,1
0.0230839032001954,0.0289748204931127,1
0.0383669167588042,0.0301354305729094,1
0.082756973530683,0.0464067501539735,1
0.110612878535694,0.0295543192656363,1
0.104490434271098,0.0239091448711932,1
0.126981392978067,0.0252291086178913,1
0.109834575092284,0.0180946180707296,1
0.0852579419201875,0.0135809165685429,1
0.061711248816706,0.00765373285476354,1
0.0652813036747582,0.0075625361875899,1
0.0651437175028683,0.00733753780466094,1
0.0584647145964968,0.00687070131687984,1
0.0717907975933448,0.00716448692638844,1
0.0784151430736598,0.00494792947097196,1
0.0984485344879932,0.00769915928246073,1
0.0946385121943572,0.00557149649767609,1
0.096670599078994,0.00568423793697127,1
0.0954411031712052,0.00588795018448154,1
0.0858235320562308,0.00631247166026823,1
0.0853203434238743,0.00738202190049917,1
0.0766548873561843,0.00454893426669831,1
0.0787007902468554,0.00456712482783197,1
0.05227331139138,0.00272970998112534,1
0.0398545781547568,0.00464282802410298,1
0.0351128916573344,0.00222169614061544,1
0.0334358369229394,0.00346663679013102,1
0.032205661436946,0.00453405529840287,1
0.040386218892641,0.00568363722113985,1
0.0578982086275451,0.00777241810738022,1
0.0501044968282693,0.00550710254781838,1
0.0475721863902754,0.00757869564001947,1
0.0465225067775673,0.00675855799526222,1
0.0591840997305681,0.00901487180074136,1
0.074858706667315,0.0130644219066152,1
0.0893544515761843,0.0199288198448505,1
0.0890883332968668,0.0194977578449056,1
0.0851213688701323,0.0196258829577948,1
0.071649180028943,0.0174948442264805,1
0.0418853919645924,0.0116902576322606,1
0.0378323288506263,0.0100898980528218,1
0.0322624292124195,0.00771880190233538,1
0.0295507096158772,0.0077956696452812,1
0.0316724906674146,0.00854188288020891,1
0.0329586759823853,0.00744534449508693,1
0.0384133889704811,0.00708049788255022,1
0.0360807062045674,0.00687128699975733,1
0.0333959835678832,0.0058876408026195,1
0.0372901674955916,0.0092041380026948,1
0.0338939083292095,0.0080201227678619,1
0.0556774009822306,0.0101120643771279,1
0.0855727600118078,0.0171110395268382,1
0.11180856023645,0.0183208611236289,1
0.124204018284431,0.0115071394699047,1
0.0955139417606499,0.00971087810031354,1
0.131709638887522,0.00992317584251832,1
0.186300927254278,0.0137575017867263,1
0.179812560337502,0.0128906016935152,1
0.281991664873222,0.0169064467243723,1
0.287607426155025,0.0127413840309082,1
0.274515434750534,0.0077020703875474,1
0.298202269340193,0.00496660576949897,1
0.418693499848773,0.00567261040403005,1
0.487299172800303,0.00734390518686853,1
0.431480282507276,0.00575692378568959,1
0.403312973230284,0.00445277825722347,1
0.430826929278555,0.00489671294701375,1
0.420667566824519,0.00466291004057564,1
0.476041039027448,0.00615827127660396,1
0.502683635220821,0.00651955457835587,1
0.461171273530086,0.00856450514270343,1
0.429252937629885,0.0105174316155331,1
0.418714582328444,0.0205062093615446,1
0.297741464932218,0.0141562154358421,1
0.165295849240965,0.00642139576560303,1
0.112696054822598,0.00600552113963021,1
0.109647868846325,0.00670336329831772,1
0.0908502027351774,0.00504546129842574,1
0.126906781235255,0.00987910685801932,1
0.138678320069501,0.0113444514969483,1
0.126072307859736,0.0070300397672848,1
0.140963205843445,0.0104842169910423,1
0.128706216007206,0.00892204537983059,1
0.149368319986559,0.00978272854826676,1
0.150417443802434,0.00913276997796587,1
0.141583697223727,0.00969179602664786,1
0.141715374991729,0.00940852754877798,1
0.130485244694429,0.0109924960184267,1
0.0928369085569337,0.00748806041596871,1
0.07213734836689,0.00743827077285953,1
0.0789645399141509,0.0090477953337396,1
0.0748036291152785,0.00928367567333642,1
0.0874812209493695,0.0101896173657016,1
0.0855476051155915,0.00641319601710193,1
0.0916390114106374,0.00803193499291603,1
0.0986111901818969,0.00871877684707032,1
0.101775902491211,0.00796737366339837,1
0.10456264032112,0.00615145346612602,1
0.116740506062312,0.00731309353726396,1
0.121809092200668,0.00653075850013092,1
0.10576627814277,0.00638411103964905,1
0.0978811089140926,0.00471494338505872,1
0.0882183203834826,0.00475139063129586,1
0.0711886583204519,0.00484586456111335,1
0.0695193116428453,0.00367659772052238,1
0.0809523889759177,0.00433122538233016,1
0.106393835450346,0.00764611046033235,1
0.116468536183288,0.00869668356098916,1
0.0956091756387576,0.00728739389547751,1
0.0994053936483468,0.00651873365884856,1
0.110980199524761,0.00578979514234463,1
0.112665049824922,0.00608127955990803,1
0.107707291467383,0.00522309279193408,1
0.107094321377959,0.00476100082255067,1
0.137399542692059,0.00727885148194724,1
0.1289027311781,0.00669258553533032,1
0.123989621572521,0.00568235810954872,1
0.142987647972064,0.00748231701225034,1
0.162771092450936,0.00859013727312091,1
0.174996679673778,0.0104275901131547,1
0.174096781385042,0.0137736776025913,1
0.157632272720424,0.0133488207152598,1
0.132087015332941,0.0151255902183469,1
0.0707414318297018,0.0135428183895967,1
0.0674803988008339,0.0165867190360095,1
0.0149968551434228,0.00483007860029083,1
0.0036180664176387,0.0247515906003402,1
0.00354445260902258,0.0311619854433667,1
0.00375868004117951,0.0281059699920927,1
0.00245349529426542,0.0244325728409609,1
0.00176929503448434,0.0118380987576084,1
0.00719257257981014,0.022933026771344,1
0.0102355051738989,0.0270802681789122,1
0.0144692279770088,0.0355940561405791,1
0.0322222187119631,0.0354367173805952,1
0.0511378761461833,0.0535363379120427,1
0.074271188994657,0.0575085214821308,1
0.0760463281699438,0.042035046562423,1
0.0699059548912101,0.0403863900648741,1
0.056435037262614,0.0366595364678525,1
0.0397825465970786,0.0264887830844258,1
0.0376403727796542,0.027832135957532,1
0.0327527885827789,0.0231118618078465,1
0.0471794379298967,0.0290241644251604,1
0.0754040812820925,0.0253244842402347,1
0.0721526535622074,0.0201828315812776,1
0.0728717441565545,0.0207039633396293,1
0.0942398502973038,0.0109123735946386,1
0.142331370485569,0.0121328857901459,1
0.122060766733419,0.00936358628087082,1
0.116596574427467,0.00911678143889276,1
0.115216123972108,0.00698412433811216,1
0.120108939906481,0.00487851691035726,1
0.140268320996714,0.0056308164326985,1
0.132708512333503,0.00529388495223524,1
0.137055418098203,0.00495427850876475,1
0.137528937370088,0.00408683157274128,1
0.14623607710104,0.00825351099371359,1
0.0946326307710966,0.00509580607529874,1
0.101066974750614,0.00595608754538931,1
0.102883611422332,0.00532098654235501,1
0.0868089609744618,0.00515301447640705,1
0.0720095722981156,0.00704945915113596,1
0.0724176184593449,0.00819848952606472,1
0.0653095695977878,0.00812055246605986,1
0.0594048833403054,0.00923387574115219,1
0.033932246897954,0.00555587623652171,1
0.0332813102104795,0.00627478912251136,1
0.0353262094350945,0.0059616033293721,1
0.0427516848624039,0.00729449069536729,1
0.0359692653524577,0.0094162999273364,1
0.0299186556327405,0.0115000881322905,1
0.0294242312918075,0.0101705477719974,1
0.0292638537321841,0.0110884819555564,1
0.0349963661385108,0.00971045308366235,1
0.0383331999298534,0.00584966983897108,1
0.042607490994209,0.00807515016910117,1
0.0382943023004379,0.00765039179254993,1
0.0383158378784603,0.00877599482709377,1
0.0392191463421265,0.00929728570977273,1
0.0396212738831875,0.0092056441134272,1
0.0395199530163675,0.00635484655260071,1
0.0438303704409057,0.00372528210361955,1
0.0757450679870089,0.00668487060124167,1
0.0665144402149148,0.00390886975907994,1
0.0607172305503983,0.00565014908040173,1
0.0571652363234034,0.00519717699894721,1
0.058884120939078,0.00518694312351001,1
0.061802195789612,0.00504032898215307,1
0.0743859270421513,0.00564385260798844,1
0.0766800004492139,0.00503348317847014,1
0.0960913281715632,0.00602961819805458,1
0.113309329579368,0.00963262549016672,1
0.130089227127218,0.0125893481777906,1
0.137619805486147,0.0160132440863329,1
0.184004442957253,0.0185970236517858,1
0.280924502925109,0.0249467492608204,1
0.34110143186564,0.029698319850303,1
0.268587940264,0.0209593055244964,1
0.249809235875706,0.020779953409705,1
0.180676235937205,0.013339264204568,1
0.159331106234019,0.0166051810641071,1
0.158334648189775,0.0161043482433861,1
0.150086364235396,0.0121515760275584,1
0.13102980959778,0.0109208629073608,1
0.13201742344738,0.00814884106548332,1
0.149126616190639,0.0107604278531854,1
0.14019310675825,0.00969463058622784,1
0.154320059763426,0.0115290036926556,1
0.155653361355266,0.0129104763200014,1
0.140560745583541,0.0100153026087151,1
0.16295896479123,0.010608094208606,1
0.181716885510122,0.0107561927552978,1
0.183074223348366,0.0153624495898555,1
0.142584530068742,0.0107207548934865,1
0.159123361486514,0.0192455112164899,1
0.172243991237101,0.0182891538284689,1
0.173029839572269,0.00904109288286417,1
0.204186528626684,0.0107598760491914,1
0.188192280904821,0.00783974604317508,1
0.183396809624978,0.0100980700038508,1
0.171064712601369,0.00814805218780212,1
0.180112177140558,0.00759060186210298,1
0.228236143669,0.0104739689474137,1
0.275821577424389,0.0147179923911474,1
0.261671600859558,0.0148915982357655,1
0.195268541015655,0.0056132801179775,1
0.23064748151095,0.0116026310609711,1
0.251158038501959,0.0128665740345737,1
0.300327267067137,0.0171521956002714,1
0.329502507101748,0.0174698800183437,1
0.362809694844488,0.0187442661218411,1
0.455991786332854,0.0273795744890417,1
0.494304805079383,0.0295725733777105,1
0.43624610819728,0.0297679819594383,1
0.220419054103713,0.0145036398358613,1
0.141018209809667,0.0233490402553215,1
0.142143267584505,0.0240391139397913,1
0.120724798487251,0.0219191574973734,1
0.114190541459194,0.0205453399555813,1
0.0738474983736866,0.0185103712959258,1
0.0216975780174919,0.0155475353719348,1
0.0199695915904223,0.0259486129553947,1
0.0214958876150996,0.0265446736343806,1
0.0219381919031029,0.0249891714116668,1
0.0154171864746439,0.0409633984181355,1
0.00403319775382583,0.0272449549016278,1
0.00260258204065411,0.0215678087082768,1
0.0019518640458547,0.0179972864038709,1
0.00212667079583522,0.0180076788507041,1
0.00227960173048542,0.014264321274051,1
0.0034942554885032,0.0155575432055863,1
0.00298575902688657,0.0123522366063995,1
0.00292909551255256,0.0120845819717709,1
0.00623419219188991,0.0158657207698686,1
0.0116621648230843,0.0169132647620908,1
0.0116482039077754,0.016635455281916,1
0.0172986949093296,0.0170448257517832,1
0.0507889175542747,0.0254341676070791,1
0.0772558630626987,0.0181126860675132,1
0.070531193050668,0.0162005356761236,1
0.0790035377262764,0.0111716381849806,1
0.083179721056473,0.00949874860238199,1
0.072988979969942,0.00649434139163055,1
0.101778754343838,0.00899581557017741,1
0.0990585563485652,0.00836432969416932,1
0.100654236038686,0.00768884679990127,1
0.0827738985332065,0.00577390231116196,1
0.0982231452283568,0.00396494315256177,1
0.241401581065908,0.0115569418486955,1
0.202369780996419,0.00543901791949517,1
0.195030776025844,0.00532159151539994,1
0.194867038629223,0.00511820477735299,1
0.18996742228862,0.00450816296314525,1
0.209114396745445,0.0054239207964991,1
0.225302236976286,0.00621981604310014,1
0.23757597892217,0.00614603499622805,1
0.237528463086174,0.0060947865765204,1
0.241151869447456,0.00917960957501338,1
0.10352160424306,0.00303441026482762,1
0.0973783686640112,0.00480990246685838,1
0.0981939610870866,0.00643139248681881,1
0.0507611394134688,0.00267064166749158,1
0.0486963336585731,0.00590749584541847,1
0.12675443114212,0.00833113260025824,1
0.168069063548126,0.00489054102779689,1
0.177568978319981,0.00608231813860259,1
0.171729930252868,0.00575941470496457,1
0.17235464618112,0.00570609140473644,1
0.157821057216462,0.00480708640263746,1
0.148266355897756,0.00501202005172691,1
0.175561264904283,0.00641043045065081,1
0.183381273362305,0.00608570432573791,1
0.18367011795715,0.0052981019183255,1
0.111288901909553,0.00469003685770616,1
0.0486037343630614,0.0057210907387395,1
0.0468580803680936,0.0052968008170744,1
0.0522897936658966,0.00670821476105192,1
0.0563410719078654,0.00508202331288129,1
0.0580187481904786,0.00500076255793072,1
0.0606880780550994,0.00323897639178612,1
0.0602054897652563,0.00318034732048717,1
0.056996172111731,0.00440056159683752,1
0.0542543740634637,0.003980795301117,1
0.0543113023971752,0.00476638528622536,1
0.065006278127206,0.00632335430202165,1
0.071201195141688,0.00559139638901183,1
