Activity,Complexity,Tag
6.32169294029516e-07,0.316237368022253,0
1.12329246096616e-06,0.447481586775845,0
1.20996012372219e-06,0.430308511562846,0
1.00147094912159e-06,0.401926629724992,0
1.06580084322962e-06,0.43290837027521,0
1.00442880205337e-06,0.419174108213121,0
1.01387795076412e-06,0.428917513138361,0
1.05857228238426e-06,0.438954855218585,0
1.0746528599926e-06,0.437311503626866,0
1.0264426708578e-06,0.430453404427349,0
9.81926720454528e-07,0.44728862856226,0
4.44425316399538e-07,0.355892102283407,0
4.00300639645088e-07,0.385178851582989,0
4.22067764252443e-07,0.392975229546367,0
2.31532334899765e-07,0.338408471401577,0
3.86732236697182e-07,0.373049956145171,0
5.53374694556119e-07,0.418101299846751,0
7.12134746924516e-07,0.462044935182769,0
6.38644323375902e-07,0.438802999910489,0
3.53730282768837e-07,0.382547690815161,0
4.82919169677437e-07,0.41707534282799,0
5.62254957759487e-07,0.44120913563662,0
5.6716346370231e-07,0.442651962095968,0
6.52330877776754e-07,0.425542649533313,0
1.14298891266794e-06,0.493345723666591,0
1.28415429029704e-06,0.51778566778969,0
1.08490807638327e-06,0.484668927378608,0
8.45679850426128e-07,0.43547785939253,0
6.04763982087614e-07,0.391030771856299,0
6.19246712418825e-07,0.384101734531993,0
8.90201625970801e-07,0.407564580164126,0
1.76006702386066e-06,0.492721556825475,0
1.9939739281938e-06,0.45508813137701,0
1.7619571173828e-06,0.443687479871706,0
1.77825959990602e-06,0.449894654448522,0
1.72914068871267e-06,0.445899141434178,0
1.74742229050396e-06,0.436864593841356,0
1.81074366579132e-06,0.445077955580951,0
1.77403769129022e-06,0.446160064451821,0
1.73810733986209e-06,0.452651800245694,0
1.44452021325054e-06,0.448098777013015,0
3.87540722360312e-07,0.314104300234691,0
8.99079800915927e-08,0.310824777346558,0
6.09243845550017e-09,0.284250378331067,0
0,0.268156929260073,0
3.18051291687573e-07,0.321543011354294,0
6.79828182989461e-07,0.373060020847962,0
1.61163274902971e-06,0.506245355464895,0
1.67698523022444e-06,0.490343603366148,0
1.71241868610023e-06,0.487280191519416,0
1.71402917283512e-06,0.480504944284927,0
1.83730532140503e-06,0.486833705618697,0
2.47651984918826e-06,0.542627413379156,0
2.60076956573044e-06,0.543250001717842,0
2.53134487106308e-06,0.555960261506359,0
2.25289124199473e-06,0.553847797555955,0
1.89233686102876e-06,0.54992372749225,0
6.68837350157342e-07,0.374049319472506,0
6.75297322062748e-07,0.382033858066863,0
7.11971533056961e-07,0.375947145006161,0
6.0614827748282e-07,0.362485982719023,0
5.70339264849151e-07,0.363652590725428,0
4.38409703865535e-07,0.330483146770899,0
4.87296928302797e-07,0.348161597421175,0
6.11088107299215e-07,0.365897501567734,0
7.87158501561542e-07,0.37862470519674,0
6.82067675087334e-07,0.355217258008186,0
6.73519554852152e-07,0.372099535430725,0
5.01737234019277e-07,0.338428313305069,0
5.6779653567344e-07,0.356274120465232,0
5.10459449046516e-07,0.351946146831347,0
6.04313357941496e-07,0.367757851719756,0
9.39487597823212e-07,0.425287404523414,0
8.48860157814429e-07,0.408766384185703,0
5.63847309620203e-07,0.366503792417935,0
5.89365385656503e-07,0.389638299142982,0
5.2965834574599e-07,0.384929473539677,0
3.81344530442878e-07,0.324556191800919,0
4.96446247093894e-07,0.351308189429518,0
4.85071614379279e-07,0.350867071881538,0
6.36191938846072e-07,0.373040123349755,0
7.29024909279276e-07,0.377834473814949,0
5.89540799348503e-07,0.355071291866241,0
7.12661757358818e-07,0.39067744555882,0
7.36980513716477e-07,0.373796805137911,0
8.63484999614159e-07,0.396481197717165,0
9.30942445112896e-07,0.416777128333575,0
8.49124817069027e-07,0.427120666814419,0
1.05487375722792e-06,0.253182754736783,0
5.65426947285501e-05,0.351352109245237,0
8.78481278807617e-05,0.273375603557868,0
9.11117062149327e-05,0.265166923664783,0
0.000160698812748777,0.272745610839113,0
0.000205665397959274,0.225603856463215,1
0.000211192927390702,0.158769585855832,1
0.00042126999816839,0.170896947671309,1
0.000416549400186422,0.131154405690359,1
0.000342288079622961,0.11631549509363,1
0.000282414202057398,0.100516776718813,1
0.000268096586568191,0.0992769986582542,1
0.000238152983438967,0.0996445977712923,1
0.000196978127625573,0.0816793594376498,1
0.000247187930744347,0.104336985743256,1
0.00028091896816311,0.127283276358091,1
0.000288500341886418,0.156032928539898,1
0.000278263451060876,0.101426689175074,1
0.000698568455425507,0.161009096331063,1
0.000853383922619832,0.113980472422973,1
0.00155190337519734,0.118406086089279,1
0.00235938078075939,0.0747692986357326,1
0.00624453229463338,0.101916999594725,1
0.00697819747989911,0.0759736058352017,1
0.00762890578981752,0.0595094102931037,1
0.0140329108011045,0.0666341529019722,1
0.0255311998674228,0.0904760666178724,1
0.0265309950865772,0.0733367600601208,1
0.0244519471469343,0.0651492416652116,1
0.0198514398554037,0.0560579106068572,1
0.0165187018753351,0.0501105207766177,1
0.0133729767289545,0.0449229554956529,1
0.0131512948708282,0.0410926393176491,1
0.0110919613300378,0.0360858559284233,1
0.00954577661793227,0.0352114390360029,1
0.0102278149734343,0.0415031371856387,1
0.0106284166272613,0.0450382835591442,1
0.0179830815208196,0.0749756882734479,1
0.0213365654561164,0.0800970231428886,1
0.0210662469144232,0.0817274648937146,1
0.0191799096412942,0.058356186838803,1
0.0152856743956547,0.0429949534201826,1
0.0173959006048437,0.036565576217349,1
0.021264774945115,0.0363546561991875,1
0.0156429358984847,0.0264514341712445,1
0.0174126910659467,0.0258347550842909,1
0.0181793531751861,0.0206134012255845,1
0.0185828761077505,0.0203071477965833,1
0.0184890389739438,0.0221609832149879,1
0.0185514244661869,0.0226910811176273,1
0.0170520697054166,0.0241476406175151,1
0.0132106649268582,0.0229088945475045,1
0.0215454131566299,0.0241843438720708,1
0.0214656378583319,0.0138663456026067,1
0.0215253218377166,0.0147332253142694,1
0.018352362702518,0.0131963406047498,1
0.0174619910392409,0.0151338556852008,1
0.0172529612188688,0.0151928894208434,1
0.0207303586423372,0.0168462485790974,1
0.0244558660866486,0.0194444379171184,1
0.0247626939637644,0.014017102412994,1
0.0379586025383424,0.0176518298034766,1
0.0557547642572684,0.0332194555656131,1
0.0589742511834963,0.0476462001183972,1
0.0697233469644534,0.0260799638806036,1
0.116961019469281,0.0313315453828667,1
0.114786708361759,0.02373566188534,1
0.111240170149915,0.0193727036068887,1
0.115927563001419,0.0204615701187941,1
0.138818081312125,0.0244729080742102,1
0.117304932994602,0.0201911571456844,1
0.11363951490852,0.0187219575647419,1
0.120988827931544,0.0197860316373035,1
0.118066774427622,0.0206316553748518,1
0.113911091645585,0.0282535429659667,1
0.11169854411394,0.0328357013541254,1
0.100149707478295,0.0384001477655539,1
0.0935401112573902,0.0442670334834781,1
0.140765597458147,0.04549251633601,1
0.149859356642637,0.040795203973823,1
0.144956248401681,0.0329642236237283,1
0.143583152621058,0.0343715340365454,1
0.134808841245786,0.0314977489294099,1
0.125505689802055,0.0297890439842024,1
0.12749042047226,0.0304370104898393,1
0.134773594759914,0.0335219435679505,1
0.144246976404341,0.0343111219771851,1
0.145910612525111,0.0342582166770864,1
0.0953984524339454,0.0339737173772473,1
0.0421348864573173,0.016886448779494,1
0.0393719332852458,0.02315770347547,1
0.0447459998659973,0.0254960771059075,1
0.042168558678723,0.0186133442289016,1
0.0479297749955962,0.0209575568635364,1
0.0554184075862218,0.0245919721932295,1
0.0452172603021312,0.0132990757518822,1
0.0499276559485622,0.0121400390489333,1
0.0543042300154827,0.011346072870092,1
0.0816864034823852,0.019408554009103,1
0.102075256241899,0.0249717430582659,1
0.10386100583115,0.0237786142016932,1
0.130580422219829,0.0284944858546293,1
0.135464666947372,0.0245807763441109,1
0.12753541776322,0.0231811294383007,1
0.101980646813594,0.0179023845653782,1
0.10616626364399,0.0214756168034081,1
0.0718097300751409,0.0137877023746986,1
0.0717356828374265,0.0186194197480228,1
0.0652607120085427,0.0179000940562244,1
0.0632246148996487,0.0178064835079237,1
0.0657783142464148,0.0191244813715444,1
0.0498438805350063,0.0148040882550834,1
0.0505309116578909,0.0308868175186434,1
0.0459291786093325,0.0287864754133292,1
0.0516350247716619,0.0208053478581143,1
0.0384915070274446,0.011215223759611,1
0.0309246796440224,0.0104308350084404,1
0.036198643394232,0.0139081217919014,1
0.0428230034137064,0.0164295697324387,1
0.0428045214341949,0.0162066556699327,1
0.0414253413193173,0.0139961234564444,1
0.0424710715689371,0.0141573428235102,1
0.0511448338305699,0.0144646917433583,1
0.0603788787703992,0.0151816315167418,1
0.0380177762612787,0.016578896088736,1
0.0233324632249648,0.0153901700407356,1
0.0264746762267538,0.0186888593910366,1
0.0263466380967488,0.0182389205504974,1
0.0248748903134365,0.0173453393496654,1
0.0314597270941666,0.0215655498358233,1
0.0356260681891924,0.0319232074756348,1
0.0555319516924851,0.0240941046665359,1
0.110791666570688,0.0490602085347435,1
0.0961064264718492,0.0310786834308423,1
0.0819998951957485,0.0270547729136285,1
0.072039410768167,0.0275737528097755,1
0.0692371411498711,0.0244220362614064,1
0.0765128880752645,0.0254362199881769,1
0.0669422433333179,0.0164416248316723,1
0.0616033063525805,0.0137152926571395,1
0.0727456406720176,0.0131944725567895,1
0.0723707128280634,0.0168390909754478,1
0.103245218910139,0.0194245414710641,1
0.17405548571016,0.0374627640161558,1
0.177001570310559,0.0203868560296869,1
0.170810028933229,0.0161473941671109,1
0.210544961169928,0.0135605323080829,1
0.292262751134944,0.018745660522216,1
0.288681971038036,0.0140041160583787,1
0.278575304104482,0.0144918014137258,1
0.212471690653315,0.00777623994044619,1
0.203877706769062,0.00503474184004082,1
0.207742371724662,0.0069270448992854,1
0.207973715678445,0.00579721938328032,1
0.253603915568004,0.0113273242262796,1
0.219089744447248,0.00928556211299925,1
0.202798636322414,0.0120528854136195,1
0.152120973525392,0.0070099171183531,1
0.159215920453202,0.0106208430555869,1
0.150580205687782,0.0100144326668328,1
0.119806786722371,0.0126265770100408,1
0.0873503411049779,0.0130522366695593,1
0.0890604377917874,0.0130946404733817,1
0.0993565266625391,0.0153454144286327,1
0.0982863563740403,0.0155374188162945,1
0.103631661065346,0.0152507296783982,1
0.0789576776273586,0.00536707378585377,1
0.0907065822714899,0.0088415544688065,1
0.0904922286804066,0.00825458185450836,1
0.0887944166484759,0.00784537773611271,1
0.0878321881523247,0.00794878314371484,1
0.0881452044291872,0.00779899077365449,1
0.0687677103187712,0.00470798540314359,1
0.0604288076373895,0.00843947141798189,1
0.0555944276124648,0.00439272430677878,1
0.0746937109384621,0.01148063002126,1
0.0805368399584796,0.0281716843444149,1
0.0771220098706934,0.0258399809025157,1
0.0776617471362444,0.0238230099642608,1
0.0936973308346289,0.0277857951753196,1
0.0840859204228274,0.0216580358450436,1
0.0879438058164034,0.0204418596823115,1
0.0927510242153841,0.0222164756347523,1
0.0592759680378034,0.0128425401005071,1
0.0354387946170095,0.00879063169263195,1
0.0396969402389165,0.0129011706032104,1
0.0438700888409278,0.0144832423619766,1
0.0458699642949424,0.0157014066970705,1
0.0368559938293265,0.00973827156028192,1
0.0399910956012575,0.0115730691485759,1
0.031915637304195,0.00604820292224282,1
0.0373949074460416,0.0102239870577959,1
0.0380567060338476,0.0105201076555613,1
0.0336865470901897,0.00936235711075646,1
0.0345378777489435,0.0118574674273927,1
0.0373573644646662,0.0133325847389599,1
0.0375538123698965,0.0166363415083192,1
0.0265235998770092,0.0122790247175553,1
0.0238824393869485,0.0188740108774311,1
0.0215860466287473,0.0169632794118536,1
0.0187313465814389,0.0326800320546858,1
0.00591984805698356,0.0147033309361707,1
0.00649181567966179,0.0144509474551364,1
0.0111261114487917,0.0207254709664488,1
0.0167571354153891,0.0146919108030724,1
0.0570455971239485,0.0408945795796825,1
0.139147846082915,0.0752771014448115,1
0.160221002275039,0.0345964854979788,1
0.156962351998183,0.0315917474401594,1
0.146362989818093,0.0291402874351675,1
0.139309326968816,0.0271017405509512,1
0.144681684244585,0.0217504102923715,1
0.139337087575256,0.0166999981019518,1
0.138276018966993,0.0138208655251287,1
0.168774734051928,0.0193728524583138,1
0.172417626030781,0.0160798119161781,1
0.149541988889308,0.0141028346492438,1
0.141567830332287,0.0189898073268489,1
0.111556844774725,0.0155726880475801,1
0.103040629836636,0.0128608148938704,1
0.08864529072636,0.0106985388982033,1
0.086604470131203,0.0152467667884928,1
0.0838148505776969,0.0188014254791551,1
0.0812580086028651,0.0292809358553399,1
0.0368177771913405,0.0122929721082612,1
0.0444237944936404,0.0170393807650892,1
0.104594292299574,0.0388092630598931,1
0.127512530131998,0.0445051441744351,1
0.241106273721255,0.0603470457201829,1
0.242414243091343,0.0553060786496762,1
0.202735611142048,0.0438612519043217,1
0.151850071455764,0.0382746024903282,1
0.143692007126345,0.0261533210673093,1
0.159924012213477,0.0199180929889976,1
0.129642028267025,0.0150475826206867,1
0.157168384483365,0.0163184318217956,1
0.167295570299233,0.0118943533134709,1
0.202413972547266,0.0131843696813293,1
0.165919176353004,0.00956663065135658,1
0.156015908833338,0.00887120821956629,1
0.164413698786327,0.00966212112747142,1
0.222760255421815,0.0130881078418722,1
0.233852468090767,0.0155808963837176,1
0.144151461815886,0.00852854181734179,1
0.163295458587771,0.00908787499349444,1
0.158771684576446,0.0120768627227528,1
0.0822405619187227,0.008014476022073,1
0.0806531945457738,0.0114785583769775,1
0.0695969109295725,0.0127884733096387,1
0.0409916338811642,0.00575834424106019,1
0.0385966377150317,0.00418272520546506,1
0.0360236338840638,0.00542698965888556,1
0.0526049058145429,0.0165758378999682,1
0.0668115861332411,0.0241584801899457,1
0.0664947900196122,0.0340872431522426,1
0.0629214291973595,0.0344159575579852,1
0.0588539343404067,0.0282584299101569,1
0.0515615235348923,0.025772472665555,1
0.0517254671424221,0.0231526826572549,1
0.0459875021094675,0.0216487401852477,1
0.0265848017347011,0.0141055393753061,1
0.0282035150803793,0.0166001879441112,1
0.028910678088352,0.0203839146808634,1
0.0271723048188049,0.0245462707603788,1
0.0265623288359616,0.0304023364155829,1
0.0271488311720933,0.0326381608821039,1
0.0261957061331751,0.0337920490754095,1
0.0253255303171269,0.0303690712317421,1
0.00989807202846073,0.0153607636433129,1
0.0123414260513923,0.0147870218763668,1
0.0152038705198904,0.0063557890751375,1
0.0182064084261348,0.00400955919482474,1
0.0200639209119194,0.00398497483044841,1
0.019995061968174,0.00480004517100875,1
0.0201737747564841,0.00510165484465072,1
0.0203440362977597,0.00551797112818884,1
0.0192858993997426,0.00384073445907585,1
0.0353071548719779,0.0138820730967476,1
0.0414518752718774,0.0136976292025234,1
0.0347618701618262,0.0108750856102742,1
0.0481169048046082,0.02221826904598,1
0.0590036244858286,0.0341574471757342,1
0.076041840796002,0.0393957451195817,1
0.0750268942510745,0.0399180984960237,1
0.0730338135241248,0.0376450394096861,1
0.0630511490150226,0.0283204410011116,1
0.0435192029909715,0.0178637420383748,1
0.0678893438103066,0.0214923439215988,1
0.0829223903818505,0.0318264207471295,1
0.0695020313561577,0.012920034590757,1
0.0800209707846938,0.0145562826615519,1
0.0778746194813565,0.0122263514547587,1
0.1239455754502,0.0181376607958,1
0.121954064676673,0.0125443662652095,1
0.120935254808723,0.0118780197887102,1
0.135689629275423,0.0100854513428563,1
0.157314072154896,0.0124071750401125,1
0.160463949596595,0.0135545507805241,1
0.164690797329238,0.00767016017377722,1
0.250191240531066,0.0138978560198201,1
0.245836395143699,0.0110191353010207,1
0.248988624823437,0.011774248142558,1
0.232557248279763,0.0107243011403265,1
0.229345461349449,0.0115407546990966,1
0.226751925302309,0.0118966915210624,1
0.208012530520754,0.0137912618245202,1
0.178611193910617,0.0120447286900881,1
0.169789764286442,0.0106394896595483,1
0.136275697696992,0.0114355258973969,1
0.0922138316009757,0.0131731751699955,1
0.0966544027121056,0.01553097293291,1
0.0972158068711442,0.0193098305886371,1
0.0742475623567434,0.0192924163775909,1
0.0741372044176309,0.015435401770781,1
0.0714906401378806,0.0123236066985498,1
0.0639949864740996,0.00940944120927662,1
0.0634746894875673,0.00850370091445944,1
0.0551687035613761,0.00588128240116249,1
0.0574199165392473,0.00415993600570235,1
0.0686753280161177,0,1
0.196695205277747,0.0113592906878679,1
0.215754151580326,0.00665765242719644,1
0.203661260775757,0.00603033112031333,1
0.20410617350306,0.00712174104546205,1
0.20232403009113,0.00697109027846451,1
0.207811347433586,0.00566130391634101,1
0.249313892192142,0.00811551498948558,1
0.250406820305182,0.0085803516668339,1
0.239442291059526,0.00933608516915886,1
0.240490766573762,0.0164403905117294,1
0.096020551865935,0.00359017478061435,1
0.0565426764178226,0.00761315535952189,1
0.0733098615548801,0.00899527749499448,1
0.0845180454657153,0.00921194865746265,1
0.0814528326359549,0.00879990775238754,1
0.0863369415588989,0.0118434379078855,1
0.0812912572130639,0.0114221520051456,1
0.074910081457828,0.0124221291413748,1
0.0569054214268526,0.00818329574656072,1
0.054836363798261,0.0100229207047477,1
0.0549012691566592,0.0115292034123779,1
0.0547592861687776,0.0110555614595774,1
0.0538469158558122,0.0109470567509071,1
0.0524227404193124,0.0126508794880784,1
0.0500994859684006,0.0186072998399258,1
0.0410275078104925,0.023057095001967,1
0.0378856642964334,0.0217826609400601,1
0.040540470138241,0.022367466430476,1
0.033425326151902,0.0167392806889701,1
0.0345193935855536,0.0145184972760078,1
0.0327541716840323,0.0141705311114279,1
0.0158910312022728,0.00236570286090993,1
0.0154410696766514,0.00756217365184396,1
0.0429633021597703,0.014770701508207,1
0.0758216628100151,0.0208785767537034,1
0.077138641993792,0.0198286857955976,1
0.0746968503591829,0.0152863651670926,1
0.119551428545237,0.0234002784898277,1
0.148010582051292,0.0319281374306482,1
0.171071633459386,0.0335726429304332,1
0.144651773709354,0.0233698382161078,1
0.110390976750928,0.0168496741080706,1
0.112943404668371,0.0180715228017733,1
0.113313158354435,0.0229746251610048,1
0.126143057186293,0.028652958052405,1
0.109433509761958,0.0278136640152801,1
0.0729005738746619,0.0190598432765278,1
0.0742584615254801,0.0236926242215111,1
0.0748256126671399,0.0207028860856868,1
0.0873763743626746,0.0273106764972016,1
0.0592144212275475,0.0191559168414434,1
0.0931886598137908,0.0196980551106523,1
0.169958646253545,0.0273176816304712,1
0.173763064513846,0.0197676724763439,1
0.169743926068398,0.0190557766072114,1
0.185884162917191,0.0164734480660165,1
0.19200107184035,0.0152437925035763,1
0.263546629523574,0.0137436082961634,1
0.283788051826079,0.00912732087378393,1
0.286511911650775,0.00932885249853684,1
0.305833766750653,0.0109052170501394,1
0.318819447327897,0.0144202302451495,1
0.305694004697507,0.0145281117319246,1
0.304806573294246,0.0166925337002303,1
0.348193001985968,0.0180392103623581,1
0.304317405268097,0.00915410820537643,1
0.361789979163093,0.0122259373748521,1
0.27927003505479,0.00992039431007411,1
0.415375088217351,0.0275921584070549,1
0.43717203319367,0.0196099553051574,1
0.407758432702867,0.0194297806019027,1
0.372106646591765,0.0177715410017899,1
0.335340589243958,0.0156682282356179,1
0.328841685905378,0.0151509183509517,1
0.256854269689577,0.0106997052855278,1
0.218004647405366,0.0137816865292991,1
0.217800360616255,0.0127717677959811,1
0.28179958326672,0.0200809512931795,1
0.208881147829123,0.00314956267263558,1
0.323220892543839,0.0129827726483919,1
0.32933824384747,0.0076559396451936,1
0.327362112828679,0.00745584298847629,1
0.335242231863621,0.00727721074478736,1
0.339334022863293,0.00500657151178249,1
0.359924232937427,0.0096544392838277,1
0.329879123944435,0.00548702645802039,1
0.36567577671966,0.0081830935594006,1
0.322825762781979,0.00622795545346972,1
0.323986612797286,0.0127964585826606,1
0.209482258877788,0.00784833419824477,1
0.20178249596938,0.0102270021436663,1
0.213636008313639,0.00949692819305321,1
0.186307437195171,0.0070068244993028,1
0.192592588811665,0.0104177353520177,1
0.220659362666555,0.0105932887228781,1
0.200790201823056,0.0154614455182666,1
0.0969684181716259,0.00495740139295043,1
0.094189407320467,0.00616852290133153,1
0.0969209390624662,0.00544768349544384,1
0.0805140339812322,0.00295684936218171,1
0.0733858738618413,0.00476224432126182,1
0.0531978322423467,0.00517408501261791,1
0.0396596318445582,0.0054513929984341,1
0.0416144630681841,0.00644195743828993,1
0.0378708267389343,0.00629103670218635,1
0.0318641738961355,0.00424532947726245,1
0.0316448947788155,0.00531118893201687,1
0.0379186326539137,0.00919818954385532,1
0.0504438125390012,0.0171256042543602,1
0.0559214413330634,0.0317935165454662,1
0.0416909885786756,0.0192332234551104,1
0.0411385056423771,0.0172237237453512,1
0.0431728639905263,0.0225024029958668,1
0.0445763935945482,0.0175622379994526,1
0.0373739188702669,0.0188500475272385,1
0.0358691756150898,0.0254706462742117,1
0.03482930400616,0.027600846744155,1
0.0349753702083488,0.0283908933816494,1
0.0325595667664939,0.0255108120931321,1
0.0246942773719147,0.016005679539912,1
0.0281707793651981,0.0174283223460034,1
0.0421628433216737,0.0272317397572652,1
0.0626234997474469,0.0356123704900087,1
0.071277136905775,0.035226204334551,1
0.057408185042104,0.0285962929619275,1
0.0581627389224124,0.0275060124353807,1
0.046421382862723,0.0176857865461634,1
0.0422216882310948,0.0153349740399517,1
0.0494018260404959,0.0122951702398632,1
0.0785945269506454,0.0230971321749793,1
0.109790942595165,0.0375779444628092,1
0.116526181850602,0.0272595652130813,1
0.118362196642484,0.0278647962787199,1
0.110636826265311,0.0322060473444427,1
0.0931437325512523,0.028496942179153,1
0.11392266631904,0.0216471058824908,1
0.146609546868548,0.0289845606006664,1
0.149497562557277,0.0294744924015249,1
0.130774056898738,0.030642009896556,1
0.127957108793266,0.0296896257590341,1
0.123925102287443,0.0236972567655371,1
0.126267611047755,0.0304687542749366,1
0.115751345981533,0.0269236469180643,1
0.116332287708904,0.028687809143579,1
0.129120223861062,0.0343693156138222,1
0.141308034024432,0.0877785063313863,1
0.0920868504924466,0.028133859448003,1
0.093763186585949,0.0217985622629838,1
0.087106096985607,0.0231012552335915,1
0.0823146553221115,0.0229553460116586,1
0.089627665299842,0.0175448144241244,1
0.119465551958665,0.0235892785990654,1
0.121748860083119,0.0233418003544018,1
0.132436744913008,0.0202530426562862,1
0.113086924924257,0.0164535461794033,1
0.131620864569189,0.0175044079358509,1
0.159131954994738,0.0216948217666318,1
0.13664263781558,0.0187463747968553,1
0.173403521799475,0.0207500500345085,1
0.181056807473695,0.0200530667960448,1
0.209884965175426,0.027947911927089,1
0.168770493362507,0.0205755774747408,1
0.142780021408669,0.0173378494944348,1
0.0830215909792116,0.00756229915656871,1
0.0947103084972599,0.00426374101863075,1
0.116961268514079,0.00642602305785433,1
0.113721436399934,0.00862566352131274,1
0.100568646116061,0.00702524589677284,1
0.106947444804856,0.00605101298136709,1
0.12337506798791,0.00878732688273813,1
0.129976886658617,0.0108191728279659,1
0.194433609387593,0.0149918553975127,1
0.287703126398578,0.0219627394486555,1
0.314538937655953,0.025235065054117,1
0.287384171928608,0.0331391058972684,1
0.269364172404405,0.0154889699800679,1
0.323970270646099,0.0137792774738886,1
0.215817751425949,0.00719511338801352,1
0.195342311200488,0.00787325623537757,1
0.198902720725162,0.00832882574798365,1
0.231269336466838,0.00866534292316803,1
0.268124083382773,0.0128006977884085,1
0.250991084607809,0.011992121241155,1
0.265311555416578,0.0127782961630822,1
0.269581225051236,0.0126156395322218,1
0.224980216997138,0.021431858974319,1
0.0806937308356284,0.0128390301758961,1
0.0875560404298796,0.0185168210952753,1
0.0819215242912322,0.0165286956624149,1
0.0530903159993294,0.00745081963037618,1
0.0402480412788988,0.0127084607401513,1
0.0382442940361726,0.0117654075233299,1
0.073879766762615,0.0172203948082066,1
0.0803757482018051,0.0069090071479615,1
0.0900007371385619,0.0113392677128546,1
0.0828810876764931,0.0107052710154028,1
0.0806568804547729,0.0106013755791446,1
0.0860676779771311,0.0120418873873617,1
0.0891075364501911,0.0102270911866039,1
0.0911450079340447,0.00785427749669367,1
0.106425396443949,0.00993907529747161,1
0.107935036029974,0.00795480263232321,1
0.0715127371026569,0.00276931235245858,1
0.0908654267775277,0.018978453688148,1
0.0846203798413235,0.0128085434091628,1
0.0835644652193638,0.0137861595898257,1
0.113996421457567,0.0127182486160551,1
0.129281407262378,0.0101384377456479,1
0.124643244790214,0.0119465205762654,1
0.120694694511411,0.0163762342010103,1
0.0778564769971308,0.0098126754052489,1
0.0826603452927756,0.0117605635730191,1
0.09705319072904,0.0139476488692815,1
0.1008863010382,0.0145155358030583,1
0.145010057750582,0.0194998743674161,1
0.214508938134214,0.0296484613382207,1
0.295721184075075,0.050138416345954,1
0.337571656454659,0.0301974935186758,1
0.289847696995206,0.0279922798370468,1
0.253330589094858,0.0244985754709782,1
0.235603577534103,0.0203076838949381,1
0.257063165208456,0.0238698024742157,1
0.267667944662229,0.0255307127123626,1
0.266709235349968,0.0249745189607879,1
0.256819428187977,0.0294119960311959,1
0.217895735352078,0.0224036999226727,1
0.14788313731822,0.014044267179748,1
0.0616844732326463,0.0137341579166849,1
0.0638210634857918,0.0113708640919564,1
0.0759498438393115,0.0114635360182319,1
0.103966595108929,0.0219829365727828,1
0.105729661871016,0.0166173068829149,1
0.106876200949303,0.0158340786083313,1
0.122476587669661,0.0132528585825402,1
0.265922316225119,0.0216554330943962,1
0.375257896587682,0.0218835654941109,1
0.306200569049143,0.0189714217547243,1
0.294498766630271,0.0121630593441306,1
0.337030889268059,0.0131484952868276,1
0.338003929256435,0.0125572476251673,1
0.365758905145641,0.0113928682114966,1
0.424330084681598,0.0140484719801255,1
0.406211781877015,0.0129625346787663,1
0.401193408192707,0.0148576911973733,1
0.322339411708813,0.0148251308009538,1
0.182813485114632,0.00888358186888692,1
0.163073741618879,0.00826421097866134,1
0.119193173953067,0.00833287214390664,1
0.104150566822586,0.00964634869240585,1
0.0774618877226645,0.00915834024577198,1
0.103669721959494,0.0231487821113034,1
0.100252680737937,0.0217154638586539,1
0.12124478931449,0.0259270498593646,1
0.138130425481623,0.027198198148395,1
0.152506119881521,0.0270563009664391,1
0.152980965414009,0.0299200630451303,1
0.161891813000457,0.0204314807256888,1
0.185288841988628,0.0230204595007574,1
0.13339694441646,0.0164052425038269,1
0.131488030519815,0.0176614387904119,1
0.136417296642643,0.0178323492003979,1
0.133062534426887,0.0168103118909807,1
0.127539159905166,0.0230866174469497,1
0.10304940142721,0.0190347457497232,1
0.0978893300916589,0.0147247245554655,1
0.11203719257982,0.0137253229423044,1
0.0980411646540784,0.021128955892167,1
0.0918519101020772,0.0216274562002107,1
0.100780860881403,0.0125057669871498,1
0.107123362051095,0.0137444266011537,1
0.0900580102573328,0.01121473197671,1
0.100219846378053,0.0130171117153712,1
0.113339991554071,0.0147371237974121,1
0.120161151945443,0.0150107970092797,1
0.109668256696084,0.0204170984943283,1
0.0900898868194411,0.0176114704764055,1
0.0843647162624669,0.0159846668481338,1
0.0245309944240059,0.00121830679083385,1
0.0224731202636941,0.00231649726938142,1
0.0496389898676644,0.0101347538435197,1
0.0491508176755963,0.00939612764324051,1
0.0631664647029657,0.0136865253991021,1
0.0647747663305971,0.0114146888130209,1
0.0662836437496257,0.0107788547265798,1
0.0737761235229063,0.0125001793426567,1
0.0832764087308308,0.0141597174869548,1
0.0860750970327397,0.0147055085178205,1
0.0911940020052039,0.0108403005502308,1
0.122487881248391,0.020343247900278,1
0.0902206950780739,0.0136215749499579,1
0.103671540050311,0.0159633717490669,1
0.0981254780136176,0.0126050093671114,1
0.101201776769445,0.0105452033134654,1
0.11810079876113,0.0131506562366794,1
0.114079338162849,0.0103567800158569,1
0.103555019409998,0.00649417231210589,1
0.0969610918996388,0.00646772490054061,1
0.0907943658757082,0.00586138689454796,1
0.119216720736956,0.0110625112411715,1
0.134421905450622,0.0145111048922547,1
0.200182043880253,0.0225427496926984,1
0.206369905865268,0.0238039275019276,1
0.218194592187362,0.0201291606899501,1
0.43972803336303,0.0372836977578956,1
0.440296230129991,0.0312176780804886,1
0.34771456421847,0.0281577351270728,1
0.277720172597237,0.0227734820542651,1
0.227120678466483,0.0208814076167746,1
0.212164381296059,0.0186797811659975,1
0.175379741444056,0.00998764142535763,1
0.268917480468334,0.0180532955255614,1
0.284644365509171,0.0132191377411842,1
0.273500150560089,0.0175708867903723,1
0.210350385130254,0.0157663117625353,1
0.178937685245724,0.0138579614561893,1
0.224584925267662,0.0168833595032481,1
0.234598060641358,0.0180347714811494,1
0.251573586187697,0.0184285612758036,1
0.239465807653796,0.00753804200518892,1
0.377382102516351,0.0142674058282345,1
0.412275508122623,0.0131525783032781,1
0.402281509949245,0.0125339611164612,1
0.391200176736531,0.0151271714539669,1
0.406842156314298,0.0154023037496632,1
0.406096135296311,0.0138911323327084,1
0.386554564480808,0.0134076232103744,1
0.379571391321964,0.0135620807451392,1
0.319202122206331,0.0116018110537651,1
0.286776079869582,0.0168402828980293,1
0.193170829001008,0.0213974708088164,1
0.0934631038666924,0.01066876330228,1
0.0774900647308746,0.0105758751966709,1
0.0811056491806975,0.0091463611557848,1
0.0588803918727169,0.00848622592228711,1
0.0632627529032815,0.0215732622086836,1
0.0599501328970939,0.008961802195486,1
0.122791406662375,0.0150330950838339,1
0.180263004472938,0.0168153304936178,1
0.201337674101864,0.0132860811492388,1
0.208342652459869,0.0132538193421776,1
0.210022315936238,0.0136080732991562,1
0.244557856094185,0.0166807450412727,1
0.245276091585447,0.0138425545010152,1
0.247658677955298,0.0146684768389762,1
0.220775547813894,0.0133622560144581,1
0.212700983193539,0.0178751220975056,1
0.151630737469789,0.0142975527189503,1
0.0992329237187007,0.00949593454020917,1
0.0932003191504013,0.0122646452701658,1
0.0916525159533121,0.0108354543525454,1
0.116274570790525,0.0166250517703886,1
0.0907953536649389,0.0154725304392947,1
0.0936732547004663,0.0216595431530199,1
0.128512505023792,0.0303334561775583,1
0.122732474970877,0.0224015438009564,1
0.106652489088749,0.0203548488566319,1
0.0865207107281032,0.0107989037520286,1
0.108987874852858,0.0164980865498323,1
0.109446262422655,0.0248965234289707,1
0.0986111983816882,0.0256994140693224,1
0.124576587602971,0.0296663313861175,1
0.134801173064047,0.0294968846116748,1
0.130187976924595,0.0293870294157112,1
0.140170858138519,0.0311377273554673,1
0.129829239057042,0.0392103960632169,1
0.0558834308126501,0.0192668242368467,1
0.0191696648424545,0.0428275443117986,1
0.0199703183749117,0.0405161980715736,1
0.0161210160358232,0.0159577434954375,1
0.0179720414402637,0.0181948041615324,1
0.0175383664297935,0.019062166019713,1
0.047079190213556,0.0172602597991819,1
0.0719200495299622,0.0187613666249054,1
0.0864956684541228,0.0189595657792161,1
0.127150605474664,0.0218601198586206,1
0.127023916326068,0.0167501883586705,1
0.113586017187098,0.0133101706399833,1
0.0923335994317422,0.00756210133030809,1
0.0897565030323893,0.00493440264615383,1
0.107620899237704,0.00708974641440707,1
0.0955686193687698,0.00321127095780652,1
0.0961341475504183,0.00568341048252539,1
0.0919115460031628,0.00613088878404812,1
0.0929165745845258,0.00850969581499015,1
0.0645806801956457,0.00488354112745822,1
0.0592314591452733,0.00617547665746007,1
0.0566583925936891,0.00676858322201009,1
0.0542664793419879,0.00939263041071038,1
0.0520574426103164,0.0216178192453698,1
0.0144903213169669,0.00455165721897039,1
0.012818846623467,0.0175401649626552,1
0.0149255576662449,0.019733477042919,1
0.0184788016426057,0.0235920553834844,1
0.0176893936636648,0.0218514639962865,1
0.0174785413477888,0.02178315602213,1
0.0214638362221098,0.0330876492730392,1
0.0216391205554151,0.0386591954385387,1
0.0385580032999927,0.0299225681709566,1
0.0473264169564481,0.0358353127116288,1
0.0373279868007318,0.027204168256727,1
0.0385622589948682,0.0278995792735522,1
0.0382428377521412,0.0209076600013431,1
0.0437484466994751,0.0224517903441452,1
0.079815926737532,0.0322908762163877,1
0.120093135455298,0.0333779617457544,1
0.118993786864373,0.019641770895533,1
0.107584035383737,0.015350300848248,1
0.105229633209441,0.0218584430960446,1
0.171068407430683,0.0227770317557662,1
0.204179844653709,0.0152133425125047,1
0.172832836411319,0.0126922387477208,1
0.160896717840496,0.0125740055978356,1
0.1874624510234,0.015250826574518,1
0.178667124586205,0.0177758327770978,1
0.151996631036439,0.016464582522751,1
0.146212216669086,0.0205321659534767,1
0.190378621529407,0.0165635967736888,1
0.250045859380233,0.0145663918081774,1
0.217798932646807,0.0142994983145941,1
0.188943789743102,0.0177957640703677,1
0.186974146729874,0.0163977920899084,1
0.190707783287714,0.0159612873957429,1
0.195781288224767,0.014782776944645,1
0.195871217469922,0.00926522046201368,1
0.212459322385016,0.00920300119739192,1
0.200549821830028,0.00693295835213002,1
0.165539097329035,0.01188726446803,1
0.115190271920289,0.010882705238388,1
0.116651113597561,0.0092007357067237,1
0.118663169374874,0.00856710704058574,1
0.130602077861891,0.00449227336734922,1
0.20037336582888,0.010566195649829,1
0.1708239186945,0.00856678843721224,1
0.23677442268082,0.013373788838623,1
0.281808946565266,0.0126295169866781,1
0.293086546592094,0.0116279653521484,1
0.430737242154119,0.0175366706197088,1
0.457625123057626,0.0110804846822326,1
0.380924556455471,0.011027696552246,1
0.289292788222185,0.0065767216779793,1
0.335291699419089,0.0128889280376297,1
0.367307611278335,0.0142606221351459,1
0.389376426692272,0.0139666037463296,1
0.446939164780929,0.0237390194650645,1
0.434648228802079,0.0254849120072594,1
0.465068377466024,0.0357726000633793,1
0.22997044109998,0.0150525325371453,1
0.108987114296019,0.0172879506315176,1
0.100060912529293,0.0135383665982707,1
0.144054470089722,0.0222532638639303,1
0.338269931221183,0.0370095633112852,1
0.531733509724244,0.0334553610163833,1
0.530803192154579,0.0438154830785136,1
0.512787869924256,0.0321660440719104,1
0.518136836359347,0.0323630102969483,1
0.507703107766478,0.0323566187316548,1
0.510952164261418,0.0399462574807451,1
0.63690670132879,0.0449409488013015,1
0.699331573517948,0.0428732054954684,1
0.679917619878277,0.0439742344740379,1
0.503858777413745,0.0500014833463034,1
0.210981158536966,0.0349788268924867,1
0.11237448925943,0.013663436947721,1
0.0899290189020681,0.0210424787092268,1
0.081746209215908,0.0184145091111879,1
0.072268700819737,0.0162555256867527,1
0.0654435622242123,0.0147472608757508,1
0.0706706464505838,0.015960408821694,1
0.0638145359246608,0.0244173518650227,1
0.0286745445098698,0.0137462923210646,1
0.0265097205359267,0.0102716717630003,1
0.0354587676363134,0.0178636640765162,1
0.0325880308869112,0.0100853939113714,1
0.0324089795356676,0.0074442953618757,1
0.0337811717856416,0.00699748888120002,1
0.0454792973120647,0.00704220778044638,1
0.0477256553058319,0.00555450771239519,1
0.0409142254625634,0.00385002908113124,1
0.0403419229233803,0.00449109418877397,1
0.0417114175860917,0.00558165933646363,1
0.0394695833439409,0.00521330558683432,1
0.052162097477383,0.00632474895014608,1
0.0548308841884211,0.00300752336736368,1
0.0623633830657176,0.00550222979459252,1
0.0558244529011826,0.00408002050038016,1
0.0540512714239065,0.00403541344943144,1
0.0681376552196966,0.00922283050692673,1
0.0671028606057373,0.00538659687813779,1
0.0734918466086787,0.00537906423294531,1
0.0758117047593662,0.00596885077966272,1
0.0837459154284624,0.00656470010100389,1
0.0750780029720992,0.0075320342846196,1
0.0567787749015863,0.00935058081500669,1
0.0560830722816419,0.00797912570478187,1
0.0510630115396652,0.00792890158493562,1
0.0493907897996974,0.0120160600549297,1
0.0457550931914629,0.0103265274312194,1
0.0399898402680083,0.0191244628863527,1
0.0162625690714468,0.0071053997297276,1
0.0381118533978353,0.0125120394081482,1
0.0798557766081111,0.0392209628211276,1
0.0838181157633305,0.0209722775713153,1
0.0855514573936669,0.023260972211709,1
0.086105838268744,0.021279197573711,1
0.0867266792413619,0.0237044893000524,1
0.0927866992937288,0.0267053580172088,1
0.0924329375859708,0.0222692651764833,1
0.0815464888175691,0.0190810917007792,1
0.148489907769934,0.0167824387136928,1
0.241603071525414,0.0157092481090051,1
0.242260106657254,0.0170269795802423,1
0.23640957360203,0.0200498177321113,1
0.188786951377295,0.0163550827976083,1
0.159150725639351,0.0146585904384316,1
0.15881893942041,0.0117667667262887,1
0.183855871452492,0.0127475615691647,1
0.173930141296886,0.0126755504543313,1
0.169255570298757,0.0118401897416509,1
0.13807407338739,0.0145045514104831,1
0.075785195644,0.0121894099302693,1
0.0814799281699545,0.00764601495758156,1
0.134820554070824,0.0136145860052316,1
0.132415518951511,0.00761945360983723,1
0.186135782196543,0.012260906122471,1
0.207774113633571,0.013254826911509,1
0.254444025388877,0.0116850992379648,1
0.360517635886087,0.017206577045485,1
0.405271117663826,0.0177894256044042,1
0.389122920787995,0.0168699207505735,1
0.390765809481974,0.0164207431223728,1
0.380694716188851,0.0162142350552099,1
0.38802900636597,0.0136528012521501,1
0.391900396135947,0.0138569968877232,1
0.293732255683011,0.00470756824901968,1
0.301428449393304,0.00641655999653842,1
0.305075787426059,0.00892935533497985,1
0.253408228032769,0.0057885310955131,1
0.23101502906432,0.005399192050786,1
0.247469345258388,0.00495376075551106,1
0.271522872473578,0.00610979104969737,1
0.227533498970435,0.00434541282367475,1
0.218454061891739,0.00485908254794707,1
0.186298716738678,0.00839716783840053,1
0.142751756965306,0.0148995310445488,1
0.0970328680707908,0.00812960008560551,1
0.0926376774252345,0.0114373998006981,1
0.0829455241360676,0.0114378645989834,1
0.0687610995575851,0.00743028478089283,1
0.078431215830814,0.0148893790870451,1
0.058543113711891,0.0167671470656012,1
0.0949731198169717,0.0292495363357004,1
0.111786140930713,0.0309102240523211,1
0.133824211836564,0.0367841308704149,1
0.166564400569702,0.00628134914853214,1
0.288287271439898,0.0125892783364564,1
0.291553036143515,0.0112342684654342,1
0.287054023048324,0.0102725000794739,1
0.282031129765836,0.0114956668944978,1
0.283990479471963,0.011881367732392,1
0.302670814045771,0.0126748952995752,1
0.277874180776549,0.00896443434586903,1
0.248854780593429,0.00736817946175745,1
0.193844921433238,0.00364964414271975,1
0.171815880575528,0.0170753996151043,1
0.0843000774925441,0.0100657607932139,1
0.0831171149108641,0.0111043231214491,1
0.0898744470113832,0.0120050547929719,1
0.0900954982994916,0.0107160773863089,1
0.0955441562505706,0.007234313761285,1
0.24359148403768,0.0189384748832324,1
0.341943229505248,0.0329621462304404,1
0.543814087784553,0.0431237759171909,1
0.586411907291061,0.03160286866624,1
0.572670797152531,0.024155675904616,1
0.529947624689904,0.018875816150352,1
0.54326128007442,0.0154202679433916,1
0.6193559519409,0.0185670389944254,1
0.775927105520312,0.023295158659041,1
1,0.0325100309905282,1
0.977062705411801,0.0339597889872761,1
0.867682818902842,0.0302736254159397,1
0.502303209199305,0.0201390906270089,1
0.249352189309513,0.0113094696904211,1
0.227163907996176,0.0124096432305847,1
0.181957035702887,0.0177690791914005,1
0.0782918033122008,0.0135897832126634,1
0.0776661380998059,0.0122650886019721,1
0.0756972283416396,0.0131937505207453,1
0.061412160906397,0.00880039530744441,1
0.060063079349235,0.0137240634769999,1
0.0544238940909188,0.0123134883568951,1
0.0537198770962982,0.0114252933467049,1
0.0466024603441042,0.0112517686736625,1
0.026012960815223,0.00865302014043612,1
0.019081935086283,0.0120010255647126,1
0.0222318349191661,0.0196322325574639,1
0.0245611626308489,0.0194341613433146,1
0.0228422985264645,0.0290815363965086,1
0.0158702564583165,0.0243769393871567,1
0.018487636914725,0.0209646972921322,1
0.0186594367312052,0.0186788339321217,1
0.016534303849654,0.0163201638277842,1
0.01418992096429,0.0124742018272189,1
0.0138641785044158,0.0122566872099942,1
0.014502872380621,0.0100954448394275,1
0.0165405986923194,0.0121424609114756,1
0.0221323455983417,0.019439685160544,1
0.0252064846496927,0.0104401808378716,1
0.0327432237219328,0.01705400309097,1
0.0347176791523181,0.0221039514302469,1
0.0367049579963376,0.0175744350508639,1
0.0395088625054137,0.0212357793916839,1
0.0420441461835502,0.0224226506069419,1
0.0426657871852646,0.0198189508974488,1
0.0466387382067622,0.0222538446509226,1
0.0466405545371782,0.0224803980102391,1
0.0383672714326938,0.0137263507334297,1
0.0428661023460376,0.0344454301545205,1
0.0376489713429214,0.0272253204455987,1
0.0317367331874669,0.0216674105369859,1
0.0307012608242407,0.0317933474522873,1
0.0311416238403493,0.0296242888703688,1
0.0296430723210762,0.0276742822370471,1
0.0292413503670424,0.0342988852360414,1
0.0226231677778042,0.0406210326119834,1
0.0104968620063399,0.0212184709461956,1
0.0066692818226464,0.0248506883986351,1
0.00754870439099888,0.0268986652245971,1
0.0116724960753318,0.0395337355904684,1
0.0132692992008149,0.0409686340234379,1
0.0132379891344771,0.0408956111205289,1
0.0147193950918076,0.0466476914038187,1
0.0112152543610765,0.057258391848348,1
0.0082533235272988,0.0494702373274654,1
0.00673850860011135,0.0675052001346686,1
0.00731762152752668,0.0822397091217388,1
0.0053110129723767,0.0717836015073836,1
0.00369276557964931,0.101697572306598,1
0.00384570515292797,0.121003832240078,1
0.00288206148857175,0.365484876979529,0
0.000957591969357665,0.323850239154571,0
0.000176416474815538,0.358457999933553,0
4.39033820506073e-05,0.307542600879577,0
3.89033796226224e-05,0.447809704844745,0
4.09087414824386e-05,0.316898680169477,0
4.12967076599378e-05,0.288403999861963,0
4.53186430182338e-05,0.269073546937785,0
5.60362305571463e-05,0.31293648115552,0
6.62668943065308e-05,0.361748095524133,0
7.52967918737653e-05,0.392417960442599,0
8.54803752916299e-05,0.420732714201565,0
9.20328609936836e-05,0.475090073928907,0
7.86786412411428e-05,0.455666961521888,0
2.94193380950566e-05,0.362919002681734,0
2.45003064514458e-05,0.584931309360703,0
1.35087001944211e-05,0.574119813870988,0
9.58141810829191e-06,0.827705479309847,0
1.10867180667374e-05,0.846529255341127,0
1.07514255654944e-05,0.709953809441297,0
1.07989780631925e-05,0.699868864495171,0
9.67051672345374e-06,0.665261541645566,0
9.36063733579351e-06,0.652271150164958,0
1.27340967410203e-05,0.817390300455702,0
1.51367763284509e-05,0.909810017821694,0
1.19976300487387e-05,0.746362496906441,0
9.54484314451818e-06,0.687993391269799,0
9.19273554830866e-06,0.638805101348896,0
6.08882466966465e-06,0.458668395712848,0
4.70182904664915e-06,0.429988360409002,0
4.85968246521722e-06,0.399859486828987,0
8.12953161906062e-06,0.478618736091122,0
8.83016830621782e-06,0.473062974429213,0
7.54286349368945e-06,0.440626163567506,0
5.27936159177027e-06,0.366965958504239,0
4.78839933062629e-06,0.385321347576005,0
4.9664531305815e-06,0.372935990355964,0
6.61025912474401e-06,0.437192834472705,0
1.42269776079071e-05,0.702906625048077,0
1.57994772768214e-05,0.637427950027985,0
1.58621690972041e-05,0.596575205371818,0
1.73174018553995e-05,0.64006585381994,0
1.91149302537018e-05,0.689816871947981,0
2.16558085731634e-05,0.749282015280407,0
2.29768877753516e-05,0.765834983191154,0
2.26956955604665e-05,0.760684961821733,0
2.51905724085593e-05,0.80637331039264,0
2.59193376044587e-05,0.898589972305183,0
1.28032768896571e-05,0.539415395846069,0
1.02923144081729e-05,0.52683798785677,0
1.45727745976294e-05,0.593629831178463,0
1.54364527061764e-05,0.592607561883169,0
1.58211170176762e-05,0.510067227318108,0
1.7319867868562e-05,0.54013599863304,0
1.74024902453859e-05,0.530652455356034,0
1.76012862747869e-05,0.529500653679444,0
1.87365268701248e-05,0.579110317001909,0
1.74343593741742e-05,0.560890341565916,0
1.7449721041407e-05,0.629440979423152,0
1.16261908964775e-05,0.582838429102214,0
5.75613073102816e-06,0.498667690259427,0
3.43773588388726e-06,0.428751022660371,0
2.12272845738888e-06,0.467730759461252,0
2.87915988760167e-06,0.542163688361621,0
2.98881136015956e-06,0.545804032287158,0
4.03020782844376e-06,0.601116088699031,0
5.52684492235928e-06,0.701477484837082,0
1.59554213679099e-05,0.855990292022169,0
2.65390315338655e-05,0.70854210337033,0
2.61341644229953e-05,0.643478016407068,0
2.59993909840164e-05,0.637156679915784,0
2.68337266463349e-05,0.594842408687691,0
2.64773791165437e-05,0.555227679118672,0
2.16934274462396e-05,0.504588952507941,0
1.85398133837289e-05,0.470834430621365,0
1.82988084896444e-05,0.479649887105058,0
1.83538365122016e-05,0.496024599869791,0
1.22421435463882e-05,0.510845011793472,0
3.01165822418434e-06,0.351977952696345,0
2.96382172336583e-06,0.385424081089648,0
2.28959227062105e-06,0.357839593723265,0
1.82584770790253e-06,0.390923619121081,0
1.07456438378831e-06,0.377699768204637,0
1.60070346486145e-06,0.446051701629654,0
2.23506059407453e-06,0.449378831296265,0
5.67414791076682e-06,0.467450744202145,0
1.30816351182965e-05,0.621770367024628,0
1.35607335447565e-05,0.582294296805132,0
1.32080437641319e-05,0.600462741155285,0
1.32419104767875e-05,0.610783341034485,0
1.38140414672049e-05,0.622336359808971,0
1.62405329137829e-05,0.675734450686435,0
1.66002939764351e-05,0.657130699858105,0
1.57696235370495e-05,0.642044235744168,0
1.46092238262755e-05,0.648781546535174,0
1.39109784146176e-05,0.836315274870403,0
9.54167173970446e-06,0.798712455249823,0
9.47409570311946e-06,0.772744885027976,0
1.02071190773831e-05,0.676155927707337,0
1.07080606850136e-05,0.569071298880042,0
1.03326739553241e-05,0.526484909502245,0
6.76834082291001e-06,0.408886552627955,0
5.55992765890894e-06,0.378520009651953,0
6.80711373343352e-06,0.418809158794009,0
7.49240183244899e-06,0.446272026590765,0
6.10288711054836e-06,0.42273923823655,0
4.14274296581182e-06,0.348590508488127,0
3.87351625081437e-06,0.364625619357877,0
3.31521711360782e-06,0.384381610788727,0
2.89722881677767e-06,0.438822741442127,0
3.51420229524182e-06,0.430742146692194,0
3.6268139288064e-06,0.394926642317763,0
4.84322336332614e-06,0.432486176982268,0
4.90041229352649e-06,0.423106821848461,0
4.59011415513535e-06,0.412861000123451,0
4.6842062353778e-06,0.412788158593184,0
5.00428126911475e-06,0.428384009330164,0
4.82064379635584e-06,0.434243508474277,0
4.84739987980235e-06,0.441948289723359,0
6.13152130750922e-06,0.501094924778386,0
7.77271642933247e-06,0.731818749744413,0
6.08949412129246e-06,0.585449787743546,0
6.18973667158776e-06,0.640651453219095,0
7.01140781705042e-06,0.69820138455015,0
7.47471890132205e-06,0.727389620772365,0
8.95933246375255e-06,0.786629263105214,0
1.11956345823038e-05,0.880801877060509,0
1.26287298248253e-05,0.943179112054273,0
1.29476858818717e-05,0.891116304404772,0
1.14486133293089e-05,0.777011725746998,0
7.65627306171763e-06,0.61871812578973,0
6.62246158698754e-06,0.685223618220249,0
8.18599372548578e-06,0.747697154556087,0
8.05637136013028e-06,0.715092321974066,0
8.01665576587477e-06,0.711482554961084,0
7.21902212135759e-06,0.703639898862396,0
4.86182952441098e-06,0.588024380141419,0
3.03295406187986e-06,0.466406136954453,0
2.21821505450107e-06,0.43800315682993,0
2.62058383916018e-06,0.52636952232258,0
1.8871849081387e-06,0.47838954768675,0
1.66803825266579e-06,0.494012354843391,0
7.99714428988955e-07,0.362148096519505,0
1.72975782397618e-06,0.417946652921316,0
2.16217378706505e-06,0.420004516743815,0
2.25178556421182e-06,0.424649279542736,0
2.26518338943417e-06,0.422612372686485,0
2.06220996429037e-06,0.404348294842544,0
2.02542760350109e-06,0.408825307367788,0
2.19751448031174e-06,0.419073707395468,0
2.32601984732651e-06,0.410259907776666,0
2.6649765823274e-06,0.432371684109356,0
3.53018648324623e-06,0.524013212522421,0
2.80597061287265e-06,0.519067396005377,0
2.7467190330747e-06,0.545703957637968,0
2.73045556800803e-06,0.551609837774737,0
2.70549637582124e-06,0.541559791693114,0
3.62085689741139e-06,0.592593274199148,0
4.74918403908129e-06,0.673529951450398,0
5.13340168313481e-06,0.699247506777601,0
5.02731102059786e-06,0.722983816147013,0
4.8621812310616e-06,0.70822468237494,0
3.733350709248e-06,0.662182617360133,0
2.51096072295099e-06,0.574564082557165,0
3.37846111343203e-06,0.572753215712142,0
5.54610734607253e-06,0.734506808522063,0
7.39893106398654e-06,0.859136933787809,0
8.78710930061478e-06,0.959343082663578,0
8.9729678008724e-06,0.961778515974947,0
9.09544469607877e-06,1,0
8.4211113799637e-06,0.971032013869776,0
