Activity,Complexity,Tag
1.04158278203997e-06,0.337521584572021,0
1.32518039244901e-06,0.395348806804393,0
2.68652012705412e-06,0.467729584812682,0
2.63508653393816e-06,0.442503774554171,0
2.62050595357298e-06,0.446766181070687,0
2.54902353623818e-06,0.449186153501011,0
2.49998053739977e-06,0.439678819484938,0
2.60973190813667e-06,0.430000256468088,0
2.09936996576494e-06,0.38090229146378,0
2.06657146131523e-06,0.38575194030156,0
2.17769507165644e-06,0.396524235844086,0
1.9669624754683e-06,0.396769932936526,0
9.81442657394832e-07,0.331050212430093,0
1.10618068076392e-06,0.36620531144363,0
1.09152044956079e-06,0.362294264134072,0
1.2568463883123e-06,0.382107304245927,0
1.71405161998546e-06,0.393049829786985,0
2.49635508784915e-06,0.384682513812348,0
2.69938620976797e-06,0.371670640300759,0
2.95735602942118e-06,0.40111612852433,0
3.0523289623003e-06,0.405958818961087,0
3.31756805687726e-06,0.414571419908461,0
3.23382863181852e-06,0.407056863273909,0
3.4572456907729e-06,0.423488301315135,0
3.74790796967461e-06,0.443767084368907,0
3.68172133074652e-06,0.4376050330939,0
3.15697967245502e-06,0.461232047520335,0
9.23724466157285e-07,0.296124923461054,0
1.03477938433288e-06,0.334586341067074,0
1.07755181749598e-06,0.334658481858701,0
1.55203292835976e-06,0.369955763254403,0
5.00802779359929e-06,0.597197512764226,0
2.8004896778727e-05,0.239911204014358,0
9.81036694714541e-05,0.210221868903801,0
9.50390196203887e-05,0.16098127603898,0
9.32661731864298e-05,0.157812263218638,0
9.49012428483953e-05,0.150335184048446,0
9.6280044826442e-05,0.151546507708962,0
9.99144051140902e-05,0.147377275302334,0
0.000102009014004473,0.152406789082255,0
0.000102066281019152,0.151304172980431,0
0.000137075221912873,0.103069788564461,0
0.0003969106125341,0.1471798075193,1
0.000423789193742173,0.10717854691757,1
0.000421178395902688,0.112672872428239,1
0.000416589934577841,0.110869164890818,1
0.000405334058837619,0.113556075465185,1
0.000388625417098795,0.108425743059615,1
0.000367005701947487,0.10968103484093,1
0.000343494233956242,0.104308204474027,1
0.000337166542526219,0.102648697512315,1
0.000328105439144319,0.1536916972013,1
9.60346053131094e-05,0.110987081950829,1
4.20769252534574e-05,0.209715428076813,1
4.18273105527857e-05,0.211335637062385,1
4.38822743745341e-05,0.1197643403027,1
0.000260181363992258,0.141343120499666,1
0.000589748629820418,0.159402848858005,1
0.000585803138391757,0.10270629760464,1
0.00060159198454892,0.10310996610611,1
0.000609821622990179,0.10348961069446,1
0.000605358434792652,0.103416226741408,1
0.000631826743956182,0.11024371159217,1
0.000657467016907088,0.116299724896733,1
0.000642666686361637,0.11577516842655,1
0.000649719647250275,0.138642004965413,1
0.00049633625845641,0.222274025020295,1
8.2113001455136e-05,0.121232592416075,1
1.33107047168435e-05,0.215919117402024,1
4.21067919789511e-05,0.255039609078177,1
7.48878614482662e-05,0.281218047000162,1
0.000135858386171832,0.214515723493671,1
0.000457484143248365,0.265875540551279,1
0.000847848517688308,0.366294350642694,1
0.00104964208475869,0.310495548516052,1
0.00128425774475416,0.182283983604878,1
0.00182821657034665,0.135178732091447,1
0.00177186294182933,0.0750098587440888,1
0.0021318254122514,0.0502174476204062,1
0.00172600226392495,0.0397729387370471,1
0.00139142187826254,0.0325451053506893,1
0.00173056662144953,0.0348079855027199,1
0.00175009223087388,0.0246030141993709,1
0.00163231883314175,0.0222351452143744,1
0.00142203701418892,0.0195971410060254,1
0.00116731515417505,0.0169271811756105,1
0.0011728699608488,0.0172086404385667,1
0.00166435151509812,0.0208312320574935,1
0.00524355043708523,0.0508833076240018,1
0.00602371761100632,0.0370944085215523,1
0.0118211074760051,0.0204493787576701,1
0.0211842750590408,0.0211644516628267,1
0.0204263244781249,0.0175572158608065,1
0.0198544199228953,0.017475124734898,1
0.0194796197148339,0.0152222985732519,1
0.017772331825369,0.0135339608325702,1
0.0153732287746189,0.0115231351518656,1
0.0145485686041246,0.0112092390191861,1
0.0146554718902264,0.0108502595477507,1
0.0159399962578079,0.0117894170498045,1
0.0128706755670063,0.0149507213179461,1
0.00560337716677644,0.00669195118349461,1
0.00745376013813947,0.0119025498074615,1
0.0077628155463076,0.0114126893929738,1
0.00806149333653881,0.0158062682680232,1
0.00847022090803492,0.0177313645767494,1
0.0102356717755881,0.0210899624676896,1
0.00807858172701184,0.0168747366045689,1
0.00678868886007576,0.0162067791407866,1
0.00691757790657736,0.0156424346196071,1
0.00600405884302168,0.0163430542109004,1
0.00397226141169811,0.0172271412860547,1
0.00478707284094159,0.0196661945864052,1
0.00773234718408955,0.0329258085443218,1
0.0113453093315194,0.0438086715262217,1
0.0133884989488309,0.0566567444585383,1
0.0149456653977528,0.057965035785373,1
0.0146852881853133,0.0477831463294009,1
0.0130726993300099,0.0403004334250273,1
0.0155080275544006,0.0347092778498442,1
0.0192713746367003,0.0311659495744723,1
0.020237950458842,0.033370680635359,1
0.0172832111719391,0.0144764236654241,1
0.0176595029044191,0.0136342325239306,1
0.0164720373557711,0.0127018875154817,1
0.0174766840642042,0.00641326543679285,1
0.072655921441416,0.0173283395097822,1
0.0856224103872081,0.0128321390213735,1
0.104284983665608,0.0115731660813028,1
0.142677336020496,0.0155683047193182,1
0.150745799199,0.0160017092390479,1
0.147437245192708,0.0148998425744737,1
0.133135779260325,0.0152857427464623,1
0.100721006234721,0.0117463517231389,1
0.0754063724043226,0.00858378060737933,1
0.0449496711447951,0.00376512165357301,1
0.0477832170291179,0.00763462631301771,1
0.0541730079311204,0.0140388567604696,1
0.0477565985199236,0.0320507961576792,1
0.0292701527726065,0.0265534455800463,1
0.0427142355299515,0.0161789107937737,1
0.0784386497546247,0.0140670469198985,1
0.0807831951665374,0.0142123657602347,1
0.0817882978209573,0.0128038625998401,1
0.0978939985680805,0.015554639925577,1
0.0946165252467055,0.0157937068376987,1
0.115226030173167,0.0181036765539024,1
0.143011753304496,0.0218806767493863,1
0.172757830984093,0.026326281945634,1
0.181531616522071,0.0254532492866051,1
0.151046998115396,0.0345268617810058,1
0.0548388468107912,0.027267492895831,1
0.0439561825303414,0.0258184188624065,1
0.0249566008083102,0.0212033449211564,1
0.0220655941674655,0.0242480378986402,1
0.0052609880181683,0.00635526570880538,1
0.00370062487541224,0.00925961008368648,1
0.00491154224246105,0.010887172358488,1
0.00507263108987031,0.00763024022823805,1
0.00480285518299308,0.00800234688748677,1
0.00740179566951567,0.0120129737102063,1
0.00788721542781393,0.00979626158320981,1
0.00828828679665257,0.0117837323562357,1
0.0095681868255525,0.00656695438527815,1
0.0209373147375788,0.0174334521726237,1
0.0216080282116474,0.00647069738857475,1
0.0247561456734068,0.00830006654808993,1
0.0245239266384333,0.00785218405758492,1
0.0243812309353921,0.00804463140722289,1
0.0260627328042367,0.00874239929208518,1
0.0249191198946395,0.00743269110624136,1
0.0243575799228747,0.00916472213867682,1
0.0241258837660507,0.00915001555637745,1
0.0231773991011457,0.0131116845595394,1
0.0142846494659276,0.00673629106668205,1
0.0141310657042249,0.0296958649409727,1
0.0131813551809833,0.029373456271672,1
0.0133678981045464,0.0273005651138934,1
0.0255689120311017,0.0321219433112696,1
0.0218586812095709,0.0107676195613973,1
0.0217495589738741,0.0124796635727218,1
0.0203860324230405,0.00928299389263196,1
0.0214992261612937,0.0110194323217322,1
0.0219382534634926,0.0128190201346719,1
0.0226377683769319,0.00968002534189918,1
0.0231573457213266,0.00790264789276305,1
0.0268139145514321,0.00933884517334522,1
0.0537271904697584,0.0167573340434832,1
0.0580898945756567,0.0171869973941995,1
0.058888492947,0.0240276002383679,1
0.0452037313982873,0.0196751790048058,1
0.0388422183568193,0.0188754329605999,1
0.0386571861667573,0.0169509950488216,1
0.0403561186527829,0.0171785547824627,1
0.0310668234782985,0.0166013203848344,1
0.0256714942206884,0.0159216526310063,1
0.0353557167426694,0.0103807599045653,1
0.0464453425725689,0.0130690176062694,1
0.0457158486136591,0.014902597285037,1
0.0468427153782011,0.0129885221058401,1
0.0587411213018913,0.0144079907285889,1
0.0563959924542727,0.00988741045641599,1
0.0572216788779033,0.00899944142482445,1
0.0632780350527394,0.00944869615703656,1
0.0854783755573938,0.0131384818473064,1
0.0889680351449138,0.00894351044347982,1
0.0822247481183873,0.0109280537312123,1
0.0609569990964315,0.00740067950835611,1
0.0592952938545335,0.00629610519874828,1
0.0589151328854771,0.0060105648973315,1
0.0679780100504437,0.00773511100756739,1
0.062992181987794,0.00963580153208633,1
0.0570480749104209,0.00950795607709104,1
0.0599007294586262,0.0104407808858055,1
0.0587432118054893,0.0104212784267753,1
0.0532115408205099,0.0186466923320656,1
0.0253972451885033,0.0131747045817074,1
0.0281173691653532,0.0193916613042876,1
0.00875221830023333,0.00936354432653945,1
0.0058879271087312,0.0117317414479386,1
0.00762116450777405,0.0110283708027177,1
0.00748553733709296,0.00814447415392354,1
0.00702722131013566,0.00946856457521345,1
0.00713636527661242,0.0102817279735554,1
0.0066846822530375,0.00581293191151451,1
0.00852519825834306,0.00903657615256125,1
0.00899100979827251,0.00662449162358209,1
0.0119527200375078,0.00948422681788141,1
0.0131532990692503,0.0102278210616504,1
0.0126193892327951,0.0107709661685004,1
0.0128939048267329,0.0132473692774543,1
0.0128173049261848,0.0151914475838577,1
0.014476750857898,0.0147767753052824,1
0.0147327268299109,0.0117532539743314,1
0.0143278678136157,0.0130581409021265,1
0.0107797518207351,0.00951350085577271,1
0.0116879810099356,0.0156731103478841,1
0.0103572891980676,0.0119569776108014,1
0.0174395123657111,0.0195900775288471,1
0.0172647102887872,0.0154803240093281,1
0.0160920388241747,0.0124780206517662,1
0.0197821752258589,0.0147191760804128,1
0.0333686315654936,0.0215910867914639,1
0.0300570354322951,0.0182088777155997,1
0.0247128431320433,0.0148680614628529,1
0.0242052828913252,0.0147872529377386,1
0.0241570352665102,0.0131938481274293,1
0.0196572093688186,0.00912453736404446,1
0.0252498264589245,0.0111376405023234,1
0.0269969746159471,0.00974844750241113,1
0.0509044429965444,0.018754798371515,1
0.058998662531411,0.0207684366858531,1
0.059277225388297,0.019221557764431,1
0.0588334845809763,0.0173870309445271,1
0.0670638349579296,0.0199471289607152,1
0.0753230893298528,0.0213523008044822,1
0.0780241111097065,0.0232464331182947,1
0.0819505716759133,0.0250953610311285,1
0.0840806355357786,0.0200341085823405,1
0.0697443760184557,0.0219880859426409,1
0.0730961742915671,0.0195484827277276,1
0.0955757976646085,0.025186921514182,1
0.0778379839750775,0.0200183362635752,1
0.0734126853042965,0.0234034705838831,1
0.0767914373846897,0.0218412037125965,1
0.0959111426937714,0.0121612903631359,1
0.160272732480147,0.0215115457142707,1
0.170912994051664,0.0250139006582608,1
0.174750835991228,0.0268764230478457,1
0.193747438688794,0.0267072033783551,1
0.203251738752938,0.0283028105112392,1
0.214964924955617,0.0280065088757457,1
0.20848358552382,0.0331841922727204,1
0.166243896697465,0.0311532813646193,1
0.0457326425317767,0.00582780252216746,1
0.00370606224835183,0.0195741034816493,1
0.00269001241964816,0.0168593337515752,1
0.00540739807399182,0.0234657322899667,1
0.00621210898875948,0.0244021203888546,1
0.0063234909992487,0.0264484036657771,1
0.00709002065946109,0.0274937893230742,1
0.00834437544661106,0.0315089354709909,1
0.00852765871282033,0.0299086047639547,1
0.00662835269130153,0.0203469484061488,1
0.00558621378958331,0.0183865825756667,1
0.00536252979608075,0.0166842907656669,1
0.00462575078035581,0.0125679624329726,1
0.0053785599406427,0.0163321691807655,1
0.00549294399174918,0.0175859800920228,1
0.00647322572996175,0.0178733628255656,1
0.00902776145934126,0.00402403074150329,1
0.0317809761368145,0.0179356920116687,1
0.0336206012223727,0.00865888854562285,1
0.0337593061196079,0.00784239537333893,1
0.0354647461403698,0.00836490208808365,1
0.0366973435981724,0.00649284228282768,1
0.0386675294842503,0.00738660817227461,1
0.0360976366957725,0.00690249384679067,1
0.0356856275412921,0.0067599150777532,1
0.0361656992284707,0.00710599140103323,1
0.0450661370742894,0.0141903347813112,1
0.0346915788938449,0.0109152468798418,1
0.0336134774478799,0.0233984329359396,1
0.0338660325784438,0.0207214160037075,1
0.055309715032547,0.023425817868109,1
0.0500809258558012,0.019775578908466,1
0.0365186062167077,0.0151914077311475,1
0.0360549579036627,0.0150718870758103,1
0.0362014975441829,0.0149834371853892,1
0.0368624075537578,0.0152942265894594,1
0.0361238717364984,0.0161605021027931,1
0.0429651049702736,0.0177232237839866,1
0.0645747675609862,0.0260355399056103,1
0.0949691072748256,0.0394153972281236,1
0.151968101016216,0.0502231409982735,1
0.217017047539963,0.0389250060128864,1
0.191019164021582,0.0327403310529156,1
0.150157147011343,0.0272377978041081,1
0.112516636049504,0.0199714076833183,1
0.095094127517418,0.0177522018590986,1
0.0789427265476671,0.0136716394417858,1
0.0774625860043162,0.0127639241069404,1
0.0956692906204359,0.0115183128624065,1
0.144855944201808,0.0164189311242468,1
0.14514271319673,0.019285365457853,1
0.128023353693888,0.0230495212006116,1
0.127337938385019,0.0223516966044685,1
0.164042597975604,0.0277550440165249,1
0.205922102989944,0.0343705016764514,1
0.256146145043601,0.0392362315612645,1
0.334747174814385,0.0529348652433721,1
0.358599124838074,0.059076074657672,1
0.349983921871144,0.143641790622932,1
0.237009488417793,0.128094267084392,1
0.157437092772751,0.07600189589267,1
0.0740720762712243,0.047071048449219,1
0.0366302974477869,0.0350024333344598,1
0.0259272619350277,0.02809925013053,1
0.0159086231227443,0.0166604040842194,1
0.0110145492452124,0.0160088593281204,1
0.0112340120973194,0.016554065230291,1
0.00939907872790185,0.0139957601295156,1
0.00989267551579747,0.0261626613456672,1
0.0105922142924141,0.0252395769906401,1
0.00777182669625218,0.0222645303703407,1
0.00720548584613821,0.0216261840597135,1
0.00714694675251644,0.0260759009282587,1
0.00704935148044488,0.0206496440133144,1
0.00854780172061355,0.0277485145605767,1
0.0085702277363864,0.0139303227388673,1
0.00793987533852853,0.00728442273304777,1
0.00994334868149475,0.00954638392857782,1
0.010086653399721,0.010869640287724,1
0.00889494089558922,0.00965522952046321,1
0.0104932925037271,0.00850842089877845,1
0.0113957683661625,0.00640497218084715,1
0.0170026831538091,0.00823237826821248,1
0.0217536309868501,0.00854727116884778,1
0.0200889334022253,0.00660880038434559,1
0.0422532061894479,0.010234063123443,1
0.087802503772324,0.0243893647021549,1
0.0855020255567017,0.0208781701089188,1
0.0947181817164789,0.0219761634674617,1
0.0965411905830011,0.0163727583004791,1
0.0764895293127613,0.0138292150762752,1
0.0588465150175813,0.0104698877450339,1
0.0560477559399261,0.0103044428084571,1
0.0543923319978566,0.0121381813525204,1
0.0318106928674853,0.00568056471875909,1
0.0314640969706953,0.00978139854428837,1
0.0299814231136664,0.00930719679011943,1
0.0322093841175348,0.00795936819491336,1
0.0457833824473486,0.0140678166274073,1
0.0678092298301886,0.0277485498530907,1
0.0592650783989612,0.0212758612251271,1
0.107650794064686,0.0284735197140096,1
0.146277056953086,0.0275814291496377,1
0.149081018178786,0.0205995765339825,1
0.145921249454393,0.0196383400370177,1
0.12543162942414,0.0157897860187487,1
0.0900414768445263,0.0116128400899841,1
0.084028281211384,0.00884088221694142,1
0.100477725964729,0.0107305574482296,1
0.100672626695623,0.0117856055927847,1
0.0965961228912949,0.0125758078367638,1
0.0804982573405043,0.0133438940634147,1
0.0598848166565207,0.0094293021348031,1
0.10255869080696,0.0194242696715109,1
0.167084834140806,0.0341598828312949,1
0.199182436123604,0.0374065928049202,1
0.24681151663425,0.0378534990753206,1
0.300686344364616,0.0750112651937314,1
0.265417561686756,0.0701877810446789,1
0.231533192459375,0.0617270057180102,1
0.179968616424394,0.0491751073937266,1
0.109238116267937,0.0323068975950424,1
0.0364811141225852,0.0178384430599978,1
0.0263127600460664,0.017361976433324,1
0.0240192424307068,0.0149691173471627,1
0.0135617053287315,0.00696512145145426,1
0.0124631532748635,0.0413423151160146,1
0.0135539352871853,0.0380692615199277,1
0.0354963648648267,0.033231460723868,1
0.049791370489673,0.0211146381685007,1
0.0440747036444346,0.0185006264531987,1
0.046805174214819,0.0124112191789809,1
0.0462324038790364,0.0085863447131235,1
0.045299035289419,0.00685568248167542,1
0.0516128997268808,0.00790027309357567,1
0.0511484297267707,0.0075097280914627,1
0.051122924982928,0.00716680255731665,1
0.0534447672323734,0.00762674769778826,1
0.0442426106204789,0.00661450235858675,1
0.0357783537993356,0.00657308239479352,1
0.037888211291037,0.0060759652307939,1
0.0320386694569364,0.00880259733551874,1
0.0155366315783008,0.00431941542441215,1
0.0161329997287283,0.00748257273559568,1
0.013781417756716,0.00394172785104626,1
0.0200913102206498,0.00754497185348767,1
0.021938764400832,0.00833280455292095,1
0.0256119414140593,0.0101365686658396,1
0.0267272583560542,0.0109967971437852,1
0.0246208592620406,0.011844930628721,1
0.021885857470417,0.013239295562473,1
0.0222815956706608,0.0121656253520585,1
0.0259569728604755,0.01444116348899,1
0.0184678942471269,0.0117936263866233,1
0.0116864717251175,0.00949578362225955,1
0.0218911820021748,0.0141670855650412,1
0.0273040349092114,0.0116116618338867,1
0.0311665715783432,0.0090544507262683,1
0.0500250706867048,0.0183212763966116,1
0.0443474741886109,0.0104033208798021,1
0.0372636414931641,0.00505509071961641,1
0.0639190857839028,0.0108114129424297,1
0.0835099851337767,0.014233777464062,1
0.0892750844958769,0.0154782536900163,1
0.102332525180945,0.0176800282893095,1
0.14567275546774,0.0214073462785514,1
0.128382579555766,0.0205118215578053,1
0.105902167228345,0.0197095381373274,1
0.104921990798497,0.0189845972398641,1
0.0767961455671042,0.0184506190688024,1
0.0549538075157891,0.00906146946190279,1
0.0890839807037232,0.0152008229295814,1
0.0907236803763519,0.0148144103830977,1
0.103575652851787,0.012043059793432,1
0.17061039634514,0.0204526298427226,1
0.220920812658675,0.0261231005276915,1
0.286762719426701,0.0303778320719664,1
0.318081488479261,0.0344662971579879,1
0.377789669414177,0.0367083370032545,1
0.436198365278682,0.0396459476214841,1
0.394763668399707,0.0829948150411453,1
0.231238409471434,0.0567599951830246,1
0.0941679975227183,0.025648061585011,1
0.0320557386244949,0.0230518206130532,1
0.0220800225024706,0.0223522111018697,1
0.0174884341264187,0.017414838985162,1
0.0168618734321295,0.0242905796999992,1
0.0076485385426531,0.0209426094151371,1
0.00765570076791976,0.0279013115377023,1
0.0108780984151055,0.0304841675219496,1
0.0119523096934969,0.0306744922638169,1
0.0105152288737916,0.0287616422303778,1
0.008160339962031,0.0233896795288976,1
0.00789861337746213,0.0138270571678473,1
0.00799044304745185,0.0146340586179494,1
0.00766713551177808,0.0146859254294508,1
0.00761927007012621,0.0135608500126432,1
0.007996477465432,0.0154664136141654,1
0.00783434772536978,0.0155671107273547,1
0.00667322790344617,0.0163514291397142,1
0.00916699608489842,0.0170393193485704,1
0.0110775782337839,0.0166009508456725,1
0.0103607357397415,0.0161558347252622,1
0.0102332261388395,0.0237366539974507,1
0.00786147854481141,0.0143844601618451,1
0.0112985699926127,0.0177144782237583,1
0.0107286464098529,0.0157123975190103,1
0.0120351701077445,0.0145406196336124,1
0.01194840679228,0.0111829039516608,1
0.0125945954179191,0.00856945633839155,1
0.0132761918013427,0.00790749607165813,1
0.014603859250112,0.010164406165206,1
0.0189332259585143,0.00984352500456546,1
0.0270854128123264,0.0140593960091629,1
0.0236346588778731,0.010181791846204,1
0.0244069922642524,0.00893165519305904,1
0.0456575374275459,0.0126843551421007,1
0.1323046980825,0.0274378053239482,1
0.199392256561069,0.0227347489609928,1
0.188935431979206,0.0219754399982616,1
0.162709258967668,0.0189720527626336,1
0.14661495890779,0.0164999947978703,1
0.179870957798901,0.0123299160899083,1
0.263270148469602,0.0183658593750105,1
0.239249153567306,0.0146909643510043,1
0.173381290084976,0.0102285675228272,1
0.160391890829945,0.0106407855272326,1
0.155038336740121,0.0105058637777155,1
0.163424697606337,0.015407673188952,1
0.143143253593332,0.0140114821265925,1
0.131058774009658,0.0126132766310791,1
0.0933388480423604,0.00978929051180111,1
0.125402942038354,0.0150488456710652,1
0.123678210037039,0.0127535559768414,1
0.172775135526894,0.0184304698733506,1
0.172391342465794,0.00719610049153559,1
0.242265482082319,0.0117946004428008,1
0.346215363708813,0.0178028583987345,1
0.498708985903353,0.0243105742695266,1
0.617047106968458,0.0277776751704378,1
0.668980141123114,0.0289126948953735,1
0.716381488435419,0.0298225496561061,1
0.618311389815528,0.035962527659865,1
0.488365603358908,0.028681852498013,1
0.187069614074281,0.00922276251679799,1
0.0409962521655905,0.0210568280903399,1
0.0246362775388885,0.00646761892811833,1
0.0244363048856618,0.0101994088713639,1
0.0228043124937282,0.0100544033881516,1
0.0200093152665477,0.00915427586445829,1
0.0242062081529456,0.012281539421021,1
0.0261095829513578,0.0123270776105797,1
0.0264860768102011,0.010906485574234,1
0.0265550560374439,0.00925701330845888,1
0.0261976319972639,0.0106133480207703,1
0.0270762584052045,0.00851062980635261,1
0.0278800676690118,0.0118475047112528,1
0.0223678237091736,0.0119741275687158,1
0.0234681562454651,0.0114828538373868,1
0.0237039738092755,0.0108306938893754,1
0.0194200244002498,0.00845593111458532,1
0.0164647292534026,0.00882890641366562,1
0.0161192703832832,0.0101879540823201,1
0.0135540306374574,0.0108840620019799,1
0.0121344909850173,0.0125436889902104,1
0.0118009863934414,0.0194535136681352,1
0.0112556432499167,0.01904412489317,1
0.0112319532141017,0.0190665081172636,1
0.00700330334382561,0.0194299174123373,1
0.00636138575354863,0.0221260662613791,1
0.0140390790868028,0.0320596047795967,1
0.0243127999641114,0.0494982781980132,1
0.0235964804682293,0.0398693139334055,1
0.023484523947405,0.0383092282278203,1
0.0194480033025232,0.0316248945746464,1
0.0158238470938827,0.0249111410745527,1
0.0138961059676442,0.019029351114049,1
0.0116811053022978,0.0138507459139505,1
0.0122708425800028,0.0152480664689091,1
0.0124175763704428,0.0174624767829346,1
0.0658878542582613,0.0165851509184942,1
0.150443969207278,0.0277126301282096,1
0.15217670657707,0.026801079053529,1
0.186461261305223,0.0210669801220115,1
0.272187565884273,0.0308130844501079,1
0.320434485935135,0.0315345254500404,1
0.274848349365673,0.0173094248722004,1
0.225535416088292,0.0152169651464495,1
0.185588976944373,0.0125654807058562,1
0.153382198921536,0.00950101757249727,1
0.178504646261664,0.0187421776323231,1
0.183884819094689,0.0179662163243743,1
0.181700836992888,0.0188855407553052,1
0.174278017442195,0.0253352527564342,1
0.129894852597004,0.0194532337038361,1
0.0691625642273219,0.00882145664317449,1
0.0614413999196478,0.0125768460483645,1
0.0579296106966553,0.0113544063269184,1
0.0592689672696027,0.0126587179840343,1
0.0685118560601166,0.011617912967525,1
0.134013021270883,0.0201621027486159,1
0.220042820135089,0.0338401561922839,1
0.271389171834702,0.0364795603032574,1
0.269410643889708,0.0443540709768243,1
0.21942825911865,0.0406075130962482,1
0.220392718730955,0.0471803964287525,1
0.15170526405854,0.0465395021787633,1
0.0963971502241357,0.0348733052747414,1
0.0508096998561323,0.0168728667495669,1
0.0176665464697831,0.00827736682556525,1
0.0324305766282822,0.0257038063467589,1
0.0276104383191418,0.0210565727003078,1
0.0251638112995044,0.02217181647029,1
0.0273203828192545,0.0223302857108205,1
0.0225469074158896,0.020571642723119,1
0.0184667825516279,0.0162179102842664,1
0.0186837304539852,0.0151439079696318,1
0.0168819633403441,0.0149048459597497,1
0.0155372846948584,0.013428434314827,1
0.0190606310677405,0.0171122261076059,1
0.0225339097822661,0.0212279536520679,1
0.0237780109556056,0.0137260460355043,1
0.0280742073090865,0.0149851851805946,1
0.0287255507695713,0.0101798445064059,1
0.0359575563600698,0.0146464801106194,1
0.0344353669146617,0.00742565779839532,1
0.0395381671432088,0.00954415411057032,1
0.0405167656918283,0.00632683274258186,1
0.0420137184796717,0.00720376788122617,1
0.0399295929620221,0.00782234131202703,1
0.0286437811172193,0.00397101368868274,1
0.0335896097955073,0.00733338380102685,1
0.0389938122274971,0.00882912435305122,1
0.0398626926761761,0.0109238318554615,1
0.0354334211149469,0.00941605575805183,1
0.0356307077806781,0.0199874621408223,1
0.0233175314036077,0.0131346953259652,1
0.0294104957673047,0.0158545277874365,1
0.0327904400386543,0.0150792459747484,1
0.0261384014851883,0.00935598816979873,1
0.0255429863493525,0.00769844826960639,1
0.0246378904223174,0.0108983315761894,1
0.0265132234879775,0.0092220825559369,1
0.0704005454315337,0.0187296976626773,1
0.132222217691287,0.0322668195437188,1
0.177244438118858,0.0310069539200645,1
0.167581038385148,0.029991322739228,1
0.169924889876822,0.0329326404724247,1
0.165318979085075,0.0354166277494491,1
0.209526983076432,0.0169257777461793,1
0.306899928102739,0.0215809042051056,1
0.263433974894662,0.00867043989406589,1
0.251054669387103,0.00880770953224639,1
0.259810816613729,0.0090663156966844,1
0.274833702344548,0.00694421352790634,1
0.319085026175399,0.00875736359979965,1
0.360004334396265,0.00992749232122396,1
0.367274249560395,0.00868136738286592,1
0.364718751140518,0.00795449732113248,1
0.329629025315883,0.0111554250952177,1
0.189869607244111,0.00390680238615148,1
0.171480817846091,0.00687012355628609,1
0.171383953189238,0.00661408884380242,1
0.134033858246826,0.00601213659291654,1
0.143521091658961,0.0113338249057309,1
0.15727041847528,0.0127893933099348,1
0.198253422664864,0.0158729884432211,1
0.247674645515499,0.0265103746292841,1
0.20094429252311,0.0260628870102557,1
0.169390381255838,0.0328806523490276,1
0.168439214536799,0.0490784129928851,1
0.0844118635769729,0.0505387268301196,1
0.059399183227232,0.0496369469885236,1
0.0244434194176505,0.0293942087708026,1
0.0231748421683214,0.0182526627440096,1
0.0409628048850192,0.0268892578420499,1
0.0436025648770813,0.0271213433851672,1
0.041491525468045,0.0265947868417815,1
0.0379677915340313,0.0228497601570091,1
0.0503901443944316,0.0265573047456419,1
0.0542386791951149,0.0204462969068422,1
0.042719782666156,0.0160758507528569,1
0.03573549365189,0.0126083552980098,1
0.030252598125801,0.00912216439959699,1
0.0322531295155526,0.0131843111481833,1
0.0303847907453998,0.0100450834256009,1
0.0299076457448692,0.0099833940335899,1
0.0429660754532564,0.0132861589176074,1
0.0560756253765561,0.0189617950911616,1
0.0501791314459369,0.0193424469109167,1
0.038784956041473,0.0178261314734027,1
0.0433614673247073,0.0194832951133882,1
0.0381428302757793,0.0168778626127785,1
0.0237874690233282,0.0108698836874782,1
0.0226870559669221,0.0122580785348954,1
0.0275347590441611,0.0178717086125384,1
0.0241905484143151,0.0133031787099262,1
0.0220591853888764,0.0146267724901819,1
0.0197350524537654,0.0126123811695916,1
0.021596437717859,0.0138777488978879,1
0.0226187402808744,0.0140320267537591,1
0.0146063249042789,0.00901934823905781,1
0.0129631217974942,0.0111721266352845,1
0.0131344950940791,0.0106884369281576,1
0.0122341518758807,0.00932688540216282,1
0.0138273348386397,0.00853855978717184,1
0.0244384605606847,0.02824282955843,1
0.0194321980529041,0.0242494973114218,1
0.0209242816280601,0.0297612772140625,1
0.0484973681475396,0.0361946354016237,1
0.0799042944243388,0.0567143989242018,1
0.0954660209568866,0.067002176769006,1
0.122424168904131,0.0561672154013192,1
0.105399353472472,0.0209446228461719,1
0.0974203989043277,0.016366886390986,1
0.0898460994892324,0.0142821274729468,1
0.0895477471742423,0.0127300950066499,1
0.0886608381448848,0.00577225998350151,1
0.163738845198086,0.0113604576493124,1
0.167037712860361,0.0104695084092124,1
0.236242998170846,0.012578556211688,1
0.259238844518398,0.00932047283607922,1
0.266602391084142,0.00948970013035438,1
0.250086780543951,0.0113757293407234,1
0.207332471128574,0.009752915048476,1
0.208810670002065,0.00894139378556653,1
0.191279683537327,0.0063892525961645,1
0.210982681330182,0.011082670218248,1
0.180637903766313,0.0107918405890627,1
0.181544155864752,0.0105409409755558,1
0.113386050912808,0.00741124494650053,1
0.0841600465333045,0.00957847170753041,1
0.0924495517979389,0.0108450433270725,1
0.133898321881842,0.0153006455560367,1
0.190623661218164,0.0215116235008333,1
0.195531866769953,0.0280659347573569,1
0.134377395128928,0.0287818660774898,1
0.149587099931295,0.0313820800424191,1
0.146006858709601,0.0248465270509188,1
0.0887667828715739,0.0220552527328523,1
0.0568120454306782,0.0206587904631349,1
0.0398793595456611,0.0129508746925737,1
0.0196177319224325,0.00490259522472262,1
0.0271089473595489,0.0088273134002386,1
0.0323219402824092,0.00952535593906398,1
0.0311106351223593,0.0100449488221801,1
0.0324927026731041,0.0109961244388551,1
0.0300281352326343,0.0114181307858845,1
0.0330511313687403,0.012351044031506,1
0.034384098650291,0.0143213833332817,1
0.0252488347640282,0.0107880601379555,1
0.0179308924977153,0.00658590523201434,1
0.0144501880561121,0.00436909130795434,1
0.0124304863231276,0.00520114214483299,1
0.0112558919120147,0.0057862301142281,1
0.0111128238658962,0.00644182070372272,1
0.0105397835763843,0.00689799644596116,1
0.0111024914266229,0.00606133069584374,1
0.0119105392965416,0.0129571835787666,1
0.0108782610899142,0.0224325724585901,1
0.011640198729572,0.0237730737861405,1
0.010572637845976,0.0286021135874034,1
0.00997505623521223,0.00991324344485435,1
0.02383753842398,0.0195788397460632,1
0.026571167821776,0.0111647048480767,1
0.029851813895293,0.0126766661372909,1
0.0300025314769197,0.010768816042982,1
0.0299223410983499,0.0113939044384549,1
0.027859438458538,0.0102794951135168,1
0.026446474625257,0.00923080699401677,1
0.0261942910081187,0.00848484718646881,1
0.0254886978155486,0.00744782464469955,1
0.0257722903621824,0.0131034665829581,1
0.012117293398257,0.00560603902959111,1
0.00902577232994404,0.0109743916910512,1
0.0111387768128222,0.0133280951121545,1
0.0126105746330537,0.0163963530546733,1
0.0124951841406872,0.0144400707804862,1
0.0165687924290406,0.0181305183925287,1
0.0168559614734371,0.0154063892577182,1
0.0163863721271392,0.00955022909888854,1
0.0226543554289938,0.0144668188797611,1
0.0220089275677526,0.0131164750036151,1
0.0277938566173098,0.0149825624617104,1
0.034133911311413,0.0210393561236232,1
0.0251098608987428,0.00908119078734504,1
0.0255766591366813,0.0105376493695721,1
0.0296713396933614,0.0131985820932654,1
0.0320783245693276,0.0144891367522752,1
0.0384642914702822,0.0187798811387544,1
0.0425751743740968,0.0303631326117,1
0.0441635454090911,0.0319186154282108,1
0.0483145372789122,0.0367079174214582,1
0.0375897503466707,0.0412558233046385,1
0.0160004800325856,0.0195780444221156,1
0.00550581741416748,0.0342589823270204,1
0.0056580589327581,0.0333036759984703,1
0.00600609716890598,0.0318959698248436,1
0.00422620949482623,0.0243296083221409,1
0.00459153201058848,0.0264260235481944,1
0.00534336618741982,0.0342769717903681,1
0.00625630172466005,0.0391759465845578,1
0.00710303588329062,0.0414152142254414,1
0.00749136867898054,0.0417903345153915,1
0.00809588394944752,0.0433092299512803,1
0.00841901337522305,0.0508555573814035,1
0.00659502158635538,0.0603265760525556,1
0.00121995682277629,0.0400617227169348,1
0.000382115157194595,0.0813947124702836,1
0.000141310589402517,0.0691436838867614,1
0.00014839629273264,0.0912624106168225,1
0.000166265845434725,0.0986975037485634,1
0.000167242376401814,0.106257522786233,1
0.000120059945296111,0.102051550765673,1
0.000124565090775314,0.122178224968181,1
0.000138359421147338,0.149893803461707,1
7.9000280385548e-05,0.186205752511462,1
4.30553524049668e-05,0.279254575332499,1
4.5932295567774e-05,0.270474507350376,1
5.63893894716386e-05,0.245482882403239,1
6.09270685093415e-05,0.208975911349968,0
6.12896963226573e-05,0.209044737594324,0
5.45162931031434e-05,0.243314101479435,0
3.58549850783047e-05,0.213698952962592,0
3.68503276087775e-05,0.264911869753025,0
4.12612520269378e-05,0.279244056935008,0
4.43896993927196e-05,0.289473292492515,0
4.59847423703328e-05,0.300888705138906,0
5.14441455823857e-05,0.392290831808646,0
3.49241528439983e-05,0.527559257540345,0
2.01585114412605e-05,0.657205637577824,0
1.93366719569163e-05,0.614298052540732,0
1.40795883549345e-05,0.453618043074535,0
6.66445143093047e-06,0.334244662199094,0
6.22742920039111e-06,0.322262921607886,0
6.64967967518996e-06,0.322549766073189,0
7.11499820002031e-06,0.333270807810986,0
7.11592033220475e-06,0.330772879149497,0
6.74954358381106e-06,0.324821536596415,0
6.44366064453006e-06,0.314345175215015,0
6.36758093050765e-06,0.387747139405659,0
2.492589046551e-06,0.269257625675287,0
1.99748531805766e-06,0.345911836856271,0
1.83777102139662e-06,0.387382305114127,0
7.022120110908e-07,0.286247782545104,0
6.10986676866152e-07,0.321402694181493,0
5.6971731916367e-07,0.302666586331311,0
1.21887806336657e-06,0.382458080337506,0
1.42134147260141e-06,0.298300334371027,0
1.51092968809283e-06,0.283835575486564,0
1.54106870986571e-06,0.281018763579095,0
1.6841654495304e-06,0.293964774095978,0
1.96421298467172e-06,0.316585568202482,0
2.00871989501681e-06,0.316426227705702,0
2.07413882549077e-06,0.318328830514197,0
2.40210248721266e-06,0.338457461406661,0
3.01846365782707e-06,0.38313881900933,0
1.50258472592959e-06,0.303906591733007,0
1.61984472503115e-06,0.345305635578865,0
3.35708609846222e-06,0.436602788458422,0
3.39578517975353e-06,0.404243916073568,0
3.28761506524941e-06,0.394941320488071,0
3.08517771627195e-06,0.383548305502449,0
3.04347462233692e-06,0.386597619622065,0
2.92939905304559e-06,0.383817934783339,0
2.7491706563396e-06,0.376574026308147,0
2.17400554060113e-06,0.338095585840244,0
2.12709807962375e-06,0.33539941373977,0
1.92034622116192e-06,0.395638207140868,0
7.8861278981921e-08,0.151481016169787,0
0,0.159335923713956,0
4.75558936380802e-08,0.183817238541394,0
1.62841126620335e-07,0.233504308301396,0
1.9634526265466e-07,0.243711603044294,0
1.92042981444908e-07,0.238856732059813,0
2.99148768308913e-07,0.268673397921877,0
2.95391346942048e-07,0.256135337826829,0
4.26584295602156e-07,0.290712450985653,0
4.17921598762327e-07,0.290670879445979,0
4.51913195252121e-07,0.297372749321208,0
4.75380857955333e-07,0.28761329471476,0
3.87167822199826e-07,0.269936663308166,0
1.08155681130801e-07,0.177921964951552,0
1.14512847046034e-07,0.179592235145354,0
1.26707376973406e-07,0.182146382679476,0
3.62153115704297e-07,0.269494650555341,0
6.93698926856837e-07,0.361476241952132,0
2.0612995380672e-06,0.496518055398974,0
2.17850126910609e-06,0.385780897093243,0
2.19275556168456e-06,0.382316951059502,0
2.09496143889047e-06,0.372629529217685,0
2.30028840266383e-06,0.387441208131016,0
2.53260904878592e-06,0.405918468885873,0
2.71338437679115e-06,0.356336356530354,0
2.92547244046924e-06,0.332554814329581,0
2.93746951383103e-06,0.333360553185381,0
2.9294439568737e-06,0.337629075287488,0
1.569617655011e-06,0.265916758212611,0
1.53267516870986e-06,0.30435265931376,0
1.43547542024769e-06,0.292788370905498,0
1.47330455669051e-06,0.294251218086334,0
1.39567352232073e-06,0.275355669210279,0
2.14148768507711e-06,0.314366704179391,0
6.49251280209899e-06,0.532224935198265,0
1.23570716951383e-05,0.807743430065073,0
1.39848969396563e-05,0.785380509141324,0
2.30223814425393e-05,0.695110497403856,0
2.28293323346958e-05,0.445180855672984,0
4.73510926905792e-05,0.193649665533905,0
0.000148814035985693,0.24993659001492,0
0.000144674319663832,0.153584615477576,0
0.000132199680525376,0.139779868359605,0
0.000137447285143071,0.145804879643427,0
0.000148363609628356,0.155043198300859,0
0.000161199874596642,0.158084650944601,0
0.000172940978564231,0.165481142907515,0
0.000183900550514396,0.182837845140186,0
0.000190611621206586,0.189121977897359,0
0.000172994577096524,0.348247516343445,0
3.61100992283177e-05,0.242687835954242,0
3.12491386216488e-06,0.44072638902479,0
5.98839055402075e-07,0.275372374413837,0
5.99933853496982e-07,0.286749031532835,0
5.96816044396014e-07,0.279224454482788,0
8.43375146478618e-07,0.293522454170727,0
1.74844020106277e-06,0.439886952892889,0
2.1702485201613e-06,0.500633796204106,0
2.20618280860747e-06,0.473212125465638,0
2.02126196186383e-06,0.453040755427715,0
1.70708210484283e-06,0.411953694843103,0
1.46325545415774e-06,0.377728576423785,0
1.35917365946812e-06,0.366420253041951,0
1.31395316581887e-06,0.355739732097702,0
1.20027237601635e-06,0.354196065328101,0
1.08349362300118e-06,0.388714923617887,0
5.60303886447606e-07,0.288250463037971,0
2.17324170777503e-07,0.193901401683964,0
2.34420434655681e-07,0.216685041836882,0
1.69173568701637e-07,0.19626039858955,0
1.29745401594069e-07,0.184419748410803,0
9.85868891880096e-08,0.174256896311069,0
1.20894269046988e-07,0.193761340124169,0
7.0286251520786e-08,0.189917460072181,0
1.30963083825728e-07,0.225361769741465,0
2.17289156482963e-07,0.251094379558716,0
2.35436450587874e-07,0.243769692264254,0
1.39750636026905e-06,0.407799369154808,0
1.8197627153311e-06,0.364989136396208,0
1.97683363321795e-06,0.372571273122261,0
2.14169883998311e-06,0.356955010911944,0
2.21705708580295e-06,0.364627818513684,0
2.33205251535884e-06,0.369177753854201,0
2.19268927508116e-06,0.352621381707997,0
1.96719501314959e-06,0.332845838066293,0
2.00728557854298e-06,0.333969235812012,0
2.02892661766694e-06,0.329766786059558,0
1.53317813167741e-06,0.336166677473074,0
1.86231951656963e-06,0.338709432624237,0
2.52482738910926e-06,0.36681846175216,0
2.35063147423994e-06,0.372955359126824,0
2.35613700430803e-06,0.374739270960002,0
2.22021024330433e-06,0.368248883982326,0
2.2669473102911e-06,0.370660682307617,0
2.42260435898299e-06,0.361502312321513,0
2.50470753398374e-06,0.345857698295633,0
2.54533667802977e-06,0.351016225308359,0
2.31494896797283e-06,0.339058318040382,0
1.64036196567122e-06,0.36142753681765,0
8.81931297281343e-07,0.298933444308859,0
9.55599969747325e-07,0.318467183868376,0
9.1099282764307e-07,0.313851522738965,0
8.04348908725351e-07,0.290250837206196,0
7.46330289494964e-07,0.293221600381923,0
5.60976374730511e-07,0.292512617321614,0
4.59050030611405e-07,0.318098136470662,0
7.94637386757492e-07,0.35116738439071,0
8.24779148198456e-07,0.321080164923449,0
7.81391826603387e-07,0.32154249749035,0
1.11716073587593e-06,0.365707296211616,0
1.13135622582234e-06,0.327707486818479,0
1.09908106479788e-06,0.312428563811067,0
1.11944341395943e-06,0.311268523330672,0
1.16183476597414e-06,0.305221617791693,0
1.15214409221219e-06,0.292427532116244,0
1.36765841152482e-06,0.326033983811816,0
8.44698205699757e-07,0.27847448176013,0
6.77394560697333e-07,0.265914780973706,0
6.61279966668537e-07,0.274150194446045,0
5.39892958293434e-07,0.260636513399653,0
4.63351376324739e-07,0.270863296421365,0
1.89481598931836e-06,0.444443484952139,0
4.15620805458882e-06,0.588866432516711,0
4.22283083531168e-06,0.533283733580819,0
4.35912096985299e-06,0.559250546593664,0
4.21458136060435e-06,0.548005345483638,0
4.1096849489973e-06,0.548270371683148,0
4.01326767646844e-06,0.544579821977865,0
3.74106013588762e-06,0.525328349984433,0
3.77121218778919e-06,0.531915110346686,0
4.0073352927486e-06,0.554354006095695,0
3.05078372267965e-06,0.644086685102268,0
3.48099620750049e-07,0.26646410692342,0
9.24126128226895e-08,0.22293053633066,0
4.28322648412154e-07,0.266661361632319,0
1.55541975950236e-06,0.37349904547729,0
1.61337215895052e-06,0.350506922933871,0
1.67009291054191e-06,0.353867891326307,0
1.68169754315594e-06,0.353883637642988,0
1.65570764846478e-06,0.34982004441394,0
1.55756819384974e-06,0.338803922848692,0
1.410060388106e-06,0.320746611625246,0
1.44991260237606e-06,0.327411851330977,0
1.52019664879815e-06,0.332132544876219,0
1.40179487631721e-06,0.360658863881554,0
5.53855041883311e-07,0.262554048737619,0
5.16827625871558e-07,0.272480995634102,0
5.23079882545518e-07,0.270653411419036,0
7.38821393845612e-07,0.315907497407915,0
7.49015966071533e-07,0.308312085019283,0
7.83458805941141e-07,0.314269150941276,0
8.19602846048678e-07,0.320713753640242,0
8.25995293543142e-07,0.320759391919429,0
9.91967259393138e-07,0.353577657813415,0
1.08829138320713e-06,0.397403799605035,0
7.39284397751838e-07,0.342148889291396,0
7.4930697227901e-07,0.346875630353271,0
9.65372232161247e-07,0.397583556495214,0
8.9126507915945e-07,0.380749077097366,0
9.41064025925573e-07,0.407394923153864,0
7.25490837159724e-07,0.34475493589987,0
4.44694904883208e-07,0.274602844434091,0
7.87685378762128e-07,0.337990235766882,0
9.81139021985697e-07,0.312099214810399,0
1.53578181867497e-06,0.397608774323879,0
1.53427166017003e-06,0.393256224484208,0
1.63244666364899e-06,0.385398805774679,0
1.70178752921722e-06,0.356105451190711,0
2.0787681963413e-06,0.398456031726181,0
2.25371250834581e-06,0.423005242065779,0
2.36249924863239e-06,0.424548680368788,0
2.21335385640722e-06,0.409905628005943,0
1.28123290896248e-06,0.317996895184754,0
1.06462325698556e-06,0.345566318910452,0
9.08756256168786e-07,0.312897152406792,0
9.99281839072031e-07,0.32635547590138,0
6.94034703250081e-07,0.295222893518221,0
4.49260461513733e-07,0.287686037132107,0
3.71401700587103e-07,0.259760521128962,0
3.41883915257603e-07,0.24322218013265,0
3.07234464321745e-07,0.23473928141269,0
3.43824936684658e-07,0.249854932415295,0
2.33954356975506e-07,0.224427580533724,0
2.11930632995e-07,0.22202151098526,0
1.72293649722481e-07,0.221500588365957,0
1.74538507022187e-07,0.218413295397976,0
1.72006786427714e-07,0.200132750840928,0
2.79453428094096e-07,0.230021938269402,0
2.89804829612543e-07,0.225914022532466,0
3.62203899795614e-07,0.237139280923761,0
3.19218106627808e-07,0.2279571382285,0
3.76399389742028e-07,0.239457341513874,0
9.55139772330356e-07,0.350232727748041,0
9.97200159076265e-07,0.341764357449439,0
1.03660146407237e-06,0.342666091121466,0
1.01760253412032e-06,0.334877839256318,0
9.39736623328201e-07,0.341768189982038,0
9.45185555862942e-07,0.350789146805663,0
8.26400430313734e-07,0.33555809415939,0
1.02704683821821e-06,0.395065228288533,0
1.04734844693371e-06,0.391553373898088,0
1.01834191039718e-06,0.40047979272209,0
5.44925594921725e-07,0.295793479138758,0
1.18732243273064e-06,0.268939397553336,0
8.77044070207149e-06,0.594598172738551,0
1.74044522147411e-05,0.688670204894161,0
3.2137052953099e-05,0.757676541691288,0
3.21167481369672e-05,0.57315228678117,0
3.05212522454448e-05,0.54744624864883,0
3.1331539752259e-05,0.563938868313231,0
3.19396519159143e-05,0.572094240413507,0
3.10427476643412e-05,0.5663137288957,0
3.0270031431064e-05,0.559130926503496,0
3.09744821519066e-05,0.663586704406662,0
3.05363057860709e-05,0.760048172816956,0
2.54723099813916e-05,0.896461719591231,0
7.09894775431739e-06,0.569351269531488,0
1.09653283937373e-06,0.344731088199124,0
6.99672205134422e-07,0.293656191722693,0
6.19419976619811e-07,0.289024708110453,0
6.1830493170955e-07,0.29224153158288,0
3.94523496899983e-07,0.240843454188488,0
3.78313148130586e-07,0.240313011360421,0
2.85733749660626e-07,0.222355401992336,0
3.03393583310071e-07,0.230043830379756,0
2.72438006805759e-07,0.220349914441702,0
2.35352255910165e-07,0.212898072968986,0
2.21553951014784e-07,0.212568551193847,0
1.59087113133281e-07,0.184392402931817,0
1.93206805811301e-07,0.187814178012663,0
4.74776527268666e-07,0.265443854539354,0
6.81366210744146e-07,0.318596497790193,0
6.82296896038693e-07,0.328503943522861,0
6.86158291150412e-07,0.32045898967947,0
7.85834098170124e-07,0.337391288431398,0
7.28514896155275e-07,0.32778007265796,0
8.93848452520485e-07,0.348609325293569,0
1.89110708012294e-06,0.471168790136616,0
1.93494905297764e-06,0.365319468813351,0
2.18989695191282e-06,0.392793794688604,0
2.30026969273545e-06,0.408245917403266,0
2.28339601018382e-06,0.407855532475656,0
2.33381799756499e-06,0.404094362592473,0
2.45691569478456e-06,0.402353103966823,0
3.02165483657576e-06,0.408748417534034,0
3.61554832333768e-06,0.395761717677512,0
3.82519140030356e-06,0.405309587803918,0
2.6870092580389e-06,0.355992984604233,0
2.48121721890296e-06,0.401145778144125,0
2.62807679244951e-06,0.395604228744586,0
2.77191972415069e-06,0.395325116319479,0
3.51387155629892e-06,0.420602016349819,0
3.37176965025465e-06,0.395297738099814,0
3.07731286423517e-06,0.357136351525223,0
3.0652759654544e-06,0.368902087989888,0
2.69388382029501e-06,0.373606414725798,0
2.81412751840376e-06,0.384605016826582,0
2.98396368585473e-06,0.397247955449919,0
2.82687880234278e-06,0.364506532238951,0
3.30334643985228e-06,0.399258985906693,0
3.29967501733479e-06,0.401806751710438,0
2.86262011124194e-06,0.390127353226619,0
3.32758321425425e-06,0.444378731671659,0
3.40231601389684e-06,0.497176263302894,0
3.63807267154469e-06,0.545280355690033,0
3.50744262444412e-06,0.55645221997469,0
3.38985145961024e-06,0.562577345731787,0
3.35203902846061e-06,0.55218087121785,0
3.42882350539237e-06,0.551265797432049,0
4.77862723272791e-06,0.557555903637202,0
4.73857996745448e-06,0.475474558607668,0
4.68888586310846e-06,0.475062677576662,0
4.38942243389691e-06,0.461977687504776,0
3.714886750256e-06,0.422878503796835,0
3.47719047442571e-06,0.36430351576996,0
4.96124495410916e-06,0.396512958656808,0
5.03635783258254e-06,0.37321982825328,0
9.70210693143542e-06,0.396171560889862,0
1.27047470682624e-05,0.346291294498739,0
1.26907779684493e-05,0.362916923744136,0
1.35034324816672e-05,0.408038008909495,0
1.34090863313888e-05,0.414341441137907,0
1.43279439442474e-05,0.430700796587633,0
1.52085297303936e-05,0.445707076161521,0
1.67907326855504e-05,0.508082014535688,0
1.68825235941815e-05,0.528393179763722,0
1.68061915634107e-05,0.553326361377414,0
9.10561804350136e-06,0.629383184171841,0
1.1740148625282e-06,0.369592375740561,0
5.05356836066618e-07,0.282320262804539,0
6.0380072794487e-07,0.309816532780113,0
7.20797384804488e-07,0.341219343942004,0
7.72532207767361e-07,0.326999378154582,0
8.22585743201793e-07,0.334848870834314,0
7.36010093464207e-07,0.317515951427991,0
7.89348424110398e-07,0.339458910909278,0
7.68043161379672e-07,0.337031274193823,0
7.55838942382249e-07,0.351540229099705,0
6.34711333799896e-07,0.328824678811551,0
5.82607390678561e-07,0.338803840328867,0
4.81390486950912e-07,0.312255935529287,0
2.0873096795737e-07,0.225377118317192,0
4.01694210593871e-07,0.306744000280491,0
4.35463960790017e-07,0.309408257038946,0
4.51470638624764e-07,0.30197383066147,0
3.66488473394579e-07,0.286229733745501,0
3.89074631186414e-07,0.297356039308659,0
3.71537013461992e-07,0.27462587446212,0
4.39515528959481e-07,0.286897064367211,0
4.86725422564881e-07,0.296155414314778,0
5.0089151119527e-07,0.292381901656533,0
5.20781234201719e-07,0.309450441115654,0
3.68594676760757e-07,0.28059706221188,0
3.64130020101137e-07,0.282207869649097,0
5.75492272200429e-07,0.346766650765117,0
5.87295564161145e-07,0.336252059631126,0
5.88034673153319e-07,0.324597135259657,0
6.75951290186353e-07,0.347264440663481,0
5.34445696288013e-07,0.309530947724657,0
5.4554141885011e-07,0.319559051345911,0
5.18841616019293e-07,0.328784621817373,0
3.85562243060152e-07,0.286692239047406,0
3.95044167478322e-07,0.28942464374522,0
4.49202928483965e-07,0.293506546129496,0
8.93221402635072e-07,0.358998378673373,0
8.69959816428727e-07,0.333212722369968,0
8.94116004496316e-07,0.334122116842485,0
8.81949673103859e-07,0.327779727750907,0
9.1893552634614e-07,0.329690652994372,0
8.66022512464725e-07,0.307772824871938,0
9.75201626677898e-07,0.31346672908852,0
8.56709979719563e-07,0.281957365170305,0
8.79284376984989e-07,0.276774674832439,0
9.5693993472518e-07,0.276251237841065,0
7.55341258287347e-07,0.248186606387906,0
8.11163666031815e-07,0.267387438403652,0
8.45250482692825e-07,0.278463366115584,0
1.11658507147239e-06,0.326763948050556,0
1.35525533271718e-06,0.368769711908959,0
1.22644916952778e-06,0.355083557617011,0
1.17114796693103e-06,0.357033300885615,0
1.1406508504932e-06,0.373625994408006,0
1.17432865475559e-06,0.395906382464989,0
9.743147760727e-07,0.418402989758398,0
6.16462805618216e-07,0.390048748765153,0
6.97820256330689e-07,0.37885384080186,0
1.13756364548937e-06,0.431723806379692,0
9.37889686112427e-07,0.364169447102338,0
6.02300993542885e-07,0.284526858748122,0
6.48265875056959e-07,0.279084267308834,0
7.4138251575611e-07,0.298172924498464,0
7.37787536660284e-07,0.302400025115357,0
7.52426518730472e-07,0.303757365573895,0
7.57232832046541e-07,0.301752586824886,0
8.39944881573706e-07,0.306803214249168,0
9.62233240748506e-07,0.3374850361356,0
6.00476775525859e-07,0.283523668600536,0
6.09503714578538e-07,0.306805747039977,0
5.43637082246915e-07,0.30288236054354,0
9.34467372927079e-07,0.40300475248265,0
8.71359385892706e-07,0.362004404543139,0
9.95021788843478e-07,0.376877260457799,0
1.26925648334308e-06,0.422849466474333,0
1.38009944475859e-06,0.435677272856361,0
1.36760388544783e-06,0.455938815734613,0
1.16300520563664e-06,0.417191029889956,0
1.21782663221279e-06,0.425815083554817,0
1.32439972068736e-06,0.428107957515978,0
1.34846122315311e-06,0.435636552397732,0
7.54780495005337e-07,0.349683582052887,0
5.17813906381863e-07,0.304182273325691,0
7.99392448234035e-07,0.369726675908812,0
8.15374402234851e-07,0.35760148098597,0
7.32607559346002e-07,0.343746869539046,0
6.65997541467147e-07,0.31614177422236,0
7.01194658735151e-07,0.329555283512362,0
5.14323636063791e-07,0.286909282452309,0
4.99168594076186e-07,0.284536347011763,0
5.88484981036716e-07,0.317503018471168,0
6.7115880885305e-07,0.342097509883149,0
6.31741800881338e-07,0.331107744610882,0
4.84494998638496e-07,0.307121877157523,0
2.94570716119078e-07,0.262628242868907,0
2.50233598374043e-07,0.241877401644848,0
2.78814617682273e-07,0.262882119434589,0
2.58216790707824e-07,0.259381802245911,0
3.38863531426556e-07,0.29490228683825,0
3.25506045808036e-07,0.29473901076178,0
2.79323795018893e-07,0.257657962180957,0
1.95097845001113e-07,0.212487377428586,0
1.68714707708123e-07,0.209255162207249,0
2.16496323267871e-07,0.222152201008092,0
2.28387819176664e-07,0.216951241826421,0
2.03720649600789e-07,0.205507103700221,0
2.47427109117079e-07,0.218866219300439,0
3.99471938850565e-07,0.262337163968775,0
3.50488344034763e-07,0.252340876431251,0
3.7851093880203e-07,0.245585781732741,0
7.97015151369868e-07,0.328655811675991,0
7.47399094153658e-07,0.313554741949608,0
8.36843310017726e-07,0.325910623927421,0
9.72897899924968e-07,0.346676704580249,0
9.45177537322208e-07,0.347125734734737,0
9.05239791950983e-07,0.347154192626381,0
9.01751793552787e-07,0.343430580231448,0
8.55707996233655e-07,0.33524972830846,0
8.52160794276371e-07,0.337549052506975,0
8.2046303500594e-07,0.354278411593459,0
2.20818316723595e-07,0.221302688645354,0
2.25469939024667e-07,0.236109413012038,0
2.0190525197857e-07,0.240707011761908,0
1.33595838033451e-07,0.216383421048353,0
8.25332360687944e-08,0.191363832112954,0
9.511920442634e-08,0.199364462433463,0
7.23149423265342e-08,0.187643089692777,0
8.03981659559725e-08,0.197186836434947,0
2.69084118501342e-07,0.269209227434576,0
3.71659429850535e-07,0.273809003515493,0
3.99134959676211e-07,0.270981104368648,0
4.97964810648467e-07,0.285784207481586,0
4.60945814104484e-07,0.275702731636204,0
4.32753694021864e-07,0.271743066292271,0
3.64481165364121e-07,0.246968854889852,0
3.796996206447e-07,0.244269909035288,0
3.44621445064253e-07,0.237871642453223,0
3.44908442001365e-07,0.230342639706904,0
3.88825789138964e-07,0.239034468441735,0
3.24870442812506e-07,0.242083200718819,0
1.9533171910586e-07,0.219134660105434,0
2.4783598787335e-07,0.235477402473693,0
2.76082099463581e-07,0.230384971806886,0
2.77961645411674e-07,0.227729334443577,0
2.50344254236175e-07,0.225154280898962,0
2.87366859123488e-07,0.234179111999044,0
3.80601973761986e-07,0.257442473152237,0
3.94500443595372e-07,0.252969231235353,0
7.79932452189765e-07,0.311522874924423,0
8.67807640095672e-07,0.313187556212168,0
8.74203027721738e-07,0.309910547107384,0
7.83286875063565e-07,0.304111609339518,0
7.93650103929596e-07,0.312263428620393,0
8.94090278344794e-07,0.330759361784378,0
9.76152024218418e-07,0.314245400490385,0
1.33277074310798e-06,0.343816013171567,0
1.17086624886657e-06,0.322276699806028,0
1.15575644481294e-06,0.328415133297561,0
8.90339739558725e-07,0.320263318516751,0
7.83080063533795e-07,0.310731754867212,0
1.01188478000746e-06,0.341998212133938,0
1.05660718863478e-06,0.336149861656073,0
1.24537700175199e-06,0.364378812633235,0
1.29419521416515e-06,0.368200124863757,0
1.11332927664962e-06,0.382732178720552,0
3.55701197366055e-07,0.260595678183609,0
3.93778574465777e-07,0.267091553750707,0
4.92814501934901e-07,0.291969716995018,0
4.86065830768322e-07,0.298913737815361,0
4.30132165771167e-07,0.289531455932905,0
3.80174318256163e-07,0.291501091962262,0
3.63681984137615e-07,0.29780872659059,0
2.22541300663852e-07,0.252574570215439,0
2.69235869384736e-07,0.272932407783097,0
2.97256927265029e-07,0.266295420619308,0
3.24255353917021e-07,0.272508405750213,0
2.82794486733339e-07,0.268794963970167,0
1.90253243153038e-07,0.247118484450909,0
1.8053911515944e-07,0.235772829920915,0
2.04521234071924e-07,0.244211528568041,0
1.77943713987303e-07,0.229282705555886,0
1.78412531335562e-07,0.228638613850425,0
1.78951711378763e-07,0.225673812769399,0
1.11791822069062e-07,0.194716304864133,0
9.26489593108296e-08,0.201891549293951,0
9.6654420871072e-08,0.198900797311423,0
1.3520489187411e-07,0.19939490123239,0
1.97377449310668e-07,0.219249325898003,0
2.00700132127395e-07,0.216301964247928,0
2.26871245839139e-07,0.22083894602232,0
3.05968069455126e-07,0.238387054150862,0
3.78027688080449e-07,0.257502418518449,0
4.33547061806338e-07,0.280122328353971,0
5.0382770034861e-07,0.296648198450731,0
4.97884558419951e-07,0.284543307855629,0
4.54450796109796e-07,0.283657126415247,0
7.93895404454889e-07,0.348120068782814,0
1.1782711039499e-06,0.369643034648464,0
1.18251718855334e-06,0.37391374274816,0
1.02770890239817e-06,0.364809954007293,0
7.75062057368996e-07,0.330637696507732,0
8.53567580427011e-07,0.32256657391308,0
9.75414318470874e-07,0.328313218891392,0
9.68246879014451e-07,0.33124782257299,0
9.36117588610176e-07,0.328568026357575,0
9.33099944447209e-07,0.323990239739697,0
7.16115559333319e-07,0.326353074867974,0
2.61110414774098e-07,0.247192494649993,0
3.60045108166453e-07,0.270597359077696,0
6.05506739307239e-07,0.326910837515607,0
6.21861956379234e-07,0.331584601272382,0
5.65959897796806e-07,0.34702741143545,0
2.97603127761227e-07,0.284214432649006,0
2.82152468905222e-07,0.267459777738251,0
2.97553947378057e-07,0.277059145639606,0
2.93850183412938e-07,0.277857367986665,0
3.09753622535733e-07,0.267075104788872,0
5.13078089403082e-07,0.318780147556673,0
6.4282395874536e-07,0.360158532888847,0
3.91203286466649e-07,0.282632542519632,0
4.3803744461748e-07,0.289950514633427,0
4.37175451488555e-07,0.299904603152063,0
5.24049123656762e-07,0.311670412453229,0
5.51349849294434e-07,0.309927379115552,0
5.68847040209321e-07,0.309043862429014,0
9.10251379909847e-07,0.376016160139848,0
1.07232753774414e-06,0.400885475760645,0
9.40660426041952e-07,0.383604373741934,0
7.89174689061157e-07,0.364581619399277,0
8.23984510811699e-07,0.389248741573537,0
7.8720025704771e-07,0.373170387809063,0
8.94004212674247e-07,0.387225913619523,0
5.94201666010806e-07,0.332676821018919,0
2.10165952642925e-07,0.227089224382984,0
1.57317354372074e-07,0.205335874741943,0
2.64733792868357e-07,0.253579331543587,0
3.9563486664574e-07,0.303715165075668,0
4.3922732924126e-07,0.300808429587251,0
5.30191860428529e-07,0.290283286692878,0
6.74046886761985e-07,0.316237399771039,0
8.3087477604341e-07,0.349889062206564,0
7.35360057095356e-07,0.324135001847799,0
6.86332026199653e-07,0.311142623035797,0
7.267818890391e-07,0.31060831553911,0
7.49385019408823e-07,0.305527573299832,0
8.09112523312011e-07,0.315784912789357,0
9.82733709274207e-07,0.34835298022215,0
1.26106253703033e-06,0.365032466336184,0
2.54181700639567e-06,0.480812696461084,0
2.61949214273949e-06,0.440527192149512,0
3.0199912566581e-06,0.470453233394275,0
2.90602774647354e-06,0.441299477222173,0
2.81845699583083e-06,0.438386212016314,0
2.5127720476848e-06,0.406376799408313,0
2.43928613112638e-06,0.406497162359714,0
2.84497618103161e-06,0.444510705158005,0
3.04940353135578e-06,0.45539640844835,0
2.79206263258082e-06,0.461857440127038,0
1.93978550264263e-06,0.409028502212928,0
1.90003492337638e-06,0.430706795807589,0
1.60576463525014e-06,0.384724926321473,0
1.65960379058635e-06,0.396510208427773,0
1.56988968400541e-06,0.374042258861491,0
1.5272930573479e-06,0.377101050460206,0
1.42566907903564e-06,0.360372563495576,0
1.10216105311505e-06,0.319423922427312,0
7.60888952515464e-07,0.270117138263862,0
1.14869605287532e-06,0.321924618130427,0
1.13624118765878e-06,0.31630321194037,0
1.25226192128988e-06,0.329481705601788,0
1.38712629246748e-06,0.352263657231845,0
1.42041372743846e-06,0.378251733190479,0
1.38211951563305e-06,0.360764493051283,0
1.52188000778294e-06,0.379794129978823,0
1.55082647208513e-06,0.373594283697473,0
1.74015758305375e-06,0.389453700544767,0
1.82459221559413e-06,0.387754788253046,0
1.56362880740016e-06,0.390545372294529,0
1.22267671339704e-06,0.364696244678588,0
1.17128321298475e-06,0.378036225340888,0
1.07596788841629e-06,0.385653608151243,0
1.08391459638973e-06,0.403689139521709,0
1.11171561214804e-06,0.445867722889783,0
1.17436667600291e-06,0.453475629528794,0
1.03294901876795e-06,0.45909651367787,0
3.0065578621873e-07,0.273696128948792,0
3.76944984617817e-07,0.322444515047951,0
6.29086661580731e-07,0.359107982463011,0
1.6139067283328e-06,0.551417155186337,0
2.2539723090656e-06,0.599858354739158,0
2.28086221813299e-06,0.521126582862766,0
2.16796858174588e-06,0.466865864143882,0
2.77559221580694e-06,0.493363991280391,0
3.23949740601172e-06,0.418125825191981,0
3.06836036396898e-06,0.365857580922669,0
5.84604147645834e-06,0.369399595313,0
9.46828594952079e-06,0.45332455717376,0
1.54925600078964e-05,0.509642607751888,0
1.59921108190809e-05,0.40070244069505,0
1.59646211899878e-05,0.397815429345374,0
1.34770186066347e-05,0.373201434739018,0
1.27623846063443e-05,0.360068875622416,0
1.44711657731476e-05,0.38889220618319,0
1.54943999957102e-05,0.440306150980486,0
1.53000188746084e-05,0.442023973740101,0
1.3816052598873e-05,0.549178024958103,0
1.10840690163854e-05,0.502252356154511,0
3.35870637825991e-06,0.327293221836804,0
1.80224293885981e-06,0.375463060591488,0
1.81794223929975e-06,0.370775359354226,0
2.06356938648553e-06,0.396862165803434,0
2.18633157459654e-06,0.398361747989723,0
4.0086753913688e-06,0.390976070525861,0
7.50236461474566e-06,0.48401955114061,0
7.12047379420299e-06,0.466991602772651,0
7.57190801528859e-06,0.488635298167575,0
7.62092802764356e-06,0.456780781828915,0
7.61045420973657e-06,0.482645589425155,0
7.82171502729558e-06,0.463192703513797,0
9.41715492267521e-06,0.508275294519388,0
1.00520320398048e-05,0.524685837387068,0
9.95514554900063e-06,0.503589596383177,0
8.35822008530765e-06,0.612965391998443,0
3.78302082544373e-06,0.444095384835409,0
3.08425291124061e-06,0.389934117550463,0
3.4591519651901e-06,0.38022966825513,0
3.27531622747132e-06,0.389091078952081,0
2.47911101553678e-06,0.338786752848264,0
4.12386707470916e-06,0.406152947495345,0
4.14649091964245e-06,0.36682374372394,0
3.54029371715682e-06,0.339388012201648,0
3.28480650453609e-06,0.340680648078427,0
3.43119612477444e-06,0.346573448304062,0
3.48111421369164e-06,0.319859948871099,0
3.70606689001778e-06,0.28984333926162,0
4.15609980428891e-06,0.290482457790601,0
3.29996021010024e-06,0.244880692095514,0
2.64822304193828e-06,0.217328575140438,0
2.39842571900135e-06,0.232956679050219,0
2.37455779747315e-06,0.235125169984817,0
2.37613417576032e-06,0.227561494967753,0
3.13900851896157e-06,0.243337677300579,0
3.18320197118511e-06,0.24360204384716,0
4.69473031016491e-06,0.308871913983522,0
4.61821846361811e-06,0.287915592311955,0
4.30595296637622e-06,0.313211833379016,0
4.23279554270322e-06,0.331060884225273,0
4.21539925175923e-06,0.331326653369318,0
4.91204853385805e-06,0.366141501315363,0
5.60111535019626e-06,0.410226223768038,0
6.10285415386245e-06,0.333541365018062,0
1.63978803193606e-05,0.390706422840406,0
2.10253958800329e-05,0.304412498361892,0
2.09458870370656e-05,0.298036688516957,0
2.21633470883245e-05,0.337734713040613,0
2.37811358595114e-05,0.345833284075624,0
2.47301284848726e-05,0.351984720823547,0
2.6638413952095e-05,0.359553855112292,0
2.75689675421109e-05,0.360963385744113,0
2.7411028750832e-05,0.373608839643248,0
2.82012141769527e-05,0.457768569912346,0
1.24102954942943e-05,0.470536346750101,0
1.2983113984087e-06,0.285206779869635,0
9.73025127437951e-07,0.257825140139284,0
1.5365779929487e-06,0.330354139805441,0
2.53564005718344e-06,0.430552046329387,0
3.11378439491053e-06,0.479235530272247,0
2.90807354349952e-06,0.45352818304527,0
2.63531940572531e-06,0.447901263298565,0
3.14274676265184e-06,0.444940942236829,0
3.20229037468753e-06,0.418124927160792,0
3.11976722861582e-06,0.40288116940733,0
3.17155096467717e-06,0.422965123855158,0
3.0975419719782e-06,0.428306499086307,0
5.06034235705725e-06,0.558682099352813,0
4.85002772730488e-06,0.520260537091198,0
4.33069998725358e-06,0.493398148318006,0
3.98112689282245e-06,0.476758594849354,0
4.1095913993554e-06,0.491391755792793,0
2.91721033656025e-06,0.489031843234786,0
1.03871114213954e-06,0.320252662508364,0
7.73761717346602e-07,0.299469419933705,0
8.95568362686794e-07,0.329170386654313,0
9.22546475702261e-07,0.373406783486621,0
6.92246568666358e-07,0.342818646863245,0
6.37758379278886e-07,0.368866257463322,0
1.20552077821156e-06,0.407284000668152,0
1.84920786604579e-06,0.444971392780003,0
1.85231124177343e-06,0.45208139644111,0
1.89969814466554e-06,0.465283587873631,0
1.99855552596098e-06,0.479729621142386,0
2.05428171121664e-06,0.490947501830844,0
2.02514320286387e-06,0.4856610370411,0
2.0284452379382e-06,0.473664795096513,0
1.93386514673389e-06,0.448049386301658,0
1.99524286632017e-06,0.458395743301547,0
1.17121639181197e-06,0.415381533585982,0
1.63630618776788e-07,0.204260051154255,0
1.92065500180136e-07,0.206173164904017,0
3.28173212919743e-07,0.245095286271414,0
3.31356105843004e-07,0.244764939025364,0
3.26489853934947e-07,0.245465175652042,0
3.85324560148556e-07,0.264609056437347,0
3.92113390839979e-07,0.257837496684277,0
2.72677226604329e-07,0.231978722794774,0
2.69204129327664e-07,0.239186915783663,0
2.08048322856201e-07,0.22922929265389,0
1.95690882909578e-07,0.226001332484155,0
1.68682299439322e-07,0.239736545003021,0
8.51472803481378e-08,0.2059683983837,0
1.78407252462912e-07,0.251125601226501,0
1.770750387411e-07,0.251780196712877,0
4.92411236157144e-08,0.190704764649491,0
9.46404975445092e-08,0.230638360225227,0
8.66670611019564e-08,0.208931293098484,0
1.23458798837298e-07,0.215845474052281,0
9.73092683643636e-08,0.19906222470544,0
1.05118057437174e-07,0.190892557335637,0
1.40884156991441e-07,0.199642861835101,0
1.93046368175445e-07,0.213076130304866,0
3.3544228737997e-07,0.259311425772148,0
3.81941070064594e-07,0.270081336075447,0
5.01592398476611e-07,0.297865699954797,0
4.50321247631692e-07,0.273277916781792,0
1.37358939200003e-06,0.401410018629304,0
2.62395125324177e-06,0.486215758611369,0
2.65137700129372e-06,0.483222082556381,0
2.64767297004391e-06,0.490170198513728,0
2.63942723732226e-06,0.489414686697766,0
2.94796444722862e-06,0.501604831602356,0
2.70833536897553e-06,0.463557591770537,0
2.56433574162417e-06,0.44327563769909,0
2.58559182397172e-06,0.442032555687058,0
2.56836425648902e-06,0.425915343197384,0
2.2991121495593e-06,0.435357268251608,0
1.27264558640555e-06,0.349212558985445,0
1.39453442178827e-06,0.363816938663092,0
1.42790164123956e-06,0.354655762920275,0
1.4214237294651e-06,0.352911043587732,0
8.8779572386846e-07,0.306234106521775,0
5.14178300012985e-07,0.236878255724697,0
1.22447553936841e-06,0.323488533219575,0
1.19105693443524e-06,0.28045952534056,0
1.25572913830334e-06,0.307475393474867,0
1.2173829396255e-06,0.31485612212875,0
1.21439035340233e-06,0.313522753918599,0
1.25299595187292e-06,0.285253735581991,0
2.94662802377292e-06,0.421048882800736,0
4.6676239004977e-06,0.508309921296324,0
7.24810524117484e-06,0.602250653810555,0
7.33401555249501e-06,0.569055499300067,0
7.31141128616535e-06,0.539231520489617,0
7.92981698420346e-06,0.57267472101278,0
6.3128916093901e-06,0.498492345214728,0
5.05998092133365e-06,0.428532809627871,0
3.7827405106239e-06,0.356340889413833,0
2.03122359548143e-06,0.270329861071577,0
2.41398329173381e-06,0.285069107432248,0
7.85623584747383e-06,0.418371210002011,0
3.41474143770464e-05,0.53828818607666,0
3.74761034148891e-05,0.276214521170648,0
3.48906225140642e-05,0.270511425000408,0
3.55635862964365e-05,0.251888508272674,0
4.00781099267766e-05,0.220081573300509,0
4.02339834092471e-05,0.20544774938544,0
3.83084327542217e-05,0.194125848479993,0
3.46989414360911e-05,0.180568881941207,0
3.46506315991605e-05,0.183976559061979,0
3.90568411153691e-05,0.212226484086707,0
2.58055981546246e-05,0.200325413030347,0
2.27224553435274e-05,0.328329035756557,0
2.47076097496441e-05,0.346080020604303,0
2.73372623858113e-05,0.433064008814096,0
2.04939403644059e-05,0.766632265175946,0
1.24827756853812e-05,0.706870591093631,0
8.38045255863193e-06,0.58199242320444,0
4.50244543607453e-06,0.43572565783526,0
2.67784974577942e-06,0.327047380777437,0
2.675271250364e-06,0.37405423781196,0
2.95941412154296e-06,0.456825156411347,0
1.88762436059739e-06,0.33861963275649,0
1.86380982918625e-06,0.313459402102113,0
2.15373199677821e-06,0.328175659703232,0
2.12824265949238e-06,0.307359065167563,0
2.67451850985257e-06,0.351739854913976,0
3.08145838297357e-06,0.377473819744835,0
3.5371534561418e-06,0.403680674018378,0
2.93638266745568e-06,0.372667742383781,0
2.85708097012394e-06,0.344039830655631,0
4.58195514771715e-06,0.370323117996719,0
4.42463618963693e-06,0.376302456857386,0
6.28395162674167e-06,0.462800234028546,0
6.75977824874065e-06,0.439457551685306,0
6.98128903327782e-06,0.463363201294933,0
7.86939961851244e-06,0.379479617697348,0
1.93702284807501e-05,0.479201544396417,0
1.87646675494718e-05,0.398819658956712,0
1.64453901732106e-05,0.34926151391479,0
1.40152155099205e-05,0.332852439799954,0
1.45380756844499e-05,0.356574418623727,0
1.32523668260496e-05,0.318785289829738,0
1.35507067908831e-05,0.323271538136163,0
1.28375795412179e-05,0.276103660653338,1
3.99216161433591e-05,0.219751617936186,1
0.000218049142347328,0.193031467151895,1
0.000738238495649189,0.243062933352829,1
0.000936851703120608,0.241061612729339,1
0.00109576704795223,0.265573435067429,1
0.00131051497164631,0.276005730351079,1
0.00137775124076392,0.229892166975297,1
0.00138627819954574,0.205131458011597,1
0.00124315821433192,0.128276807775355,1
0.00201007918467783,0.0829274416976238,1
0.0019150513598758,0.0590565211965701,1
0.00204257484862308,0.0525277094976604,1
0.00216711881689158,0.0495705390360486,1
0.00241103555381035,0.0527800112602053,1
0.00245598328423415,0.0459090359313362,1
0.00285099046773022,0.0331042775587141,1
0.00250075961988664,0.0235727485550387,1
0.00202952399520966,0.0186444459843527,1
0.00164997075843857,0.016384733188214,1
0.00217756133576123,0.0233568324263818,1
0.00235723151112945,0.0246653600104583,1
0.00249627618540833,0.0184897747580697,1
0.00669891868465059,0.0299617485846741,1
0.00796490813144407,0.0121475841228902,1
0.00897766486594679,0.013954774035771,1
0.00839741793159315,0.014153180987804,1
0.00817323664957703,0.0150463333758473,1
0.00828295865407902,0.0155039415537617,1
0.00840529941034142,0.0151314045775316,1
0.00840619354051201,0.0150952816817524,1
0.00819264461865616,0.0148067872543096,1
0.00827478846423009,0.0176302954838709,1
0.00314729203611629,0.00771313749762808,1
0.00092524648816006,0.0169963786527179,1
0.000972509182787056,0.0184924496024636,1
0.00127877838346105,0.0162896021632186,1
0.00138982232639265,0.0165144528673805,1
0.00145143694728327,0.0155517821749997,1
0.00212765233078155,0.0236662767142499,1
0.00228592470351188,0.0143003611192823,1
0.00303595094958614,0.0186268543099573,1
0.00348275020555261,0.0212566209517949,1
0.00334906388095982,0.0197284294453705,1
0.00354209929313578,0.0182276576643452,1
0.00401748275604771,0.0244135635472838,1
0.00442081557715749,0.0303673226838866,1
0.00458570469948768,0.0307341275349735,1
0.0045061011596925,0.0341869566966224,1
0.00304287521877625,0.0306016333255378,1
0.00140217290113198,0.0338330803456632,1
0.00139286189591883,0.0394743941158721,1
0.00140486887137657,0.0453778532815597,1
0.000603038887993422,0.0337070574927268,1
0.00075993650523547,0.0386099033270123,1
0.00203715044139657,0.0599936830003301,1
0.0104663055697822,0.0549356474914451,1
0.0187262138772233,0.0649806561215768,1
0.0424542869926422,0.0693162887493204,1
0.050777013238658,0.0478752039556409,1
0.0556267253141691,0.0390391067028997,1
0.0663689143262065,0.0413748810843207,1
0.0625383006240779,0.0378463947292587,1
0.0738112923871987,0.0385843993324763,1
0.063715988944697,0.0283674836802834,1
0.0506387512981753,0.019712839406525,1
0.0397085804415876,0.0139519401325237,1
0.0329796196034796,0.0117209960479158,1
0.0310730839409466,0.0122837760700403,1
0.033177473803215,0.0102527283462236,1
0.0363076299521014,0.00705002424982658,1
0.0409130528680992,0.00796065596567646,1
0.0414102271714439,0.00439693411605196,1
0.0535574317943538,0.00701305300074981,1
0.0529635437700223,0.00727942041198265,1
0.0525951496870144,0.00819904920385215,1
0.0469544214530025,0.00788901294994702,1
0.0472642138667659,0.00795356121905552,1
0.0457754575040335,0.00785901103992135,1
0.0420880095044947,0.00876958840944706,1
0.05112250349368,0.0185426959481091,1
0.0682345650456265,0.0276318693644904,1
0.061052022087724,0.0350922702695923,1
0.089066107593395,0.0337698497923281,1
0.0940422394217588,0.0240797676379709,1
0.0861415347680455,0.0214152435829655,1
0.0901648927585373,0.0182191300900459,1
0.0910268074728825,0.0165939003153242,1
0.165664672542215,0.0222931380028252,1
0.266960599600881,0.0353393751336258,1
0.317045863433094,0.0393165681131265,1
0.312835989997777,0.0397333802041749,1
0.326086868151268,0.0399096549457301,1
0.237239941654296,0.0422352122456758,1
0.161285131605708,0.0397510679428506,1
0.0810526533759574,0.0218134822308801,1
0.0464455253699056,0.0166852744754907,1
0.0146185922014611,0.00210972308112878,1
0.0228473482033144,0.0383457575297953,1
0.0230186883916788,0.0341927115287932,1
0.022583432598621,0.0405720713782278,1
0.023184635819725,0.0333512765968821,1
0.0221172195640758,0.0315383170419085,1
0.0211819150037097,0.0249504640173843,1
0.0195046322603327,0.0206255500855188,1
0.0205133599943811,0.0206351789612554,1
0.0209478737829516,0.0174166261515726,1
0.0197103142425246,0.0198935672179408,1
0.0139711863175039,0.0138402870971565,1
0.0122555241151434,0.0116545382037595,1
0.0110022568516682,0.0084605997384612,1
0.0108058214798602,0.0128244623111346,1
0.0112096092022744,0.0142544818107866,1
0.0104531627357549,0.0211344719101937,1
0.00620878922736442,0.017991710307862,1
0.00636747134378429,0.0240842692803348,1
0.00510101176647286,0.0286750377849943,1
0.00324740266808592,0.0248367185109539,1
0.00316920396914341,0.0252016569939331,1
0.00710906577781148,0.0132682517621229,1
0.0114167193815241,0.0112121558380079,1
0.0113175646016405,0.0108771742249744,1
0.0118326515466524,0.0115824292263577,1
0.0142212396954329,0.0154911932559506,1
0.0126406494749611,0.0121920545146667,1
0.0158384760571204,0.0116636594256635,1
0.0183173292618719,0.0123498014108558,1
0.0196566554321881,0.0122379261852847,1
0.0238149073554107,0.0151436398322877,1
0.0322330044954178,0.0271012862233295,1
0.0407187829296108,0.0380599112124594,1
0.0735298068921591,0.0454537890360588,1
0.0829159815241851,0.0403596971888527,1
0.0827226481034774,0.0303995698656778,1
0.0660098071574411,0.024420347502834,1
0.0643107316834607,0.027046756430955,1
0.0602680718927102,0.0190827671624124,1
0.0554736392211256,0.0179370026681164,1
0.0561176320507728,0.0185733901447341,1
0.0563326315289862,0.0167685943075066,1
0.0549467818256235,0.0185270254907143,1
0.0429240983369177,0.0168630168919867,1
0.0666583485854406,0.0177649278905021,1
0.11140206872079,0.0333445051482035,1
0.112771722567894,0.0332368164252195,1
0.0848115958680184,0.0269077665144722,1
0.0708288461879932,0.0146740864787691,1
0.15075741901873,0.0274250527496088,1
0.222139291625571,0.0363659642286867,1
0.25775919135525,0.0341278975249944,1
0.269235319702075,0.0333655998299126,1
0.314029303645258,0.0378220884675768,1
0.299664750380734,0.0481378150758573,1
0.21597419172003,0.0362795345018269,1
0.133462859768992,0.0251929648369366,1
0.0725856135050882,0.0128269785780289,1
0.0241472915809058,0.00776211328870601,1
0.0247543955961538,0.00858971638743299,1
0.0242144814020248,0.00839329577388526,1
0.0221386148653967,0.0111130180216697,1
0.0198718319891822,0.0141826938916982,1
0.0226512216146182,0.0252624658838123,1
0.0225694623628481,0.0182383036789927,1
0.0218231735284069,0.0175769933183157,1
0.0176167547950316,0.0124622760804271,1
0.0167442373417506,0.0128818662353505,1
0.0205732957688543,0.0205993189227539,1
0.0215707206379124,0.0173701253293214,1
0.02199804937644,0.0158196549742272,1
0.0229861560838042,0.0190228120312579,1
0.018943289701566,0.0164345787744127,1
0.0135352778633416,0.0105951421136938,1
0.0116772045792507,0.0126962277373596,1
0.0112134778814954,0.0138052687999957,1
0.0113740987591161,0.0141358879204649,1
0.0121402884209731,0.0113845866673972,1
0.0111049481089781,0.0105066512586231,1
0.0104153360930114,0.0166521763886853,1
0.00656475574167173,0.0117031521432064,1
0.00629603146220205,0.0178752053153162,1
0.00552425768597176,0.0162787164874388,1
0.00544079400489735,0.0149620136552142,1
0.00466981009254969,0.0129038832078805,1
0.00409008957325697,0.010504594376715,1
0.00728508853757177,0.0178864262815868,1
0.00958852872122081,0.0292726992949956,1
0.00974542441321123,0.0295130029332778,1
0.00983512697035385,0.0318561075558083,1
0.0120903745107848,0.0320760578683465,1
0.018468709539005,0.0280990067084815,1
0.0155115772505918,0.022098927077239,1
0.0197876773448398,0.0109394016831811,1
0.067421019110968,0.0290103077264947,1
0.116306124397634,0.036971912699205,1
0.116973940150897,0.0235782170783435,1
0.114672070422841,0.0223293488828399,1
0.103670696568601,0.0188257230954631,1
0.0904860025853963,0.0153650582417093,1
0.125949051865697,0.0135667179530462,1
0.183326451173912,0.01457476095341,1
0.145057871697553,0.0113912921072946,1
0.141915927235874,0.0116177622867095,1
0.160696336273467,0.013594651828147,1
0.182819385288592,0.0149542285285959,1
0.18192868510948,0.0179797762926037,1
0.160705890089115,0.0156776633965915,1
0.10063957445247,0.00984948065672657,1
0.0571080169845939,0.00436784944097533,1
0.0659317619761338,0.0112090763549894,1
0.0930135527240702,0.021701313309894,1
0.133688916587685,0.026808985899438,1
0.140003036276748,0.0343453079150448,1
0.16972156323693,0.0354146937752876,1
0.229215071498416,0.0578104246285307,1
0.228265953917461,0.04800772144897,1
0.194777829136282,0.0419817940663823,1
0.188289445837557,0.0410640365154227,1
0.141090337762482,0.0343606924986583,1
0.115999579968501,0.0332142720856305,1
0.101088167173746,0.0296737235854512,1
0.087537404872844,0.0378533573298625,1
0.0377372257371962,0.011094189196887,1
0.0290031179188159,0.0163227238738757,1
0.04855126651873,0.0299776812950458,1
0.0512790602570551,0.0244516737005093,1
0.0526503534362095,0.0233131088848233,1
0.0626110588422949,0.0307350056270693,1
0.0565188856410164,0.0281014776099871,1
0.0495702895724224,0.0249473147090404,1
0.0405773491641966,0.0170460664204623,1
0.0311648751983842,0.00881245553172791,1
0.0443481815869473,0.0176935335009977,1
0.0477844102200533,0.0123146748810712,1
0.0494964840594828,0.0127128241265004,1
0.0563869431255165,0.00967648133600046,1
0.0734531851942771,0.0143157975011904,1
0.0764021290501266,0.0149463616301641,1
0.0734788338498104,0.0134116823194454,1
0.0585055848601005,0.00985288417533926,1
0.0474335589184428,0.00776407454312938,1
0.0601058093177026,0.0147805341077576,1
0.0544359882308374,0.0131418534331575,1
0.0676798749325307,0.0180274169180296,1
0.0953657745004592,0.0228993292380004,1
0.112701613709681,0.043366253393379,1
0.0846138716122772,0.0332755231660283,1
0.0636328192332822,0.0262967498477373,1
0.0473695057928947,0.0208861070247977,1
0.0439398190910577,0.0193340523985377,1
0.039981887266971,0.0150972773516346,1
0.0409276965549145,0.0134560695550147,1
0.0259941124987045,0.00705790525309191,1
0.0309722336253895,0.0107002726012436,1
0.0366089201334561,0.0141876071530431,1
0.0334558385385311,0.0134428288356985,1
0.032689350663469,0.0123357873547502,1
0.0468373260800883,0.00628444619158159,1
0.111754922654085,0.0201248008332451,1
0.293251636740327,0.0366104240448823,1
0.363663475897251,0.0299911084740107,1
0.361987479253503,0.0287397516754799,1
0.364895426679723,0.027976908293495,1
0.33267353897692,0.0233437850653949,1
0.275938830521478,0.0201493728124059,1
0.257505195190279,0.0188774208072442,1
0.216637562629445,0.0151090236574374,1
0.199395847334707,0.0198224655573934,1
0.197163650706823,0.0183123588208746,1
0.10549450524213,0.0135624947159368,1
0.0621805822350281,0.00862964444339085,1
0.125023679846814,0.0178343774610324,1
0.190379673128595,0.0269685961745787,1
0.272779448455797,0.053350454522586,1
0.324424486153887,0.0511100734505162,1
0.285499109059294,0.0544673837664786,1
0.252834520927901,0.0510394600740794,1
0.238982973910931,0.0437827846229842,1
0.180056136728058,0.0319055972389729,1
0.0761884144361519,0.0127599885461938,1
0.0208644566583265,0.00801533659021616,1
0.0216571490469285,0.00879307461699847,1
0.048810484486058,0.019819737603267,1
0.0676339758939274,0.0241713831091063,1
0.0973732764877229,0.025015150062878,1
0.0975954808121525,0.0235323893990452,1
0.0974481387683556,0.021388186232819,1
0.103949250471517,0.0205390657942605,1
0.0802689830951037,0.00933607441472884,1
0.0880894992078295,0.00983203571947164,1
0.0796090462831885,0.00685767046770541,1
0.0737407284087084,0.00327429622460251,1
0.106735567707135,0.00725410257066765,1
0.122090058103458,0.00991721905995555,1
0.109273300943169,0.00856224701780386,1
0.123276499393515,0.00977628058750256,1
0.12717200762645,0.0136815039566595,1
0.0761970831805752,0.00554318797031454,1
0.0712686563528863,0.00853121254976631,1
0.0719406536695648,0.00931577032344542,1
0.0430598324481369,0.00725518675039539,1
0.0237523329180006,0.0116325725746387,1
0.0224604486333763,0.0107290419064733,1
0.0902773331763107,0.0143156240422082,1
0.170612509739266,0.0176646751680164,1
0.160758689964594,0.0178450452008536,1
0.159481565543212,0.0167864695318718,1
0.171605384198917,0.0186971230227671,1
0.165905499372349,0.0170502538665627,1
0.140072729422938,0.0137859744966877,1
0.126388574507837,0.0119108732690523,1
0.10423640854381,0.0097355988023045,1
0.0794894865113433,0.0065354447579472,1
0.0750539327892947,0.0166077079562555,1
0.0531295559989031,0.0129000586455969,1
0.0550424823687068,0.0118991306775668,1
0.0567328428538027,0.0162961617237483,1
0.0420529954972864,0.00531925946622366,1
0.0588062381240204,0.0104527561024427,1
0.0660158236260515,0.0126332140200489,1
0.0693814407959382,0.0075280744850495,1
0.105591638898572,0.0120801175751303,1
0.108008947737346,0.00724956375675412,1
0.110967120938659,0.00831001361273406,1
0.112073194554731,0.00839625922370121,1
0.110974085956402,0.0088486110953399,1
0.139584359770798,0.0115164485050669,1
0.133296822154814,0.0101193007175333,1
0.119489220837606,0.00956578423975052,1
0.126459483073293,0.00948607068921706,1
0.13231988846507,0.0137570565098129,1
0.108101764980702,0.0113587868826248,1
0.12579159032373,0.0192097361773958,1
0.143742719063618,0.0208853471043891,1
0.141568162990257,0.0205042206333247,1
0.140643436326251,0.0226948802073941,1
0.0742457902528182,0.0187062152831649,1
0.0498211799033819,0.0208323720542196,1
0.0257295607020538,0.0036934296960467,1
0.0978065618932523,0.0170771735937166,1
0.139796186063133,0.0120835599016261,1
0.14020609921891,0.0121273039002534,1
0.137354901425661,0.0123261048931491,1
0.130883252128312,0.0121331988927899,1
0.133218871530344,0.0119886588966331,1
0.157256409171506,0.015421840768629,1
0.1415255050956,0.00871560241957224,1
0.133325367189918,0.00819690334422181,1
0.125000059814664,0.00869866822707866,1
0.0930982726642416,0.00863448738633968,1
0.0760147777512192,0.0114834061620635,1
0.0796875202859643,0.0116379868593633,1
0.0799448904320993,0.011642828599936,1
0.0878448457878612,0.012663368461317,1
0.0853778398637826,0.0139777902340583,1
0.0465267001386815,0.00720104826456218,1
0.0229561983862953,0.00883409278337156,1
0.0219461602548361,0.00873131225184705,1
0.0150928371886853,0.00887049921955077,1
0.0151058184379578,0.00938778922264272,1
0.0241899545722138,0.0147379198098611,1
0.026001025589982,0.0108663017523671,1
0.0275781971112917,0.00732870893086913,1
0.0419736572508446,0.0109981042473559,1
0.048506244114376,0.0124391963848268,1
0.0428689810871294,0.0116328901570662,1
0.035589578663511,0.00986923064206355,1
0.0341991634152783,0.0109545315581483,1
0.0671588314434011,0.0134041303650199,1
0.106933701885112,0.0161723247172702,1
0.115110983158,0.0150790301523321,1
0.198762278792641,0.0239075733974359,1
0.26640523261316,0.0284752389408521,1
0.29699866963489,0.0313416283430579,1
0.309178160474789,0.0298469830684019,1
0.264808405371245,0.0208758710074282,1
0.221907861994416,0.0119039361611331,1
0.191943516878392,0.00868621040915352,1
0.19762190269885,0.00759416607980374,1
0.210921277167587,0.00876122029856979,1
0.229978650237745,0.00927424981078013,1
0.29648404991421,0.015018842311339,1
0.254861763753515,0.0113826192759983,1
0.22720109526953,0.00995432414378573,1
0.190872757822543,0.00777597311790153,1
0.196328064270724,0.00940812966072905,1
0.186001050179222,0.0153873976727196,1
0.0890129731234556,0.00382496864929739,1
0.114120649407059,0.00993448888297954,1
0.120566155946395,0.0099134672685862,1
0.154640727811184,0.0182044675043048,1
0.116939137256631,0.00881422779469078,1
0.118732320145745,0.011000702167059,1
0.131976812439041,0.0121715631614118,1
0.164148680121972,0.0133672174268174,1
0.267765894785283,0.0208304796335365,1
0.367742428672904,0.027618939365644,1
0.376308925938239,0.0340203180403881,1
0.321784964237178,0.0321143504491743,1
0.317231316431964,0.0367339283689412,1
0.182251288215014,0.0215208366898303,1
0.109568333038037,0.019503183585947,1
0.078768829169484,0.0109017873822615,1
0.0966355902118678,0.0125643436088569,1
0.100267918835903,0.0178181477746748,1
0.0982337348919397,0.0193147050836399,1
0.0809374178646099,0.016164345010134,1
0.101576976240849,0.0154749248186135,1
0.140773973475884,0.0151337428794097,1
0.107368150717622,0.0141535142810223,1
0.0734132757709263,0.00778651948679552,1
0.0939309984590048,0.00944889847261358,1
0.120580963724695,0.0136183290387169,1
0.131391197348994,0.0157897063786658,1
0.162492854466247,0.0202172345924901,1
0.187360117156817,0.0235109366064571,1
0.196660824582351,0.0233034447762293,1
0.151575204253705,0.0327342052288505,1
0.0700122753082236,0.0315211750589858,1
0.0442221900941315,0.0158760693709713,1
0.0154492716701751,0.00687636018620237,1
0.0167258858996747,0.0138841389721846,1
0.0174050380975052,0.0158610292708727,1
0.0196943479287543,0.0199577872305659,1
0.0175584590477499,0.0164911824439098,1
0.037496386928431,0.0199574256335718,1
0.0449759172382776,0.0178847048477933,1
0.0484606196810574,0.017028602179479,1
0.0660771283140383,0.0211321911048676,1
0.0565275767004371,0.0166438231977161,1
0.0546835028018535,0.0170240974986889,1
0.0497814456995795,0.0182946857944637,1
0.0415072898450905,0.0165069432841975,1
0.0575369970172315,0.0103951750889231,1
0.0758194737572202,0.0152425121854509,1
0.134756365094106,0.0205060542518548,1
0.246998770037074,0.0376415628469469,1
0.294651566275541,0.0394438281465237,1
0.368214744735004,0.0476638676048951,1
0.378864043014628,0.0400474501785327,1
0.37674954894695,0.0322802958918733,1
0.317700229907825,0.021564169033679,1
0.191767793091994,0.0107619859603642,1
0.168541108029825,0.0121138955000104,1
0.169116122581157,0.00517499387696289,1
0.230179411941106,0.00909973759172723,1
0.266370805282485,0.00462515394997882,1
0.384604624972378,0.00826413486482564,1
0.408420026647438,0.00885785867517682,1
0.433823796806192,0.00844033383220643,1
0.416578693465771,0.0106185759206814,1
0.353211399346342,0.00515409959894525,1
0.471981406232077,0.00961704451791951,1
0.489138639267015,0.00708397521442929,1
0.48418397556496,0.010807174812506,1
0.348355200099981,0.00601337826813824,1
0.353692164788043,0.0148031958064833,1
0.396726076763675,0.0155231386760992,1
0.475186110253277,0.0176095217337161,1
0.543276021367649,0.0191784942641156,1
0.591459341567773,0.0187367402737361,1
0.582318807322346,0.0428944984246258,1
0.273889668024678,0.0234146957191532,1
0.0745207625266397,0.0242251008779132,1
0.035470404848822,0.0281972841142033,1
0.0244819171318008,0.021562864371858,1
0.0289528318243174,0.0106724065421246,1
0.0434190617975457,0.0219019050975592,1
0.0767910327955185,0.0246375934162111,1
0.0851890233343129,0.013074754053777,1
0.0725837824611547,0.0115159866936839,1
0.0668936455353371,0.0108012491583305,1
0.06485562392573,0.0103001256762451,1
0.0696125974998213,0.0118597590471992,1
0.0795417091844627,0.0144750699503008,1
0.0877718634183543,0.0159394423619865,1
0.0948272698578751,0.0231451771272263,1
0.0928100821460265,0.0203564039585684,1
0.0503910827016164,0.0214525743408932,1
0.0145847658115006,0.0644865532803851,1
0.0155149834778494,0.0646987201769216,1
0.0135359208733305,0.044215615699442,1
0.00811998165027899,0.0245959213818725,1
0.00708236080836758,0.0118151771843763,1
0.00795744307389195,0.0115392804924937,1
0.00843752265559119,0.010814201019092,1
0.0086236062602353,0.00915694490788277,1
0.00881866497689591,0.00656600229249997,1
0.0270290089740457,0.0147514169582605,1
0.0322284895983239,0.00860929375179893,1
0.0289427697010777,0.00653582822466112,1
0.0355085888950322,0.00738310469488528,1
0.0528232701955064,0.0126027118653196,1
0.0576316283739737,0.0103287877350974,1
0.0488474160807753,0.00924030450631799,1
0.0471281696635417,0.00837612585618488,1
0.0462310035836272,0.00844418093224507,1
0.0369156692886969,0.00562979271827567,1
0.0849120742018003,0.0136262346224285,1
0.10996848100883,0.0259889222663901,1
0.191519036598631,0.029304931555068,1
0.246674722742906,0.0220467776594841,1
0.260883205577772,0.0183035587385282,1
0.446311456598634,0.0272398995266092,1
0.452388157343188,0.0160913780525711,1
0.373410925709056,0.0138783122071228,1
0.308806312514345,0.0117058240174833,1
0.207882404093368,0.00690094438912389,1
0.209021720820123,0.00720511660159244,1
0.21740232270002,0.0075808564122219,1
0.264727570013066,0.012136421887331,1
0.274079004127255,0.0124498011191013,1
0.267429912579619,0.0150017256031612,1
0.159650189336638,0.0111572974256353,1
0.13915997285044,0.0169686794492078,1
0.158679838180645,0.010566715337368,1
0.138154088134979,0.00928085068888945,1
0.116415507595469,0.00753870301218051,1
0.112446285625001,0.0077786673896723,1
0.113361105827292,0.00647942540419939,1
0.115094382425707,0.00611718672965084,1
0.110710717524901,0.010270961390424,1
0.0668567102624483,0.00429616294377592,1
0.0753109507516989,0.0105857922824634,1
0.0948984938727231,0.0160025417577441,1
0.115547650682176,0.067121018924831,1
0.111630596838035,0.0658955240709615,1
0.122941842021041,0.072979307065293,1
0.111868106219522,0.0599851013904753,1
0.0928478488660814,0.0493541389206357,1
0.075925437534492,0.0382594753220054,1
0.0438363946461806,0.0189464604579977,1
0.0245879027602643,0.0217854584269322,1
0.033682612736974,0.0464428478187352,1
0.0489542793339783,0.055139110268719,1
0.0548476425765841,0.0592445920258377,1
0.0720463512456508,0.0612494464096841,1
0.069029191979882,0.0564269264037484,1
0.0490669238000924,0.0333593483900462,1
0.0336253260672481,0.018330272116482,1
0.0195107808792386,0.00480481050773264,1
0.0335986106122926,0.0110727134925475,1
0.0537851755442924,0.0173457590844159,1
0.0745191160133174,0.0204178612017124,1
0.0727233325949738,0.0157073625630821,1
0.0737137003943762,0.0121337951255104,1
0.0773929135122168,0.0138988850707598,1
0.0734978606008914,0.0123848489542537,1
0.0776213433752754,0.0134958038197653,1
0.0728035759346688,0.016306780526685,1
0.0412514942941865,0.010258278330949,1
0.0402926013735697,0.0115405127499267,1
0.0408661899556617,0.0110032956188694,1
0.0422461867003538,0.0129939141609003,1
0.0297025985941555,0.0125348372169955,1
0.0267261936408513,0.0296152499077355,1
0.0254120004987514,0.0438412262614805,1
0.032819869276909,0.0315434191064828,1
0.0399304190310194,0.0264656888529641,1
0.0446291431585538,0.0148133170804503,1
0.0933917707882779,0.0275220055754636,1
0.087434677456192,0.0143810285331775,1
0.0814429358984032,0.00924093979337017,1
0.103700326848177,0.0120806125511051,1
0.0933039494806892,0.0107247705823655,1
0.134518705832728,0.0101162661854908,1
0.195274544518227,0.0128823751852035,1
0.176703548902117,0.00880762646235866,1
0.172385919416909,0.00896360747420291,1
0.164284598268457,0.0104968972925934,1
0.165890544903734,0.0105049418969839,1
0.165355539450223,0.00821208939769043,1
0.328942525874581,0.0128914201097561,1
0.570267461753233,0.021223034198681,1
0.710205164605484,0.0257929315889353,1
0.814590794298487,0.0301959168899407,1
0.824062544392116,0.0203000578664576,1
0.810688263080708,0.0226666028550073,1
0.736142545392187,0.0202258105564062,1
0.75684051303018,0.017660059726417,1
0.856347685434844,0.0180808995226912,1
0.983630089253808,0.0300029388193699,1
1,0.070045979196225,1
0.871756214585155,0.0539355299001786,1
0.582427717944075,0.0400665174342139,1
0.23405401746317,0.0222947739740713,1
0.0957101314710635,0.0174143556209692,1
0.113193131467107,0.0195665789416914,1
0.134609571604026,0.0114115870085047,1
0.145826810661437,0.014427754676904,1
0.159216867829433,0.0155995214853402,1
0.186075874645553,0.0184302150439542,1
0.198709924932454,0.0190569717724702,1
0.190401359406254,0.0183107693004432,1
0.191827129161744,0.0186682976159673,1
0.19807065940483,0.0184949594736597,1
0.182599847686713,0.021040618488442,1
0.10847491666546,0.014572138002043,1
0.0250040194085606,0.0116889731099408,1
0.0262026598757569,0.0171777215618503,1
0.0245486889453222,0.0176806623183217,1
0.0239450866846131,0.011167281516562,1
0.0412346137509714,0.0172426995337143,1
0.0451112165254823,0.0180915814548317,1
0.0525391186178628,0.0216690409175161,1
0.0481835154032126,0.0201525753585332,1
0.0395384103361944,0.0109904841653065,1
0.0517815839652033,0.0131690816535299,1
0.0637925229063791,0.0164729923472333,1
0.0679385367640097,0.0157521642292946,1
0.070511575998203,0.0141565873010089,1
0.0946038499352994,0.0237975621786188,1
0.0934173829913247,0.024864380680623,1
0.102643483854907,0.0293884134505047,1
0.0907615768750186,0.0244718429232205,1
0.0695423041938557,0.0235632268313687,1
0.0290750361278026,0.0179781795722617,1
0.026989247107347,0.0200573834762653,1
0.0259838623245807,0.0176542334600635,1
0.0174369152704886,0.0199569726674427,1
0.00356229061216917,0.0108482498028229,1
0.0175802040860776,0.00653611723152224,1
0.0504738925045723,0.0166935969536928,1
0.052076805983017,0.0175278812631314,1
0.0625819518828238,0.0208825690909535,1
0.0602817655053995,0.0193637136555666,1
0.0501812781895082,0.0165238509024612,1
0.0412694747715723,0.0136432880420437,1
0.0368633239409919,0.0122377588723739,1
0.0309538584116814,0.0106033803999153,1
0.0200099134192828,0.00576720384706801,1
0.017416960745712,0.0119330492773058,1
0.0209181205762062,0.0135709779253083,1
0.0739970348897353,0.0311807499367437,1
0.0867070776846179,0.030111577386656,1
0.147751848488818,0.0230595292143521,1
0.403495355087269,0.0390143917051625,1
0.540389562867231,0.0331611562288364,1
0.518949559022062,0.0315924121716202,1
0.455021976097925,0.0259554155971064,1
0.362845859769959,0.0205580661866589,1
0.281946090121663,0.016279631917954,1
0.213930583457112,0.0123751240103732,1
0.197155085749045,0.0110224955594896,1
0.134051308561819,0.00655196059597554,1
0.116711500473224,0.00975365996740212,1
0.080710114173991,0.0128122108462472,1
0.0962512528265641,0.0171326655481987,1
0.130320576579562,0.0134369534869277,1
0.130123742430288,0.0148811250352856,1
0.149209242234608,0.0195874577642091,1
0.152509051657118,0.0201405603821471,1
0.216380312263403,0.027625395709478,1
0.202758887632666,0.0151272088289037,1
0.160645950898409,0.0116950581862518,1
0.121235410391916,0.00615229088798383,1
0.108945639832683,0.00581023833623823,1
0.105782155666991,0.00702699923700064,1
0.101636323203185,0.00953556394824242,1
0.0777481837434889,0.00577908908904626,1
0.0973417393221826,0.00694265204424944,1
0.136167313865227,0.0116948444864762,1
0.137262733773044,0.0093181296109838,1
0.131688709323655,0.0182415790395867,1
0.098788543049983,0.0140038598689544,1
0.0907557949660981,0.019903696321891,1
0.0958924894072943,0.0185509922737145,1
0.086042364974714,0.0173258910764883,1
0.0671404367511207,0.00851279092502567,1
0.0679897977706656,0.0105989395944892,1
0.070373591852246,0.0174574501911592,1
0.0598440227886615,0.0149726155371988,1
0.0582519004538548,0.0192437202170221,1
0.0570304673396822,0.0171316054767019,1
0.0651279187286817,0.0211423474814861,1
0.0674168773028761,0.0215632473229776,1
0.0509545563289099,0.0149835921803397,1
0.0394153785962834,0.0062196872964726,1
0.0503519182276956,0.0144175732409994,1
0.0469603640095777,0.0125396592754751,1
0.0572267510550251,0.0147466869903317,1
0.0746541829975168,0.0197803711396132,1
0.0857640405336342,0.021800688851177,1
0.0863550616615667,0.022631157748784,1
0.0740968601429093,0.0261522471593887,1
0.0456378225408016,0.0169750537922537,1
0.0277842707503522,0.00973107960567677,1
0.0212073706817675,0.0142614090320427,1
0.0217141209946104,0.015485629142294,1
0.0197040042603759,0.0126653601142323,1
0.0214111580507725,0.0179999581688352,1
0.0181254198645045,0.0114730254249289,1
0.0183400048055447,0.0123220412028215,1
0.0254198018335883,0.0191232123262837,1
0.0306321596375056,0.0251560346657958,1
0.0234706346056779,0.0189570738762112,1
0.022589590060641,0.0208074178563464,1
0.0219779941988641,0.02010745716189,1
0.0236796010484412,0.0244414655727434,1
0.0255385536497852,0.0340943675841952,1
0.014843325503877,0.0395687087415149,1
0.00462977880588921,0.029640026169351,1
0.00318704627718282,0.0202031424893504,1
0.00519252609806007,0.0200590770312128,1
0.0152093989124116,0.0344275640567725,1
0.0176811453254049,0.0341753399664659,1
0.0264937214025461,0.0319918213201012,1
0.0396812348709245,0.0340385967782535,1
0.0425207656133669,0.0197046495590999,1
0.12517135214116,0.027468570568742,1
0.161757010892215,0.0179589511167637,1
0.140365766392678,0.013906750686722,1
0.116698801503915,0.010417413892948,1
0.106107789783929,0.00988035851746804,1
0.109047781922924,0.00810174042521631,1
0.112506214254286,0.00839728565240263,1
0.113275690169527,0.00895440074720225,1
0.119744348496121,0.0094580264015588,1
0.135593705196356,0.0124706299766624,1
0.106324637452923,0.0168093105269785,1
0.0632381211767598,0.0165060750716131,1
0.066895794056552,0.0213721185223645,1
0.0633548703654153,0.033583678600928,1
0.031663730750167,0.0167866096564659,1
0.0265885912971768,0.0407979465309285,1
0.0272035721148269,0.0467579375412537,1
0.0160805853929067,0.0369096488160817,1
0.00562435898182076,0.0226777368497213,1
0.00302384724032397,0.0382654512971867,1
0.00302221772644159,0.0397661258493498,1
0.00251346202333591,0.0440670948569613,1
0.00128814587394798,0.040362528716179,1
0.00133737763859023,0.057858166956866,1
0.00138076538029001,0.0607413090707806,1
0.00127124931951122,0.0568443112888865,1
0.00135608767702446,0.0582296558961887,1
0.00133983294863905,0.119946010285459,1
0.000828328641386934,0.107338229037884,1
0.000704211734984967,0.106829178218755,1
0.000272742780914499,0.0885018576192556,1
0.00016119451928057,0.191801875401674,1
0.000175476100556862,0.207242021440266,1
0.000181572827008716,0.207265994773834,1
0.000158956006250292,0.154407124487316,1
8.38919056961561e-05,0.0926449135343912,1
6.81838569614562e-05,0.106204569049364,1
7.32943619729231e-05,0.115866980381262,1
6.23426673703538e-05,0.104231486682396,1
4.9391007782826e-05,0.100992196740378,1
5.08143028392349e-05,0.108526601231135,1
5.05130486694139e-05,0.111795250776858,1
5.35650613002822e-05,0.110791985407111,1
5.89667726486396e-05,0.12643325954818,1
2.98099775459739e-05,0.135993525393888,1
2.3028594141079e-05,0.232984189143107,0
2.52377956629882e-05,0.252825123481895,0
2.69990460174432e-05,0.251367790084742,0
1.82802014175799e-05,0.288703249749689,0
9.23802105677943e-06,0.380083835620996,0
9.28150934516657e-06,0.420539946912608,0
4.72636472296355e-06,0.333746013519613,0
2.96122464121956e-06,0.364454063171402,0
2.95547374380501e-06,0.381872758283745,0
2.76563104993756e-06,0.418881777162556,0
2.32873818518871e-06,0.383336434289983,0
2.06998629052923e-06,0.35686178006909,0
2.78331173179292e-06,0.414521727493512,0
3.20869585231068e-06,0.324013834035389,0
3.44800298615329e-06,0.347358534252662,0
4.4157535174963e-06,0.435740693365835,0
4.59271168600619e-06,0.440299401977875,0
5.23491661340687e-06,0.474465484416656,0
6.06998294797674e-06,0.495578446647482,0
6.08203641840836e-06,0.411088733359599,0
6.98464987098421e-06,0.443695764701612,0
7.01589738919241e-06,0.444804473894864,0
5.21621737641476e-06,0.403899182924931,0
4.35633526198076e-06,0.471809944689787,0
5.0981844568076e-06,0.533953187824402,0
5.38505476779611e-06,0.555207536693065,0
5.89586087050334e-06,0.585955671154612,0
4.9418293941448e-06,0.533263660635255,0
2.20159727244628e-06,0.378459519686864,0
1.67929999947641e-06,0.430550837556292,0
1.75670190404472e-06,0.457877740327842,0
1.77738472755095e-06,0.432996521176473,0
1.01864340752879e-06,0.32052103829959,0
1.20303670111329e-06,0.345965333048276,0
1.50546926231637e-06,0.350052137673203,0
1.73705647924597e-06,0.35961364846154,0
1.63309502948853e-06,0.3410383557022,0
1.72062809298978e-06,0.32537110340182,0
1.70056570407285e-06,0.326040843882094,0
1.90221897340885e-06,0.351683489259971,0
1.97154032719462e-06,0.352828105511029,0
2.47058784130572e-06,0.419504001715818,0
2.34142725861586e-06,0.405778865519672,0
4.1166322126894e-06,0.372499860394226,0
8.43887691602347e-06,0.466647793657231,0
8.66625339675003e-06,0.462659455755735,0
8.70528170595965e-06,0.462793086549685,0
8.90487848688202e-06,0.493930929334413,0
8.5439722542619e-06,0.479102655779612,0
7.97187877419399e-06,0.460956663022129,0
7.8148313105388e-06,0.45256594801434,0
7.14957875832703e-06,0.433544081302203,0
7.28446364360467e-06,0.43660819882805,0
7.67354709518589e-06,0.748879058375297,0
3.95136474246407e-06,0.67506915908901,0
3.85819310793972e-06,0.687060275583677,0
3.43576301782842e-06,0.615879767320781,0
2.24259212877096e-06,0.513669023703673,0
1.26181420840299e-06,0.369240123102432,0
9.84397222370687e-07,0.325303239624135,0
9.12260625754315e-07,0.317935059038888,0
9.15314353350583e-07,0.317564044511841,0
8.87852922792364e-07,0.320544848196226,0
8.49385644149443e-07,0.32057797034876,0
8.6146851589709e-07,0.325061127889669,0
6.91586843227453e-07,0.299866021994002,0
8.21213570418657e-07,0.328322536537562,0
8.97240562535736e-07,0.337900887334806,0
8.88988882729707e-07,0.379567691588362,0
7.81989809278639e-07,0.356676980675133,0
4.71727009406284e-07,0.281784336256263,0
5.51951239849498e-07,0.3123800419905,0
4.56221824473286e-07,0.277808868069062,0
7.52013831167353e-07,0.327004461199144,0
1.43460440626044e-06,0.445274988691576,0
1.57474143571897e-06,0.405514901259071,0
1.53740156390327e-06,0.406400938503441,0
2.5455536463778e-06,0.456190882383042,0
2.73071778901155e-06,0.425669584630354,0
2.65455962693229e-06,0.421537573509048,0
2.74766156697343e-06,0.436828695309576,0
2.90708345418236e-06,0.450097106085917,0
2.94522337589981e-06,0.431414749261692,0
2.8537698473701e-06,0.415841443990669,0
2.31385343484502e-06,0.360803584331278,0
2.30798252660414e-06,0.383709799079045,0
2.2751185374051e-06,0.383538727262997,0
1.36320598313982e-06,0.335189693952315,0
1.46962585066519e-06,0.385087500806305,0
1.53272942750216e-06,0.385633604956691,0
1.69550065917576e-06,0.380661206751015,0
1.13205383886622e-06,0.309910139053418,0
1.00219731366181e-06,0.300961013604211,0
9.34507465630749e-07,0.301734955158804,0
8.18600528456905e-07,0.29670192011439,0
1.053840992545e-06,0.288917634204752,0
1.17941541653384e-06,0.28082329193013,0
1.20587152254751e-06,0.286034287552341,0
1.04184906441351e-06,0.269903903200949,0
1.00734421449556e-06,0.271638279356133,0
1.24768868022448e-06,0.290747513749373,0
1.39216066644626e-06,0.301038988122552,0
1.36098264225775e-06,0.303409169075901,0
2.17879314398882e-06,0.312284957571744,0
3.49411012994422e-06,0.308157382925908,0
3.10203322346458e-06,0.296198850972134,0
3.41690902300014e-06,0.306425454588284,0
4.38999235167959e-06,0.34844063958499,0
4.83320910539962e-06,0.366628161712489,0
4.902644389285e-06,0.353797090991437,0
4.75150719154144e-06,0.361567368977795,0
4.67168629369716e-06,0.360877204659517,0
4.98127286330093e-06,0.372842943876113,0
4.13691217134491e-06,0.411646269487675,0
2.00074458758141e-06,0.359700387161437,0
2.16171411997322e-06,0.397204578505403,0
2.06389280096181e-06,0.423021732097073,0
1.65065543323287e-06,0.380755652864621,0
1.69487467842911e-06,0.374868221681302,0
1.38148237575055e-06,0.360570144145493,0
1.69536467808914e-06,0.359361337601674,0
1.99265555050994e-06,0.309628938240136,0
2.38021026730019e-06,0.320478776156524,0
3.08557997973212e-06,0.337897560118413,0
3.18993961685818e-06,0.318108589089231,0
3.09754517939449e-06,0.308733419998046,0
3.172612084901e-06,0.307429522816809,0
3.18115029389593e-06,0.308649885207713,0
3.83924095280862e-06,0.341789023258946,0
4.10637061882717e-06,0.35686950916956,0
4.63260158741771e-06,0.391360716127462,0
4.3173961590368e-06,0.448794800918157,0
3.83216920127162e-06,0.446680265851661,0
4.50083638223387e-06,0.564710527870065,0
5.21461099542102e-06,0.682083576788166,0
5.32403948625102e-06,0.705866542200863,0
5.28911660307612e-06,0.742945684839451,0
5.2160586761294e-06,0.651968330229309,0
4.87420362761844e-06,0.568088590233333,0
4.08514373733212e-06,0.49703303641131,0
3.04191154146314e-06,0.428059653250313,0
4.76323831663555e-06,0.56141630952625,0
4.9279017234589e-06,0.505087443417184,0
4.40926919088925e-06,0.470691637523295,0
3.57675863253607e-06,0.387754977293858,0
2.96545689384024e-06,0.346426085666804,0
2.63475677145046e-06,0.326913815105369,0
2.26065977203791e-06,0.327912203405732,0
3.07531724990995e-06,0.423026407174612,0
3.76661970222603e-06,0.501539923638427,0
3.74407049654275e-06,0.484872901660839,0
3.06241307912761e-06,0.380164796231961,0
2.80410347381079e-06,0.3454950484191,0
2.9261590280196e-06,0.352149400578927,0
3.18804891177423e-06,0.374572013614931,0
3.00057596397843e-06,0.343609254943476,0
3.09979037080006e-06,0.347215489912152,0
3.19900357484058e-06,0.352281509798487,0
2.90857924613515e-06,0.336291455056947,0
2.65412234917759e-06,0.313810947030406,0
2.66544312544962e-06,0.293184892574949,0
3.08318163419852e-06,0.308328266506605,0
2.99321541133266e-06,0.317675162905048,0
3.11218683431159e-06,0.322704057408354,0
2.92370695826309e-06,0.317365840565297,0
3.35003679883928e-06,0.346406907333089,0
3.01263257500517e-06,0.316652015977109,0
2.69821897752177e-06,0.29881112839071,0
2.73288179269218e-06,0.284519429828193,0
3.0564683334908e-06,0.286992254300857,0
2.90295023053975e-06,0.30553490100572,0
1.97583151608969e-06,0.287070133740334,0
1.9176810586854e-06,0.2949002093768,0
2.26560821398849e-06,0.314760041235484,0
2.09363670914001e-06,0.319624982974147,0
1.12118016306128e-06,0.244758947331344,0
1.25700355171069e-06,0.2668798232413,0
1.77471081150079e-06,0.327246805595244,0
1.81226664934692e-06,0.342361794100389,0
2.64402186116295e-06,0.381512477612182,0
3.03112226079943e-06,0.417563521128009,0
3.0696326390988e-06,0.415270833945719,0
3.05738511998141e-06,0.425725617357437,0
2.97113823041393e-06,0.429714670601557,0
3.33880649843519e-06,0.458338932429553,0
3.64402643803982e-06,0.456810414494283,0
4.40121022334553e-06,0.480794316442117,0
3.1581145632536e-06,0.401204283777388,0
2.68811795493775e-06,0.346730323315182,0
3.44343509078172e-06,0.410504034560029,0
3.17851105803444e-06,0.391448745089242,0
3.11049224936976e-06,0.398540218897093,0
3.05106310200306e-06,0.400616279241991,0
3.0481178919914e-06,0.390670082175292,0
2.93031751006552e-06,0.385738152804071,0
2.60139376173306e-06,0.388129983513512,0
1.41465374234441e-06,0.2997722303491,0
1.42295025915738e-06,0.304317011546235,0
1.31562128957627e-06,0.34027677151179,0
7.62259120663418e-07,0.292036690328996,0
8.18566316016439e-07,0.305950838853229,0
1.06636227800729e-06,0.338109336375103,0
1.22962992417351e-06,0.357111414141628,0
1.65765455015505e-06,0.380003431928152,0
1.72756713767762e-06,0.332027235409475,0
2.1981909963424e-06,0.383262768190191,0
2.53176529783717e-06,0.41682637603158,0
2.75538282030989e-06,0.437269765422604,0
2.6215702812131e-06,0.401191963371069,0
2.65749140588823e-06,0.414009838844314,0
2.79807787455491e-06,0.428958541585832,0
2.71905401965961e-06,0.417243076825207,0
2.58425065621276e-06,0.414122279292626,0
2.05189485892477e-06,0.414001725390372,0
1.97345214776917e-06,0.506118685148044,0
1.80866204800222e-06,0.454043286276613,0
1.40365096803365e-06,0.401225967472385,0
9.07965360767704e-07,0.310145873644116,0
1.17337585165285e-06,0.332155548288454,0
1.25045561134716e-06,0.31492294232086,0
2.36635322659394e-06,0.343798103666803,0
2.73672955628466e-06,0.28393713062114,0
2.78439176240864e-06,0.272957252211303,0
2.87285230378814e-06,0.273493926212306,0
3.02319940798468e-06,0.279939803091273,0
3.21213553900096e-06,0.288647931229715,0
4.11743673960973e-06,0.328262829387394,0
4.1260561363296e-06,0.325194463191472,0
3.59179680429248e-06,0.312994217580379,0
4.19554801774831e-06,0.357074924740037,0
2.58501716188577e-06,0.309622088856272,0
1.8097456201401e-06,0.326947861965811,0
1.7789977238408e-06,0.353322397557919,0
1.63942332865712e-06,0.347899887004476,0
1.64356490494632e-06,0.348223356389641,0
1.61343570588584e-06,0.358460863299627,0
1.30828211970579e-06,0.328451905824749,0
1.23414569903031e-06,0.349634319458671,0
1.22026213031846e-06,0.36315549203942,0
1.12295226056354e-06,0.348976596376354,0
1.13931542935509e-06,0.381088315858087,0
1.16698373826425e-06,0.406500938493535,0
1.14111425532646e-06,0.383523167366699,0
1.12154420481062e-06,0.388793555914031,0
1.0782088032668e-06,0.384306701430269,0
1.39670423891094e-06,0.41014909492141,0
1.53018507770603e-06,0.409826171790728,0
1.64672420999559e-06,0.415866221505265,0
1.59248860464124e-06,0.405813695172214,0
1.30860606875145e-06,0.383980764184452,0
1.24323124025152e-06,0.403116158321973,0
8.65565121537013e-07,0.331572040737709,0
9.24092784461674e-07,0.352103995826859,0
1.16884724713088e-06,0.406600317657353,0
1.4552930432087e-06,0.460305374847268,0
1.36064105242247e-06,0.453428811054522,0
1.04145481949408e-06,0.400966429442872,0
1.16419462251221e-06,0.419018815313436,0
1.16713528868413e-06,0.421671697339635,0
1.41603025850377e-06,0.44730585265319,0
1.65172751212903e-06,0.485438491481924,0
1.48604815619466e-06,0.401829789296909,0
1.67346303639131e-06,0.400913400686806,0
1.68688874642725e-06,0.390857675193432,0
1.86732442241122e-06,0.411215677879026,0
1.90471915440977e-06,0.409867776492193,0
1.87805590276046e-06,0.421571708213533,0
2.2860421286261e-06,0.384909654634629,0
4.7615263581888e-06,0.493224686779938,0
4.80767807170198e-06,0.485176363859505,0
4.33034717146127e-06,0.406229500508914,0
4.06908493898261e-06,0.385232354382885,0
4.3973078668549e-06,0.411853426785875,0
5.43544407962379e-06,0.459303636012072,0
5.70081768522157e-06,0.410564084268894,0
5.86984184178086e-06,0.376314012283837,0
7.10264436841702e-06,0.390185234625989,0
8.51043203479427e-06,0.490170127001312,0
6.93317671973396e-06,0.467703598836965,0
5.93318557391282e-06,0.457251030537499,0
3.67366162816991e-06,0.37673506514864,0
4.02099621331274e-06,0.36693427823864,0
4.57536437498187e-06,0.385555149486554,0
4.42721435094649e-06,0.377651946194373,0
4.08051303005814e-06,0.424802164368948,0
2.69316696275337e-06,0.361492036494356,0
3.11920593076443e-06,0.426867427857793,0
2.72692288096675e-06,0.394306611208516,0
2.63475242807423e-06,0.392096472828561,0
2.5697969692547e-06,0.402347319273915,0
1.87043882363237e-06,0.364694734309012,0
1.59769798327155e-06,0.43523602475452,0
1.09834556414903e-06,0.381441478434492,0
1.27699437515156e-06,0.410905278949319,0
1.49152214666919e-06,0.442967411554372,0
1.49358685408707e-06,0.549645373195492,0
1.29959002154993e-06,0.536904485390554,0
1.29634471765129e-06,0.534346108415567,0
1.19974101405037e-06,0.531176111373285,0
1.01150690627537e-06,0.465946844304411,0
7.80484662361658e-07,0.354945834123702,0
6.81976889442227e-07,0.280308419046307,0
1.32611702482793e-06,0.333391990212763,0
1.46444373507338e-06,0.323578251367653,0
1.39787594817572e-06,0.31642863796977,0
1.3981745719969e-06,0.315725543356923,0
1.38601819695919e-06,0.313436458307062,0
1.51563523508033e-06,0.320355315196385,0
1.94872082986742e-06,0.350742316856875,0
1.99881245337034e-06,0.354760185807314,0
2.3207076834646e-06,0.392988047053558,0
2.29411178755746e-06,0.447354791511703,0
1.2625500431577e-06,0.367674687611287,0
8.96210180051393e-07,0.312841145147474,0
1.23300673214019e-06,0.343165027845674,0
1.39577676103269e-06,0.365193699310296,0
1.03254642120192e-06,0.30191480890033,0
1.22116421615105e-06,0.345373424556481,0
1.25413057538681e-06,0.352404792491789,0
1.42820901863437e-06,0.376656926281589,0
1.68204768610133e-06,0.326431731184903,0
2.3877968759735e-06,0.350412668453374,0
2.51482292311991e-06,0.357303352387498,0
2.44900593891967e-06,0.368342775300673,0
2.17317047640484e-06,0.36123394538918,0
1.93942199546268e-06,0.339397940513834,0
1.8961994548797e-06,0.342172187450448,0
1.72210357130604e-06,0.326258770218253,0
1.63526170601608e-06,0.317908885249917,0
1.52099583002465e-06,0.312474844428861,0
1.33439376257375e-06,0.378628741664297,0
6.54257863262922e-07,0.319289304649423,0
5.2959681788488e-07,0.300136524767463,0
1.1601709187718e-06,0.380497635895746,0
1.68512313057875e-06,0.429669728765789,0
1.50641651926176e-06,0.407882834368751,0
1.58465241888759e-06,0.421239905330356,0
1.46517054896976e-06,0.386273154446093,0
1.31724203712216e-06,0.358355184362467,0
1.44225376001498e-06,0.32859526745906,0
2.65598552393835e-06,0.418880581358139,0
2.67887418117938e-06,0.351594046434301,0
2.77059185380511e-06,0.32848534511208,0
2.8211939910681e-06,0.316517702106212,0
3.05387834483366e-06,0.303815343540803,0
3.17868318937554e-06,0.309604176578266,0
2.96510728546422e-06,0.29871735277134,0
3.08556280669071e-06,0.30647176518439,0
3.56327518900685e-06,0.329833940011105,0
3.59645343818151e-06,0.325344955021035,0
5.40948298485812e-06,0.341023568663904,0
5.99366568468508e-06,0.290641338025113,0
6.44172149409585e-06,0.322815667694516,0
5.93681904200416e-06,0.332702280536437,0
6.34326069646088e-06,0.365610060476112,0
6.26286981401274e-06,0.349428457588688,0
6.85836647435212e-06,0.337228050483594,0
7.43995230294114e-06,0.325820185832419,0
7.82637700687843e-06,0.336347818326501,0
7.64694819232598e-06,0.356742308036251,0
4.94217252086705e-06,0.336135840547282,0
4.50948671715673e-06,0.444835735123587,0
4.2524759817965e-06,0.369553670735067,0
5.6111834299421e-06,0.419386595162791,0
5.20685606421347e-06,0.399815330784567,0
5.2095216944382e-06,0.418490982555851,0
4.30053216555522e-06,0.427728820866801,0
3.72172710007164e-06,0.45800978490903,0
2.88544355101833e-06,0.409076381026596,0
3.1140596981424e-06,0.43826839822505,0
3.42740235268958e-06,0.470921872685527,0
3.65420143166211e-06,0.49057230922861,0
3.30518642766608e-06,0.623362847760393,0
1.07920370370839e-06,0.382015626790653,0
6.44710988664804e-07,0.325813538399166,0
8.45272867785707e-07,0.346010143573749,0
2.59345861382251e-06,0.52407682024794,0
2.88818809704813e-06,0.419099372172159,0
3.04632006833762e-06,0.422821679917503,0
3.01737881608691e-06,0.420688003005555,0
2.86210618960205e-06,0.402797723468616,0
2.38469938050905e-06,0.366268138255832,0
2.41915772289075e-06,0.363103944645774,0
2.42537877407702e-06,0.352423654846815,0
2.33800601456928e-06,0.340379748567057,0
2.47847354154841e-06,0.368118864586031,0
1.52845581257553e-06,0.314903435320852,0
1.45566055965902e-06,0.368767832887189,0
1.41998573782677e-06,0.366858383913944,0
1.46604857918015e-06,0.34537050017665,0
2.82292833460773e-06,0.472154868727905,0
3.11979342251555e-06,0.404293614850603,0
3.52000948194625e-06,0.4384374653851,0
3.4518096547245e-06,0.459882959203947,0
3.43039647579973e-06,0.466264551038362,0
3.5167197419677e-06,0.466910673915502,0
3.2381075256178e-06,0.452629163176389,0
3.38954575274474e-06,0.449844412349882,0
3.49852547257833e-06,0.448126924743854,0
3.4025341182048e-06,0.476839687005622,0
2.44933603551323e-06,0.420883304463919,0
2.18671646455178e-06,0.491232132423485,0
1.98838587803251e-06,0.478200418214113,0
3.7865474464798e-06,0.52069079072223,0
1.04237333665307e-05,0.767194621582408,0
1.12503927957101e-05,0.476374455238557,0
1.26393942907494e-05,0.491111648554727,0
1.33570991248563e-05,0.461295059285007,0
1.33237492789099e-05,0.457409676413189,0
1.35037395249561e-05,0.460810219587386,0
1.34518291627723e-05,0.429165500066217,0
1.29100043375525e-05,0.413644599226345,0
1.32188461183644e-05,0.416736244796575,0
1.21207960374414e-05,0.446535801429121,0
4.75089183536127e-06,0.29828347862836,0
2.27806368059559e-06,0.302004547464918,0
1.97704879739431e-06,0.296617534036119,0
1.72738237713487e-06,0.30203606762841,0
1.68681123386682e-06,0.304388134991585,0
1.48123830135643e-06,0.297688908592702,0
1.10210759617682e-06,0.295585463881352,0
1.21587732496031e-06,0.322380807630312,0
1.40511989787498e-06,0.335476745730808,0
1.82399456702474e-06,0.390262450772216,0
1.67957349853662e-06,0.393061310282988,0
1.67321553076732e-06,0.393680679554117,0
1.4201590051278e-06,0.369404849923362,0
1.38584499647933e-06,0.401296848099949,0
1.46496066366604e-06,0.421475370758302,0
1.55773678366868e-06,0.431941512664559,0
1.13664612396586e-06,0.39934349587832,0
5.73736211779642e-07,0.295076356839901,0
5.28840201745436e-07,0.301358853069503,0
4.91817195931086e-07,0.291845434028453,0
4.97348919898909e-07,0.286014714205496,0
7.1301024579166e-07,0.334766735303991,0
8.73665518207856e-07,0.387583995357581,0
1.31451573327254e-06,0.474081843608704,0
1.49993646920978e-06,0.39705627419837,0
1.94045404847634e-06,0.440184096050895,0
2.62755391677247e-06,0.498471177334988,0
2.72834483552361e-06,0.402119454408678,0
2.99508032344391e-06,0.416346336581548,0
3.03616572245771e-06,0.41329497911385,0
3.08452821447248e-06,0.415569605887112,0
3.07924686943908e-06,0.414143143466183,0
3.38217511010188e-06,0.426558215397725,0
2.70688301078505e-06,0.363364397055655,0
2.61494375915037e-06,0.401024917653234,0
2.48016832695375e-06,0.392459177205673,0
2.12442342854069e-06,0.361759611630507,0
2.20119561037667e-06,0.49132081323748,0
1.53690869093281e-06,0.417123608311722,0
1.29438899556623e-06,0.387915394892445,0
1.35575508826844e-06,0.39805677199056,0
2.04169848252718e-06,0.502194838966355,0
1.73169100635604e-06,0.382563853812265,0
1.72147785784408e-06,0.394500955731517,0
1.69532692412652e-06,0.37577525663494,0
2.51426530043302e-06,0.443449128674434,0
3.34724253785694e-06,0.446790087611937,0
3.31309691856387e-06,0.435701912668795,0
3.39839955813874e-06,0.42388361524503,0
3.9634444736166e-06,0.444208453948228,0
4.38324815753159e-06,0.468803104527098,0
4.18581598168041e-06,0.470899713691735,0
4.71024959436537e-06,0.581229117806682,0
4.86353956983253e-06,0.58194232264664,0
4.76273421770807e-06,0.58659629563106,0
3.6042566142758e-06,0.532232389584799,0
2.08844022699605e-06,0.465527942113774,0
1.73159959499166e-06,0.442954516222313,0
1.12417675855482e-06,0.379775992563854,0
1.06316120972503e-06,0.396076156381908,0
1.00845371324848e-06,0.383714812026135,0
7.22703124652312e-07,0.329058889582992,0
3.98894403454186e-07,0.246398513293092,0
9.8915442212476e-07,0.342606843888548,0
1.18015739883644e-06,0.348050952121277,0
3.57124261154385e-06,0.38191137388265,0
7.91918493375932e-06,0.492488583742627,0
7.48799806259691e-06,0.441104846250214,0
7.29240099661392e-06,0.433363111112627,0
6.88534191452067e-06,0.407308352885599,0
6.87981099240693e-06,0.359240055673771,0
8.4248843619788e-06,0.397833771442956,0
8.34616868633238e-06,0.390337318568708,0
8.93916703666367e-06,0.420691326063169,0
9.87363153628033e-06,0.455839127345947,0
9.12875988616608e-06,0.600436076044276,0
3.55407284437561e-06,0.403371560328605,0
2.60037908222432e-06,0.358209701792428,0
2.9340888970575e-06,0.37620481296925,0
1.99674821370067e-06,0.332706676940688,0
1.48751949159821e-06,0.348663393910863,0
1.19120507697531e-06,0.326505332946956,0
1.73298633479047e-06,0.391803809139579,0
2.07441820481418e-06,0.385720310394207,0
1.97579356166355e-06,0.391204349125556,0
1.74486012308848e-06,0.370405694760051,0
1.73193797741065e-06,0.375144042923399,0
1.76854989937003e-06,0.390438908899945,0
2.93610556005214e-06,0.448452398135874,0
4.61873185068862e-06,0.468310101847627,0
4.50765080543447e-06,0.424523662214402,0
4.65629283376506e-06,0.42716341077879,0
4.42742016015867e-06,0.429996707482291,0
4.66895731700063e-06,0.466378699802857,0
5.0935741299913e-06,0.487606310617481,0
5.00082814633759e-06,0.483047304778831,0
5.12364546191616e-06,0.490125349031673,0
5.43506420125651e-06,0.510469418807181,0
3.92264446783176e-06,0.524611604592432,0
8.72821900901448e-07,0.297869434608046,0
1.76653103127668e-06,0.437098543567341,0
2.35711686998575e-06,0.415060919166655,0
2.21293441990565e-06,0.414356412077059,0
2.16365788106836e-06,0.415607005415006,0
2.0456917158128e-06,0.40032654224007,0
2.00356230279541e-06,0.401319731404889,0
2.27747298142817e-06,0.419621125315762,0
2.09324005865836e-06,0.391392149357078,0
2.12067823544845e-06,0.359080623795611,0
2.1699914591096e-06,0.321781168624071,0
1.82600889127834e-06,0.311754620279951,0
1.50803733362883e-06,0.332540973741738,0
9.92437680449543e-07,0.272929306595299,0
7.86303516908936e-07,0.24291082455703,0
1.10317319341922e-06,0.282694056660519,0
1.37934944391526e-06,0.318105433864605,0
1.66070233066693e-06,0.358326329648248,0
2.15729643859807e-06,0.418897026897927,0
1.66255087159085e-06,0.40452185112284,0
1.37350011891319e-06,0.42061969757422,0
1.23388108718608e-06,0.370165279009036,0
1.76207626415063e-06,0.3942106058257,0
1.66423904170009e-06,0.377524969965777,0
1.47816058495913e-06,0.359404154210099,0
1.48260285652587e-06,0.359927379107197,0
1.697592963738e-06,0.380881810297415,0
1.60374616808383e-06,0.366701119257809,0
1.28485762348019e-06,0.331286552722763,0
1.1850644116599e-06,0.337570061266147,0
1.19755175196642e-06,0.342555242537905,0
1.21546036084214e-06,0.365179410075779,0
5.06276562688829e-07,0.275078850917816,0
4.3484546401472e-07,0.277617494293376,0
2.69556611014104e-07,0.223043821951065,0
9.582824389076e-07,0.355160028140594,0
1.67192594895374e-06,0.430339782969438,0
1.65562926722911e-06,0.39760594675121,0
1.68905943222516e-06,0.378472499722686,0
2.0705626231445e-06,0.38929496047839,0
2.23732414797212e-06,0.409113175870327,0
2.54015402786858e-06,0.452954102815701,0
2.53908034526427e-06,0.453109096225298,0
2.53901639740191e-06,0.455500635710008,0
2.4802443026272e-06,0.4650154912482,0
1.91658659469636e-06,0.452942073682019,0
8.0782447838541e-07,0.318380331365705,0
9.20211476640467e-07,0.377127790559339,0
9.1410569197725e-07,0.402669725934911,0
8.81430138485456e-07,0.469036262335324,0
6.47341070025616e-07,0.391090016791379,0
2.45656348038281e-07,0.272350549323467,0
1.86411627108464e-07,0.25492701912123,0
1.32304652511729e-07,0.22815877989379,0
1.29299570729249e-07,0.212426390194159,0
1.63759249534398e-07,0.231100103085993,0
1.60428548176937e-07,0.224289018705532,0
2.09149535783694e-07,0.234125325348011,0
2.82186881809206e-07,0.256524638157071,0
6.76568651001711e-07,0.367683503709084,0
7.78355004763833e-07,0.381644521686739,0
7.91964539846097e-07,0.36786860895119,0
1.83992693971535e-06,0.46039847365658,0
2.601879083911e-06,0.417997902980679,0
2.72421207962921e-06,0.415395197546468,0
2.72587893378433e-06,0.408801114742022,0
2.79498104730219e-06,0.415594272685438,0
2.81705829504211e-06,0.419366549101619,0
3.22756849024617e-06,0.41726796652597,0
2.97934233354493e-06,0.340099033941697,0
3.14145203560796e-06,0.349725560134943,0
3.14101582699202e-06,0.354616592715381,0
2.19372179584303e-06,0.327231386549443,0
1.22244150286883e-06,0.295015888011368,0
1.21662752626717e-06,0.303287102937134,0
1.46447580923631e-06,0.335934541190957,0
1.54152309384064e-06,0.326017187418353,0
1.99207173392332e-06,0.356855863529281,0
1.3137176211848e-06,0.309315255758088,0
