Activity,Complexity,Tag
3.97222736516738e-07,0.266751851327233,0
2.74733658948624e-07,0.241522745013104,0
2.619076228812e-07,0.227473870766883,0
3.3256763549744e-07,0.260538217938803,0
3.5501562281809e-07,0.27579563321263,0
3.48148212238196e-07,0.276567785550606,0
3.10828678970149e-07,0.268514869285914,0
3.01026237748372e-07,0.266176627374662,0
2.9650325739751e-07,0.269957319961005,0
2.71376235235644e-07,0.270933256796527,0
2.02211858691174e-07,0.224432738146876,0
1.40345818991056e-07,0.192142364049827,0
1.27435226734926e-07,0.203207408813413,0
7.04748681785868e-08,0.155110516003149,0
3.61943153623899e-08,0.123642353225965,0
1.09721351655285e-07,0.167568040408085,0
2.63658737590404e-07,0.23098006322317,0
2.62362726526829e-07,0.229036440983837,0
2.82868248741818e-07,0.243443855470698,0
2.82686595155992e-07,0.246429595319061,0
3.08396460282203e-07,0.253957654270839,0
3.00482182026552e-07,0.241917230069136,0
3.08210281518082e-07,0.242212374762906,0
3.13184745371938e-07,0.246843562709721,0
3.31409577726446e-07,0.245424444820782,0
2.55004528038181e-07,0.22973648143302,0
6.52976763371314e-08,0.128464699387208,0
7.93965804134245e-08,0.139210487705527,0
8.28424390393634e-08,0.134533629220325,0
8.21979243594028e-08,0.135781218844515,0
1.32011087026433e-07,0.170595358096119,0
2.15648405955946e-07,0.201194963755205,0
2.64647941565605e-07,0.21281118811698,0
2.67354386058205e-07,0.214985501584738,0
2.65415023931945e-07,0.218832551129154,0
2.91380109113973e-07,0.22591184977567,0
3.24675724551646e-07,0.235384621269459,0
3.48767644501323e-07,0.242744912984711,0
4.02652950470266e-07,0.264611485541684,0
4.07776098753802e-07,0.269154495079607,0
3.40526131209569e-07,0.248246509763845,0
2.41097491521579e-07,0.231177356492403,0
2.34201636963833e-07,0.23094106942382,0
2.35175455332833e-07,0.231353223958096,0
2.35157354619654e-07,0.231394308620504,0
1.93210244736735e-07,0.212592912323696,0
3.32593493659124e-07,0.251870430755904,0
2.10864620186343e-06,0.573350504803684,0
1.10700196850915e-05,0.865942294278702,0
2.00454803069323e-05,0.67520552742191,0
1.97364911775843e-05,0.595325683158392,0
1.90811046921257e-05,0.561127158089119,0
2.2665083137207e-05,0.494362618103407,0
2.63298989794707e-05,0.457340424008299,0
2.43327092119115e-05,0.416752586015685,0
2.16655814076972e-05,0.382079822417598,0
2.64836199325925e-05,0.32573688583294,0
4.27622358086314e-05,0.372228222803837,0
4.3474742843958e-05,0.347747495554911,0
4.36905050258253e-05,0.379775012646391,0
4.06488295070745e-05,0.343741960096269,0
3.54903993134103e-05,0.323312187438681,0
4.55824209162479e-05,0.355858322878472,0
7.30212078551084e-05,0.482806288201038,0
9.10869266661653e-05,0.523283481527307,0
8.07009660305335e-05,0.450423012813474,0
8.38231925673262e-05,0.433433680436555,0
9.95584353770134e-05,0.499377521751855,0
0.000102185978860869,0.495598979926604,0
8.86930560198675e-05,0.465880937887301,0
7.92688132971844e-05,0.478810466165799,0
8.3093259070387e-05,0.433217453311606,0
8.56095557003385e-05,0.373788446748234,0
8.34320921384604e-05,0.380679070421361,0
7.02197211720775e-05,0.335542285911582,0
5.5426121420807e-05,0.302676414916028,0
5.64451001641508e-05,0.376563325682012,0
5.39104401020982e-05,0.368299720478814,0
6.03913156408635e-05,0.462923310431575,0
6.6616147799945e-05,0.477165410162593,0
6.69402184435132e-05,0.481371351093704,0
3.75245936618282e-05,0.474239576276597,0
7.93969592354933e-06,0.365954525732899,0
6.66581168892653e-06,0.395494821342754,0
6.86570458767794e-06,0.440682200299791,0
3.4731193343119e-06,0.356426930209936,0
3.40768784198806e-06,0.401128924926639,0
3.534315259752e-06,0.407344844016156,0
3.64424761400662e-06,0.438058835606193,0
2.46425798459913e-06,0.352846927972466,0
1.93326645251553e-06,0.305443221247388,0
2.10461762956395e-06,0.322375188552414,0
1.94455250576389e-06,0.316422737330567,0
4.03495318874346e-06,0.26534265022065,0
6.65522715467556e-05,0.498890154390514,0
8.73443915331458e-05,0.317763375338096,0
8.69052388824237e-05,0.313271983955939,0
8.49065389982222e-05,0.293015293776577,0
8.58042547287342e-05,0.289787524455074,0
9.15327910613341e-05,0.299866100581333,0
9.36329817736178e-05,0.30643310532052,0
9.19785186668275e-05,0.301629009116196,0
8.93642035720353e-05,0.30296311638985,0
8.8526133311589e-05,0.345307518915263,0
4.10837989536903e-05,0.418401343858392,0
1.78159285813223e-05,0.740230262033339,0
1.59931267733196e-05,0.663696998393236,0
2.08924999478466e-05,0.876884484104599,0
2.76333251294904e-05,1,0
2.02567056743323e-05,0.683749226762082,0
1.4787456239927e-05,0.497599162320873,0
1.3182036756912e-05,0.45245398523816,0
1.07581217711358e-05,0.408677802072162,0
1.79617576234983e-05,0.30985836367021,0
0.000167381949230012,0.325510850380902,0
0.000480882483910659,0.48963388514752,0
0.00105146204325012,0.216909513118168,1
0.00264585475551908,0.335379800576801,1
0.00372331360920051,0.249875373220182,1
0.00351126864667944,0.195170792082315,1
0.00309661196739612,0.161534443894608,1
0.00271056831085223,0.148937098549973,1
0.00220104375307466,0.114952987895094,1
0.00282581790992362,0.0592583122030397,1
0.00320107667219009,0.0400460305056434,1
0.00296573493439707,0.0379809492646661,1
0.00284134880279251,0.0433630540608661,1
0.00267670952908905,0.0400982576263178,1
0.00686382337331701,0.0126194433169719,1
0.0334038146063631,0.0404018126554762,1
0.0431156306502791,0.0380861294996061,1
0.0419585299451854,0.0372573057498322,1
0.0385104491250731,0.035599606980819,1
0.0374251908213453,0.0353761637187069,1
0.0350753855731236,0.0377976005442581,1
0.0309456029415867,0.0270805172362699,1
0.0271751229986079,0.0233771265418209,1
0.0203979053134022,0.0178280317320644,1
0.0185997136651875,0.0343359136506409,1
0.0110683089711741,0.0387171463851878,1
0.00912222389522109,0.0433401404560187,1
0.0102331636515149,0.043454562505983,1
0.00913552777201571,0.0410808310044103,1
0.007295624781396,0.0362222330329004,1
0.00540096567410618,0.0266978692118856,1
0.00444038031760937,0.0454810521855194,1
0.00513939207661435,0.0671043128754585,1
0.00370498070421074,0.0501192392916394,1
0.00167401197321541,0.025798636047041,1
0.00106437543129069,0.01547912116245,1
0.00107444539032211,0.0162008156418222,1
0.00143999635986673,0.0223268787000568,1
0.00173666799643347,0.0244739932828615,1
0.0016786175219088,0.0243523944551475,1
0.00168398924870862,0.0274879347923321,1
0.00136014217079826,0.0308434076336849,1
0.00244877081788164,0.0398951608400821,1
0.00445911535179255,0.0611967812324564,1
0.00474395022595482,0.067838754495583,1
0.00601315168389854,0.0645220942569575,1
0.00593459996784825,0.0493127831488611,1
0.0055076243666031,0.0480351185535008,1
0.00452407704269166,0.0388679055612841,1
0.00401434055167952,0.0345935643040321,1
0.00447548803746285,0.0365429054368629,1
0.0054798090232877,0.0433056397522001,1
0.00616883479893423,0.0598204282963283,1
0.00552670129765863,0.0533936577049899,1
0.00515813315384991,0.057387824504201,1
0.00234078069148405,0.0440103934186816,1
0.00182371270415534,0.0764804788440495,1
0.00187909563934315,0.0732481846882353,1
0.00161603766235449,0.0966795718782751,1
0.000943926226523304,0.0794676043682726,1
0.00084055353969475,0.0954926053167763,1
0.000917280360718846,0.0931964855993284,1
0.000847729383453517,0.113808835173244,1
0.000633957723438861,0.114555100703456,1
0.000595256380821738,0.110715232731286,1
0.00065404308672792,0.130990467435838,1
0.000679684375104311,0.0804731066923243,1
0.00119039670478363,0.0908404343462405,1
0.00122487612961835,0.083426910324092,1
0.00155927363964818,0.073119696261264,1
0.00405666614333769,0.0932008937027654,1
0.00554219449721454,0.10987190021255,1
0.00539708652280612,0.0808130015611313,1
0.00499194292751946,0.0642696527729836,1
0.00484153618097712,0.0573447289352911,1
0.00415877690946871,0.0484941750580382,1
0.00451105585869816,0.0560724786072452,1
0.004960964698811,0.068023272453993,1
0.00539405397689923,0.0735172772101986,1
0.00554910509338097,0.0594162572155548,1
0.00425159678083103,0.0519210092247569,1
0.00256841995664597,0.0244575757563736,1
0.00651554384932578,0.0412122199750035,1
0.00921339812705713,0.0416443904057033,1
0.00881428700519407,0.0353217169283401,1
0.00875312579175023,0.035081337174737,1
0.00766269108601854,0.0318993025907986,1
0.00662561063137121,0.027823348993346,1
0.00628529555809745,0.024050877982507,1
0.0072270778460362,0.029640218966819,1
0.00718281711126943,0.0294298593719884,1
0.00871138867703267,0.0384063704583759,1
0.00637976608340076,0.0409711699439785,1
0.00288198522038198,0.0285327292200475,1
0.00272821372502661,0.0334128098340433,1
0.00277882886099471,0.0339984895956528,1
0.00221775273292943,0.0201725161628362,1
0.00227196306293236,0.0172699437756596,1
0.00221451740421563,0.0183386950105527,1
0.00270677520155084,0.0235548563162977,1
0.00318192833020092,0.0295986050629911,1
0.0048428306095212,0.0404525958254759,1
0.00400981850390326,0.0254211472841082,1
0.00525766715365201,0.0266216884009207,1
0.00779647618515635,0.0282089310774567,1
0.0107855224198719,0.0403047810076315,1
0.0169558783331832,0.0479386764037468,1
0.0172334686219911,0.0311851221364025,1
0.0133135783922453,0.0237530561427792,1
0.0145671559135778,0.024554268963563,1
0.0126691634956986,0.0200369727040085,1
0.0118987330369511,0.0202809200537876,1
0.00846301138961512,0.0161149624444774,1
0.00774755345126058,0.0136803408289615,1
0.00896462091769886,0.0124393318138157,1
0.0111495269085708,0.0145082698187446,1
0.00866482502744473,0.0129038197659127,1
0.00781987963413702,0.0187104300751933,1
0.00765857662324922,0.0178295207594385,1
0.00657658616784724,0.0107431854476989,1
0.00798138751510253,0.0117954692444075,1
0.0080254843012375,0.00973236874371852,1
0.0081906350796331,0.00903122562968714,1
0.00692166293639237,0.00675103610732722,1
0.00627198210499123,0.0107982626964038,1
0.00555948038287044,0.00908471250442611,1
0.00561348306278469,0.0086885176285492,1
0.00598205390838344,0.00642340815181477,1
0.0100306262851128,0.0168637325983959,1
0.0117223938799877,0.021434937996009,1
0.011106124808414,0.0198542355010536,1
0.0152319213930791,0.0180213951153895,1
0.0190955300668709,0.0160249588052925,1
0.0203972121352135,0.0154126572039586,1
0.0214800202450815,0.0165977640299832,1
0.0228087783309118,0.0164874779869315,1
0.0221715778321257,0.0152828774603299,1
0.0256735141353426,0.0194674325675929,1
0.0332002609159458,0.024741943438895,1
0.0333828005642635,0.024325068871239,1
0.0326958142441963,0.023799276470296,1
0.0334695660891712,0.029608668514198,1
0.0321654652770873,0.0334768887348502,1
0.0326166996113518,0.0397079676022188,1
0.0226503578501937,0.0216061785813202,1
0.0141793051490613,0.0143433051747827,1
0.0120923439140816,0.0106258774475926,1
0.0164873369849468,0.0153532642809973,1
0.0170485312811908,0.0131109629236986,1
0.0418986336037604,0.02479156185193,1
0.0604151870104755,0.0273726114799504,1
0.0930503799584803,0.0295274322809977,1
0.0817058940183446,0.0241211949675581,1
0.0805695296712753,0.0243147402879613,1
0.0734561361986247,0.0246124479766902,1
0.0539142010372527,0.0171569082796948,1
0.0456537365056657,0.0155373682195813,1
0.0455049714812675,0.0141333008320436,1
0.0427873997624541,0.0127683215786055,1
0.040237833799947,0.0133523822482075,1
0.0364385423048308,0.0146685636027039,1
0.0177524587839139,0.0117257934890687,1
0.0162566880092206,0.0134548877121619,1
0.0205405623803949,0.0103680939105596,1
0.0291824083075828,0.0131838973599978,1
0.0280494983404381,0.0139974665862815,1
0.026123316932298,0.0109010420324109,1
0.0240134744169356,0.00940151322960622,1
0.0257650806345864,0.00520414963014264,1
0.036155345256117,0.00396836679553565,1
0.0696537004344404,0.0108148954089998,1
0.102174891973387,0.0159105838946862,1
0.118448756178459,0.0175290180684917,1
0.111638752523048,0.0183721735220547,1
0.0901550625398935,0.0159486903472614,1
0.089369469984878,0.015530863237569,1
0.0890731708446978,0.0159464445764381,1
0.0827478910492135,0.0149091260424421,1
0.0734182901669387,0.0187901494119278,1
0.0406537871332571,0.0246039975799861,1
0.0364469943295462,0.0336897419549155,1
0.0263574751192756,0.025734848953958,1
0.019051227919741,0.0139385785330166,1
0.022946212010845,0.0146984196847172,1
0.025595346098946,0.00911474041844369,1
0.0420814444457547,0.0131748561085154,1
0.0417282083557655,0.00869479199262233,1
0.0445430196347016,0.00925949680358422,1
0.0472370616387429,0.010015430428959,1
0.0497172126699793,0.00687287082430705,1
0.0574953669817548,0.00891257260202496,1
0.0562806041336734,0.00856783996144197,1
0.0530568507742374,0.00878199758827098,1
0.0470144844348019,0.00817318294141882,1
0.045044465428647,0.0118591043996259,1
0.0293682276407999,0.00818507114413157,1
0.0288543434211399,0.0177567430679371,1
0.0299568414667633,0.0147027941010426,1
0.0334814379105884,0.0201358275748578,1
0.0351067896326165,0.0303281427429512,1
0.0259908908981874,0.0228085686320513,1
0.0282587753274193,0.0245560148831762,1
0.0284593840835188,0.0211092475460705,1
0.0541345146703412,0.0252276231919319,1
0.0558672615315169,0.0180550609808783,1
0.0686025422690661,0.0151842169726614,1
0.0720186083986356,0.0151686877910538,1
0.0613539416976222,0.0143379512084371,1
0.0685964460684616,0.0146969271958046,1
0.0764099451926701,0.0160755272572923,1
0.0648584113182162,0.0137495279374782,1
0.0554620540992814,0.0109976942984882,1
0.0427356493363092,0.00696337214982203,1
0.0416301158093604,0.00827346938051136,1
0.0271384067058685,0.00477186944100109,1
0.0683792296074198,0.0280187071335225,1
0.0980068922950628,0.0335718241429301,1
0.109388459349881,0.0352503994344859,1
0.115671860976056,0.0379345329816173,1
0.100309883469554,0.0361086151765227,1
0.0820820974263192,0.0266618088161814,1
0.0741239363322488,0.0252227209117615,1
0.0721464566991602,0.033212005366114,1
0.108281950076708,0.0238701324540771,1
0.142703977301188,0.0190514959946195,1
0.126592910392245,0.0184011113767731,1
0.120328317285399,0.0175430369637361,1
0.128700208273406,0.0177862395001622,1
0.117326486572431,0.0161925777343994,1
0.115655562735387,0.0145158710524634,1
0.144815779589429,0.017948113324734,1
0.163289223473717,0.0195800836956973,1
0.191688185486932,0.0207022858017193,1
0.133047385452696,0.023317928577538,1
0.0594551468535363,0.0226910185028885,1
0.0652271496534634,0.0218467869451757,1
0.069263948120834,0.0121555482350168,1
0.0768297772177806,0.0117614097240129,1
0.0665808741216341,0.0110510975336081,1
0.0541089027042151,0.00717460597727,1
0.0867027038329129,0.017639113726656,1
0.0881265263811965,0.0157104198283276,1
0.074932181204615,0.013620674816351,1
0.0673925689292947,0.0109799452493773,1
0.0767551174414429,0.0135466531374079,1
0.0746303282937203,0.0133416169282768,1
0.0685006837399934,0.0213136648343757,1
0.0540856522698719,0.0225607507455273,1
0.0556481701568431,0.0207528909208713,1
0.0583886574240507,0.0267232975498634,1
0.0370498581467559,0.0121943789566846,1
0.0420023994382085,0.0165700049200499,1
0.0482185720071714,0.0190245071166817,1
0.0598318056652405,0.028055343313341,1
0.0455810040706413,0.0152766671017078,1
0.0350226441258212,0.00983995487941185,1
0.0361714483135638,0.00820945851455603,1
0.03696443974493,0.00712873611031994,1
0.0356050341977816,0.00737903413504579,1
0.0449115432870866,0.00839527350380167,1
0.0647927221048351,0.01616531050922,1
0.0659995380130876,0.0126080119101001,1
0.0679784405722003,0.0107595188604304,1
0.0589068100685606,0.00709488877075582,1
0.0606722268094667,0.00981819966573554,1
0.0664624943295141,0.0107686808546548,1
0.0594304248974086,0.00779999383356219,1
0.0615978368592915,0.00914474056917909,1
0.0588038576487451,0.00344784344647918,1
0.124654613890525,0.0173640803870052,1
0.126114297325588,0.0164922345468832,1
0.122607183068361,0.0170126795217166,1
0.121328422609177,0.0188910947405097,1
0.119696267872184,0.0201259873351722,1
0.115599502380491,0.0196249911054656,1
0.122329708507885,0.0252608485291466,1
0.137047704602381,0.033784439511814,1
0.13786522547069,0.0161991248584806,1
0.198292608980505,0.0270437003970764,1
0.239896082398752,0.0312589956627091,1
0.288982398229288,0.0372652272664146,1
0.327681319210304,0.0264641738500757,1
0.336077478175107,0.024964517014855,1
0.323303464400979,0.0246113838674989,1
0.311840759810969,0.0233671830680668,1
0.304332529263516,0.0240498809370209,1
0.274232242655868,0.0208682863056661,1
0.27567718887878,0.0159636999555457,1
0.309808419767875,0.0202684387571054,1
0.264136502928777,0.0174108962991759,1
0.209385881312364,0.0138898610582012,1
0.13626851203767,0.0112454353225829,1
0.135785844747675,0.0119676001574048,1
0.145632836495086,0.0115733491907564,1
0.166219859345185,0.0127328944873655,1
0.165881393253169,0.0115291815196201,1
0.0566275023728483,0,1
0.0317134121710255,0.0130410199469453,1
0.0365291531206808,0.0158692936102914,1
0.0533179923414506,0.0185390074208323,1
0.0519340590908909,0.0145334100252166,1
0.05996172454565,0.0129801206590767,1
0.0654516785939539,0.012636607863178,1
0.0563356173546835,0.0151118454225615,1
0.0312189746330587,0.00808864529296569,1
0.0334884775132528,0.0108809254676397,1
0.0330809334268547,0.0106970549185162,1
0.0363834037754278,0.0116568827186356,1
0.0456882128447167,0.00929137697172135,1
0.0460593139719443,0.00911573158535824,1
0.043807540966826,0.00971969571708564,1
0.0411157172755189,0.0106659274647712,1
0.0389602889436758,0.0111146540256729,1
0.0390856091249603,0.00992353538485176,1
0.0382023952602215,0.0102283471305093,1
0.0355728847635905,0.00920821068338973,1
0.0389647239215914,0.00938934293491169,1
0.0336803294291442,0.00596648003115566,1
0.0284044595531588,0.00615814854455779,1
0.0696527864022099,0.0178448902924406,1
0.0791771473448651,0.0138858890380189,1
0.0804810871379176,0.0145626600631218,1
0.0821274352879826,0.0134742837184857,1
0.0978157303263829,0.0130917462587349,1
0.117399279630494,0.0138996205517048,1
0.0974973762325964,0.010074168945571,1
0.102260626522658,0.0081551091302025,1
0.136775650128251,0.014425343815771,1
0.255554423973856,0.0223331514983735,1
0.384536298228922,0.0180846464212686,1
0.365868425229935,0.0187623496819908,1
0.368603890235512,0.0150883432909634,1
0.331854738591369,0.0110532962710138,1
0.302873509770887,0.0114572937315823,1
0.319716073464127,0.0140860745158562,1
0.319913079030072,0.0152982293196181,1
0.262283806404894,0.00617133634892058,1
0.275532238149792,0.00739581965830816,1
0.374694285119002,0.0128992211104178,1
0.400706062895961,0.0163580225327485,1
0.385248564454429,0.0165209779820547,1
0.417282236178731,0.0208084926090072,1
0.467489558959838,0.0257110676415131,1
0.489583597847146,0.028489330736119,1
0.433995571665,0.0216521090918372,1
0.238125520852188,0.0131469126517441,1
0.134041561774485,0.0176100391919809,1
0.141947907218818,0.0134719651900489,1
0.135030034674292,0.0118197273862244,1
0.134692679908143,0.0126893625012037,1
0.134660890530494,0.0114076750988712,1
0.135436268256127,0.0136171920013097,1
0.110990020123895,0.0126910196807221,1
0.192530269109002,0.0165165303343468,1
0.309867579168758,0.0313800094329141,1
0.326102711485354,0.0301300439543109,1
0.293514100099016,0.0280850971652544,1
0.293218722148993,0.0309534443231148,1
0.274331838701294,0.0384290146696155,1
0.216601817240614,0.0284948761938887,1
0.209903350535616,0.03161853000751,1
0.186999628948118,0.0344883814078987,1
0.176960246631252,0.0245325138690804,1
0.16414096529346,0.0498312143106038,1
0.12189329131128,0.0413364043718209,1
0.0881799061797568,0.0305768213776137,1
0.0705381065574719,0.0239558538044291,1
0.0852914348191143,0.027394021786087,1
0.0892730361195629,0.0288200243931353,1
0.0833778893295624,0.0343660549897581,1
0.0633194238046243,0.0286818767136318,1
0.0608681340921433,0.0231880593469948,1
0.0622366602664696,0.019489930423197,1
0.0628942283621049,0.0178911572741384,1
0.0609834011439223,0.0160301500230307,1
0.0610639552830442,0.0174795502084414,1
0.0649332416927413,0.0194177273512481,1
0.0526545714650238,0.0156601605930078,1
0.0532264773620082,0.0150842325958285,1
0.0528330017191598,0.0152583825581105,1
0.0783158956872298,0.0178175678442286,1
0.0660684603179343,0.0119415390932506,1
0.0654103567247237,0.0170905573795855,1
0.0723206854660473,0.0205395447087065,1
0.0783309210485126,0.0229904170948699,1
0.0800718708998786,0.0231910547411794,1
0.0776864706607339,0.0240464243066776,1
0.0777387495200044,0.0250450735429528,1
0.0769808712266815,0.0128114283841411,1
0.189990900978531,0.0172444358582065,1
0.323433676340727,0.021615213214438,1
0.326771992521846,0.0237748266829106,1
0.487464120501227,0.0182823074823192,1
0.618056966343593,0.0165912814024924,1
0.557887225794172,0.0161032744483817,1
0.502671665682486,0.0140651310037534,1
0.41533306865786,0.0110854804647105,1
0.319492787240383,0.00776116776340619,1
0.237763865157542,0.00547211097291341,1
0.279950901252028,0.0102674051635097,1
0.337091702108302,0.0140722026782926,1
0.361755786067643,0.0153174859418883,1
0.292817349094133,0.0432325155898026,1
0.167865706400795,0.0639207787248052,1
0.159234027113461,0.087964764046516,1
0.100499607440393,0.0535199493870042,1
0.072644376565587,0.0154781234553186,1
0.146008533133127,0.0213861500485382,1
0.421522573239232,0.0386063043171168,1
0.629484596243931,0.0245674603795993,1
0.595616468890156,0.0208578608951435,1
0.591667064476987,0.0208855302758522,1
0.583711198292051,0.0205696382457332,1
0.566344558690496,0.0199493696579378,1
0.516004371281294,0.0175171299740772,1
0.442715457899867,0.0143988872245111,1
0.453801178102197,0.0186376211921154,1
0.444915146286795,0.0211073884008425,1
0.261315896263825,0.0187324679217604,1
0.068435937412414,0.0109467481524698,1
0.073920361733827,0.0159548226150797,1
0.114744311090901,0.0236398635030206,1
0.158148890657658,0.031471023538126,1
0.182674677302133,0.0342002538545359,1
0.163288762226819,0.039412408357984,1
0.0968357429560986,0.0411942576475379,1
0.0884169745869872,0.0379892675615093,1
0.0610804300902231,0.0250734771041002,1
0.0359817829126252,0.0187480969027248,1
0.0353571943871231,0.0224795589424496,1
0.0381906087067389,0.0115732768725033,1
0.0667170986734098,0.0298500196054072,1
0.0784833508943126,0.0354055610522177,1
0.0879776550094195,0.0390967904598447,1
0.0960322805393581,0.038302696880267,1
0.0819922591733437,0.0302613553101571,1
0.081503915056229,0.0302623761281368,1
0.0898355986001027,0.0263903106822614,1
0.0825742536299109,0.0181500958510618,1
0.0761329290151717,0.0167848021294498,1
0.0788126685430095,0.0224031071736016,1
0.0778559213735715,0.0194745453082448,1
0.0734147756916121,0.018656660442019,1
0.0634439683284589,0.0157654356049598,1
0.052842003832306,0.0124153955242346,1
0.0548174125509052,0.0123796913888738,1
0.0537044134235931,0.0118729502766054,1
0.0345679272167977,0.00858743541581622,1
0.0979800996084264,0.0161056401798451,1
0.159464658048594,0.0158112790848496,1
0.138563174529713,0.014943935795177,1
0.154987052196918,0.0168674772595967,1
0.16063278884488,0.0131982974637977,1
0.167844308464807,0.0134003788093893,1
0.149512793563261,0.00969561884710015,1
0.159495716693729,0.0106753019631847,1
0.146460893343646,0.00911812905479049,1
0.159469710225662,0.00973001320204496,1
0.160154766020889,0.0153716858422597,1
0.106466529089465,0.0127996764964266,1
0.113149402575796,0.0119356691508384,1
0.0970022197405081,0.00686203158715783,1
0.157374927817065,0.0181077705519349,1
0.196500988156091,0.0224376298569092,1
0.224408186902073,0.0308977903973345,1
0.31104511352279,0.0389045061461679,1
0.328350277713937,0.0238400591737477,1
0.272648480874761,0.0223268335349945,1
0.188647308474032,0.016598195654913,1
0.162432584681601,0.0135853411542924,1
0.179773441344932,0.0160429347329551,1
0.14526539360784,0.012677048356287,1
0.144904486506328,0.0155412513474311,1
0.149688906955201,0.0155831895339878,1
0.162397303924618,0.0115035689569421,1
0.160131184692062,0.0120664898790626,1
0.154867049252305,0.0254416698566214,1
0.117092981977771,0.0147397749611368,1
0.0925698964190719,0.00963185037262355,1
0.170719323166741,0.0170000021939635,1
0.157994158086577,0.0137606482923409,1
0.190680293338355,0.0138575250843202,1
0.258347411130728,0.0149967957721473,1
0.262352843206449,0.0134227078421441,1
0.232019228038876,0.0149274970108944,1
0.187976597254941,0.0107163215618153,1
0.166111096989613,0.00853470474867626,1
0.211810787161822,0.0129695079682813,1
0.249145365600313,0.0166536322670148,1
0.315536182499912,0.0229414326565285,1
0.292066764258866,0.0259761579275956,1
0.30612935788407,0.037850703727468,1
0.326329470679878,0.0593867357194059,1
0.203152012662487,0.0628045748948432,1
0.105103985009494,0.0310158484640923,1
0.0608677270339964,0.0431299903351984,1
0.0521157266277127,0.0480621832424187,1
0.0542213650542366,0.0509286765346593,1
0.0526366468810936,0.0324398118124358,1
0.103398339360964,0.0265249730999163,1
0.13294193333176,0.0319133513579296,1
0.127342517640187,0.0298360533889025,1
0.117694083331771,0.0252528196186914,1
0.103272358199815,0.0173982469927717,1
0.106623918994442,0.0136860568643721,1
0.119321858497132,0.0160106220436434,1
0.113369015099351,0.0154736597521321,1
0.0985657174772646,0.0113093514726065,1
0.0712224086561972,0.00872425660990936,1
0.0804683004548693,0.0174509661471378,1
0.0767219492440363,0.0144881324970272,1
0.0740720780424026,0.0130404267531061,1
0.0633112244097528,0.00848078547671329,1
0.0688984716357241,0.014197898212528,1
0.0671552679492329,0.0190248413499479,1
0.0755465789374477,0.0199358060334693,1
0.0840764010036152,0.0190536074435006,1
0.0846306465927704,0.0137894969582333,1
0.125728606195561,0.0213580121477165,1
0.123218413395664,0.0158401842503824,1
0.13025777733683,0.0129549638680684,1
0.157305904340609,0.0135595217599034,1
0.164739503447615,0.0136752411898934,1
0.188053231514089,0.0146617313254436,1
0.180836253278897,0.0155118128711176,1
0.137839719512684,0.0115898558606393,1
0.0720491540315474,0.00303187528979212,1
0.0835882131334081,0.00561475652914355,1
0.0844209200228611,0.00420541260764656,1
0.0839228108338349,0.00380747448234237,1
0.102252025255106,0.006597082147198,1
0.105589351502273,0.00745678322511876,1
0.16982335292834,0.0150052477764931,1
0.195121196465586,0.0199058111222016,1
0.183046449268683,0.0140230017919054,1
0.178608540297815,0.0142850887403523,1
0.189021245127626,0.0135376864055689,1
0.253523564611377,0.0199343933504985,1
0.263834277006789,0.0195885164077654,1
0.255707704678199,0.0188758531866307,1
0.277364085809504,0.0212172540204794,1
0.279818484874519,0.0248943540130393,1
0.236945733759418,0.020043978298478,1
0.254930283792676,0.0153236361625352,1
0.252409847933654,0.0174431150797733,1
0.248994336611113,0.0180768578199877,1
0.226356342293899,0.0218399679952016,1
0.158789536165888,0.01531380507396,1
0.107969909567273,0.00896919632155702,1
0.14733575236239,0.0119615183553916,1
0.218319939614028,0.0171588992674753,1
0.230694809695998,0.0123641687337435,1
0.236730312642178,0.0116307903257617,1
0.219954301192041,0.014112466560197,1
0.227182783179052,0.00995280856411464,1
0.339316215908053,0.0143286832152314,1
0.377447795383248,0.00660752131086746,1
0.436315536043343,0.00943071712530919,1
0.449321273089917,0.00990085074193252,1
0.438977460321763,0.0131734969820363,1
0.484243126393951,0.011252126232018,1
0.654704640256295,0.0207980774950647,1
0.780776173585781,0.0254664630152444,1
0.907463703286537,0.029020157943753,1
0.830923903676303,0.0342121080409699,1
0.420843251609143,0.0180380896547621,1
0.213176882822548,0.0269216695186115,1
0.233896546429183,0.023935704891347,1
0.223106342223775,0.0231261835940497,1
0.183234850621315,0.0177070682563896,1
0.17009515288692,0.0534082148962819,1
0.146482136244052,0.0509974169317792,1
0.113226436095175,0.0398199524286001,1
0.0656763738397891,0.0279571472024952,1
0.0423219026976613,0.0242897339986344,1
0.0393259400335659,0.0275969174756211,1
0.0322898039288404,0.0296668698504752,1
0.0236608303505925,0.0258645530350822,1
0.0243451853695971,0.0268655794892469,1
0.0426056033226964,0.0345915935915491,1
0.0420601141832909,0.0168501301268764,1
0.0358004803036354,0.0135706018835741,1
0.0334530195457629,0.0142210786854928,1
0.0360048987521339,0.0145465873068041,1
0.0378763117949805,0.0155238127802237,1
0.0623500337058042,0.00886332929329421,1
0.0921340568546244,0.0135567500247343,1
0.118167301007531,0.0127505400167783,1
0.198681846532714,0.0207372752440154,1
0.221318140264264,0.0220855367049211,1
0.216986069641144,0.0264741192217454,1
0.185230350590072,0.0234298135309202,1
0.167287880212143,0.0222680277345875,1
0.126750690416851,0.0167157510139025,1
0.0644350413071505,0.00679762464202024,1
0.0470572022720177,0.00940822021878138,1
0.0526324132354712,0.0106349865564309,1
0.0542479202542152,0.00880095971091477,1
0.0497445940294319,0.00279468226660099,1
0.0946042959845841,0.0085180131693799,1
0.125281439258591,0.0106699641919604,1
0.126745735112344,0.0109511121536479,1
0.123690434930788,0.0102148517726562,1
0.123300727297499,0.00827702823861666,1
0.154474072577983,0.0112974832942831,1
0.158660809351903,0.0107521742063571,1
0.169508126682137,0.0130417098620718,1
0.154884314514138,0.0143315933290326,1
0.127553942417973,0.012213222120318,1
0.193231350510663,0.0262182619933712,1
0.207160063696652,0.0274857617127255,1
0.238673313240761,0.0285515505725869,1
0.263224232718373,0.0248843890145423,1
0.277833940959736,0.025002181949302,1
0.251901001501383,0.0204686703018422,1
0.212431579587526,0.0182964237143945,1
0.174091334787494,0.0131544316906648,1
0.132566396238835,0.0113453007693444,1
0.125089946124047,0.013871395863085,1
0.107635299963429,0.00869673576900893,1
0.1308045452209,0.0131434582509013,1
0.173761977791984,0.0187320948615311,1
0.188911203219452,0.0117240619047862,1
0.175354250533082,0.0105990193589244,1
0.170269579746331,0.0104916578345458,1
0.18336886957391,0.0111601221969348,1
0.183783973075245,0.0113722874541664,1
0.168160456441732,0.0100927872098936,1
0.181576156907236,0.00803959383285642,1
0.308046937637303,0.0167592082681244,1
0.37001386305349,0.0187430113312789,1
0.367541500163233,0.018236774554928,1
0.436348758889905,0.0322582142650087,1
0.510545067695019,0.0448156428290055,1
0.446600629212691,0.0482442918934843,1
0.315853949305329,0.0345034392371479,1
0.220818476333615,0.0273142277544047,1
0.202740331332279,0.0179625405174592,1
0.217068240862297,0.0327521580992027,1
0.219386792178987,0.0373078035859332,1
0.217319430857547,0.0386558519682548,1
0.202428259374148,0.037239652211099,1
0.170816453598311,0.0332454522636353,1
0.128089636433499,0.0265217839434681,1
0.0977476261499824,0.016110755685131,1
0.0855243726282119,0.00948659979786094,1
0.0969144869768407,0.0102876808463345,1
0.0829808130536734,0.0146606103524858,1
0.0685767634795271,0.0104226591714667,1
0.0972179434666346,0.0144017421140434,1
0.103081345347525,0.0136345164413143,1
0.105358114997437,0.0133049700674591,1
0.109342557419442,0.0134793797694688,1
0.131255939008484,0.0146510490425665,1
0.127542163439768,0.0157663756883302,1
0.121438717013251,0.0223507964939209,1
0.105430505075185,0.019146233187851,1
0.119795036670025,0.016978406667171,1
0.0983488149609395,0.0172303126043333,1
0.0645725659748437,0.00899027978151425,1
0.0434596268185301,0.00437018224838313,1
0.0433945238815601,0.0049575726356558,1
0.0477106291587527,0.00680937342038567,1
0.0420656608824447,0.00513575492013838,1
0.064861953953598,0.0121939321212486,1
0.0767191020697309,0.0111501849488826,1
0.0887485476778941,0.0124295124878465,1
0.0979513599838688,0.00789362681678058,1
0.129505184235711,0.0126419534263298,1
0.160274750177349,0.0149236749775797,1
0.241744066699845,0.0214214611566751,1
0.229881058777387,0.0187134360561965,1
0.200758478274689,0.016957341524886,1
0.192556149966394,0.010911789458659,1
0.271237783206354,0.0145928492970691,1
0.347938854022454,0.0184063450586484,1
0.303230522008905,0.0171114583519892,1
0.35390560749056,0.0264572860067638,1
0.404209897629386,0.0268298688369092,1
0.385972986554294,0.0226442429223867,1
0.270854941989787,0.0166733929913412,1
0.255886928939513,0.0121060816053427,1
0.244849845924959,0.0111409895300521,1
0.215436209636942,0.0141028919574351,1
0.20274087507447,0.0157544461881591,1
0.178434016956689,0.0123851046794357,1
0.229012574359852,0.0175755938150833,1
0.18782160337188,0.0129198360595746,1
0.135190578091984,0.00880720901986515,1
0.143209559284835,0.0134722142025527,1
0.15114275595739,0.0151544274628163,1
0.140859407024609,0.0222081880703417,1
0.121443667481765,0.0195591074731871,1
0.122279157597384,0.0191572133890653,1
0.123846845654413,0.0207005005172542,1
0.122525316495657,0.024781746918337,1
0.0680850754429951,0.0113837144606747,1
0.0501978930392579,0.00802509728078884,1
0.104587160556917,0.0181844391029141,1
0.150124520149156,0.0238637647664249,1
0.195938000836945,0.0305163801750735,1
0.228470062297881,0.0345973158471714,1
0.257940303006342,0.0413337772683945,1
0.242821436947562,0.0424418204261616,1
0.178347666082273,0.0295674398467956,1
0.153804115212352,0.0181033537282869,1
0.111184222850387,0.0141070887743192,1
0.0721375500265494,0.0158723163002071,1
0.104850044631175,0.0235848220232582,1
0.114542698107234,0.020964025463604,1
0.108179553602714,0.0200518076520313,1
0.0963950365759707,0.0175834351612537,1
0.0814677941378363,0.0156250732880423,1
0.0587975192215524,0.0103565113915041,1
0.0823889013536626,0.0134897150890923,1
0.0931163286087369,0.00882159611770113,1
0.121800807564731,0.012470621917667,1
0.147247911254189,0.0164132251074177,1
0.151943833350724,0.0184757370412404,1
0.15056151103778,0.0174100427986512,1
0.16502513447919,0.0188853928395685,1
0.163395395274484,0.0181684121414423,1
0.168376709969657,0.0181058689539488,1
0.169437735680381,0.0194578699978334,1
0.134413830016563,0.0169693739704731,1
0.10576617126627,0.0246038263951824,1
0.0885614910209093,0.0270766197738085,1
0.055313843985732,0.0169256658121779,1
0.0592313452378421,0.00901785685565273,1
0.11628528107114,0.0130006918922096,1
0.120258315008224,0.011109105987803,1
0.114335227259191,0.0108195160763044,1
0.114410205209218,0.0109217051631014,1
0.143773759302764,0.0132590112118093,1
0.139760280154069,0.0127622884519396,1
0.121831834902226,0.00933371546189669,1
0.145829887032511,0.0118526362522141,1
0.155033697044237,0.012771133278721,1
0.163834303963794,0.020997709870242,1
0.105493654126921,0.0175117875161563,1
0.108583804794441,0.0173064977040288,1
0.123771686070969,0.0115213846732556,1
0.160013394067684,0.0140222481647157,1
0.122262596183335,0.00996951396109522,1
0.144734428572615,0.0105678676777559,1
0.188584154984776,0.0135622803473217,1
0.170296241575154,0.0112781208475701,1
0.16355462278067,0.00877435417329113,1
0.173110911331854,0.00887887970825687,1
0.171721400338771,0.00882269419754133,1
0.230694047783713,0.0119503393085462,1
0.172840681339149,0.00789566379707639,1
0.241800473806483,0.0115117680412253,1
0.233155363855132,0.00767235097842088,1
0.238142709948418,0.00868104080624002,1
0.235397227162607,0.00906086445743721,1
0.271398710961531,0.00869626249184976,1
0.380904477346793,0.0141977390855525,1
0.392328235895041,0.0155330365988753,1
0.396619137554189,0.0135395201726443,1
0.331784545577153,0.0126555590387636,1
0.315389906557851,0.0108511532846903,1
0.270138157898156,0.0100140553595906,1
0.318963434886517,0.0193926837360765,1
0.340962181249755,0.0169137628236885,1
0.342621201772211,0.0177733219685316,1
0.297112340337913,0.0190632940383617,1
0.200894865136077,0.0140156748674618,1
0.172652992567637,0.0050467948780062,1
0.314207671172313,0.0164527198698813,1
0.458746874958951,0.0234694139544341,1
0.475699786224394,0.0223303801149352,1
0.41544663062918,0.0190896367961731,1
0.349741884158345,0.0128838959577716,1
0.389901041596723,0.0153938114534651,1
0.421514288772818,0.0144552210642499,1
0.396425029755464,0.0156629180254501,1
0.267709505135003,0.00929204896521583,1
0.237327720798805,0.0130652470717545,1
0.277279777341988,0.0158085484076388,1
0.286062794869077,0.0168651145878701,1
0.266045946363987,0.0274939152368851,1
0.129528412595329,0.0116568215318328,1
0.0723034203960822,0.0126592345174943,1
0.0711560859549614,0.0163021832203547,1
0.0730136917666844,0.0276506938395066,1
0.0590435638625638,0.022326577438924,1
0.0590860592792503,0.0365654139277036,1
0.048914746687156,0.0368419552954366,1
0.0350563378430436,0.0224245791596022,1
0.0321710489773311,0.017205362466852,1
0.156192543753045,0.0297462335383522,1
0.190729059704714,0.0103658707341568,1
0.192997408944875,0.00884404809082251,1
0.196646820177257,0.00775037581822699,1
0.244110647850524,0.00873213039778675,1
0.279636002804958,0.0102039199778518,1
0.292479457030422,0.0105631002777193,1
0.301588273431962,0.0103981465209594,1
0.326104540375725,0.0109675104403296,1
0.338008316654456,0.0103768723087467,1
0.190923220723026,0.00442366045178814,1
0.139453322226892,0.00738093673265691,1
0.140034027821272,0.00921981888490176,1
0.100470671629962,0.00669681582684163,1
0.0958759297594767,0.00979629528979941,1
0.0759283543897119,0.00716444861934731,1
0.0706667334349622,0.00599676136006595,1
0.0705694738687676,0.00666920291612381,1
0.0500240226803259,0.00532966974184201,1
0.0381929613541745,0.00469706249944546,1
0.0585180374559257,0.0142473832682609,1
0.0516028391717907,0.0116025768106536,1
0.0465496513972579,0.0102825753549215,1
0.0466570170167281,0.0115099483128222,1
0.0337615141117812,0.00682840004806777,1
0.0374346787136744,0.00699184830360646,1
0.0356177264185087,0.00716703105550633,1
0.0430302971755772,0.00755013191015484,1
0.0643594712057375,0.0134743262210719,1
0.087223292102277,0.0225321159275564,1
0.105681724561539,0.02732113663195,1
0.105728188170554,0.0462402886728752,1
0.0918462935912305,0.0448020934770655,1
0.0772248664551699,0.0470756508616554,1
0.0462334864269956,0.049002610438779,1
0.0405724245438818,0.052384937491428,1
0.0154645146503175,0.0187354677581923,1
0.0102067047530192,0.0309490065759637,1
0.0149551442651059,0.0439081354683935,1
0.0153006830040608,0.0416502586189735,1
0.0156493880557788,0.0267222469736241,1
0.034170199402247,0.0276894174903554,1
0.061721984492279,0.0433097964010145,1
0.0731660582899839,0.0444512135458357,1
0.0680514627982205,0.038170874783736,1
0.0531250319841703,0.0325463751238194,1
0.055212062744248,0.0185135964958106,1
0.0879323314298654,0.0298329551754285,1
0.0923883847288734,0.0314575122023174,1
0.0703458372715867,0.0263477919306167,1
0.041441273008132,0.0151707130574806,1
0.039248418748063,0.0169372741767137,1
0.0408774020540582,0.0141617449853783,1
0.0505628260542041,0.0179679740118133,1
0.0594809315428735,0.0213801684601473,1
0.067187982032715,0.0239011221007906,1
0.0765304574630372,0.0532165068016965,1
0.0671510018779929,0.0479582473400155,1
0.0519473672529001,0.0380082598109758,1
0.0453656067209307,0.035435246180395,1
0.0383246830303201,0.0338776393028466,1
0.0289784788268371,0.0469057048577484,1
0.0082592500616504,0.0370827344171793,1
0.00573330105379333,0.0314259319678222,1
0.004358903525663,0.0208784321340245,1
0.00353447670427943,0.0130331280778834,1
0.00300247306448321,0.0119819919701532,1
0.00338302648717733,0.01492184750295,1
0.00348090431051084,0.0194238974230567,1
0.00338806145654371,0.0187359897682791,1
0.00325785075540208,0.0183088395987274,1
0.00331413893557063,0.0181629160594175,1
0.0029520998212744,0.0154838135744854,1
0.00286303281913013,0.0134344102199434,1
0.00273660544269079,0.0176968218271484,1
0.00287240962143506,0.0230588440634092,1
0.00402109529928328,0.0357972191331347,1
0.00480094703055572,0.0415283126350641,1
0.00490615582528512,0.0409502332999273,1
0.00458893309821654,0.0442930839998855,1
0.00401443834272183,0.038267346302663,1
0.00258402395777823,0.0344186958399773,1
0.0011390038242241,0.026505621310787,1
0.00123366185701317,0.0318023975415472,1
0.00140251464950953,0.0321136168152267,1
0.00199438116884736,0.0475983164392643,1
0.00269060377861541,0.0651547559851664,1
0.00351559598947993,0.0863882309418808,1
0.00376045739488686,0.0966396154109806,1
0.0039994013433269,0.116345884361435,1
0.00321062525414181,0.162680061638701,1
0.00235221338895313,0.164392785935862,1
0.00109631347772509,0.172474929585273,1
0.000442088936131314,0.135650677664725,1
4.57316804314437e-05,0.370047789710631,0
2.48368884161455e-05,0.319391255559872,0
1.37607568959585e-05,0.339263690104241,0
1.41312067383222e-05,0.353964030955041,0
1.59023858295032e-05,0.405704847503814,0
9.90082221804422e-06,0.502287919208663,0
4.92531951254176e-06,0.605043420070331,0
4.99507901467737e-06,0.621838154428861,0
4.37160253506264e-06,0.575906796410877,0
5.56371097981551e-06,0.612761116232708,0
9.47785057057714e-06,0.738173883367793,0
9.33953978891057e-06,0.614470650438214,0
9.84701345223388e-06,0.632589082051001,0
1.09185732158714e-05,0.673683195120558,0
1.16570847700765e-05,0.708730311198765,0
1.16557542383671e-05,0.704279470580988,0
1.24226028469255e-05,0.738866112706762,0
1.35446645053665e-05,0.770530815006539,0
1.40839819776397e-05,0.806421625661016,0
1.14763176020327e-05,0.849779982136945,0
2.36919368544008e-06,0.464880379392644,0
1.70886247301356e-07,0.215215661752436,0
1.04369358640849e-07,0.189323513594259,0
1.22292167666893e-07,0.192424291667442,0
1.22680040092145e-07,0.189516532880531,0
6.68531740532003e-07,0.297713807110675,0
5.6830800115949e-06,0.633726080370246,0
6.19956149483144e-06,0.466328532943264,0
6.14975156443462e-06,0.465312590944073,0
6.02941065364836e-06,0.461565792320311,0
5.7396544370881e-06,0.450216510959242,0
5.41856330019984e-06,0.436296183662664,0
5.28064310606551e-06,0.430525926101177,0
5.27193718018993e-06,0.428884712789765,0
5.28481454470828e-06,0.427313299755603,0
5.37805080112712e-06,0.502773526350592,0
1.0289356870817e-06,0.296019573627783,0
1.12478866017209e-07,0.207560659309143,0
1.28170244980779e-07,0.219879732253346,0
1.37762588638878e-07,0.22710379264616,0
8.80780703262233e-08,0.183197486858553,0
1.21310979721814e-07,0.192204176818455,0
3.63775850833216e-07,0.315199913688559,0
4.13700720758718e-07,0.30302478572932,0
4.10266627596345e-07,0.304301724242878,0
3.84260686518858e-07,0.29265003966619,0
3.85563808576896e-07,0.294784635899515,0
3.53216411928155e-07,0.278543613128337,0
3.0070055420197e-07,0.25727261500919,0
2.7149169192756e-07,0.247996984353332,0
2.79320896831271e-07,0.248175895309887,0
3.72298571633277e-07,0.304584859365629,0
2.60558214713748e-07,0.255193816731784,0
2.17066984705901e-07,0.25292515958747,0
2.36292915789983e-07,0.249160521590973,0
8.13316759430068e-06,0.342023124814147,0
2.33801312540822e-05,0.403442143577157,0
2.44124225548056e-05,0.418961638613885,0
2.42797113580515e-05,0.41309220191899,0
2.37294186476334e-05,0.413886899990066,0
2.35895823637183e-05,0.412607847480816,0
2.34448773758306e-05,0.410125100708193,0
2.30313784780239e-05,0.40873161678499,0
2.26196556480523e-05,0.410290287779328,0
2.29081901957638e-05,0.410116329754937,0
1.90038508482802e-05,0.694967520918175,0
5.32451199452472e-06,0.664250518445375,0
2.64841981210878e-06,0.551944456716887,0
1.67680869579074e-07,0.198550487321013,0
8.33311582951807e-08,0.157786567690336,0
1.3087656018257e-07,0.178956189383763,0
2.66360915486326e-07,0.243114976252745,0
2.93709024445994e-07,0.237324597043538,0
4.50574976482574e-07,0.295646413803718,0
4.48743572181343e-07,0.295046684376321,0
4.43182128057271e-07,0.293164404690556,0
5.38553751467933e-07,0.299403658580734,0
5.87499114228865e-07,0.310336027470771,0
6.00132765573365e-07,0.294947423259024,0
9.05546745486997e-07,0.345441031600144,0
1.010231832282e-06,0.369154939405263,0
9.59349176047743e-07,0.354135946158664,0
8.92459283404952e-07,0.36358540372908,0
6.10731638174993e-07,0.304775355409066,0
6.48689221582579e-07,0.311357157102428,0
6.08209820956813e-07,0.289046018319613,0
6.30104443617438e-07,0.287995309708558,0
7.17259506862369e-07,0.295025016219748,0
7.46787976015186e-07,0.309112393788591,0
6.62787091332405e-07,0.295658456069598,0
9.4980130842774e-07,0.34296857395517,0
1.11484167182651e-06,0.35893320576072,0
1.56203259068957e-06,0.425626938483705,0
1.48062902905708e-06,0.386953360115663,0
1.32695927509538e-06,0.368114336254401,0
1.36358878331891e-06,0.385468224800916,0
1.34508261416528e-06,0.397894561489446,0
1.08160035852837e-06,0.361593360572327,0
1.09425844583566e-06,0.363328974217964,0
1.1191577868839e-06,0.363995113865115,0
1.00325633458627e-06,0.350175449881859,0
1.02082126665461e-06,0.372621493494282,0
9.31400640573786e-07,0.351350100487283,0
1.09992926998365e-06,0.385987001324731,0
1.25441420249242e-06,0.381102275882413,0
1.7494459527401e-06,0.437298279790427,0
1.68264746869886e-06,0.421958684711148,0
1.80277517894204e-06,0.405072947289113,0
3.45779992500415e-06,0.511181486476527,0
3.55958088166049e-06,0.472660555744114,0
3.72325774419369e-06,0.485738694401287,0
3.69395320672105e-06,0.482123092334623,0
3.83985542749465e-06,0.475217152528337,0
3.79509494962057e-06,0.45738253263233,0
3.53258690022508e-06,0.436443371544327,0
3.1393618355046e-06,0.408472019670959,0
3.55223302643651e-06,0.427664530771193,0
4.29852219851282e-06,0.441529236195752,0
3.71803749851303e-06,0.421269995943407,0
3.68280833903547e-06,0.445899507175941,0
3.44628593206055e-06,0.43762604760113,0
3.35763381054495e-06,0.432826751858088,0
3.37897248272939e-06,0.447004382090372,0
3.25009682709788e-06,0.472234702275059,0
3.16962170276063e-06,0.507848174226571,0
2.9139727893333e-06,0.494000929422215,0
2.06608431418648e-06,0.454299196764194,0
2.15339530214636e-07,0.183900682277873,0
2.69482512764754e-07,0.204532576459034,0
3.05793448436337e-07,0.219573079177348,0
3.09441130014215e-07,0.211299872264876,0
3.51408926426481e-07,0.2257383246458,0
3.67592386206887e-07,0.230035462212206,0
3.80270125717057e-07,0.225951722313773,0
3.8597443618443e-07,0.222194262249593,0
4.09150201465661e-07,0.23478266040742,0
3.43853171582572e-07,0.213525392614103,0
3.45612948775941e-07,0.219997359774574,0
3.12152616848344e-07,0.221821425330755,0
2.45291168183404e-07,0.20502233645972,0
2.49298536790299e-07,0.226516358473886,0
2.17080301659167e-07,0.225785133585101,0
1.92534700262754e-07,0.229675712840183,0
2.20859730570823e-07,0.240449647585056,0
3.21464658033793e-07,0.262486369423908,0
4.01353965718096e-07,0.275905998550994,0
4.29135974630812e-07,0.295351354214126,0
3.71219769127843e-07,0.285457640105726,0
3.66380802041208e-07,0.283614936601449,0
4.05933446152238e-07,0.298360669792975,0
4.90001820637015e-07,0.323924374538487,0
5.45541661081273e-07,0.332988336339758,0
5.5385402573604e-07,0.335518403447033,0
5.31114358351601e-07,0.350856940336133,0
4.74373794169569e-07,0.386473977789709,0
3.97810880404228e-07,0.340750832284015,0
3.18515663984602e-07,0.264737798055151,0
8.44857640015901e-07,0.36055832015128,0
2.18119282595609e-06,0.53080822239695,0
2.17983889261035e-06,0.506152740791271,0
2.04128892294821e-06,0.487291630623155,0
1.88601479934486e-06,0.457390681901102,0
1.81320597349272e-06,0.440038336972519,0
1.75351227795564e-06,0.427000574231232,0
1.80984893765216e-06,0.413169500623648,0
1.63317666809252e-06,0.394406174169078,0
1.540532046413e-06,0.37017679346171,0
1.62707737420543e-06,0.361315954674144,0
1.94864326694222e-06,0.394485052358113,0
2.27140070376937e-06,0.419595119933979,0
2.54186311157112e-06,0.41885760876501,0
2.37833868290105e-06,0.407076067699596,0
2.17072544210662e-06,0.384553221568222,0
2.09909936856989e-06,0.382703444838284,0
2.19750518867249e-06,0.406711035765798,0
2.81116035060741e-06,0.461536856667721,0
3.19355343139869e-06,0.503308369709495,0
3.06887352108194e-06,0.565306929161583,0
2.30296511528234e-06,0.514605722785895,0
1.72733037208789e-06,0.465527858363405,0
1.09558251300466e-06,0.389776573956624,0
8.42527819648222e-07,0.320622115314412,0
1.15780022370367e-06,0.359892794537258,0
1.34215236728331e-06,0.348156903132717,0
1.324222317972e-06,0.333017318031633,0
1.65911305071508e-06,0.374503229464326,0
1.57098740137136e-06,0.356066071957618,0
2.5845145977783e-06,0.436556472329631,0
2.44783288029779e-06,0.422341562374375,0
2.32137612640097e-06,0.416064804242279,0
1.71260466617239e-06,0.361500648899738,0
1.45601412778735e-06,0.335419758897544,0
1.40491529732142e-06,0.344766399743895,0
1.34141902981797e-06,0.36801313561007,0
1.27872850263257e-06,0.330403904210801,0
1.67062406997009e-06,0.347823468445258,0
1.71253601275312e-06,0.35069198532965,0
1.5400190204852e-06,0.343869370309377,0
1.5623880111219e-06,0.3517098502411,0
1.61693257092297e-06,0.343551369665363,0
1.93656013585996e-06,0.360478708173244,0
2.15213200165732e-06,0.385371033765643,0
2.13057974105739e-06,0.373258719198891,0
2.26153788374007e-06,0.35823846975295,0
2.64315832266023e-06,0.402340086972634,0
2.3594787740956e-06,0.400629508658905,0
2.37776760540027e-06,0.398787245982468,0
2.00642126057099e-06,0.361924062079281,0
1.8045025041425e-06,0.343661511218385,0
1.57195385016428e-06,0.324466268518822,0
1.86523569777926e-06,0.323968887263621,0
2.58319065990011e-06,0.36216992977384,0
2.54188741824311e-06,0.363916697519179,0
2.40476766350368e-06,0.37063332407933,0
2.6193496788718e-06,0.401341673089239,0
2.748405048727e-06,0.427907109791382,0
2.68504233862865e-06,0.436462077765864,0
2.671801408357e-06,0.437106496031669,0
2.66648846116672e-06,0.437260667093437,0
2.5665787303806e-06,0.439266679065505,0
2.24103029287214e-06,0.480835620049385,0
1.07729872404152e-06,0.342938454370398,0
1.40374198323503e-06,0.377545355384307,0
1.61907569536329e-06,0.390146980504376,0
1.40445295339052e-06,0.360911682661325,0
1.07407149617261e-06,0.310905184291668,0
1.06038425403032e-06,0.318509350347042,0
1.04229970220294e-06,0.313835583468287,0
1.09536310650278e-06,0.316557259774665,0
1.13113218439628e-06,0.317508815763608,0
1.20490926911266e-06,0.31171111970225,0
1.56659603906347e-06,0.355003211883512,0
1.31969713967739e-06,0.340671645742977,0
1.64447164240667e-06,0.382560509118444,0
1.77724244222336e-06,0.39422354592382,0
1.5888993499695e-06,0.371195052456466,0
1.66427951141944e-06,0.370733255977886,0
1.7473063191516e-06,0.375504496859681,0
1.92773112513476e-06,0.394331050844935,0
1.86269177183284e-06,0.380465989718544,0
1.98343335483439e-06,0.403511025659871,0
1.82082895955701e-06,0.386379998055528,0
1.82586716377942e-06,0.388667867992382,0
1.47588935731131e-06,0.362187501147679,0
1.09749071604609e-06,0.328545612609093,0
1.09971826738431e-06,0.33024188885346,0
9.3933250237938e-07,0.314456038038279,0
9.65079344676799e-07,0.334156386984714,0
1.05221514359128e-06,0.361533791977774,0
1.08376016148298e-06,0.366834973308777,0
9.5831032440211e-07,0.357571947015354,0
9.71846037716937e-07,0.390852223068864,0
1.00208237404584e-06,0.40032731968394,0
1.21574319240399e-06,0.426306406136028,0
1.09008286988701e-06,0.383560646673192,0
1.3356164583362e-06,0.407335065637581,0
1.3833402815392e-06,0.379534727254293,0
1.38884871643182e-06,0.379279101938868,0
1.18013340078645e-06,0.342302855279408,0
1.02595268954989e-06,0.314964215613723,0
1.17347815642317e-06,0.318903019420003,0
1.22464938974181e-06,0.306966679748594,0
1.35404298435184e-06,0.323033509704859,0
1.18269969404273e-06,0.310983651718762,0
1.19229914869529e-06,0.310981560166563,0
8.96847542733445e-07,0.273349400718811,0
8.06733271465457e-07,0.259966133569542,0
1.33035690824978e-06,0.318973293963006,0
1.26159191101251e-06,0.297187974293243,0
1.2336670357565e-06,0.294336820114957,0
1.20213145609381e-06,0.301226261299242,0
1.25484487017525e-06,0.328708915902798,0
1.22125421311277e-06,0.322501097995346,0
1.27629990408726e-06,0.320138503370248,0
1.23272579867122e-06,0.318335249444217,0
1.0940992888505e-06,0.307926788632832,0
1.19590687941337e-06,0.327991947055092,0
6.13832419633266e-07,0.238524553162829,0
5.66377521311768e-07,0.242538136287804,0
4.21390808752572e-07,0.221155257180369,0
5.05259170356727e-07,0.247149455667602,0
4.74016305084296e-07,0.230605156869764,0
5.83097408656298e-07,0.260703161789761,0
6.68594834446511e-07,0.29989647685173,0
7.72996645080273e-07,0.3322348599347,0
1.00353456840599e-06,0.382797268829738,0
1.11308525619416e-06,0.409776228587035,0
1.05439757243736e-06,0.411298290681826,0
1.05004305800987e-06,0.406564067397961,0
1.64097355029413e-06,0.468819930186825,0
1.51707869376609e-06,0.432420447913553,0
2.06977517889437e-06,0.498172507143083,0
2.23068961401493e-06,0.517558815311846,0
1.97559522886489e-06,0.461319903499939,0
1.74578068761228e-06,0.416397764249474,0
1.19793946021249e-06,0.344347775155906,0
7.51117537316658e-07,0.269634179956023,0
7.30399073140206e-07,0.269902963019342,0
6.18828216470511e-07,0.247536831146397,0
6.3231803154835e-07,0.271676053800529,0
7.08399854215572e-07,0.295310716360726,0
7.11663154220025e-07,0.285574160708182,0
8.50028108735319e-07,0.295615637289823,0
9.28660709761805e-07,0.285488207461771,0
1.15583500341573e-06,0.286058524583455,0
1.63767404886332e-06,0.321445741919556,0
1.5790504933475e-06,0.315480881568904,0
1.66270216355674e-06,0.320382948015766,0
1.74538880717197e-06,0.329809813521182,0
1.80577162271792e-06,0.325976025586607,0
1.84897660287593e-06,0.325881671195615,0
1.49149462859647e-06,0.29934785090921,0
1.46881404711148e-06,0.303086397729454,0
1.34863862855999e-06,0.306852889912872,0
7.8250326893239e-07,0.259774836257698,0
6.27417263455293e-07,0.245760723371539,0
8.09846594132147e-07,0.278987733580536,0
7.12326157485589e-07,0.271923734610151,0
5.22501004694837e-07,0.228379110912706,0
5.20891075548424e-07,0.228042617882802,0
6.14383844931166e-07,0.260394922649565,0
5.16335772495456e-07,0.240892579642202,0
6.64040824301627e-07,0.266451123465943,0
6.49204445454121e-07,0.263764093493811,0
5.90514175881157e-07,0.249461256511253,0
7.0353851981908e-07,0.275681412009294,0
6.59838873028064e-07,0.262206520714152,0
6.82614095384818e-07,0.258848519684525,0
6.75111091190745e-07,0.262871761653454,0
9.85483632188798e-07,0.312638424189338,0
1.086172081514e-06,0.305496390281022,0
1.31139149814466e-06,0.326488230790026,0
1.50408716546389e-06,0.355328493036364,0
1.48391831651402e-06,0.360426840905092,0
1.45362690230074e-06,0.360421414637109,0
1.40812274369664e-06,0.373833653742215,0
1.44653245706126e-06,0.398518660716518,0
1.51337994231889e-06,0.419777559372004,0
1.51915251833311e-06,0.419519544777279,0
8.65562270075855e-07,0.333684980545498,0
9.55592631609178e-07,0.377478325874684,0
1.04292689191458e-06,0.399273291535499,0
8.90189066099953e-07,0.377352700901795,0
9.10388298389801e-07,0.391092758003037,0
9.65355509843579e-07,0.384317503694126,0
9.85809315735201e-07,0.372584628058886,0
9.95974676256206e-07,0.372616435057737,0
8.19208412278837e-07,0.325439276073494,0
7.91849313600454e-07,0.309071192675803,0
7.18435923928158e-07,0.304309311570193,0
4.86485110648063e-07,0.260480901883125,0
4.90598239136243e-07,0.260764068641534,0
6.76848759655872e-07,0.310299062732923,0
7.03363847936908e-07,0.302946026957567,0
9.60427073517519e-07,0.33729856485421,0
1.97526876957364e-06,0.482590314936491,0
2.13874510206298e-06,0.455035876542695,0
2.28610973117059e-06,0.478195817558026,0
2.42922017551803e-06,0.489978377355269,0
2.44021920317171e-06,0.490928332699447,0
2.44266641959343e-06,0.493919402366681,0
2.3476745232871e-06,0.488983621580937,0
1.9928477943401e-06,0.448578713498538,0
1.76301373017542e-06,0.429506743138075,0
1.57041335018198e-06,0.438160126919809,0
6.68555659331559e-07,0.287392632881881,0
5.47448312633004e-07,0.288532542520187,0
4.84691200681273e-07,0.276977668506408,0
4.28661089491496e-07,0.270617876040815,0
4.2942041440933e-07,0.27731697424246,0
3.8232429808119e-07,0.257894125647302,0
4.72580272075204e-07,0.275529646320881,0
5.05626356252632e-07,0.275938424034673,0
5.30160580057905e-07,0.265507676911465,0
1.2119080391539e-06,0.374078669623616,0
1.20154602731329e-06,0.356366701596339,0
1.02859487651071e-06,0.320975469066644,0
1.03951982053116e-06,0.308327726896838,0
1.40507665225033e-06,0.356012510486071,0
1.51838194511494e-06,0.368325101555532,0
1.49646973890437e-06,0.364577783496092,0
1.51162533675786e-06,0.366818791380993,0
1.71812913312526e-06,0.400472713241801,0
1.6891254553638e-06,0.405628263043378,0
7.95231561148652e-07,0.291851985239378,0
7.45250966884722e-07,0.305296674768724,0
6.41498196109215e-07,0.299891661848954,0
4.44313551921731e-07,0.273879316933372,0
4.14590112229821e-07,0.276285082090157,0
3.75342206554229e-07,0.261035658448423,0
3.97554755312753e-07,0.264355431582068,0
7.85757777161872e-07,0.345534199224242,0
1.47039333433629e-06,0.416060429811779,0
1.26355493335672e-06,0.398935707494944,0
1.28905845035269e-06,0.382729649858412,0
7.21229122553206e-06,0.498376494893818,0
1.36297801353994e-05,0.575818726760644,0
1.30956136089335e-05,0.520222193921176,0
1.29317226408216e-05,0.516677145955626,0
1.33077437534108e-05,0.524555153152451,0
1.4543629936603e-05,0.549698217348745,0
1.58629909201785e-05,0.585182698706005,0
1.62683531595392e-05,0.592049280147343,0
1.63399719927906e-05,0.594808978786722,0
1.67927257779766e-05,0.618770812340027,0
1.21592378580518e-05,0.943740364184966,0
2.59846145586389e-06,0.51050610502399,0
7.90733275342197e-07,0.347732736099056,0
6.91504131371595e-07,0.340212166317719,0
6.80039786098421e-07,0.342447577754597,0
6.56419777599467e-07,0.328191038920102,0
5.93963654649732e-07,0.312003266258934,0
5.76778320394901e-07,0.324672501726657,0
4.05384218798082e-07,0.273446258070579,0
3.26345515342355e-07,0.27511708955617,0
2.8165653528533e-07,0.255910354171307,0
2.77683558033473e-07,0.265211471775472,0
1.52957232316508e-07,0.22105008910498,0
6.11448555707664e-08,0.146636836968877,0
4.544998575537e-08,0.141702197678129,0
1.07012709218942e-08,0.105311920185263,0
1.285991025923e-08,0.116096021130574,0
5.9714899229671e-08,0.175305304318635,0
8.01292714247256e-08,0.202295652150048,0
1.01411572816686e-07,0.228882171663298,0
1.04513517892234e-07,0.237909733434553,0
1.09893049848863e-07,0.236487543715315,0
1.01199535890881e-07,0.222593870865341,0
1.47907779793769e-07,0.239922026782119,0
1.71551965673897e-07,0.241267993429502,0
1.73526882772472e-07,0.233698237441524,0
1.71138235086961e-07,0.232265682951406,0
1.48209673831423e-07,0.217885267020791,0
1.86088907009108e-07,0.230172575213006,0
1.2419584553003e-07,0.17905267389377,0
1.12230627665048e-07,0.171124025868984,0
1.5862236766893e-07,0.194710490442392,0
1.62535095404064e-07,0.194192983937174,0
1.46377881657767e-07,0.196261195398498,0
1.28458175611124e-07,0.193470760183835,0
1.38440072474984e-07,0.200447820832058,0
1.57410007758401e-07,0.214020509466482,0
1.43186984506027e-07,0.20667622924748,0
4.40064538793905e-08,0.134604340812207,0
3.82369808445754e-08,0.130790974302323,0
4.72600570732126e-08,0.132985316838851,0
8.24700815111215e-08,0.171611937976991,0
1.28540921728511e-07,0.216100637523357,0
1.53935317282185e-07,0.227321355388725,0
1.52160800936657e-07,0.232755983002389,0
1.29642479416227e-07,0.221222617833813,0
1.09954721564478e-07,0.194022022846193,0
1.11755483944114e-07,0.185088133956408,0
1.50306253580719e-07,0.211312163906445,0
1.37506463547403e-07,0.204681485715108,0
1.06611261258806e-07,0.187578827045267,0
1.00899193342928e-07,0.180018114884432,0
8.40969477534369e-08,0.163648493472324,0
6.8103157588979e-08,0.1501010206994,0
8.37376485968446e-08,0.1581090819218,0
1.0160563832012e-07,0.163791268862767,0
8.06526406171991e-08,0.153098035694864,0
6.50694780602749e-08,0.152780029803366,0
4.55989287666667e-08,0.138954829634829,0
4.31945076025296e-08,0.142105803051411,0
4.29107142780536e-08,0.14498140781296,0
5.63376940230019e-08,0.153268304803418,0
6.17344216571498e-08,0.158614371568975,0
6.36587860496335e-08,0.154399929167896,0
6.89928076416988e-08,0.15674281013406,0
3.74436524441268e-08,0.127308482933227,0
3.61643198948371e-08,0.131035622824267,0
4.98588023224009e-08,0.1355998169513,0
9.08336453260217e-08,0.172088884652103,0
1.48680292374062e-07,0.200885214364897,0
2.3566003728278e-07,0.241454227184073,0
2.2632924893011e-07,0.236820965734347,0
2.22301710957101e-07,0.238245845658907,0
2.27987920711296e-07,0.24860781693116,0
1.87027558278218e-07,0.229996361196767,0
1.92925804958217e-07,0.237236267186706,0
1.91656686382792e-07,0.225766231665112,0
1.94923994402306e-07,0.231015200614885,0
1.86783845104351e-07,0.219357289083088,0
1.61981730744038e-07,0.218894094998128,0
8.42491230349441e-08,0.176164544928339,0
7.78134144643543e-08,0.181515424517404,0
6.24584501842868e-08,0.159332277492221,0
5.48845946271995e-08,0.145770754122524,0
4.69025679879388e-08,0.138947379063839,0
3.59687029017017e-08,0.124404855356159,0
5.52166134232153e-08,0.143744569375014,0
4.90489246984748e-08,0.145520549881104,0
4.77617054098718e-08,0.153914641612897,0
2.90552647940102e-08,0.127936704198134,0
2.1065092833819e-08,0.11712183726623,0
1.28195715270038e-08,0.107368225664601,0
1.15308007486998e-08,0.113730976096287,0
2.46000328267573e-08,0.128114016872957,0
7.8291273292265e-08,0.195218140795164,0
1.36027505989917e-07,0.253258787023244,0
1.30640604457209e-07,0.26623973470069,0
1.14311821808142e-07,0.247482024589828,0
1.08829762240438e-07,0.232423325607475,0
1.2026734431627e-07,0.22842487409613,0
1.53435091144418e-07,0.254519427451817,0
1.56795229964376e-07,0.24083750480421,0
1.46533030627867e-07,0.228942472419019,0
1.4033651005285e-07,0.233969597697665,0
1.49999187910727e-07,0.219083189293862,0
1.01747341046146e-07,0.175931518617065,0
1.15098944249786e-07,0.190581388068127,0
1.17040892192215e-07,0.188753498747261,0
1.07444928391481e-07,0.178706650745693,0
1.24632202008439e-07,0.201897377419934,0
1.37900671222267e-07,0.203611591096057,0
1.24924011363037e-07,0.191061130477694,0
1.29684886801388e-07,0.18828506648239,0
1.41884767483647e-07,0.193056215234177,0
9.75774538930697e-08,0.177336990107091,0
9.55614223174183e-08,0.178918297277836,0
9.78400435249655e-08,0.17166377675497,0
1.07522502876531e-07,0.181777205350511,0
1.12287515620752e-07,0.191943420447001,0
1.04294887135201e-07,0.185848097554192,0
4.60307600667807e-08,0.13955440411104,0
4.24911656047393e-08,0.139775264022967,0
5.43886350861105e-08,0.161843793003795,0
4.1378876779925e-08,0.153597325344741,0
4.41234620610082e-08,0.153211141105792,0
3.48361154199659e-08,0.145412190180544,0
2.49537724785872e-08,0.138834954343711,0
3.01600547519362e-08,0.140640221125247,0
2.98330782974489e-08,0.142087146547355,0
2.86085650509282e-08,0.140350173948873,0
2.56472883749377e-08,0.132602338637439,0
3.15262707244822e-08,0.13730372279825,0
1.52781655398678e-08,0.113950222576589,0
0,0.0852428780663084,0
3.51755037920614e-08,0.138777752457849,0
3.83114523502238e-08,0.146065521038744,0
3.90127256950795e-08,0.146944290400119,0
5.25137890732508e-08,0.167309866752506,0
4.97821328730095e-08,0.160013171159873,0
4.68508516645718e-08,0.1494026104305,0
6.98118649130225e-08,0.173761003566175,0
1.03449842411385e-07,0.198058077324076,0
1.1449903489873e-07,0.204915591993195,0
1.57088332227058e-07,0.232743150541973,0
1.84726569760814e-07,0.245456160297706,0
1.89065181418875e-07,0.248133818812734,0
2.23433134821562e-07,0.263858887940023,0
1.723277105244e-07,0.221472681486555,0
1.28439169862287e-07,0.1967521994548,0
1.08733569878976e-07,0.189255423309317,0
1.3938066310622e-07,0.219394778821762,0
1.69542657220283e-07,0.240176944655822,0
1.68061113846629e-07,0.232312139773225,0
1.57579637299044e-07,0.23221853228912,0
1.14492699649118e-07,0.213594267586767,0
9.60299722071232e-08,0.202684977046912,0
4.24313039604421e-08,0.142700070487307,0
6.91065835531061e-08,0.177088221275984,0
7.20595856173579e-08,0.168588984781815,0
7.0317262683126e-08,0.160801603943616,0
8.39800688626275e-08,0.17291201241805,0
5.73137103357443e-08,0.148177888606884,0
5.55360910108145e-08,0.155598306871437,0
5.57767012052792e-08,0.159334801181161,0
7.66530294588087e-08,0.172857596111769,0
1.11604472279883e-07,0.184977935218825,0
1.34437616918809e-07,0.201006774426474,0
1.06605960335661e-07,0.191190943387947,0
1.03293012660775e-07,0.195928368173341,0
1.02275235416914e-07,0.203391644984278,0
6.77152851637273e-08,0.161390577019137,0
7.42025807668751e-08,0.15991992810154,0
1.93898071837515e-07,0.242283557012762,0
2.16350067173226e-07,0.238763015071873,0
2.26945836795452e-07,0.232103404619615,0
1.98763026376642e-07,0.2300208675357,0
1.61743447784124e-07,0.211495628657982,0
1.55998798584525e-07,0.20171464843884,0
1.38192221995249e-07,0.186637026178921,0
1.41350149990842e-07,0.187188333031167,0
1.71352728538125e-07,0.21071243727454,0
1.64841643426228e-07,0.213853572877339,0
7.9141489648417e-08,0.149605139312806,0
5.1505450058404e-08,0.137153961118899,0
4.12247621362916e-08,0.129010658934178,0
3.41544942779898e-08,0.126184798301037,0
2.91690407054176e-08,0.122540467061331,0
2.78916475182541e-08,0.123581399293095,0
1.370133484041e-08,0.102679674401775,0
3.1025268841865e-08,0.127568901176835,0
2.62646519851305e-08,0.118856681942522,0
3.74177942824433e-08,0.138349430182682,0
4.06807064144715e-08,0.145518666265993,0
3.78046323812279e-08,0.142006284249053,0
4.00601105340682e-08,0.138635516059225,0
7.70145265591437e-08,0.16663521593534,0
7.25176629515804e-08,0.162510044129788,0
7.34847581985422e-08,0.160538093926149,0
9.27704216361135e-08,0.17672095483293,0
1.08377761574212e-07,0.192454158244328,0
1.00403750965073e-07,0.189809296189758,0
7.55689260302296e-08,0.162232317440522,0
8.51153714513399e-08,0.167622441840348,0
1.64263067058561e-07,0.227898651019276,0
1.78473031939285e-07,0.250965161489218,0
1.54323189707437e-07,0.239095430068277,0
1.82521515023257e-07,0.244084718663402,0
1.99002472953831e-07,0.249230634039013,0
1.7085327814521e-07,0.230530549406447,0
1.36987231660799e-07,0.206136508965571,0
1.95945908952037e-07,0.228474037295546,0
3.28021770673487e-07,0.299177768344391,0
3.86870162905145e-07,0.344750591978306,0
3.18539453493351e-07,0.313540838103573,0
2.82907035984343e-07,0.271634963767375,0
3.65107546159914e-07,0.307811816681826,0
3.94384673981169e-07,0.335291621251976,0
4.01965769823527e-07,0.343972483043484,0
4.08283435886032e-07,0.346620593947238,0
3.69875144720303e-07,0.330029877488218,0
3.44006639772164e-07,0.358009099342657,0
2.46842657884412e-07,0.286342816743998,0
1.76835305269063e-07,0.224742235559638,0
1.24419130756167e-07,0.191320145998455,0
9.56296878642627e-08,0.189679095265722,0
6.99857610503438e-08,0.16020405692967,0
9.26711262952489e-08,0.179901689317865,0
9.20250601255874e-08,0.179368131617055,0
9.47970550580551e-08,0.181647253760762,0
1.1804936049787e-07,0.199940939482542,0
1.25738931328491e-07,0.191619227331652,0
1.09514486361817e-07,0.190020253797864,0
9.64612863440031e-08,0.1940499276134,0
1.0346988248669e-07,0.182227951325236,0
1.27786897733822e-07,0.19291189803315,0
1.16380345452011e-07,0.19517211757456,0
7.44385364922367e-08,0.170732106827016,0
7.60416132258031e-08,0.168783577700369,0
7.67656417529404e-08,0.169437231731999,0
5.83521741089522e-08,0.16186365044218,0
7.1342668084684e-08,0.177421000213112,0
5.62115061939865e-08,0.154634182888722,0
5.09334675219658e-08,0.150642382623702,0
6.3750711814418e-08,0.176189950872995,0
9.0201671854478e-08,0.217873527168263,0
1.85408190902791e-07,0.266161311211619,0
1.84807376516075e-07,0.245216517885194,0
1.93919275530095e-07,0.246217502799377,0
1.83557392980296e-07,0.239965714364397,0
1.76141660081904e-07,0.2273353368276,0
1.47461855795537e-07,0.213161673639276,0
1.27339163664272e-07,0.210601513495542,0
1.29824133002054e-07,0.212495002453809,0
1.26968745498157e-07,0.214505475010425,0
1.10688446902246e-07,0.196268514347733,0
2.36670703532179e-08,0.129736956469765,0
1.35424364368651e-08,0.123996849464045,0
1.76673303886116e-08,0.131078726687709,0
4.44156592880313e-08,0.170761153625399,0
4.26401086160361e-08,0.168241925911346,0
4.11782174452613e-08,0.171344514807033,0
3.91802865827883e-08,0.154766346534052,0
4.43519189194816e-08,0.16139340092315,0
4.42360743551397e-08,0.15370237012299,0
5.22118950355965e-08,0.162681662203122,0
4.9829711890507e-08,0.144839749924866,0
6.8761118513015e-08,0.156116402787622,0
6.25177946653504e-08,0.156259868309835,0
4.471393318305e-08,0.135277880571524,0
4.42495205992149e-08,0.134781370345099,0
5.02641290067893e-08,0.137134384870803,0
5.07440564876345e-08,0.144414552058878,0
5.19807230701462e-08,0.148737106894607,0
5.39566744951885e-08,0.164659635465235,0
4.50931431241381e-08,0.150819771137331,0
4.43726054488282e-08,0.157314388085619,0
3.28906766257103e-08,0.150346584250912,0
3.8265941985661e-08,0.146008327461309,0
3.42413777012462e-08,0.148188611203493,0
3.38928096817531e-08,0.151818719914766,0
2.27220838344956e-08,0.14356880128132,0
2.98238986500513e-08,0.142074196037341,0
2.59543540449289e-08,0.129716291803966,0
1.75102420563846e-08,0.114615225404455,0
1.69112377409871e-08,0.115027800252985,0
2.96340997432945e-08,0.134769810276123,0
2.77644253627716e-08,0.120852781011504,0
2.6345975903625e-08,0.124362757606106,0
2.12916103301662e-08,0.117354630476734,0
2.34669281817879e-08,0.115288928565111,0
2.32016234429154e-08,0.110251883397976,0
3.94709323201104e-08,0.13497516573822,0
4.26359713101668e-08,0.130560690834404,0
5.42200398719344e-08,0.139889238114625,0
6.20405822914821e-08,0.144627847860198,0
5.55491493824647e-08,0.141336499147703,0
7.26889732727335e-08,0.165874199296831,0
9.29229847900458e-08,0.180109295749114,0
8.97650567944526e-08,0.184544166027006,0
8.87503825299935e-08,0.191514185567553,0
1.19341622128001e-07,0.213597374518195,0
1.44775322087434e-07,0.227982410705283,0
1.3791101448694e-07,0.248354933465489,0
1.30227908196741e-07,0.234183901651505,0
1.30579579195636e-07,0.236712491955645,0
1.35712553580612e-07,0.241358062108043,0
1.19091444413714e-07,0.215411502082811,0
6.28008122449757e-08,0.178712341833618,0
5.54926492991861e-08,0.164381412627089,0
5.55360910108145e-08,0.16262628650983,0
4.8805728687842e-08,0.15912298473375,0
2.979377389169e-08,0.142031689039223,0
3.27209177942584e-08,0.142358434358254,0
3.21344546872775e-08,0.134842890884509,0
6.35386748886137e-08,0.175292203568053,0
7.37232997400721e-08,0.190547129301889,0
5.89876384323235e-08,0.170245678895948,0
7.09992716975272e-08,0.164312436488977,0
6.59124541311559e-08,0.157946029189922,0
7.63882418831703e-08,0.16967380514513,0
7.94322646765478e-08,0.179093567584031,0
8.71100700436026e-08,0.172025925799306,0
8.91290753078476e-08,0.173695214688341,0
8.23282494942876e-08,0.17470366621163,0
8.88389467337595e-08,0.180345336485426,0
1.1421149214081e-07,0.197282772166108,0
1.31360495678477e-07,0.226978458069943,0
1.2880570930415e-07,0.230039457655946,0
1.33395015839732e-07,0.219435367607465,0
1.05988596725468e-07,0.194484780523521,0
5.72706564965414e-08,0.14152905861933,0
5.33201758453497e-08,0.153202490354299,0
5.53552131698386e-08,0.153744800049206,0
6.14613594697721e-08,0.161658449807071,0
6.05287848686581e-08,0.157412350509963,0
6.5016856701249e-08,0.159073054541953,0
5.72044596026317e-08,0.157502784809407,0
5.70637912030735e-08,0.152624093709913,0
6.05505057244723e-08,0.159071576158102,0
5.7953958419027e-08,0.158281120106994,0
6.71113677976098e-08,0.167298255598194,0
6.43516554919419e-08,0.152069409114724,0
6.36944703127567e-08,0.154339336424519,0
6.26782445585963e-08,0.159549633654996,0
7.14027883105978e-08,0.16808010973446,0
7.21111726499163e-08,0.165341657824695,0
6.9238848050117e-08,0.153747738227675,0
9.68698452986017e-08,0.191341330878288,0
1.11725876348987e-07,0.20695241389538,0
1.06121895548946e-07,0.202575148596445,0
1.2111768996323e-07,0.218941824017731,0
1.40115681352073e-07,0.250223025315224,0
1.50402445942181e-07,0.258338126183436,0
1.54249752528256e-07,0.249481025582508,0
1.32295526804951e-07,0.223605385158502,0
1.33395015839731e-07,0.223767411089324,0
1.27137470003142e-07,0.223697611659867,0
1.12178523469256e-07,0.20308475660312,0
9.34991046323537e-08,0.18411369595549,0
9.48825162824188e-08,0.188924905876665,0
8.14305834114462e-08,0.173912699488044,0
5.96733968801692e-08,0.146334328457335,0
4.37189111214702e-08,0.131709881269747,0
5.38553105013892e-08,0.142189998252367,0
6.42430512128713e-08,0.157928016436186,0
5.96144402715307e-08,0.153277776534361,0
6.56487008819846e-08,0.15607457498019,0
5.29937165540961e-08,0.143943208363123,0
3.48495616640414e-08,0.129372833750719,0
3.67351388139997e-08,0.131771539710856,0
4.29462692503683e-08,0.132230008093726,0
5.67241442493613e-08,0.149001850330689,0
5.85667968509251e-08,0.146533480941164,0
5.16347408668214e-08,0.142436457570424,0
5.00924308132113e-08,0.14234945283511,0
6.06494131929114e-08,0.159117287640788,0
5.51054233279763e-08,0.155304214137542,0
5.20614005345986e-08,0.148724024285028,0
5.29824682537638e-08,0.143860602280339,0
7.97393303465389e-08,0.168929779846882,0
1.01259656116796e-07,0.194381693567399,0
8.34629056289581e-08,0.182783618999281,0
9.67443039236285e-08,0.194486331357116,0
1.22718827334671e-07,0.220672231982291,0
1.49659799538632e-07,0.236400050703721,0
1.07100368387048e-07,0.207620275862824,0
5.71134388735059e-08,0.168571295547859,0
4.80454987343481e-08,0.166118456213175,0
2.32342047266365e-08,0.140129125474661,0
3.08918407275784e-08,0.152211630401271,0
7.43163566782824e-08,0.195754632775664,0
8.43182936174472e-08,0.206045790996389,0
8.48851045215487e-08,0.201466422542229,0
8.40867337795717e-08,0.187650650426562,0
8.02533906008062e-08,0.177950880160856,0
7.68101177910359e-08,0.173001874493402,0
6.76662839473371e-08,0.164519543144627,0
4.30238437354187e-08,0.136148940737291,0
3.99758129269802e-08,0.130133335453977,0
5.85025393191416e-08,0.149434906272023,0
3.91354226722675e-08,0.13884073823168,0
3.15300201579263e-08,0.128334824797803,0
3.03502415311183e-08,0.126851866264367,0
2.90294066323268e-08,0.129276862277947,0
7.9623744363815e-09,0.0994768801914857,0
3.74074510177698e-08,0.129800653174639,0
3.88834348866621e-08,0.1265071150882,0
7.03477753139124e-08,0.157735720562745,0
8.11077442628282e-08,0.158450252033968,0
6.07518115131781e-08,0.141094877702958,0
5.82239176270023e-08,0.136553654964116,0
6.12073030312323e-08,0.141659864734262,0
5.34177904057048e-08,0.136570844396252,0
4.86040350267108e-08,0.129698455169118,0
5.53416376349549e-08,0.133924362538898,0
1.03932872871632e-07,0.182243102200297,0
9.76848945548645e-08,0.177420961653671,0
9.35403484002387e-08,0.171329792898671,0
8.6651346255338e-08,0.174978362219443,0
8.26581996373685e-08,0.181991206557727,0
8.25093859168805e-08,0.185798256757989,0
9.1553407256481e-08,0.16886184719002,0
1.7281630048941e-07,0.22997394331101,0
1.77484345127318e-07,0.224540071725068,0
1.98686874090484e-07,0.241127382633264,0
2.15585699913863e-07,0.254440870525293,0
2.13400168088377e-07,0.267126063492103,0
2.14472764635007e-07,0.262836551018033,0
2.16743111230815e-07,0.259415189714035,0
2.12607486141969e-07,0.252629384329562,0
2.04892832894515e-07,0.24825075604842,0
1.90403987740037e-07,0.2756634500939,0
7.27576266920033e-08,0.17329278667251,0
2.42446123944181e-08,0.121438540573985,0
2.39301771483472e-08,0.124019394319196,0
8.9320554995114e-09,0.0986999771808112,0
1.85083670973664e-08,0.113471206358733,0
2.82784856170389e-08,0.121503290144555,0
3.45636996866306e-08,0.126502404757127,0
3.3790540652295e-08,0.12559243176838,0
4.04205733079357e-08,0.128297333651431,0
4.2865591785916e-08,0.127207225417415,0
5.86204525364184e-08,0.144101049552678,0
7.19953280855745e-08,0.162135464425441,0
6.77597612018225e-08,0.164609473062996,0
9.19067590358857e-08,0.182720047163794,0
8.52212606234338e-08,0.173658248150508,0
7.37836785476031e-08,0.18177227816178,0
6.6539255970363e-08,0.182761756876364,0
6.81043212062551e-08,0.171944022705666,0
5.07006147760061e-08,0.157259241093753,0
2.55075250110386e-08,0.126062476205048,0
2.65207770766051e-08,0.133794165655537,0
3.54402913677002e-08,0.134396506960938,0
4.00398118771469e-08,0.132788753724583,0
2.90791835935674e-08,0.1199551956904,0
3.14911036245926e-08,0.122850963228231,0
3.28234454053333e-08,0.119669952174634,0
2.76854286788286e-08,0.113661944999489,0
3.29760085592658e-08,0.122260743114677,0
4.41616028494913e-08,0.140184011730449,0
6.35707390091013e-08,0.15727986395738,0
5.13197884575169e-08,0.145013999013483,0
2.97530472870384e-08,0.12596347953878,0
3.44616892387894e-08,0.131772743303164,0
2.49738125538919e-08,0.11718684193758,0
4.69511813319036e-08,0.13764733344601,0
4.74901947121954e-08,0.13321869344852,0
4.93354331299277e-08,0.134998558167361,0
4.58171716512751e-08,0.139190307637298,0
4.34894199365296e-08,0.131427584986346,0
3.59626262337062e-08,0.123270595506138,0
3.64430708777849e-08,0.118387905595527,0
8.2482364137921e-08,0.162327472400444,0
7.97838063846346e-08,0.169071171603288,0
7.83958695562744e-08,0.174452206784866,0
4.37675244654352e-08,0.15663259893731,0
4.5865138541198e-08,0.157127826416554,0
4.54286527719811e-08,0.162742322841704,0
5.02992961066789e-08,0.160488031244675,0
5.30419420256357e-08,0.163625356993634,0
5.50634038152406e-08,0.174534423052106,0
7.43018761077399e-08,0.193193505429285,0
6.08873082803994e-08,0.172707437440426,0
1.00454820834398e-07,0.21159974140601,0
1.2768411154113e-07,0.234366382545388,0
1.33035070229098e-07,0.219029609776974,0
1.31479443222221e-07,0.227070227638427,0
1.28045608641464e-07,0.215452707018488,0
1.41838222792617e-07,0.216954574907625,0
1.45438325352998e-07,0.219439035550606,0
1.35391395212504e-07,0.208576265108114,0
1.82476521821928e-07,0.231367059939994,0
3.03550640782722e-07,0.283470368063259,0
2.71268277410614e-07,0.258418816496394,0
2.42126129193348e-07,0.241199772751917,0
2.30136733947192e-07,0.242284496517389,0
2.23872723570181e-07,0.235586996725516,0
2.28775560316175e-07,0.245213620550503,0
2.1044923467706e-07,0.25141163162086,0
2.52313598442591e-07,0.274273822096427,0
2.6038651652017e-07,0.278454390965019,0
1.8259068560576e-07,0.254122232807186,0
2.70922424498097e-08,0.131297459984159,0
4.76970600056632e-08,0.161610475650943,0
4.6973936514185e-08,0.164660679967701,0
5.85273631543578e-08,0.173977945900478,0
5.79317203999791e-08,0.173308673943772,0
6.31611457280349e-08,0.16694877800506,0
8.82628268914516e-08,0.187090676968676,0
8.30574496537614e-08,0.186306666314707,0
8.23634165941774e-08,0.185662633071179,0
8.23149325410206e-08,0.18173964880901,0
9.42277876285937e-08,0.182914893859053,0
9.6547135440792e-08,0.186647695057285,0
8.94269613304412e-08,0.175527925191756,0
1.15271159606598e-07,0.190814534430041,0
1.14066169272149e-07,0.180689062313715,0
1.16735119430308e-07,0.195202686535504,0
9.40286797836308e-08,0.171711768828413,0
9.92028979364925e-08,0.175712425328295,0
9.98652547480145e-08,0.167604365410513,0
1.29100492347342e-07,0.190826133959169,0
1.70902796524833e-07,0.229297369375545,0
1.52713777724258e-07,0.216483833525385,0
1.53497280023267e-07,0.213302187038536,0
1.40338449414976e-07,0.213896241171127,0
1.60287503990537e-07,0.248530854943054,0
1.55392683274665e-07,0.234894376798189,0
1.54423002211535e-07,0.231977569270125,0
1.35454489127011e-07,0.220708847292368,0
1.29942434091755e-07,0.225757709349706,0
1.36767049414064e-07,0.214251879767611,0
9.98125040981807e-08,0.173144704688969,0
7.45852815597905e-08,0.158345197288646,0
6.65744230702526e-08,0.154043737218956,0
6.01005737111798e-08,0.142787206240527,0
7.61191877108536e-08,0.151743998843727,0
7.61798251000015e-08,0.151852807728085,0
7.4283387522136e-08,0.156763677574151,0
7.43266999429558e-08,0.16413962650367,0
7.8074711188166e-08,0.164415168882438,0
6.4212021418851e-08,0.154924100365444,0
3.8400404426415e-08,0.142793404174694,0
2.80871352205812e-08,0.132666185031413,0
3.07412169357721e-08,0.139731837164594,0
4.10773706146957e-08,0.159325605731171,0
9.7495612811342e-09,0.124927038499901,0
8.03154501888458e-09,0.121392001486724,0
9.77024781048089e-09,0.117192292857268,0
2.20725268130069e-08,0.130844804769742,0
3.42249577685772e-08,0.152485057376712,0
3.33380228228344e-08,0.160107676467494,0
3.1582253644527e-08,0.152796172843836,0
3.30556516972509e-08,0.146569923874561,0
3.70816381805581e-08,0.14811507655449,0
6.2571579641652e-08,0.174258093137429,0
6.85464957710419e-08,0.168760515830086,0
7.56982168386468e-08,0.168622951574354,0
8.44455157729297e-08,0.172996295935012,0
8.12308291124414e-08,0.177017969474463,0
7.176777626276e-08,0.168314478925799,0
6.48741196487563e-08,0.148468603779609,0
8.39962302136795e-08,0.158190327088839,0
9.85885080148933e-08,0.172229689438365,0
9.63853926394619e-08,0.167731782088984,0
6.47546549417787e-08,0.142350131979638,0
6.74102881466704e-08,0.144647534417874,0
8.60745799589883e-08,0.162445952934991,0
8.87814123240133e-08,0.161894083203399,0
8.82807983138215e-08,0.158956039275282,0
7.54468755070836e-08,0.148847309878666,0
7.3545783460115e-08,0.151144644039181,0
8.01645678154235e-08,0.160413843825213,0
7.19736072297602e-08,0.156164801336733,0
8.47040973897645e-08,0.170067004030399,0
8.56318882309672e-08,0.172355766073356,0
7.79809753520631e-08,0.170681169898312,0
6.21336716735424e-08,0.155836937503503,0
4.46208438009895e-08,0.132660229272451,0
5.50330204752625e-08,0.138150787684278,0
6.10831838551518e-08,0.136814591983882,0
1.18683790494774e-07,0.176718584438312,0
1.13872103768715e-07,0.170949982456857,0
1.31535296851457e-07,0.176252294350519,0
1.50719984167654e-07,0.190066500214011,0
1.51755474252269e-07,0.188095036362327,0
1.59421772737374e-07,0.195079238237609,0
1.51504003629897e-07,0.190523118777413,0
1.63752497656121e-07,0.203236748793118,0
1.49449831265762e-07,0.201062705210589,0
1.5206253992226e-07,0.21244138330143,0
1.08300833543203e-07,0.192510019650486,0
1.24709776493489e-07,0.203197693946247,0
1.87088971412216e-07,0.247355739111497,0
1.45830722956544e-07,0.221984619117937,0
1.38754895593481e-07,0.223217107284905,0
1.43466252652208e-07,0.222283703896126,0
1.69041008883624e-07,0.24520306725941,0
1.73462754531496e-07,0.247204185878107,0
1.56333273905901e-07,0.245709138405519,0
1.40287379545651e-07,0.228894224309685,0
1.46756057272387e-07,0.216595631964251,0
1.44666071354321e-07,0.219299245272434,0
8.01965026451027e-08,0.176085821348218,0
7.86306616643605e-08,0.174529944970257,0
7.13230158818043e-08,0.167816799287231,0
6.78896984642819e-08,0.168058326675491,0
4.96441795804282e-08,0.15286812731494,0
3.61683279098981e-08,0.143197360788133,0
3.902164676086e-08,0.143386802172691,0
2.8847365174075e-08,0.129002981736101,0
2.11705941334876e-08,0.12133836290156,0
6.87637043291833e-08,0.185308074795847,0
7.01335404443649e-08,0.170130812459064,0
7.14162345546732e-08,0.167983239972033,0
8.01913310127659e-08,0.166238684520583,0
7.92569463403338e-08,0.165435945562762,0
8.15117780391325e-08,0.164435672693241,0
1.44805705427412e-07,0.201454184798449,0
2.50514516843464e-07,0.248778181031742,0
2.56891527387032e-07,0.241641740245783,0
2.74075827315396e-07,0.256039983729373,0
2.28951395815622e-07,0.234958540902332,0
2.21103831617115e-07,0.248943751413141,0
2.29709427825372e-07,0.25391243910629,0
1.92834654938282e-07,0.245570093662775,0
1.93376254134742e-07,0.243694148181951,0
2.10019084157455e-07,0.255646358961161,0
2.04637483547892e-07,0.243922004293162,0
1.76678475518453e-07,0.235662384520028,0
1.76911845427646e-07,0.235807217899638,0
1.95457706859453e-07,0.251585198119824,0
2.04117217334821e-07,0.252443922214549,0
2.69378045791553e-07,0.283352193261083,0
2.68713878908713e-07,0.280586007867173,0
2.4998222658521e-07,0.270558224215817,0
2.49852935776793e-07,0.282646804941036,0
2.48722416947992e-07,0.277076151566393,0
2.05028458952546e-07,0.284851391528368,0
1.15390495022768e-07,0.224150557840966,0
1.09830990260823e-07,0.230360200369851,0
1.00296568884895e-07,0.213492491317792,0
9.29011346434234e-08,0.204241519198116,0
7.19125819681874e-08,0.179715033629682,0
7.29010101985379e-08,0.164584859073182,0
7.80037305343446e-08,0.167407378858991,0
8.94393732480493e-08,0.170964075766876,0
1.09603050565583e-07,0.193750375124416,0
1.00644231868729e-07,0.172234491262448,0
8.6594975462868e-08,0.16567344696466,0
1.05367483681831e-07,0.175804093387026,0
9.9890725037273e-08,0.171765405137534,0
1.39687470194595e-07,0.205194595251277,0
2.10065628848485e-07,0.265874670799596,0
3.46466268111495e-07,0.344319095154195,0
3.89504721708265e-07,0.357441185111123,0
4.24790639850714e-07,0.331651540375209,0
4.462146439687e-07,0.32536556106128,0
4.24550676110291e-07,0.326820999878533,0
4.63095498369709e-07,0.333635879758741,0
4.61445747654303e-07,0.345349667619399,0
4.89831156769904e-07,0.350827677320415,0
4.867467952443e-07,0.349728844296782,0
3.9165353494416e-07,0.314431646182131,0
1.99212958389934e-07,0.230721084831734,0
7.98862047049012e-08,0.160182625705166,0
6.43413122272682e-08,0.165452253976127,0
4.02404712118104e-08,0.138702297168026,0
3.70486690244116e-08,0.137999835831137,0
2.57143903045063e-08,0.126346402619851,0
3.41751808073366e-08,0.134362861448335,0
3.59283641694755e-08,0.133734416472527,0
3.61341951364759e-08,0.143306381381894,0
5.17381735135552e-08,0.162265396200549,0
5.42469323600852e-08,0.161211264912393,0
4.82678789248259e-08,0.162034943798657,0
5.61604363246616e-08,0.171509820283145,0
7.23045916993086e-08,0.193623790761612,0
7.75589701533892e-08,0.199144842914759,0
7.38081145103939e-08,0.185806453784006,0
5.60532542444839e-08,0.180266564366373,0
6.53969716779961e-08,0.191451938005819,0
7.5811604877629e-08,0.197815295539114,0
4.21804797921125e-08,0.154850126073062,0
1.97516275111074e-08,0.127271935308514,0
1.48870608444053e-08,0.106784406325169,0
4.25739117221264e-08,0.139869111486515,0
3.8576369216671e-08,0.142956361123585,0
3.90676742886568e-08,0.147012947132677,0
6.80772994272957e-08,0.184623853675502,0
8.01774968962654e-08,0.177881678504897,0
7.39346902118344e-08,0.186075348162312,0
5.74109370236742e-08,0.162764556464675,0
5.6475259443158e-08,0.171662143639763,0
3.8678638246129e-08,0.150234252096694,0
3.16639654354465e-08,0.148610799695755,0
2.32164918858836e-08,0.140101158640449,0
5.21989659547548e-08,0.166942764037386,0
7.57893668585812e-08,0.168705574412172,0
6.97954449803535e-08,0.16157746992887,0
6.0284295949941e-08,0.162275958644298,0
9.36702856626981e-08,0.18826028499497,0
1.15459924186888e-07,0.197992235369721,0
1.18544156421683e-07,0.183618527474307,0
1.22537303039653e-07,0.179311122518572,0
1.22405297124259e-07,0.177886770004878,0
1.27098036306574e-07,0.174562321153106,0
7.64668506946878e-08,0.147669763026043,0
4.31434377332047e-08,0.126521484694761,0
5.48054686524482e-08,0.137934538766083,0
5.82673593386302e-08,0.141152913750895,0
4.03294232880016e-08,0.12267150276825,0
1.93419049392329e-08,0.101228876831018,0
2.95610504365387e-08,0.123113067586126,0
3.25254300919313e-08,0.124130976035818,0
5.35461761784633e-08,0.150379329572106,0
5.54326583640806e-08,0.155436632963443,0
6.4553995607115e-08,0.155247308461403,0
6.78638403025986e-08,0.164709549964328,0
8.30193088652784e-08,0.18238086073313,0
8.62670939727212e-08,0.174547037867253,0
1.29807971651001e-07,0.208826924394012,0
1.38073920905547e-07,0.203451609494937,0
1.18132106615257e-07,0.180471087456753,0
1.18684436948816e-07,0.193296969166512,0
1.28318541538033e-07,0.200374625538426,0
1.34207091407401e-07,0.20412023925502,0
1.56124339959498e-07,0.218691354809494,0
1.44574016298728e-07,0.204447091423539,0
1.33144320962211e-07,0.193901151325596,0
1.33914247726336e-07,0.200489465358043,0
1.13070500756527e-07,0.184252889308122,0
1.14769899142365e-07,0.201682179252407,0
1.14663492807037e-07,0.213733688725448,0
1.16009151541044e-07,0.202135904788873,0
1.52967187708756e-07,0.220548947174329,0
1.49010888971185e-07,0.226357852826869,0
8.63042004347372e-08,0.172161658699347,0
5.0935406884092e-08,0.144614031971066,0
4.96695205788781e-08,0.140478156370074,0
6.95410006693883e-08,0.156868635664864,0
9.26042829472972e-08,0.1871071544703,0
1.2038331817142e-07,0.205658960436704,0
1.32848891464977e-07,0.212558664402057,0
1.3279717514161e-07,0.223613544266188,0
1.2191256985338e-07,0.225148164526084,0
1.26348149617753e-07,0.214174563247163,0
1.53189955771659e-07,0.233473220917852,0
1.76560174428751e-07,0.239914532664325,0
1.78457517042275e-07,0.223274213186854,0
1.76502640019005e-07,0.227797197076066,0
1.60868795465181e-07,0.214398401961741,0
1.50370381821694e-07,0.211296440659525,0
2.34658679971588e-07,0.248942261729641,0
2.98129735767399e-07,0.27055335546313,0
2.89078732724144e-07,0.266522750171728,0
2.78586525039461e-07,0.27384329248103,0
2.12865421304762e-07,0.246501938337127,0
1.37349245924367e-07,0.203241938820798,0
1.23113940045194e-07,0.211583999765085,0
1.14618887478133e-07,0.205009742044944,0
1.03144069649478e-07,0.195806352923501,0
1.01642356909711e-07,0.187166152550515,0
6.62651594565185e-08,0.160623524469066,0
4.30290153677553e-08,0.142063681530177,0
6.04884461364319e-08,0.157475242834702,0
7.39818813569067e-08,0.161215682037502,0
1.08124998043756e-07,0.174912299152448,0
1.47875586382473e-07,0.200385115212988,0
1.93295964542715e-07,0.226675053287273,0
1.83573295749732e-07,0.2209073752354,0
1.80948175175626e-07,0.219526909024498,0
1.81429266273747e-07,0.216376790429466,0
1.86683644727828e-07,0.228040407207386,0
1.85144437653619e-07,0.225257512190417,0
1.99048888354053e-07,0.220028653378371,0
2.13128140227467e-07,0.237179736567158,0
1.66986836519489e-07,0.218253430776151,0
1.42183687832708e-07,0.20618244957426,0
7.41592683460553e-08,0.155356570864742,0
6.84475883026029e-08,0.150404361838291,0
5.75302724398433e-08,0.138154491335693,0
5.19688283157717e-08,0.140187898077776,0
5.29721249890902e-08,0.138593784453517,0
5.65214162617628e-08,0.134898990362517,0
7.75503076692251e-08,0.161267309671839,0
5.84446170369708e-08,0.143851945629423,0
6.27170318011215e-08,0.156453332611021,0
8.59990741268725e-08,0.168350549255912,0
1.64657533315043e-07,0.216835511696926,0
1.71238952626719e-07,0.213829727928291,0
1.66921286079622e-07,0.21809965637865,0
1.59587264972148e-07,0.210238983326374,0
1.62839187385461e-07,0.205718831540702,0
1.74137264679009e-07,0.226369192959858,0
1.57988196253643e-07,0.212615832811262,0
1.54340126803339e-07,0.217539102843539,0
1.45551584101171e-07,0.201516497225512,0
1.26239545338683e-07,0.203056383276029,0
4.20050321650901e-08,0.131149366888136,0
5.00024444105527e-08,0.146832138769664,0
9.90586093942988e-08,0.1888884700814,0
1.17831634776495e-07,0.205431507364518,0
1.22945215540209e-07,0.216065297141916,0
1.01023829682242e-07,0.190313116057193,0
1.05822975199885e-07,0.194111418370277,0
1.00863379788996e-07,0.179888895223165,0
1.33749401945604e-07,0.211399491366944,0
1.45300242769608e-07,0.22792093255385,0
1.3285923472965e-07,0.228132237824792,0
1.22167531327579e-07,0.224709581631787,0
8.95169477330996e-08,0.201239640933207,0
6.83844943880952e-08,0.17222318580767,0
5.15973758231887e-08,0.15480431997504,0
4.42129313004329e-08,0.149730795969305,0
5.82673593386304e-08,0.178255710444705,0
6.00943677523758e-08,0.180195991620069,0
2.81243709734053e-08,0.139777256191668,0
1.28702535239032e-08,0.112955511695737,0
1.74397785657971e-08,0.120285465107397,0
2.23083532475601e-08,0.121597202180492,0
3.92061447444717e-08,0.137445355098005,0
4.66336431064307e-08,0.137398287624617,0
1.10655994909333e-07,0.187621058811105,0
1.09892015522395e-07,0.180578667656856,0
1.1803384560086e-07,0.184834304050127,0
1.35729490676515e-07,0.201659769663841,0
1.54779715551958e-07,0.214177518840569,0
1.54382663479309e-07,0.207044302560412,0
1.56669430007786e-07,0.205178456674629,0
1.56884699203801e-07,0.208585760314771,0
1.38815532982628e-07,0.195624280715774,0
1.34281433622241e-07,0.212030438919073,0
4.03056337792528e-08,0.138778179653697,0
2.93212159869246e-08,0.134346706412606,0
3.02314232781827e-08,0.135574283162028,0
4.11299919737215e-08,0.143097684654279,0
3.81821615418064e-08,0.13628596645085,0
3.51067210819834e-08,0.143678805121709,0
2.8360326698767e-08,0.128345633183295,0
2.94845102779556e-08,0.131376083967038,0
2.83260646345364e-08,0.132993025134458,0
3.38619091785412e-08,0.137111958104414,0
3.81166111019387e-08,0.139195199764192,0
3.51836491129917e-08,0.140351044291318,0
2.88542175869211e-08,0.126223552063676,0
6.90785274476794e-08,0.165765224708716,0
6.3742049330254e-08,0.163956248495573,0
6.44169473501924e-08,0.158045314779031,0
6.87704274512211e-08,0.165470882190348,0
7.49990121467259e-08,0.178823063609527,0
8.62738170947592e-08,0.189264990991996,0
7.99825263571724e-08,0.176006677371582,0
7.56020244771845e-08,0.179277465808962,0
7.58523314822804e-08,0.172120476240754,0
8.20024366570763e-08,0.174253023823967,0
1.16662975159212e-08,0.108252380840861,0
4.23349823081719e-09,0.097823815661614,0
2.62032388511323e-08,0.130165766437228,0
3.74515391834401e-08,0.138489716150018,0
3.80907529402554e-08,0.136319072296693,0
3.436032524499e-08,0.134690218952844,0
1.0209746055534e-07,0.195702701524204,0
1.38749723961144e-07,0.191141499940867,0
2.59039823459695e-07,0.212572438977658,0
1.95456155369752e-06,0.475210777996592,0
1.61633929419038e-05,0.809206377828877,0
2.78694318665162e-05,0.898399134119824,0
6.9844912290108e-05,0.54938540940491,0
0.000190636003715884,0.845276932224202,0
0.000250619442023291,0.707098563408962,0
0.000239650028299988,0.646006436898301,0
0.000225525374666291,0.490070341697185,0
0.000425319213386099,0.293680378637676,0
0.000460702506513036,0.160270360275639,0
0.000374465599358263,0.135585606020543,0
0.000349729842212462,0.12193498257127,0
0.000406241966085242,0.130286203396276,0
0.000509975165464625,0.157181002105681,0
0.000586321638012774,0.168437137949273,0
0.000633725598988024,0.179874887515751,1
0.000672268498951702,0.186483517172315,1
0.000670008603578392,0.190026869449497,1
0.000411039681258672,0.252121608250535,1
0.000394114596472103,0.426289169770008,1
0.0006256599903663,0.421891788320835,1
0.000645929768892854,0.299229471836119,1
0.000632917031726442,0.292579936939136,1
0.000611838386242212,0.299924079237036,1
0.000576157359009382,0.299419136631106,1
0.000549507976365644,0.302058488752769,1
0.000538982345972658,0.28794366109917,1
0.000535380725538187,0.266627321819667,1
0.000531352737503874,0.251812672672745,1
0.000399835299462494,0.279314814364096,1
0.000143910351064225,0.0869709778452336,1
0.000635300226572107,0.152689960159353,1
0.000756603096140091,0.116156318812571,1
0.000752040534701138,0.113625915194354,1
0.000723223040228986,0.103652817808442,1
0.000673566436965486,0.0896100282678361,1
0.000666887108827576,0.0896196331328974,1
0.000723732079862581,0.0998016226877221,1
0.000748345274105763,0.109560608928487,1
0.000732156690272038,0.108106967759137,1
0.000746376426434898,0.163553409766368,1
0.00038439763716122,0.248359108945257,1
0.00023412125531675,0.564506554497449,1
0.000127663779785761,0.557365268595295,1
1.78633291775042e-05,0.222023121500991,1
3.39878602760864e-05,0.45013212409685,1
6.50864979022948e-05,0.566427575433364,1
0.000216652720018636,0.469283709243031,1
0.000603745117662098,0.617106508867442,1
0.00068919612805209,0.271385414231742,1
0.000717266303421586,0.205795786993074,1
0.000754457300939536,0.197773261250581,1
0.000734044640554784,0.190468059691601,1
0.000887363100012419,0.154502239462528,1
0.00151892038030674,0.195528803029356,1
0.00241632589627107,0.246864663140335,1
0.0027740836814605,0.227192556198655,1
0.00255258434046866,0.134660235566644,1
0.00269379882238196,0.130775073813522,1
0.00254125209355381,0.142102834100671,1
0.00237570989938905,0.151362802888373,1
0.00226364102422214,0.111299221787435,1
0.00221808788056301,0.101357138174792,1
0.00225507599636659,0.0856377881182072,1
0.00227396127513163,0.0568164937555282,1
0.00208403247002906,0.0431226804455826,1
0.00154756443723606,0.0327033079726888,1
0.0015064520454908,0.037961170386885,1
0.00139589769591207,0.0336841104969738,1
0.00144690540583637,0.0323341774667915,1
0.00127932582203016,0.0268740239976579,1
0.0014292475357855,0.0348927291374214,1
0.00129924715148476,0.0273343005172445,1
0.00129122788909267,0.0327938102863972,1
0.00115581335289412,0.0434516138218658,1
0.000808815035522435,0.0422704662053508,1
0.000900043052076193,0.0498717098169005,1
0.000857684261512106,0.0450701803700159,1
0.000840770143171908,0.0533721109796051,1
0.000602428924820493,0.0413944191132384,1
0.000660086597449261,0.0497438151582304,1
0.000604007422854216,0.0487440882536886,1
0.000532597842768161,0.062360539965333,1
0.000521678181052973,0.0596709150052718,1
0.000541261069966398,0.0678588630711126,1
0.000496132713197679,0.0774284561028532,1
0.000455047787862466,0.071676338308158,1
0.000546951612126292,0.0850229001924078,1
0.000627723311348039,0.0883713281973693,1
0.00110297587962752,0.145582911864032,1
0.00158041109085867,0.201635696855256,1
0.00184577896566506,0.229438129347222,1
0.00191311031647227,0.189097751656157,1
0.00190292163706106,0.109864250970793,1
0.00387320265750382,0.0850033468660452,1
0.00802534729189711,0.0757409155058237,1
0.00821383536620906,0.054253848093715,1
0.00837139728226345,0.0537591465293865,1
0.00865440467791059,0.0553790928982252,1
0.00857666592488008,0.0553336194708389,1
0.00849511212732821,0.0547765792526249,1
0.0078430945393661,0.0505599639613064,1
0.00782502570050925,0.0506853703806237,1
0.00828883069498994,0.0653252689732021,1
0.00642933878287697,0.0809223903737986,1
0.00111669807683278,0.0467673343346624,1
0.00031751174774973,0.0520469921410123,1
0.000290108323010589,0.055995539213861,1
0.000291805229316094,0.0546560766368006,1
0.000381748760693975,0.0598850350696725,1
0.00052737777744818,0.067669332727713,1
0.000519178100722668,0.0636607428851045,1
0.000581041586541448,0.0838043855306576,1
0.000571333144909023,0.0799699280632735,1
0.00061479656304178,0.111931049005367,1
0.000579670784365345,0.122135723140872,1
0.000646264594850902,0.108327392311565,1
0.000801840189452377,0.101043020964126,1
0.000793590365476749,0.0981193728402813,1
0.000724882824557579,0.114400346528693,1
0.000498665200139824,0.111855583081843,1
0.000481362543268129,0.156265947645514,1
0.000429258469914339,0.127619481937231,1
0.000474131607661569,0.135633705816002,1
0.000482441779544225,0.135096803710242,1
0.00049380701113012,0.150905555884578,1
0.00045688706752542,0.292086735110736,1
0.000233317666397745,0.425650590377207,1
0.000208212721546452,0.52971893239641,1
0.000160892867474346,0.459701806854489,1
0.000108038766892628,0.370486667669417,1
7.2818605408885e-05,0.269869603965364,1
8.85737981781834e-05,0.478266730065593,1
9.8325117814312e-05,0.460476074163349,1
0.000103180495136806,0.41216031694534,1
0.000121373623704309,0.44671091235815,1
0.000239664805592937,0.213492459398921,1
0.000620968187249438,0.203961263642625,1
0.000675197845323192,0.163146763424525,1
0.000974788496503635,0.16670546178794,1
0.00109354551938095,0.149068260390038,1
0.0011578694347542,0.143679082869113,1
0.000929600830808825,0.105176177546621,1
0.000810295460789178,0.081416651648588,1
0.000675559740639217,0.0536697000748255,1
0.000483293084141112,0.0379337595821642,1
0.000521209605305107,0.0380679644542316,1
0.000569029830191394,0.0434641231102352,1
0.000571776321865447,0.043549268484402,1
0.000633030583318297,0.032473308820646,1
0.000852002499361722,0.0386591864741604,1
0.000909034787178544,0.0408534179162919,1
0.00111987126127306,0.0454356356240659,1
0.00107197268331247,0.0462367733307654,1
0.00103312103017517,0.0482398930569991,1
0.00102298267087589,0.0507708312942249,1
0.000906768996790824,0.0541145621554831,1
0.00092513372684238,0.0550968038463644,1
0.000692314751641924,0.0517269167337436,1
0.000641192563627835,0.0707519701989491,1
0.000642133061686852,0.0789764994033893,1
0.00081492335390795,0.103735542316852,1
0.000921164409037566,0.129509187319456,1
0.000939914848867021,0.154584355075163,1
0.000913225891470444,0.147501752930462,1
0.000734182623842834,0.106999746793805,1
0.000873471449748473,0.131951847098507,1
0.00105452400850473,0.14219958825114,1
0.00105547030150707,0.157758305300911,1
0.00100492586162373,0.161340389429771,1
0.00101139224418003,0.137333879118768,1
0.000885315045689339,0.0954713939167778,1
0.000997855836832148,0.0972340125370591,1
0.000848619295707996,0.0880503594066841,1
0.000601653178030626,0.0792652058733304,1
0.00059317726826066,0.0963678046994085,1
0.000707562790354778,0.0828145934079811,1
0.000977669266379041,0.104257083583745,1
0.000839109856807106,0.0942272808425914,1
0.00074719591036589,0.0847571423160973,1
0.00078783464588097,0.0947381327159143,1
0.000750402083355935,0.145788154307052,1
0.000786160585907766,0.0732406563511354,1
0.00129151684693849,0.0814744455429815,1
0.00140572526803473,0.0769351129458048,1
0.00176807863139827,0.0862265438862352,1
0.00217443320874332,0.0906811512756214,1
0.00214743196439674,0.0868178899322053,1
0.00221407515983381,0.0887427998413649,1
0.0021197119597356,0.074303904473355,1
0.0016378502340944,0.0625220062434583,1
0.00122551845734429,0.0352201537031815,1
0.0017769545540004,0.0573553957353776,1
0.00270177754602894,0.0719446843943475,1
0.00665760712177619,0.0899914209865989,1
0.00768666906391812,0.031121982869599,1
0.00803400514745013,0.0268144765226164,1
0.0109945219465804,0.0239444311626092,1
0.0182684488859262,0.0359347523874487,1
0.0195049078273996,0.0391696798499394,1
0.0187929031154371,0.0376126257956897,1
0.0162342757753336,0.0251472747286909,1
0.0167711912489646,0.0245903053896709,1
0.0178737864104738,0.0259251173427634,1
0.0179198919493704,0.0244562755482129,1
0.0162915427399311,0.0298311818708918,1
0.0145446078137983,0.0239954824860207,1
0.0141761026830974,0.0285621374759719,1
0.015239476485049,0.0301727336291878,1
0.0191014192156153,0.0359560218998559,1
0.0243332931260502,0.0440773461785795,1
0.032949715425162,0.0718534699370241,1
0.0271522745605471,0.0534667516112375,1
0.0267623888197314,0.0349933397391859,1
0.0225511462604241,0.0194779579753505,1
0.0190699367796465,0.0183341088420546,1
0.0200431446018935,0.0193288163766454,1
0.0167454724491971,0.0171510520248335,1
0.0196168350639688,0.0165187231417516,1
0.0204406350369684,0.0134058218256727,1
0.0210224057150651,0.0119936211124998,1
0.0228235490785126,0.0117077117519944,1
0.0239702212578507,0.0110312504799808,1
0.0189375872144552,0.0105147519697586,1
0.0176695425973974,0.0154558858188456,1
0.0158778502155632,0.0139173163899675,1
0.0143419012904135,0.0142332880443154,1
0.028410316863783,0.0183281534170299,1
0.0433882307843713,0.0272183678380734,1
0.0697925464801831,0.0417236944448677,1
0.0677072155328683,0.0322324153537494,1
0.0675397761028842,0.0334716034295003,1
0.0574077573158661,0.0345587696926603,1
0.0432423959928916,0.0274045538523364,1
0.0420171756782122,0.0242032899639534,1
0.0566865823630587,0.031699533755211,1
0.0689509607390447,0.0361049307383867,1
0.0666187034603251,0.0296182754445251,1
0.0691813552389131,0.0268889436027739,1
0.0448513981273109,0.0169509140802746,1
0.0432659818555588,0.0198309833464315,1
0.047438636731928,0.0189297940834658,1
0.0500735922270457,0.018195955444728,1
0.0513800655422719,0.0166341816548087,1
0.054942936319444,0.0190060831595584,1
0.0441080823030176,0.0142391904896911,1
0.0326836247325076,0.0100322590486892,1
0.0495087456833189,0.0152571490862793,1
0.0501043958428286,0.00977613926348182,1
0.0547003743819653,0.0101279663004865,1
0.063242942029633,0.0125639693827066,1
0.0853450018945055,0.0168854230943881,1
0.0755877929310819,0.0101245682045657,1
0.0658982786979106,0.00825841130473381,1
0.0769918484074208,0.0095886773975255,1
0.0791505242745816,0.00845824409602554,1
0.0794805072620532,0.00793974991941819,1
0.0720764339432258,0.00760275111206573,1
0.0672668517095131,0.00987356050829077,1
0.069250063796058,0.011012739021795,1
0.0694171254279566,0.00880610992539626,1
0.0609457009697225,0.00774914787922618,1
0.0586689536902235,0.0102155027704974,1
0.0594265561969431,0.00932360095702975,1
0.051096234586801,0.00842312160469994,1
0.080872570707165,0.014403147079054,1
0.111198522640445,0.0205891795219676,1
0.110624711948396,0.0213558747799487,1
0.136539704059362,0.0259326558707614,1
0.133086747367653,0.0285853309685743,1
0.106576189583937,0.0258458590591435,1
0.111031882181112,0.0276639625982793,1
0.0793885317430624,0.0250671009099537,1
0.0519935492882551,0.0194712838071597,1
0.0194446577321008,0.00520718048856117,1
0.0244722484818705,0.0191492206394158,1
0.0250927097136542,0.0182438345709365,1
0.0373971049853681,0.0219527948466113,1
0.0397014671798904,0.0242130696788709,1
0.0379681993353256,0.0229262840899054,1
0.0498625089016308,0.0278431238032762,1
0.0465680876966243,0.0211828296498745,1
0.0345833084178029,0.0167948177790098,1
0.0330904296593459,0.0171722884711694,1
0.0278390732376318,0.0140058416403595,1
0.0346888117033783,0.013641883465255,1
0.0355805796410331,0.0146231303120501,1
0.0396762222940296,0.0121665729652885,1
0.0476632658976189,0.0140427764750816,1
0.04722671891179,0.0140040243786316,1
0.0423501118959463,0.013574313027355,1
0.0370171169928815,0.01110895723115,1
0.040741308210506,0.0131527431612715,1
0.0503961928351566,0.0163490314546907,1
0.0545939637284541,0.0192282970200105,1
0.0544290136674447,0.0257166619400498,1
0.0493404295370174,0.0248283649679975,1
0.0470169255435259,0.0365170726067453,1
0.0386298336558467,0.0321603858726616,1
0.0379368260992786,0.0358848929005313,1
0.0337848629167775,0.0315007845153704,1
0.0292804832628099,0.0229837723734181,1
0.0347837952600396,0.0255401647903543,1
0.0326534961698936,0.0178227161899121,1
0.0272416388477703,0.0145090946731263,1
0.0407630721718757,0.0137670399704104,1
0.0637575596205033,0.0166390531831851,1
0.0569131090969755,0.0149054217594088,1
0.0539527394793986,0.0144246345863118,1
0.0535789321688458,0.0134542581524779,1
0.0586508174737891,0.0162712876508512,1
0.0601920419552273,0.0172928695526078,1
0.053607321004685,0.0144205824303358,1
0.0549423431994119,0.0105592482859535,1
0.0959791193839668,0.0150802657035922,1
0.0938985506205133,0.0162113755579082,1
0.093852804920821,0.0145976715243205,1
0.0991390367887361,0.0150158358060318,1
0.0917384361863729,0.0136618423265013,1
0.0888985470709893,0.0134850967981466,1
0.0788195770753067,0.0112956838961749,1
0.0699651906982267,0.00984072504240066,1
0.0684378464694212,0.00980873679468832,1
0.0666215796823964,0.0136813452092908,1
0.0397692377172225,0.008550967596073,1
0.0477756645361036,0.00966748071069784,1
0.038521470163194,0.0104403738332179,1
0.0452019639353173,0.0133639730092833,1
0.0456179816607509,0.0129352746665603,1
0.0523656001428367,0.014498455207036,1
0.0596948391566984,0.0164036345636821,1
0.0785926550228484,0.0232433725734783,1
0.0879906639129842,0.024570238152332,1
0.085505668304733,0.0213098371381723,1
0.0458621091024078,0.0141633327653517,1
0.0423211451352358,0.0202534214857338,1
0.0394695864989872,0.0190339884909184,1
0.037682061960089,0.0203208572812683,1
0.0225454631374879,0.0145938010557934,1
0.0213199188439614,0.0140699349539899,1
0.0230698484627553,0.0115420086934086,1
0.0239392487086289,0.01286737941417,1
0.0126045046380056,0.00475428477565534,1
0.0173944617067791,0.0117134398310704,1
0.0568004960270992,0.0233387701138848,1
0.10940458187542,0.0262809390940537,1
0.111596869575539,0.0243721341738312,1
0.144828885643529,0.0274740280191195,1
0.138706085948962,0.0173726209908341,1
0.120307196676256,0.0150083745247727,1
0.103101753950247,0.013634421912179,1
0.0956024954505268,0.0132193431957177,1
0.0807223647511875,0.0108402213963055,1
0.0758157343381319,0.00960050009896988,1
0.0702021411543577,0.0127049946558194,1
0.0490929486893594,0.00918007210044075,1
0.0567769872914416,0.0124009647534043,1
0.0333014197241977,0.00854486690665077,1
0.0328272868348764,0.0160150371484032,1
0.0692407423990018,0.0241847821288279,1
0.0705846889994789,0.0160814092056012,1
0.082463505693334,0.0148748605914348,1
0.0678680365454244,0.00703477177615147,1
0.0711997325377016,0.00816626385735534,1
0.0671032689506484,0.00765098759299754,1
0.0697544767363528,0.00915691952850667,1
0.0712806862408873,0.00970741046724752,1
0.0815493374130558,0.0100893237369994,1
0.0983087583707356,0.0160379287873563,1
0.0708285304127611,0.0133550840401834,1
0.0695529563921362,0.0135477054989445,1
0.050450056734705,0.0125050887870966,1
0.0430087815378917,0.0182746075694655,1
0.0491557605430394,0.018580557286603,1
0.0555156587354625,0.0199864329843199,1
0.0562304964186179,0.0145869349119264,1
0.100796427415795,0.0160409202305751,1
0.122650991767682,0.014400755029233,1
0.115467254189637,0.0131535888354686,1
0.11977524843964,0.0131275621373388,1
0.131080574813338,0.0180939816365724,1
0.118787669972223,0.0169173980590614,1
0.122984041769602,0.012855713489705,1
0.13038561029894,0.016181633741784,1
0.12281725568861,0.0160153941906858,1
0.12225471710308,0.0178902609808501,1
0.0921762188638023,0.011253034141333,1
0.145621775264977,0.0255379614437722,1
0.159366922845434,0.0208982722893525,1
0.138217734274153,0.0193512099652624,1
0.141332717862284,0.0184910957459509,1
0.131235515316103,0.00860660040218921,1
0.112777079600652,0.00757144151915889,1
0.116882292464013,0.00747810924466599,1
0.120467502355948,0.00735790819398562,1
0.117876320875048,0.00712072665792806,1
0.123960001349538,0.0106250627157236,1
0.108138061387025,0.00933224960750805,1
0.118258731840249,0.0124890838961943,1
0.149425798708912,0.0159201109905645,1
0.126663561398981,0.0160173841438263,1
0.134383814509969,0.0364502433917979,1
0.131639802729943,0.0614832318612122,1
0.11350658483782,0.0612799697083009,1
0.0957220916026856,0.0543820947444493,1
0.0499608851948158,0.0412642811607225,1
0.0320193808957786,0.0360528924629254,1
0.0533622001997676,0.0316281244582337,1
0.0753933422786038,0.0243694006464733,1
0.0742905801694332,0.0286229288957411,1
0.065200220900663,0.0249724645281907,1
0.0618799302733901,0.0230353769546478,1
0.0498656319920888,0.011475790223275,1
0.0402258046751869,0.0084061125241403,1
0.0365412057262032,0.00840380759239655,1
0.0381486526999675,0.00880076500575759,1
0.0353861607201396,0.00798523059763482,1
0.0406556398762305,0.00704570115604366,1
0.100734328655354,0.0254024142436049,1
0.133000576388855,0.0317311373244211,1
0.154490251942348,0.0235684971416154,1
0.165840059572318,0.0225870354893221,1
0.167561276197746,0.0267091537846025,1
0.155107767712178,0.0248252967889447,1
0.146988432979869,0.0237947825910212,1
0.132518006894428,0.0214958038942374,1
0.129415461295526,0.0206341285810055,1
0.127206675410512,0.0253540693263437,1
0.127696653430779,0.0228720366379361,1
0.133330215752,0.0198247419173559,1
0.120121692547307,0.0306507661580495,1
0.105596400721588,0.0363001733379372,1
0.0941394892891372,0.0280639080113816,1
0.0858784648307353,0.0215930762824608,1
0.0898052909905349,0.0216300857824935,1
0.0991959336984747,0.01980835096594,1
0.127501634003728,0.0238277098666282,1
0.124453791384267,0.0186316615973706,1
0.129303465305855,0.0225242881662071,1
0.125369166939449,0.0205563863462125,1
0.125712764604596,0.0197302856554339,1
0.146978676192266,0.017338628358641,1
0.160206506239653,0.0199832750145245,1
0.172009687656599,0.0252524580418466,1
0.190053761329194,0.0257963006475701,1
0.171515143388941,0.0308799812618776,1
0.0854983810682803,0.0184568139365211,1
0.0502888560559405,0.0154963497327398,1
0.0562277023466335,0.0189592550872951,1
0.0493088143795086,0.0213378035577037,1
0.0228660725357897,0.00845275060668928,1
0.0189943762457533,0.0208619634267273,1
0.0192863971525658,0.0159111886647306,1
0.0243862815720645,0.0160998964262394,1
0.0240130934518718,0.018680883662703,1
0.0245439562516833,0.0183557017028714,1
0.0317095237659945,0.0227756776331145,1
0.0353237313795222,0.0257959605379722,1
0.0365725176367754,0.0117605604602603,1
0.0934637600644095,0.0212220102102086,1
0.153732231764128,0.0316618248545091,1
0.208876835854477,0.0316686510459517,1
0.208782208658192,0.0320977947013179,1
0.233083137645727,0.034740796531602,1
0.224869197809701,0.0316018366725295,1
0.233707687039556,0.0297220291507964,1
0.169344903423476,0.0199703831516043,1
0.107003081564412,0.0106155040479663,1
0.0623183692621221,0.00580214347630252,1
0.0608142672256294,0.00754437462028724,1
0.0601861644652816,0.00740035168909291,1
0.0581655644662752,0.00984090211773144,1
0.0538193697108214,0.00904953883777511,1
0.0597841507054251,0.0109736381028277,1
0.0550124783721527,0.0127577820809698,1
0.0591229490931836,0.0103999792396361,1
0.107740470737998,0.0090775606212858,1
0.158759923967361,0.0118953709106202,1
0.157347938009137,0.010275709970513,1
0.187524769727336,0.0112848305791216,1
0.231857180455669,0.0142105364051038,1
0.274886509367081,0.0160225225774186,1
0.346686494690496,0.0199390527259368,1
0.381021484243778,0.0226612500443365,1
0.397255833491457,0.0235767444499664,1
0.350118167117403,0.0272989656173387,1
0.115146980890549,0.0154809426278938,1
0.10412337833572,0.0267399300881391,1
0.0534784240574432,0.0209099155081999,1
0.0271798203980774,0.0261251223645456,1
0.0195991190533929,0.0220939129422406,1
0.0116392234724455,0.0237312629378575,1
0.0169416296804846,0.0274746631194926,1
0.03940734711708,0.0424330196842275,1
0.045370304896145,0.0565447784710334,1
0.0457155785189964,0.0556325615420766,1
0.0435194550374039,0.0511631633218533,1
0.044754243688507,0.0486653185901094,1
0.0446092496374015,0.0455203580715998,1
0.0418213308093805,0.0430005602512919,1
0.0293151845687726,0.0225691888862049,1
0.0179227683697738,0.0149303945091522,1
0.0380134381673407,0.00638890363501553,1
0.0865868290260287,0.0111664770508153,1
0.0816227781525178,0.0108389879747565,1
0.103937198971172,0.0133351420674011,1
0.159581376037639,0.0196968108261677,1
0.158788091179102,0.0132320967461334,1
0.155202955861588,0.0100589730256644,1
0.171877634493172,0.00956362835790209,1
0.162128026914551,0.00824793075172596,1
0.120674668260242,0.00456931400162348,1
0.121612240235154,0.00764132522344788,1
0.141842789849885,0.0113309328696388,1
0.146545370458092,0.0112756403510193,1
0.159660671681106,0.0131182443003315,1
0.11956271077674,0.00660680320304501,1
0.142989559008578,0.00909970558792085,1
0.190529923411636,0.0160279668802254,1
0.19258334665345,0.0194117877555832,1
0.232909329053798,0.0264062408935645,1
0.24586782856899,0.0254366889573474,1
0.265612693404381,0.0235463397018291,1
0.305487382438739,0.0261107394544251,1
0.271681310302975,0.0138705541247984,1
0.235864284795384,0.0103998786030414,1
0.218130890712261,0.0112932970471808,1
0.225481107322178,0.0162264911951625,1
0.233470639037518,0.0159876869919373,1
0.266997840880259,0.0183005941750264,1
0.251077673361484,0.0136085740762191,1
0.25408848304519,0.011208406289053,1
0.262236423764103,0.0191299254817604,1
0.108854113969363,0.00570839341576959,1
0.0695483512662238,0.00578602335230883,1
0.0674828854072498,0.00717596974192169,1
0.0643631389463964,0.00766856222169687,1
0.0701656394507447,0.00921175573110099,1
0.0706550404651404,0.00954566779435467,1
0.0673245094917805,0.00861617396329341,1
0.0583048183673719,0.011898204916888,1
0.0482461433257221,0.0271315494234117,1
0.0351401944836602,0.0235578331647043,1
0.0321577064979212,0.0211697129593459,1
0.0279010725964541,0.0145413786615081,1
0.0840501282015253,0.0291370939727123,1
0.11978229846379,0.012496434921364,1
0.134556794557397,0.0138827781656548,1
0.13560728763676,0.0140682175849262,1
0.141518274591647,0.0134677243242904,1
0.144838075424094,0.0097053604818521,1
0.154429994719764,0.0100913556627283,1
0.157943440507812,0.00964291165289163,1
0.157393281114836,0.00872575661460764,1
0.175694598376921,0.0104034357185776,1
0.131500148903156,0.00643521585629875,1
0.100048727233782,0.00765011937817065,1
0.120455291272476,0.0105043271187279,1
0.134262018343216,0.0125294164477424,1
0.173964198610011,0.0173643511880152,1
0.1921419208853,0.0271531579048567,1
0.178825027532193,0.0272753213381401,1
0.217103117888561,0.0327842106219848,1
0.230684471018951,0.0391298603573822,1
0.10748884017139,0.0264536805356275,1
0.0492251210595584,0.0254634515936926,1
0.0358921741498002,0.0185946852877907,1
0.0363979905406568,0.01831677905284,1
0.077581774573877,0.0253185496228554,1
0.0995969432548121,0.0280115642746601,1
0.109231619993481,0.0309086877655933,1
0.158065551221648,0.0413120799411698,1
0.173562078596771,0.0380628780832543,1
0.288517196824001,0.0456422363120361,1
0.325425949212458,0.0373487977526781,1
0.261084950349907,0.024944735091398,1
0.221813278136408,0.0206679604893685,1
0.177397414446719,0.01593145657227,1
0.172949507860974,0.0169023128025283,1
0.155288223407287,0.01641208059643,1
0.123827277825681,0.0122440088744607,1
0.125401994277025,0.0142708738667941,1
0.149950935712192,0.0209593194770223,1
0.0876759202838992,0.0100676287277232,1
0.0484649917005194,0.00469853306414487,1
0.0460350019256015,0.00756043875224616,1
0.0445276692638654,0.00834121622396734,1
0.0466999850708333,0.00428994202012925,1
0.0780843321729702,0.0104700806767664,1
0.0792723662128663,0.0104776239139398,1
0.071034153548795,0.00720362380973397,1
0.105804413121249,0.0117476019260362,1
0.12816319149073,0.0161788426981218,1
0.131649509577549,0.0140268518547761,1
0.130851785170796,0.0142765904477299,1
0.129526164604278,0.0140988408823641,1
0.126987116706324,0.0127717822965841,1
0.13385900138443,0.0152735320730002,1
0.123604464817285,0.0111847851029273,1
0.1372985964251,0.01234606282831,1
0.134247898292335,0.012917096631311,1
0.193849167624527,0.00745601947538512,1
0.466321034603882,0.018837613067175,1
0.463158916040425,0.0101836869148983,1
0.456816513730891,0.0104173943969056,1
0.4294313545798,0.00915596080261458,1
0.449468261864568,0.00983595542281216,1
0.376638194764362,0.00787871392341151,1
0.392097585988292,0.00924898327356846,1
0.420703977609919,0.0094911588095636,1
0.436252899353884,0.00980015835739163,1
0.480100765209382,0.0154849212029735,1
0.29585915728594,0.00759456111644936,1
0.335188702442687,0.0139837198417194,1
0.30223525165842,0.0116213675715622,1
0.285652931070267,0.0113674530435152,1
0.214125432682833,0.00731335226759949,1
0.206980085604892,0.00595654611410054,1
0.212602322363274,0.00552699965733205,1
0.239817105877969,0.00462797194003109,1
0.272358059401138,0.00381286109660845,1
0.240026441634346,0.00322453251173119,1
0.299777236838253,0.00596228667019781,1
0.29103177132107,0.00467465150087141,1
0.294785385879552,0.00581210482079739,1
0.31508936281323,0.00669598593503705,1
0.323075644697307,0.00756473683340897,1
0.292819665090728,0.00636342777224004,1
0.291632480339914,0.00768273875881382,1
0.248999498880339,0.0080031377307476,1
0.229070723733958,0.0116991753976504,1
0.247983186348644,0.0120582946271732,1
0.201765208229611,0.0106079942052458,1
0.148620179599565,0.0106546099383287,1
0.174360739026569,0.0100104603395846,1
0.15714421685299,0.00891841537955871,1
0.151924576696136,0.00791745206493243,1
0.146211353644331,0.00886800777299176,1
0.166859794698826,0.0100217674777108,1
0.214983094457442,0.0189344946819252,1
0.286526372027425,0.0274797348082307,1
0.264172326570366,0.0326854030751103,1
0.238687454141595,0.0361543950966844,1
0.237808883343027,0.0372874870218934,1
0.223102513952029,0.0515666016428997,1
0.145907559423802,0.0449810892724865,1
0.138856708966963,0.035219806525107,1
0.101050829352473,0.0245915390006155,1
0.0973210660145361,0.0245925184343048,1
0.110793875933524,0.0313697261251355,1
0.113780217457408,0.0338941435266894,1
0.156451194734398,0.028705934363917,1
0.218793366890229,0.037742765533815,1
0.182874714965217,0.0304459609206231,1
0.143078945393281,0.024942040021384,1
0.129116299670811,0.017331618427029,1
0.173910647521299,0.0274072527236566,1
0.205141147302383,0.037031798944289,1
0.216241886734379,0.0381330768795605,1
0.256518825511469,0.0418785368991873,1
0.265802849533238,0.0423522317226033,1
0.228268155195597,0.0667797516685854,1
0.119700940123945,0.040562412777539,1
0.0885812572607384,0.0302314768297638,1
0.0608773420442725,0.0159028524630731,1
0.0613051059631236,0.0191229853682794,1
0.0606008915368162,0.0154963838604795,1
0.0564367620014546,0.0117324735692206,1
0.0697298823572837,0.0157126311168306,1
0.0646658912091969,0.0114104695727775,1
0.0617189776028401,0.0089276180892654,1
0.0624234511293497,0.00811248820813213,1
0.064761635148892,0.0084878666591713,1
0.0547725389963244,0.00737246266330249,1
0.0507253289157288,0.00841813933677314,1
0.0527123220479669,0.0087998535725839,1
0.0488080240631987,0.00724623539511432,1
0.0529661928931716,0.00645444097253267,1
0.0642304142982267,0.00878403949739575,1
0.0625852241874441,0.00737820651192963,1
0.06434926828197,0.00696956179299485,1
0.0743337728286944,0.00840164549334552,1
0.104102769005785,0.0126865062527215,1
0.110488882449856,0.0101017507649286,1
0.187625698513276,0.0134282301358024,1
0.218359217186643,0.00743593153292278,1
0.211820506788144,0.00743738444758937,1
0.208710589218826,0.00822996236744809,1
0.218264361415975,0.0087755403418689,1
0.207904125067212,0.00906928293555965,1
0.222087114014334,0.0105894526316192,1
0.216043105233897,0.0109306644618576,1
0.179662555722178,0.00836066917617511,1
0.163669509366707,0.00559322669440417,1
0.134689944382398,0.00559594173340156,1
0.121353736859298,0.0139606711340459,1
0.0945559338635203,0.00859472089708262,1
0.191549847730677,0.0177839417746929,1
0.292861385252964,0.0249123324565601,1
0.258363205554466,0.0202583069981856,1
0.27353853259433,0.0191880757029175,1
0.278498812673875,0.0172140953926344,1
0.260253159628181,0.0166073771624927,1
0.241359028489434,0.0204804543760565,1
0.130707694356656,0.0121209900996251,1
0.0937538895657717,0.00846142820493843,1
0.190631505112539,0.0129263782996773,1
0.21861138245543,0.0104885046231108,1
0.223711844122187,0.0103164754855488,1
0.229592259262127,0.00896522287691724,1
0.32945537820563,0.0160046058924719,1
0.404616859212596,0.0201882070267629,1
0.465666100975124,0.0227210628403722,1
0.596485556526628,0.0279020244928849,1
