Activity,Complexity,Tag
4.57740731791391e-07,0.161866349223593,0
3.80894394434661e-07,0.164828636776428,0
4.12580687055362e-07,0.170710921952816,0
3.40729687971611e-07,0.167093481021807,0
3.47113539956384e-07,0.171441468433344,0
2.31654301347702e-07,0.156864988618528,0
1.42819795297091e-07,0.147276242679082,0
1.37641156063188e-07,0.147241057955132,0
1.40697958637662e-07,0.155668982455616,0
8.70964222801338e-08,0.151768352552392,0
1.46280479326076e-07,0.167864673628944,0
2.60718520768441e-07,0.189171252386866,0
3.60671022140281e-07,0.190023883211858,0
2.94856567957446e-07,0.171845043777953,0
2.36183109494663e-07,0.159496383160717,0
3.77764223834243e-07,0.190780000607034,0
5.6167023276441e-07,0.215334559407048,0
5.88075694972214e-07,0.215424344502612,0
6.13366106110382e-07,0.211505302455606,0
7.09137225523056e-07,0.20731396927371,0
9.22611382636579e-07,0.223426533922894,0
8.04757202038124e-07,0.218920582871847,0
6.1611978916208e-07,0.209562978362872,0
5.82703988254454e-07,0.212884495150073,0
6.75109587684782e-07,0.227282587736721,0
5.91321396392707e-07,0.204189153787323,0
3.51792061753691e-07,0.170908539359554,0
3.23248088335107e-07,0.174565549833164,0
3.94213906949991e-07,0.191510764765839,0
4.05644192797239e-07,0.212048320650764,0
1.53401584688444e-07,0.174603869944179,0
1.80352423829368e-07,0.1742158743833,0
2.23888724575613e-07,0.166700576330203,0
5.50543066439937e-07,0.225929054642295,0
1.09266893846177e-06,0.288989912745647,0
1.42721963322235e-06,0.336871885013881,0
1.80594014257658e-06,0.344485023672198,0
1.94427353072872e-06,0.324818890161527,0
1.88341332396018e-06,0.308355564001193,0
1.63426086752856e-06,0.282442570584528,0
1.52186712608184e-06,0.25913975905508,0
1.52618345280301e-06,0.253586040263344,0
1.51263323595934e-06,0.26091095492886,0
1.54439682703595e-06,0.25706797675177,0
1.38527301273956e-06,0.25181645464072,0
1.14369747244188e-06,0.232845404986296,0
2.2227458036325e-06,0.228869137744763,0
9.02145443261615e-06,0.421556307245277,0
9.62046803775501e-06,0.384442887682916,0
1.99322422504418e-05,0.306320783509187,0
4.97073873614404e-05,0.458108687948165,0
6.71254669620281e-05,0.518654932299822,0
0.000145235256394236,0.334703144665155,0
0.000239532852492936,0.276156379146648,0
0.00021550846178757,0.19763847492376,1
0.00021165330753996,0.156877494863717,1
0.000186067953126168,0.104120353462907,1
0.000171457931812818,0.0888671133289297,1
0.000234382719000088,0.0701247885392258,1
0.00050072529438228,0.0922521531763898,1
0.000560027024332626,0.0926788839304864,1
0.000613232968750639,0.0937794023332255,1
0.000635095128934136,0.100785288810572,1
0.000641047529284777,0.0997315810679187,1
0.000566965388879892,0.095318555167943,1
0.000605726779512809,0.108212789353065,1
0.000571647093253532,0.12195030530349,1
0.000540729758406846,0.128698273107252,1
0.000572456089960251,0.281971979143895,1
0.000434243848617086,0.333059159161984,1
0.000405164605901995,0.365629122473177,1
0.000288603616441353,0.293321118928844,1
0.00020163907271144,0.0998069725575295,1
0.000155471606847005,0.0651700094521974,1
0.000154067396546295,0.0661719963536515,1
0.000210379877770265,0.0602558270629174,1
0.000315686896779502,0.0624150509871951,1
0.000309662424253763,0.0567408524379735,1
0.000343363880711911,0.058269715952652,1
0.00038987717045886,0.0549255652149575,1
0.000751155880067685,0.0580874377476621,1
0.000645382454681424,0.0290218277045076,1
0.000653937504761782,0.0336841881510216,1
0.000712032651670448,0.0389803096470756,1
0.000668912057613222,0.035358370764619,1
0.00070859549209851,0.0354611934652927,1
0.000825962202192946,0.0413756146557004,1
0.0011048631969877,0.0311331499658607,1
0.00249878673340539,0.0383009672699446,1
0.00257834977073086,0.0319341173976148,1
0.00250435557333905,0.0314053249303077,1
0.00288604985362467,0.0424814854998417,1
0.00310298819940056,0.0355709116606059,1
0.00245264979816807,0.0263267628989538,1
0.00196328648543013,0.0230122953564618,1
0.00211000840337466,0.0261326539763223,1
0.00298935060264484,0.0328413318380509,1
0.00375072879783811,0.0570024035982429,1
0.00312983400268403,0.0658353571133109,1
0.00305353386217193,0.0673546837943912,1
0.00311875206107773,0.079000711140327,1
0.00438717120515228,0.0394489428406436,1
0.00704534551197927,0.0587764261994723,1
0.0116043556096797,0.0717383352926914,1
0.0122048757873315,0.0444322767575739,1
0.0123520605723604,0.0384646041612453,1
0.020949289883193,0.0295845986642578,1
0.027352425552946,0.0227245321474413,1
0.0276413848647233,0.0143329561825839,1
0.0439293626264266,0.019542835856053,1
0.0396538186954104,0.0156834495538908,1
0.0467500603627021,0.0104652051597278,1
0.0820021252231705,0.0199856740250442,1
0.100011190198403,0.0183764341622251,1
0.0843529653496472,0.0185787005827268,1
0.0611205254896682,0.0124057881277551,1
0.0529276286685272,0.0122466025035247,1
0.0463137266286053,0.01211194756849,1
0.034452089273738,0.0117148842254159,1
0.0355522000606565,0.0116695650138025,1
0.0306085251417188,0.0110453319344166,1
0.0326482009660296,0.0268331389594277,1
0.0242040120115759,0.0168274839060106,1
0.0148292175322538,0.0159702560823789,1
0.0153941059421141,0.0178448229132882,1
0.0147014856105355,0.0176715991096186,1
0.0158765831963476,0.0170156125067023,1
0.0162361818352131,0.0149522655933412,1
0.0185313575688239,0.0185042045790765,1
0.0186650331697451,0.0221860030854569,1
0.0215241887612198,0.0225209604136353,1
0.0212063727114642,0.0178384365582583,1
0.020972645625223,0.0184838937279156,1
0.0163732944794608,0.0142993670074535,1
0.0107420088518292,0.00708851779678723,1
0.0148343329517128,0.0114358101548021,1
0.0211480501608355,0.0183056126948301,1
0.0232381532791114,0.0205560820430014,1
0.0233293013010298,0.018837487583786,1
0.0239873203095702,0.018129180217285,1
0.0241938527023145,0.0190396377665588,1
0.0200680947272625,0.0227385060696737,1
0.0135866045970257,0.0200089365946878,1
0.0109760838263815,0.0109579980437219,1
0.0107614278107746,0.00929788259571863,1
0.011540340880915,0.0103702991022307,1
0.012635371408929,0.0105330048373076,1
0.0164916754424855,0.0124193227405179,1
0.0156954552711738,0.0114056989382958,1
0.0192212104523895,0.0119893050368187,1
0.0237737093945754,0.0148255501405125,1
0.0254791152939135,0.0138547009067034,1
0.0245872549150918,0.0128280289416423,1
0.0201203701385758,0.0149853813992292,1
0.00777978454557724,0.00800322700748636,1
0.00756475802477425,0.00832062362285784,1
0.00753421566545179,0.00921966567529663,1
0.00765507060843522,0.0121338196369908,1
0.00481722353094358,0.00545613808126269,1
0.00969501008741709,0.0205823423135558,1
0.0101267829925113,0.0115013429436651,1
0.00940426692153592,0.0125665265017903,1
0.00965790944648666,0.0125989744533077,1
0.0104481637631095,0.0112716720632639,1
0.0094799265615636,0.00970598748880509,1
0.010432995907544,0.0110651906122403,1
0.0109217896629863,0.0109722463834011,1
0.0112612026597794,0.0104807695437102,1
0.0124232314783095,0.0143007362799543,1
0.00760786932800967,0.00695333990512701,1
0.00701035496417907,0.0101776832227215,1
0.00702993942995704,0.0101719557818379,1
0.00622592245139142,0.00903406830514383,1
0.00598821623394584,0.0103050018706347,1
0.0066321711470561,0.0123965496022027,1
0.00590509613952067,0.0123718496660117,1
0.00576979593706131,0.0129599384155515,1
0.00622082384512074,0.0168041260149733,1
0.00690737091026766,0.0223485001728149,1
0.00625630288355019,0.0240331738970486,1
0.0040940026410942,0.0197642497890368,1
0.00397885432569832,0.0206991994080665,1
0.00356154987366637,0.0218150366915916,1
0.00338240398559442,0.0290347558903672,1
0.00332894637765164,0.0255547032976869,1
0.00407066039782822,0.0303774972327993,1
0.00427633811691002,0.0356307017663043,1
0.00369121102001365,0.0286544180003965,1
0.00332719477665611,0.0252220135942319,1
0.00376029643994435,0.036985387308232,1
0.00387145017278196,0.0364401520036068,1
0.00401621494015438,0.0364841984272728,1
0.00363287850943725,0.029082380183954,1
0.00393662609169536,0.0336877021166843,1
0.00458637676346803,0.0481510076075587,1
0.00330480340492151,0.0333397706731923,1
0.0024676908796209,0.0245825694725888,1
0.00252543286000837,0.0308622521916501,1
0.00244076636947746,0.0273255313560756,1
0.00239172741545155,0.0271729490479094,1
0.00231129658969069,0.0286307597155333,1
0.00168941104283809,0.0172721419054314,1
0.00278710025612618,0.0210965955503713,1
0.00288559282572995,0.0152116049413501,1
0.00553387060243358,0.021374506050621,1
0.00983846097910895,0.0321901197991975,1
0.0104787014453394,0.0339968498509783,1
0.00862220034476045,0.0257826271998656,1
0.00772353326245791,0.0251425866016496,1
0.00784751491607236,0.0244291103998748,1
0.00851598572170299,0.0259353692530472,1
0.00915829941982409,0.031856824699414,1
0.00916713841035825,0.0404821500508837,1
0.00974163621099453,0.0571380205291888,1
0.00874861316416002,0.0766573861193059,1
0.00453151903644483,0.053787085580451,1
0.00206299314900814,0.0308736758204301,1
0.00108925569353138,0.0248059474481572,1
0.000712623799770611,0.0192062126537702,1
0.000686165174448046,0.0202503678176094,1
0.000599112055977771,0.0160476495124032,1
0.000695801704366494,0.0124407790283775,1
0.00238828003056831,0.0246788150409044,1
0.0022104750794254,0.0200905951500557,1
0.00269044092385837,0.0196712845915776,1
0.00300905921665102,0.0160801017196659,1
0.003171626282924,0.0160746725025197,1
0.00383855708094593,0.0186182590037995,1
0.00397923770412449,0.0183813268261365,1
0.00380865598425399,0.0183530641345578,1
0.00441863965821832,0.0182233361602027,1
0.00506272104958714,0.0238152211778784,1
0.00354637511519384,0.0221308717803004,1
0.00353090052137054,0.0264612499693244,1
0.0025555699914063,0.0179869562472432,1
0.00209970425062298,0.0178993364647722,1
0.0022034333339699,0.0178425701391252,1
0.00241586203327862,0.0149199345870836,1
0.0027094544206018,0.0153983177422684,1
0.00267873872979446,0.0141925947955516,1
0.00252508400457331,0.0152111582023654,1
0.00433958500187979,0.0185001307382088,1
0.00530769448481875,0.0103218180333481,1
0.00568239277068735,0.010756566911309,1
0.00548377956985315,0.0115467116102822,1
0.00521569366381469,0.0121261062772493,1
0.00493406906328576,0.0114414033450823,1
0.00421653403537141,0.010903517491172,1
0.00429988339523023,0.0116030613517666,1
0.00443255653546387,0.0105583899287462,1
0.00444910698241702,0.00999559582149433,1
0.00287082793928272,0.00764775606237447,1
0.00188471254544948,0.0142629021469973,1
0.00148924427524554,0.0129022429935282,1
0.00158615071162025,0.0135299195476358,1
0.00157996114853022,0.013213776463753,1
0.00148851840153462,0.0122185725410296,1
0.00192008165094396,0.0169127285210511,1
0.00190752562075639,0.0172674375400618,1
0.00190740614723865,0.0229950125981224,1
0.00194535977663,0.0180195456780057,1
0.00229812488992685,0.014704991598894,1
0.0028956945605049,0.0145747180544632,1
0.00271311675903217,0.014358643662349,1
0.00235241115780282,0.0120507274545162,1
0.00224372248820757,0.0107409447331493,1
0.00213452930409654,0.0118000316950697,1
0.00198436164192551,0.010819838176039,1
0.00225738671765341,0.0121198121993829,1
0.00267418012851197,0.0162034479645143,1
0.00263438298549686,0.0225996573731144,1
0.00220618656573678,0.0283517570200432,1
0.00209714059778561,0.0243107871670868,1
0.00160369426519499,0.0122824799845189,1
0.00155088029648272,0.014006978783129,1
0.00233627419303444,0.0143730597748827,1
0.00330183884346393,0.0190145641643197,1
0.00374528358481473,0.0217340831062585,1
0.0105122640162436,0.0114935606457748,1
0.0632435462915275,0.0235052092647536,1
0.123072619053498,0.0350066690970539,1
0.152752953769488,0.035676143718871,1
0.235173083062415,0.0417164020346271,1
0.232106387953993,0.0374375190027009,1
0.227972410733363,0.0368069806566998,1
0.247414266301206,0.0359661698807648,1
0.267741029097881,0.0241484639305773,1
0.185171446316319,0.0142583264959812,1
0.117217879468778,0.00831268082493216,1
0.109768638889422,0.00600199890477626,1
0.11397639536676,0.00595100054047121,1
0.102916267857204,0.00560548595592738,1
0.101292128535723,0.00552793239039234,1
0.113958022614783,0.0062754607256593,1
0.115272724570217,0.00559010352376522,1
0.104317298407678,0.00545855656655651,1
0.0602921866836806,0.00202996108557124,1
0.0577027376882901,0.00224358886220633,1
0.053267639165948,0.00274418944408243,1
0.0455767243036505,0.00449151350649053,1
0.110862339323848,0.00873349247794027,1
0.162589174378865,0.00825108081472912,1
0.163654182247109,0.0085260723172184,1
0.14136356103635,0.00673751975628507,1
0.139679462967696,0.00809588448847304,1
0.148404459250868,0.00829256023089719,1
0.150796584389029,0.00937727153950097,1
0.14137941572681,0.00927380569265999,1
0.145784294722364,0.00930209489025202,1
0.151799562312624,0.0104655693089493,1
0.102086529715125,0.0131556230174161,1
0.0515680995824453,0.010447783941837,1
0.0508720459568132,0.0130074704156189,1
0.0228804256521105,0.00976053613711718,1
0.0270600542721987,0.0136033725633772,1
0.0344791788475283,0.0218016426640365,1
0.0820803035195205,0.0413749815634217,1
0.0857397017066018,0.040640947797752,1
0.0994113539757124,0.0425390683145928,1
0.122505863226568,0.0485817375896733,1
0.104227679421156,0.0374780854406233,1
0.0884344159792399,0.0316118550061226,1
0.072565120320763,0.0265956068719206,1
0.0434600887458627,0.0165067603921069,1
0.0246711265291643,0.00997580811116765,1
0.0135365790891196,0.00617276935874515,1
0.0130718720832742,0.00815673599950406,1
0.0121651417805994,0.00985513643254955,1
0.0105529652329471,0.0189187862339105,1
0.00576400875388244,0.0119831623895603,1
0.0060516105171854,0.014004559953897,1
0.0067668674477656,0.0129361158976627,1
0.0138997379773085,0.00775223978604838,1
0.0305262813245049,0.0108078087809804,1
0.0311518645761539,0.00912945437870302,1
0.0305937772537856,0.00962424648857793,1
0.0297828581913997,0.0101112539101982,1
0.0325397180023944,0.0109966378675761,1
0.0332827903935772,0.0113311956798416,1
0.0367647190044095,0.0122294734355041,1
0.0399723424947115,0.0130394525152723,1
0.0424367971082069,0.0125156855308086,1
0.0336457107306321,0.0239558976620768,1
0.00690217571320427,0.00819949314853581,1
0.00561556620839793,0.00748932373241816,1
0.0076666650604811,0.00616033262378019,1
0.0222202055868318,0.0184232804618293,1
0.0270986049826147,0.0165669740050427,1
0.0270947932620002,0.0153673654588343,1
0.0299255521606514,0.0148787656925539,1
0.026518271212159,0.0111653441572273,1
0.0214111327623341,0.00898241993641374,1
0.0220724173961209,0.0094994774560332,1
0.0322225915553891,0.0132577243828096,1
0.043550004874438,0.0162016177224859,1
0.0457275954637137,0.0197656517500654,1
0.0433461640519224,0.0195975971674149,1
0.0379216221344582,0.0167703340495769,1
0.0374175970901219,0.0179213717490557,1
0.0264608935807233,0.0140542663253698,1
0.0230301192953763,0.0131990525573525,1
0.0277190716566381,0.0100845614023986,1
0.0650245232943853,0.0234050567404921,1
0.141820854056438,0.0339859734519549,1
0.284287903981948,0.0576336083115278,1
0.380617540566913,0.051201388237312,1
0.369758676261503,0.053595474867099,1
0.317801929120983,0.0394892280759929,1
0.28458613938535,0.0305668174063432,1
0.230695958673904,0.0219782359218194,1
0.175988335092026,0.0176491082322099,1
0.139895347252194,0.0100672856103203,1
0.128979900083541,0.00834811808634556,1
0.126625189022498,0.00970507864240475,1
0.115304131141045,0.00635346794600025,1
0.109528799556769,0.00426236091824144,1
0.126657918904301,0.00447685989694825,1
0.168339825140251,0.00752725669210409,1
0.174827694014342,0.00754499752902283,1
0.17387831248372,0.00751564745850459,1
0.144667938176019,0.00412686343386461,1
0.134998370268647,0.00475241804251386,1
0.139679453184141,0.00506511190794693,1
0.137963309322397,0.00504644016693885,1
0.144145732833447,0.00804349149452795,1
0.150130668508656,0.00395613155311529,1
0.183250082127965,0.00369238368858512,1
0.171851713261825,0.00335722657388717,1
0.176951910113192,0.00404086280129009,1
0.166087691854221,0.00397711974950896,1
0.164568917428641,0.00459617312404563,1
0.180873425903323,0.00592436541773535,1
0.185674079234163,0.00627787054419404,1
0.184229614844369,0.00630898054821405,1
0.175319206149119,0.0061153204591393,1
0.135259060352517,0.0143004060368525,1
0.0542604723591994,0.0128863724442122,1
0.0639774374973906,0.0156604269137245,1
0.083631980950196,0.0187377088997241,1
0.0731112585780469,0.0177662281908845,1
0.087817292922461,0.0274092623675563,1
0.0977350516201041,0.0290849745532648,1
0.0966586247170465,0.0282883639003452,1
0.0739460567518465,0.023412202936188,1
0.0368992618111097,0.0132800415968304,1
0.0304886455301661,0.0129898782496562,1
0.0224183142811302,0.0101944767140503,1
0.0232266120174551,0.00890391437033484,1
0.0245896631824302,0.00733355064737296,1
0.0218213593114561,0.00964353286280894,1
0.0153790449227811,0.00825814865551213,1
0.0152915325365474,0.00969716899489069,1
0.0149171190462989,0.0101009654255283,1
0.017967852886841,0.00884244362108755,1
0.017726899407356,0.00428712475749595,1
0.0214575497860848,0.0078544736900246,1
0.0245014802186328,0.00857399045939681,1
0.0237348012094106,0.00983348620438377,1
0.0232586159073969,0.0104531143181521,1
0.0237892082775031,0.0104284991532849,1
0.0236222560844763,0.0117214720627865,1
0.0225176847240571,0.0109191219795419,1
0.0256904938387918,0.0112470907536047,1
0.0277063693041657,0.0159976404335677,1
0.0340463949219847,0.0286623555965012,1
0.032464321827067,0.0268842550859265,1
0.0351957895539657,0.0245239850851339,1
0.0285268888580004,0.0205350229868992,1
0.0217584888330444,0.012365723217122,1
0.0229503496694115,0.0137083550605525,1
0.0199542900015977,0.0114830523708196,1
0.0153735034333994,0.0090413093427495,1
0.0155951012555383,0.0103591523616463,1
0.0175894362497464,0.00854909054078036,1
0.0329059832889905,0.0175571809167133,1
0.0416389513981281,0.021012247298883,1
0.0424875349801024,0.0169274652446901,1
0.050521553938366,0.016260426470254,1
0.0686028869928783,0.0269614543283905,1
0.0581496890534881,0.0190702631889407,1
0.070845369105994,0.0163753597894553,1
0.0648547916850672,0.00956433272014672,1
0.0912211071677688,0.00569405326751173,1
0.143527465157212,0.0109345206818393,1
0.196667358679715,0.0151879197561294,1
0.199770803474068,0.0121233126896867,1
0.171987778035341,0.00898757126867849,1
0.184849822681833,0.0103071023904797,1
0.183195391347384,0.0060638143842502,1
0.196522927241388,0.00692615479880275,1
0.216080269313829,0.00843833594628886,1
0.179644176054905,0.00696711520053139,1
0.182232280554422,0.00988616447498601,1
0.244876506564725,0.0117209346027541,1
0.262586354720342,0.005680433291628,1
0.314623127744191,0.00794086646886478,1
0.335143876795838,0.0116217001477653,1
0.308517850688483,0.00595269933568428,1
0.327280760361878,0.00747409213685378,1
0.334518982679456,0.00627372077890061,1
0.346843041563036,0.00656394290364338,1
0.34777904619353,0.00753011222009035,1
0.310188622274064,0.00838096563818948,1
0.16279752682128,0.00292332204663747,1
0.14045630969587,0.00769273712831654,1
0.131019023116817,0.00663299594511509,1
0.135360600245094,0.00637859712518637,1
0.115254464717816,0.0123025470760442,1
0.0301001799297976,0.00281199568974245,1
0.0546629512415658,0.0127340814484121,1
0.0842024528204747,0.0200828047781029,1
0.106821157540319,0.0256851316507494,1
0.112190673381512,0.0254563800048779,1
0.136133664982426,0.0286733416248837,1
0.147428343742221,0.0286794856193317,1
0.134917264619506,0.0262403218544551,1
0.119013490053614,0.0222535278831862,1
0.0817559744851712,0.0217948155006472,1
0.0229095585368573,0.0207288943674499,1
0.0246695803923478,0.024160470685393,1
0.0244629449922052,0.0244745273372595,1
0.0258330311457503,0.0178296194111346,1
0.0365224003992958,0.0227105748478704,1
0.0293390518534701,0.0141122039957323,1
0.0220852348658845,0.0110134367214672,1
0.0179821033842222,0.0079331168928832,1
0.0228128172409514,0.00867943171967657,1
0.035634843392379,0.0132285034483355,1
0.0364086127806487,0.0108421291664033,1
0.0381719057047929,0.010851130625755,1
0.0448170361609443,0.00899879452246716,1
0.0505080037364103,0.0127071199380686,1
0.0680608836850023,0.0161431133437816,1
0.0660862332784393,0.0186339013171198,1
0.0482775970839795,0.00967445877678651,1
0.0497511956426994,0.0105818788722613,1
0.0581744532111406,0.0147437712577571,1
0.0579716201694473,0.0105504700515403,1
0.061460153767306,0.0104575076094834,1
0.0529798330204062,0.00648466411899816,1
0.0677742450172252,0.00898412402969561,1
0.0704584052853959,0.0066496753220339,1
0.0649987074460998,0.00486974218530774,1
0.0642191328280225,0.0049254633911121,1
0.0629489142273474,0.00519300396951332,1
0.0864603978651134,0.00685356947515542,1
0.0861625860283067,0.00714453293996666,1
0.0974122112615909,0.0103507242500387,1
0.118862080956326,0.015457058960628,1
0.101895077437887,0.0148239201867549,1
0.106228782176383,0.0190937620835551,1
0.0733435622959999,0.0157475473526996,1
0.06226945542489,0.0123116958003988,1
0.057301353114447,0.0114159263686261,1
0.0248294792755222,0.00483519017974043,1
0.0248145704189739,0.00850632775434701,1
0.0311297667527496,0.00855922721738617,1
0.0617276731601074,0.00917957068552073,1
0.0754362584189685,0.00198322174901859,1
0.0916995362249253,0.00329445591067335,1
0.0921074575584138,0.00377443013672697,1
0.0910397623745711,0.00393489395074517,1
0.127974254482205,0.00670200223739393,1
0.134451511500903,0.00457782316832998,1
0.146748722807979,0.00535555370926663,1
0.15633253477931,0.00430957276086946,1
0.170086562965123,0.0051743085878643,1
0.131420212753721,0.00359372982841865,1
0.151815053015731,0.00570440018300824,1
0.155850239279473,0.00503517170138583,1
0.18154083727454,0.00521297422070574,1
0.182553497299245,0.00497114888581791,1
0.19632338821932,0.00558437600777398,1
0.190815498058597,0.00556547605454522,1
0.148758627101269,0.00319538067458167,1
0.115453972547039,0.00210925736954245,1
0.123073213013404,0.00154981961480369,1
0.144656744197625,0.0011768619465784,1
0.187864016975333,0.00390389187788573,1
0.190479299891483,0.00517354649508977,1
0.191455950226837,0.00627994256089962,1
0.256284542497723,0.00933332696034486,1
0.236635201435263,0.00955307003774899,1
0.234894204176765,0.0113155925488255,1
0.217338477806984,0.00965920869381262,1
0.223409684662704,0.00814088358481943,1
0.190002052360163,0.0089311677263564,1
0.0552544895246816,0.00299651300344134,1
0.103960540307816,0.00798260294564788,1
0.157013939616012,0.0117170954572362,1
0.17486451493491,0.0127566776124359,1
0.186488709452468,0.0147918760585577,1
0.185678697591321,0.0147203804322444,1
0.187262662634193,0.0125416443810073,1
0.192778569246508,0.0134571084611914,1
0.21704230007478,0.0233623272169734,1
0.292862101769417,0.0262986353094589,1
0.293340448715961,0.0215320408477395,1
0.265785352629117,0.0303951062036924,1
0.207726281018326,0.0254058522244535,1
0.152763809745078,0.0175335563389682,1
0.121392572399632,0.0139805665639185,1
0.103661114908024,0.0129582347341928,1
0.107554327915808,0.0165396041160608,1
0.100443738609844,0.0183420024941119,1
0.105839167687159,0.0212666342997566,1
0.0530832513898059,0.00239910651917671,1
0.0731029996176176,0.00440450080869624,1
0.0796392074316333,0.00246560489771641,1
0.128611604106837,0.00442490969452583,1
0.130250724270572,0.00281199093694484,1
0.132369284163057,0.00269964306742816,1
0.134518782631148,0.00253440746543844,1
0.159652085111115,0.00371122300832111,1
0.168930405262674,0.00329343143458067,1
0.160724483020581,0.00311819484337821,1
0.150884652007808,0.00510860303887073,1
0.147253330533555,0.00482242898533016,1
0.180151222985781,0.00606188493092902,1
0.140098429369522,0.00469474077815339,1
0.137242060463966,0.00622325413014526,1
0.134809391253647,0.00685499837796399,1
0.135474211261543,0.00754926879296085,1
0.10427135954896,0.00507767156174096,1
0.0896739284009864,0.00437034991455927,1
0.0926612461146266,0.0050309585369103,1
0.131682384053947,0.00550277347507776,1
0.254063868085825,0.0149853975426931,1
0.313902313624305,0.018604424061882,1
0.266091159567895,0.0181596353111289,1
0.259994337013293,0.0181452552154407,1
0.251922437169679,0.0181845549143199,1
0.3126148786425,0.019952480568335,1
0.306647972781392,0.0207174089160669,1
0.261220927276011,0.00873677594006101,1
0.270394659321361,0.00846994745230013,1
0.286736339585617,0.00318213081386528,1
0.443640401588166,0.00698288201062135,1
0.444645953548556,0.00683019349312565,1
0.387815282696232,0.00559350804295397,1
0.392175277197346,0.00431977124033564,1
0.481053533244632,0.00566424166559004,1
0.505076342803293,0.00539450570542063,1
0.497061779414144,0.0048277531595773,1
0.518162962796058,0.00414222887071347,1
0.511053305582746,0.00325038861133842,1
0.477975458832923,0.0067805429516607,1
0.319022167760289,0.00322606848117415,1
0.286021283020734,0.0032311884555578,1
0.267385105768341,0.00278692902476991,1
0.253921766592683,0.00243206963568622,1
0.251631311271153,0.00157809754703811,1
0.245246555354545,0.00267566695415059,1
0.155489201893142,0.000283246108519861,1
0.128362433233602,0.00343260125143702,1
0.0975484481059959,0.00399388722535105,1
0.068708565224561,0.00306461253992239,1
0.0878620447378532,0.00526185139960046,1
0.0974621774551403,0.00358179296619787,1
0.0841013655693138,0.00253882288577318,1
0.0754469784184755,0.00439754441773482,1
0.0670449073420326,0.00540868339466882,1
0.0696289867221705,0.00527697430424204,1
0.0716937315905635,0.0050521539642791,1
0.0774865492327744,0.00527690782979946,1
0.0839687773830608,0.0056842307008804,1
0.0835776269860236,0.00451090792822284,1
0.170629309834597,0.0107673890051581,1
0.265055634318343,0.0237211011965316,1
0.268273558006193,0.0207595421106311,1
0.238040011916558,0.0231338017870269,1
0.184615028061634,0.0194226318477933,1
0.179979135916357,0.0153816282953262,1
0.180902271913728,0.0153664178702151,1
0.198087090754295,0.0180284748378461,1
0.234282298096157,0.0195214128526824,1
0.217173465301986,0.0213283888891873,1
0.200075932439999,0.0289122221587682,1
0.141075116062662,0.0223879271647141,1
0.112228211159741,0.0194543153629485,1
0.0953839921252547,0.0169471912554098,1
0.0842662199551389,0.0164096948264214,1
0.0840344617637137,0.0185397270355602,1
0.0811997995786504,0.0115587684276877,1
0.084990993783116,0.0132697567918348,1
0.0490495645789011,0.00344586240316707,1
0.0644890872952429,0.00692520933687242,1
0.0635522770660772,0.00476143932802021,1
0.0742052791557604,0.00528481148442807,1
0.0862585133343114,0.00099324944039886,1
0.133895966634206,0.00478789840708748,1
0.13139036197094,0.00269559785243636,1
0.133939984422508,0.00260181725625305,1
0.141385563123652,0.00467817674471197,1
0.117406658727775,0.00276297951756199,1
0.108420532126374,0.00410711337575714,1
0.146276689236285,0.00503792408080539,1
0.221904437648541,0.0112280026993661,1
0.206287339073193,0.00730194960196791,1
0.194964744196033,0.0111466306312322,1
0.21400756888359,0.0063882101307721,1
0.297223973137545,0.0139446281972854,1
0.283250869059011,0.0119193271902992,1
0.275128694995004,0.0122530127547805,1
0.220961673764622,0.0098714036201715,1
0.184889971748877,0.00755787513065549,1
0.181904089660154,0.00701840650333031,1
0.213841900179613,0.00841970648543317,1
0.284099964749331,0.013325853668542,1
0.309748613828067,0.0080963556623758,1
0.290180516041255,0.0106063807976929,1
0.285059752341964,0.00988828330647447,1
0.294793197989634,0.010830225600363,1
0.318958710775019,0.00804505207246675,1
0.326244643591549,0.00526634103668241,1
0.385848631879953,0.00476766146245773,1
0.478808231242159,0.00581210024260368,1
0.471304114086628,0.00603200179989334,1
0.435045368011436,0.00692746043620291,1
0.275163073452897,0.00438706553867449,1
0.314159716204726,0.00605003587273432,1
0.318750622182724,0.00481054544605618,1
0.322078606464489,0.00475140084865236,1
0.242866287769983,0.00555173272837588,1
0.130105993095274,0.00304879894235832,1
0.119117793302745,0.00591751955144548,1
0.101919649620953,0.0116501116721444,1
0.0704380029948082,0.00885978530638053,1
0.0701678531510359,0.0067596352080051,1
0.0820939896609943,0.00784459079027335,1
0.0975521050075697,0.00376275480476045,1
0.210796229032646,0.0144490274680368,1
0.300462670391901,0.019767057131617,1
0.306776802808191,0.0114083413984806,1
0.272119563046581,0.00868538134493679,1
0.256208660608675,0.0070348882829211,1
0.268931388724032,0.00641432582055657,1
0.282718029115171,0.00647720238130918,1
0.328251893647025,0.00590148900146588,1
0.343681024282252,0.00629812496654477,1
0.360345090144269,0.0098716949560391,1
0.291021121350645,0.00780168239389251,1
0.220572424262865,0.00530786113058844,1
0.261669163171943,0.00982906377325738,1
0.272108557910459,0.0136335398694938,1
0.25076955525907,0.0135482782792668,1
0.251201643006492,0.0159503819541339,1
0.0901081110217228,0.00421972976775272,1
0.0902655087245766,0.0163334369266722,1
0.117757004310312,0.0171933438720376,1
0.105246336220171,0.0148924013666738,1
0.0984511711120052,0.0175162051132054,1
0.100935170996197,0.0143620811721786,1
0.143571262209828,0.0137999526329384,1
0.135825053472367,0.00925148535087243,1
0.110328878796322,0.00696880509082089,1
0.0795516572718239,0.00446208635703205,1
0.0858701681492155,0.00591412924793877,1
0.0878092062662451,0.0049722612138626,1
0.110521312936056,0.00835892522612021,1
0.112384787083892,0.00649770459134601,1
0.122025113719669,0.0070847426635444,1
0.126783283594276,0.0068430287669266,1
0.114713410586503,0.00702636055224218,1
0.105994220022894,0.00702324523374285,1
0.102966597223077,0.00675723945512111,1
0.099206221516961,0.00561830158667911,1
0.108552545428408,0.00587288876502125,1
0.121331657957694,0.00794422936105827,1
0.111156816018251,0.0059538297541565,1
0.106121879715458,0.00439565561576581,1
0.112570141263434,0.00506266359775476,1
0.111876326893436,0.00669075492356419,1
0.0813571733233897,0.00463073265443141,1
0.0746938498703791,0.00565628197541934,1
0.0715782098074993,0.00575888843455908,1
0.0723579811239441,0.00621128499120563,1
0.066963264896801,0.00616239140937281,1
0.0736742172897209,0.00748397808684559,1
0.112246090309624,0.015222757515056,1
0.129263373185886,0.0324708855854102,1
0.127986312056218,0.0289258873004075,1
0.11667906157179,0.0229069945066323,1
0.125315467923013,0.0167819325651217,1
0.10631519655675,0.0129187764682247,1
0.0747688076819944,0.00933042294137958,1
0.0800940042541136,0.00703531571741118,1
0.123079474295049,0.00949532106701508,1
0.117384185983753,0.00684739467654848,1
0.126530968855988,0.00849676406620112,1
0.151626892461556,0.00423974159036639,1
0.24358082035436,0.00871247465560364,1
0.236989829986486,0.00658378468495142,1
0.255092644300832,0.00772659296906291,1
0.240576332609125,0.00697827779449078,1
0.244365627541458,0.00663550318652912,1
0.259656026428617,0.00897325166643765,1
0.219161796883388,0.00621212866541895,1
0.216815035047385,0.00666863292849093,1
0.202803506152728,0.00504804660294362,1
0.191151925264608,0.00869698810669865,1
0.121654430848591,0.00428296797036639,1
0.100015016334287,0.00389231527425769,1
0.10472119840441,0.00478556384518808,1
0.113391093429928,0.00587909855374735,1
0.193042550446248,0.00974221306346565,1
0.231122323497938,0.00813647549090353,1
0.239736684141828,0.0074679809675012,1
0.293784451359215,0.0104926728259689,1
0.309491380340937,0.0106984594965998,1
0.304815118001555,0.0146705641252113,1
0.265670961462221,0.0114185273122169,1
0.284826259047106,0.0110799352555735,1
0.290971780288407,0.0106888585967378,1
0.322805744948826,0.0111561128723583,1
0.406042539755676,0.0142183099788867,1
0.550799644483684,0.0173020228641517,1
0.5559203784881,0.0124309078064517,1
0.48806021785409,0.0110491522737342,1
0.466739592124864,0.0105979380293863,1
0.461980555430852,0.0103323705582098,1
0.498667260659087,0.011121621720754,1
0.521445779618153,0.00823382823348953,1
0.559995465361996,0.00586357613946682,1
0.720348431368973,0.0088703243559188,1
0.755478466686516,0.0107079985024686,1
0.53348564299434,0.00782007599139502,1
0.590230499065299,0.0120570849087683,1
0.646406730064131,0.0131202438934051,1
0.684590749667785,0.0145208186892609,1
0.562593342975183,0.0120314756925969,1
0.53682667052394,0.0114163965924517,1
0.299085449848259,0.0131832288697454,1
0.0280165550149069,0.00784602666587191,1
0.0810965751833537,0.0256595874781242,1
0.232476787804458,0.0380969707543182,1
0.357887186959975,0.0318398967500414,1
0.373688748974981,0.0307870957628687,1
0.498117025918441,0.0317233738527018,1
0.434769840701913,0.0200137136119205,1
0.390049472528282,0.0171793545111006,1
0.33569619501298,0.0109832179071419,1
0.292691324448841,0.00965736226323559,1
0.289383777598566,0.0100208474614119,1
0.290876681075639,0.00941288498468732,1
0.271104886145442,0.0102159715412755,1
0.257075423579288,0.00985299598607728,1
0.268223355523413,0.0116526450802679,1
0.146090714391948,0.00698420963372649,1
0.124078288166427,0.00821727344586641,1
0.0743425036986344,0.0037436224202558,1
0.0697285088341963,0.00784276886667673,1
0.0714654132136561,0.00705847494978916,1
0.0715864320646208,0.00378042121600086,1
0.0771184663878038,0.00527258113264388,1
0.0643939292484643,0.00348476629073786,1
0.0700558199538848,0.00161943013077471,1
0.0864375296802951,0.0016675214001025,1
0.0994379776588457,0.00240500015028968,1
0.102311865630683,0.00164649342699055,1
0.0940335983100434,0.00138379081141966,1
0.0958082383055673,0.00238898435973946,1
0.0884791856984552,0.00193120910871897,1
0.102743796560976,0.0033030018582398,1
0.22955646294543,0.0096346710919077,1
0.371502191149767,0.015476874986414,1
0.379445109248532,0.0172688220113904,1
0.379167166270672,0.0152715752714368,1
0.31837728956,0.0142773564955469,1
0.283808922810863,0.0106805747142454,1
0.25776026199351,0.00920122918371214,1
0.230529961766877,0.00870128198869745,1
0.211691271972198,0.00937911129928575,1
0.198795432262605,0.0109041618156547,1
0.194065680832536,0.0125990854418428,1
0.115785631941889,0.00693386330010638,1
0.113192142808113,0.00691874287343469,1
0.109417328304505,0.0091751380085668,1
0.0788281481967754,0.0060306017444026,1
0.0710886147941286,0.00872454660272776,1
0.0729625026901104,0.00780029235175441,1
0.100354631968803,0.00954041797788611,1
0.108613677681316,0.00547125601890535,1
0.153613118789974,0.0082903330098831,1
0.157997156995688,0.00593562547014304,1
0.186423069745201,0.00612794136612478,1
0.228560339043762,0.00736009531967148,1
0.233616051051572,0.00700608582806016,1
0.242810918257148,0.0055069994056571,1
0.276925270891414,0.00769792290604264,1
0.280617961583602,0.00889568496979803,1
0.245423216511146,0.00878949684235988,1
0.236122213908189,0.0128190897053325,1
0.172956046987496,0.00916890653176512,1
0.164798181676977,0.013868775903813,1
0.139730151956,0.0134546889374302,1
0.100611370003203,0.010536554723799,1
0.0737334797418128,0.00672341183255144,1
0.0614373317063216,0.00961062740175695,1
0.056086589827535,0.00733069748215671,1
0.0715289255506945,0.00946824178709392,1
0.0846333500787748,0.0104197649213896,1
0.079377788122349,0.0101225488525376,1
0.079974462430858,0.0113480991188261,1
0.0989303856163996,0.00916732784852857,1
0.207041052243923,0.0232409060151649,1
0.246648903569038,0.0248499522477519,1
0.272864927327215,0.0268805341363927,1
0.336668162842391,0.0328183392851499,1
0.335367839491463,0.0332251087452466,1
0.324474553797264,0.0362322747738954,1
0.303405991553947,0.0469337287920686,1
0.193881002007222,0.0287604827313309,1
0.0929675620621884,0.0118249996953217,1
0.0301035568637485,0.0140655302858625,1
0.0366103370480499,0.0190769867959183,1
0.138178238047195,0.0257647611709228,1
0.19359026934202,0.0217078350310799,1
0.174815149230068,0.018637876381424,1
0.149160848937208,0.0171661954187731,1
0.131141475255999,0.0156048350373767,1
0.12833767321886,0.00839785212095493,1
0.155805576433174,0.00959975883144286,1
0.141315205102319,0.00754572207692629,1
0.127203234688983,0.00595799632748882,1
0.117808011800413,0.00606205841121326,1
0.119319093090261,0.00464100511375753,1
0.137226281065537,0.00728002264804113,1
0.132698876897577,0.00562023789654609,1
0.126610196820348,0.00403621374922871,1
0.108523505842898,0.00216171227174221,1
0.104443353690157,0.00504088911688747,1
0.0925832000105465,0.00327918578080306,1
0.100169735151957,0.00431854850247901,1
0.0999580563676087,0.00392294613393336,1
0.0811667937420736,0.0017456015854325,1
0.084458969946011,0.00164779586252416,1
0.191317418374006,0.00776276665821923,1
0.220125724054881,0.0042459112736016,1
0.232604076574962,0.00466784695333665,1
0.252400633265011,0.00517109009034954,1
0.257010222266343,0.00467468383986433,1
0.241186445486446,0.00456769404954188,1
0.208311682894678,0.00306421774829305,1
0.215411486879771,0.00328317166213548,1
0.215280498398164,0.00338421306538384,1
0.197077626731319,0.00434886961089266,1
0.143978836294355,0.00253095003430904,1
0.13298838928195,0.00548719724818202,1
0.0954918325134957,0.00442680802148162,1
0.0981350543591079,0.00701987563469717,1
0.0842446528075495,0.00554461413257906,1
0.112649190344279,0.00929526848065208,1
0.12567361653396,0.0130159303356612,1
0.116986465959743,0.0173171760485566,1
0.0998811279276196,0.0159536681060636,1
0.10894953867185,0.0173317251898694,1
0.159245957771763,0.0239577568071643,1
0.170680652523437,0.0335613200555686,1
0.149874969753902,0.0311906523002249,1
0.0837545958019128,0.00992067564891426,1
0.129419893861531,0.0124613411408275,1
0.150310725894046,0.0112967406510132,1
0.2761440552108,0.0159298837068955,1
0.359417195754953,0.0183104365463319,1
0.388431640852274,0.0189346343771196,1
0.381451623924612,0.0183983080877166,1
0.325643088585642,0.0163562774345032,1
0.262851762672233,0.0128027675242746,1
0.206850819196063,0.0088018404842691,1
0.138497709709938,0.00552238036787494,1
0.132801899663126,0.00696123936462901,1
0.149886490380563,0.0100410322384729,1
0.154249226783682,0.01537621581775,1
0.197355707024229,0.0186304793952124,1
0.18013457703605,0.0126678956062421,1
0.175533199632157,0.0138050974750319,1
0.183776854608118,0.0141589932399249,1
0.17577000116372,0.00822182151042378,1
0.253055787316574,0.0133888577472032,1
0.247517929213264,0.0103883612263239,1
0.220143666643929,0.00977931014197221,1
0.221335959553295,0.00864773963280633,1
0.222066672395174,0.0112237214808856,1
0.174562220964407,0.00798425012551555,1
0.167428922056231,0.00723562716203431,1
0.1696571389612,0.00809005827404856,1
0.166612324368666,0.00738813929535322,1
0.167259443592329,0.0108716424817041,1
0.113601952699263,0.00721909564660213,1
0.120724130670608,0.0123738102861507,1
0.148214627518368,0.0135592052850085,1
0.228651828247964,0.022906937052512,1
0.264735337229576,0.0254087841066239,1
0.30834665879866,0.0294674287865183,1
0.321324967768499,0.0467935433430314,1
0.241389832698635,0.0386293828899376,1
0.0979886844797703,0.0177562136062278,1
0.0618559384160404,0.0170123836981176,1
0.0746019964692026,0.0208070908680464,1
0.0722202290225624,0.0195371692252707,1
0.0739644016340973,0.0274135657351796,1
0.0803459465817802,0.0284909480743825,1
0.0648750965386288,0.0206969229630862,1
0.0475353998978343,0.0158538911603546,1
0.0332255577534398,0.0110902388740298,1
0.0260203105388577,0.00782934667525659,1
0.0251136258177365,0.00761382582231597,1
0.0321871749875708,0.0126714241675547,1
0.0365529238525355,0.0146347199599443,1
0.0462177638052107,0.0102609221238059,1
0.0795094604321898,0.00869433731999709,1
0.081851185068697,0.0101914067859733,1
0.0736181731378785,0.00996423952601171,1
0.0696721354014128,0.00940955453820052,1
0.0552042034947762,0.00709108167680121,1
0.0544379668259084,0.00711584980520625,1
0.0559220794581902,0.00609460108967162,1
0.0830894841527793,0.00932419818215097,1
0.0985639416191083,0.0109589449501558,1
0.0974802994718884,0.0158441526427451,1
0.0492410667159069,0.016909545116896,1
0.0818598303433455,0.017604454065306,1
0.103132882628547,0.0125935518456139,1
0.101714207264474,0.0124620320560062,1
0.132494648027046,0.0109041691950567,1
0.17849578064851,0.0151717692896518,1
0.233091433422381,0.0160032686847999,1
0.205356247762189,0.0111752010399688,1
0.182554517395891,0.00988476206305431,1
0.154474617768612,0.00704796171627505,1
0.147134887739865,0.00571261831040872,1
0.160228984927205,0.00777833868804614,1
0.169454391909453,0.00614456148473979,1
0.220148817478229,0.0094840879851247,1
0.489064354440448,0.0170612846080167,1
0.678293416535875,0.0162438664416396,1
0.691284628330957,0.0174652248818847,1
0.629048877192792,0.0176299899463755,1
0.549746995532777,0.0156133988535869,1
0.495750632080253,0.0153257056202941,1
0.450147512876056,0.0153266324773042,1
0.322443844512848,0.0110547777490563,1
0.279413163690804,0.0131982100168614,1
0.292081097059872,0.0110879058896297,1
0.183488225658745,0.0148238321552442,1
0.0579129508111376,0.00704360087240727,1
0.16030580035435,0.0162289899762562,1
0.191631467812692,0.00557740518570385,1
0.201722251928941,0.00567146634119828,1
0.21882739759939,0.00424761616188442,1
0.276453022773984,0.00623236736587943,1
0.324302070269538,0.00564140437674847,1
0.326952094846515,0.00588151007643082,1
0.305206839716363,0.00588686858372557,1
0.268116432044811,0.00462915894255513,1
0.253111503900071,0.0041768950168616,1
0.21008414366724,0.00370436637221266,1
0.206194640997726,0.00754696723411428,1
0.195507598729274,0.00844642011870277,1
0.257336944264008,0.0157614138497443,1
0.33989964140655,0.023513058403474,1
0.31813608434529,0.0215098255177735,1
0.30427305191173,0.0197353366276149,1
0.270635488136184,0.0182765831029498,1
0.265008731745235,0.0164907690325915,1
0.356274839925397,0.0172163552517181,1
0.341360836095485,0.00997591744218405,1
0.3295280100595,0.0114653726483957,1
0.33443464629085,0.00970860527828142,1
0.346149682081945,0.0113240656478724,1
0.304247135186696,0.00774060378541358,1
0.295440965454942,0.00865090468477421,1
0.356139715916728,0.0108342690624427,1
0.362102545971156,0.00882559483602367,1
0.37278251324998,0.0095739666540313,1
0.240060715168119,0.00645237073631277,1
0.210680316954194,0.010822457734137,1
0.288286638838897,0.0148988431572403,1
0.290428621311208,0.0102150604017085,1
0.308192037964941,0.0104357856622168,1
0.337264472648066,0.0151022637832821,1
0.401669143145609,0.0172399801472289,1
0.445744979845046,0.0175850896613715,1
0.453204527731861,0.0249527764522363,1
0.458370652666022,0.023875527242783,1
0.438588007327868,0.0214519182982309,1
0.390128171926634,0.0230189456564083,1
0.160006341765055,0.00828288322188236,1
0.0545534947580707,0.00495702111832461,1
0.0491681904314142,0.0058663409811537,1
0.0809170146111,0.0096652502586053,1
0.0997478137461697,0.0105228539827195,1
0.095698138636985,0.00873543016301839,1
0.148988212888791,0.0135729527989062,1
0.136905218947879,0.0151938340424527,1
0.108995283678904,0.0108594782180888,1
0.0897297853470453,0.00820894105727125,1
0.100277328749335,0.0115849176337808,1
0.108764526725683,0.0132205575378682,1
0.116878029203672,0.0124287792635011,1
0.109207955610608,0.0132510267523423,1
0.109882996305716,0.0132262376841932,1
0.109448155992556,0.0197329419826472,1
0.0442598626497259,0.0104841926881212,1
0.0272018323158482,0.00465268679863147,1
0.0349853211935224,0.00732920480256929,1
0.0385716649291252,0.00530554965502658,1
0.0376316005603823,0.00527921783866254,1
0.0369328114966351,0.00546639065118511,1
0.0382344023216596,0.00710738511139204,1
0.0314403394623195,0.00554871256605211,1
0.029866020554026,0.00731073285523003,1
0.0275963400106466,0.00609463428738461,1
0.0323622634526556,0.00564154633266734,1
0.0365825924910936,0.00683523839923627,1
0.0338983823021747,0.00142740061679403,1
0.0707245616250962,0.0116895336932835,1
0.0961445855268525,0.0132098066862129,1
0.166682016004774,0.0235914015642435,1
0.2051103218399,0.0238846425984865,1
0.193344272695098,0.0248864056426012,1
0.172806468518334,0.0208238766767028,1
0.178190666313902,0.022355502927954,1
0.148392778327458,0.0209133820673993,1
0.118067524224322,0.0159308555111785,1
0.139947286909863,0.0285198171115371,1
0.161176673469785,0.0081821245146362,1
0.223009326290298,0.0101495154428965,1
0.192486269987793,0.00730749537482051,1
0.223382093094518,0.00856095941415597,1
0.225258220575218,0.00760572459183595,1
0.216854651948148,0.00761608576251907,1
0.195139087317367,0.0063937632466673,1
0.225071502917136,0.00309159737461427,1
0.315565096134574,0.00670343188662126,1
0.247690749785721,0.00509288677864599,1
0.270332603663601,0.00523289034322542,1
0.372620322650174,0.00836457431989955,1
0.384973917907865,0.00834519413010498,1
0.366622671993664,0.0083673160139177,1
0.36239825643336,0.00876327933548337,1
0.38783199249556,0.00936847809825386,1
0.404220137345818,0.00961466510394983,1
0.414643982196694,0.021482822899498,1
0.259130756985497,0.0120030024135987,1
0.132246073872997,0.00222112219139733,1
0.10793410777132,0.0136082230421213,1
0.0955465960694418,0.0124318976926697,1
0.0833384296308635,0.0168540593696934,1
0.0681749470467747,0.0139860039843039,1
0.0360653293251093,0.00806153134057848,1
0.0335692362563755,0.00841384209408277,1
0.0405659581158263,0.0104236681142167,1
0.0468130904336021,0.0143757758571191,1
0.043245813387157,0.0136931103316213,1
0.0426195059272274,0.0151245618959174,1
0.0430307911904225,0.0128100849673802,1
0.042525841201934,0.0177455453386464,1
0.0323679174648875,0.0150180039911928,1
0.0167887646090008,0.0096552875548707,1
0.0147324453334019,0.00867044619257554,1
0.0136352415452459,0.00925739636583891,1
0.0117091596375125,0.0102255328583864,1
0.0100139454531162,0.0115380799429556,1
0.00976657612496896,0.0132066044930811,1
0.00489816593753778,0.00645872394784697,1
0.0024680431932388,0.00722936005805504,1
0.0036618296896923,0.0150224531045131,1
0.00310136493647159,0.015389353299204,1
0.00328059475804164,0.01232571728601,1
0.00349051120143545,0.0139657015702999,1
0.0037804632051145,0.0150382586701437,1
0.00534253778584937,0.0202401202160464,1
0.00564814263299553,0.0191769078666089,1
0.00669196398720771,0.0189034481982637,1
0.00790401473242674,0.0207954842052069,1
0.00789460016639413,0.0304312092762641,1
0.0066371266045664,0.0280120911269131,1
0.00660276907704689,0.0267941988413528,1
0.00585273732412624,0.0287717692328557,1
0.00618285326854912,0.0320823352923192,1
0.00602021502254685,0.0357139884634262,1
0.00679514781427381,0.0415060242122261,1
0.00535220031591933,0.046887088742045,1
0.00436786202621239,0.0580661405637011,1
0.00352973122596059,0.0635854153397672,1
0.000859181164905134,0.0324284312620081,1
0.000412661862463562,0.118913887467773,1
0.000361516863888497,0.102931997798001,1
0.000224435749788134,0.0885423702778801,1
0.000225206892523895,0.102685810488275,1
0.000237995085229309,0.109663252074294,1
0.000243564161465177,0.111141707513312,1
0.000248592491529042,0.110786027123767,1
0.000255893322471213,0.116295601526451,1
0.000263175515790923,0.123454597318245,1
0.000264180234331868,0.131805227818494,1
0.000139639369504564,0.190839607116494,1
1.31853432390651e-05,0.138240206929275,1
0.000138087709957583,0.281910757713669,1
0.000259025002714048,0.325636411164336,1
0.000519081799152694,0.382078026168391,1
0.00111678223573107,0.221924528214358,1
0.00195042812144847,0.125123408438379,1
0.00179366358978006,0.0917785698430607,1
0.0020920185157714,0.0371043240689279,1
0.0045274055302717,0.0374421705345557,1
0.00413650302640496,0.0199525220621915,1
0.00401672532625611,0.0197090847636534,1
0.00436265152572218,0.0215146330607202,1
0.00465785368328469,0.022273370507953,1
0.00499739971870033,0.0227190635748887,1
0.00521748777026638,0.0253774717320944,1
0.00507081732523262,0.0262666770816828,1
0.00528351231807925,0.0278536512698008,1
0.00488149420573419,0.0506757185637385,1
0.000788992798199827,0.0300128422066783,1
4.96637533954648e-05,0.263675629722951,0
5.03598929273136e-05,0.709854183053138,0
5.54054969926515e-05,0.74207246924502,0
4.86509762820602e-05,1,0
2.93541660479473e-05,0.792107791319433,0
1.16836146832737e-05,0.616585626668836,0
6.71458980515907e-06,0.521571693063445,0
2.02478779296694e-06,0.293816691199662,0
2.84029067141541e-07,0.16488776339582,0
4.32606346812294e-07,0.198306281965983,0
4.43087493375849e-07,0.191299363394485,0
4.51464787974646e-07,0.184743248662845,0
5.28847212157317e-07,0.204059370075527,0
3.5479622038747e-07,0.177618946574683,0
3.73250780095313e-07,0.178940657235991,0
4.06839519921237e-07,0.18670907178046,0
3.92613150020285e-07,0.183158171889008,0
3.17901631652249e-07,0.170376654746075,0
3.03066045107289e-07,0.170018811707382,0
3.00544019215434e-07,0.172812779573751,0
2.30251256955444e-07,0.161307492664473,0
2.46645080324165e-07,0.156945072379867,0
2.89741292018679e-07,0.160961241497495,0
2.99046168088351e-07,0.15988838993311,0
2.75770280961273e-07,0.15654104413652,0
1.12586451618762e-07,0.130235740608063,0
5.4990764692952e-08,0.120357997311805,0
1.03283957627854e-07,0.132397490926402,0
1.52855016715942e-07,0.145378318594684,0
1.78159363014882e-07,0.151182977515162,0
1.00430346371987e-07,0.137480243724231,0
4.7912655852282e-08,0.123210766085992,0
5.19338906561159e-07,0.214395152114517,0
5.60192391098948e-07,0.224476180538732,0
5.68020497438604e-07,0.229291468543903,0
5.73961759188943e-07,0.224022940427555,0
6.11955915481831e-07,0.218931701926445,0
6.69900576946633e-07,0.230312673282692,0
6.27201815093967e-07,0.222546729433614,0
5.68106609585938e-07,0.212153351222394,0
6.00353405339914e-07,0.210947037461814,0
6.66957161321347e-07,0.228815457493999,0
2.36704189224385e-07,0.162636275815731,0
1.63029470638575e-07,0.146719562683697,0
1.4709622219896e-07,0.147020440173796,0
6.874381554341e-08,0.130973302996406,0
1.7462543006389e-08,0.117889697021055,0
1.39579096241999e-08,0.111985502018867,0
1.99112008722996e-08,0.109972108203244,0
0,0.0989320173486189,0
2.32527809630622e-08,0.105009454816689,0
4.04208990341658e-08,0.110170214207232,0
6.10412447546407e-08,0.111471511017807,0
7.08492635009396e-07,0.208680742901591,0
7.31462067703429e-07,0.203878479605706,0
7.42580182128596e-07,0.198607842952979,0
7.84919250087831e-07,0.197827633299971,0
8.12190597926511e-07,0.20220391432929,0
8.24412567651122e-07,0.207957539007841,0
8.31471262549862e-07,0.211992045614471,0
7.10641270054925e-07,0.196820030396833,0
7.51492968033641e-07,0.196544830148802,0
8.9623033673611e-07,0.218125634267007,0
5.31764663124068e-07,0.190989531003679,0
5.21317461182906e-07,0.196747134288616,0
5.20100099830338e-07,0.206438013607686,0
3.97172448775431e-07,0.200019930959082,0
4.42924201876547e-07,0.184030959163067,0
2.2677418422456e-06,0.309510550291699,0
3.25877236308999e-06,0.362404935099507,0
5.07851284078051e-06,0.44934724898207,0
1.55264740695488e-05,0.241435209489737,0
6.93194925184135e-05,0.324916150425206,0
7.55940164971094e-05,0.254289561628016,0
0.000207690534665995,0.104803058341984,0
0.000375563282984101,0.103363085293749,0
0.000361136234500325,0.0993912224188357,0
0.000331917381007345,0.088947148972789,0
0.000336285042955139,0.0913114556668514,0
0.000348312101824241,0.0933338495863202,0
0.000361187206698143,0.0954569148310904,0
0.000384043902631386,0.103794141345743,0
0.000393761725990036,0.111112282212345,0
0.000399432422182409,0.114983711626813,0
0.000296533286401353,0.302636241985326,0
7.93312981030104e-05,0.399067815619111,0
1.40400884830791e-05,0.210556639407415,0
5.51551805334315e-06,0.43835673751112,0
5.5656554516575e-06,0.459136124075346,0
4.33427759032637e-06,0.400751345878858,0
8.02998084512158e-06,0.335961130253863,0
8.56279898257922e-06,0.236903502682541,0
2.30395820551501e-05,0.148104881477427,0
5.8088347979457e-05,0.155300842854432,0
5.78060758145081e-05,0.143966064622704,0
5.71425112097631e-05,0.138196443692057,0
5.44630712406444e-05,0.128870518972137,0
5.93321355183193e-05,0.137996777812736,0
6.53731501518298e-05,0.145965186738985,0
6.9750318975973e-05,0.149699946478066,0
7.67668758542013e-05,0.171321081549814,0
8.30288502082386e-05,0.181005145336917,0
7.09177601758112e-05,0.305032194682108,0
2.08259418666986e-05,0.288387159301672,0
1.85152174379155e-05,0.382399928979675,0
5.31357339565742e-06,0.294462406690803,0
1.21487732083375e-06,0.224309868236197,0
1.72942491416811e-06,0.255005815705263,0
1.92635839275708e-06,0.270583233810656,0
1.71368699618718e-06,0.259834479701778,0
1.75416268303293e-06,0.262089532289108,0
1.68360372347101e-06,0.253561051038687,0
1.70088475207555e-06,0.252161714573459,0
1.603412947529e-06,0.250029549438594,0
1.57625379560013e-06,0.25367231624344,0
1.54590230081508e-06,0.249226801525597,0
1.43464493004294e-06,0.249698802287417,0
1.1188946728268e-06,0.234308679398478,0
1.33800304173792e-06,0.25388008603958,0
1.40973136376531e-06,0.234818904514287,0
1.96309921830806e-06,0.279554359167301,0
2.39963932999196e-06,0.253672289498868,0
3.28347821209937e-06,0.278447582984888,0
3.1108381255817e-06,0.270090628365261,0
2.93666243198854e-06,0.257431308865076,0
3.04530904443485e-06,0.268528716312599,0
3.23454840861467e-06,0.280550660124936,0
3.63996928152774e-06,0.300809945472606,0
3.16557770006894e-06,0.283542158107195,0
3.04644100826371e-06,0.298129063622583,0
2.62542609492708e-06,0.270235839256348,0
2.06651573861915e-06,0.301643255928617,0
8.60054182956245e-07,0.222150596010275,0
6.12745812800122e-07,0.190006580194702,0
6.6119062504838e-07,0.191200883426223,0
1.11319007060171e-06,0.238746538487814,0
1.01385738612438e-06,0.240409187046735,0
7.86471769922557e-07,0.215532086872619,0
8.5260125402199e-07,0.22481676709138,0
8.49744546063731e-07,0.219793614773193,0
8.22021556091311e-07,0.22586866438043,0
8.26090146620982e-07,0.226131218764079,0
6.74630432541316e-07,0.214228635671439,0
6.05560629518989e-07,0.210403382682805,0
5.33085406695015e-07,0.213493901774689,0
2.20044525865553e-07,0.160106796885657,0
1.57514958298887e-07,0.144849887135998,0
3.34055103273638e-07,0.175296832777052,0
3.71394545218118e-07,0.169209766013239,0
5.65338276749839e-07,0.204636331559345,0
1.06174383911025e-06,0.266774497686142,0
1.13405993907276e-06,0.261791063900265,0
1.17648190337299e-06,0.248495280654307,0
1.25824246922077e-06,0.238176861084895,0
1.34071861152939e-06,0.241596108028867,0
1.36413361205631e-06,0.23344193974814,0
1.4525648321721e-06,0.236044740778234,0
9.24505611670066e-07,0.197186729007683,0
8.52521097071567e-07,0.193551733409157,0
1.27292560272481e-06,0.2330182148365,0
1.26129212555895e-06,0.23380946213341,0
1.2056890475196e-06,0.236595344433772,0
1.06298883257648e-06,0.234766188862221,0
1.10604157133355e-06,0.243234111961607,0
1.00514386110797e-06,0.235905286956674,0
9.6288387816372e-07,0.243247334618918,0
1.01068636287315e-06,0.250726247910457,0
6.49528086521598e-07,0.195021642030707,0
6.40112205581501e-07,0.195905095499125,0
5.57944661576818e-07,0.186483864536367,0
4.99328373004382e-07,0.179294328558812,0
5.78959360436747e-07,0.185869313781747,0
1.17892651170501e-06,0.232024268960999,0
1.28365984515709e-06,0.241834814791806,0
1.37069278503815e-06,0.25698146365656,0
1.49359566247391e-06,0.268676995185148,0
1.17336483420578e-06,0.249135848071823,0
1.22401580870173e-06,0.270350501785269,0
1.10122119674582e-06,0.265964723364747,0
1.24481230914684e-06,0.271492941149962,0
1.66510878752811e-06,0.298425095466085,0
1.51429652245662e-06,0.280263211910985,0
1.1994238230573e-06,0.282986550295472,0
8.68288552829177e-07,0.262259834833278,0
6.81354445373649e-07,0.218459959591215,0
9.08858331786121e-07,0.239411481486393,0
1.11934250363451e-06,0.262826812508891,0
2.19652900206284e-06,0.342854481427979,0
3.13722524578302e-06,0.366741408748879,0
3.02366488126141e-06,0.352977115809754,0
2.43667553330972e-06,0.324015006243561,0
2.39920960298285e-06,0.335908408287925,0
2.05452197204018e-06,0.312280418157678,0
1.76456188608698e-06,0.282492445407266,0
1.59170491129782e-06,0.274654175197471,0
1.54412300708198e-06,0.271002753427658,0
1.59998942392874e-06,0.282386728301398,0
9.78277347555312e-07,0.238436241020571,0
1.58369052639878e-07,0.132593275160556,0
1.23733627404857e-07,0.136044440906011,0
1.86728176746342e-07,0.157125695751285,0
2.16114095904219e-07,0.160901981299859,0
2.67662280366796e-07,0.162183269698966,0
5.63047074290259e-07,0.198750235792382,0
6.72722744762809e-07,0.206606391205324,0
5.18495174262793e-07,0.187637035337232,0
6.57501380561946e-07,0.196998376526873,0
9.27626134851488e-07,0.211217753326383,0
9.69407796379842e-07,0.208310920279018,0
9.93439278891002e-07,0.206456651485745,0
1.41564546981773e-06,0.23736164977476,0
1.5196679909665e-06,0.227690656859916,0
1.90546946765592e-06,0.256121430817404,0
1.58203271868267e-06,0.236463120139358,0
1.55857555536162e-06,0.238227243036857,0
1.52184330529419e-06,0.239111749072277,0
1.18317852229954e-06,0.222434825353674,0
1.11271365484882e-06,0.228517247338863,0
1.20445417788811e-06,0.247144594819432,0
1.39280514579273e-06,0.268405925515335,0
9.6444223409142e-07,0.220475487453827,0
8.24660899362315e-07,0.213925936778925,0
7.36847947789837e-07,0.213982035488073,0
6.63272680992442e-07,0.221070482014878,0
4.82832953976357e-07,0.192193351080463,0
4.75502940306347e-07,0.187580209236256,0
5.38747131502346e-07,0.183959359719249,0
6.59895369720213e-07,0.191396952250187,0
7.35500048520976e-07,0.197996471359292,0
7.70473371628735e-07,0.198819948052991,0
8.63531065120828e-07,0.213029152291505,0
8.20789902266155e-07,0.212986422861941,0
6.93413480910772e-07,0.192031584472898,0
1.28537815767382e-06,0.239472987686298,0
1.30941428523857e-06,0.236722316309363,0
1.30555496032835e-06,0.237447281139312,0
1.34292739406372e-06,0.255900911017946,0
1.31365641020623e-06,0.262909308873373,0
1.15633142268881e-06,0.242815321957681,0
1.0635170585425e-06,0.221512735914629,0
1.2418223238817e-06,0.236281907750601,0
1.16133914777136e-06,0.233537063163327,0
1.36012838482178e-06,0.252178705633873,0
7.92227467737147e-07,0.207889252858298,0
6.94327246324812e-07,0.20617556578543,0
6.86509263819907e-07,0.210191916084322,0
6.37937844085317e-07,0.195174520628062,0
6.33980615737884e-07,0.190714781231833,0
7.59852635249583e-07,0.206940387539997,0
7.0943915400645e-07,0.203915960258733,0
8.81626288247054e-07,0.221466212472498,0
8.7759068950827e-07,0.222939659614058,0
8.32021880056263e-07,0.214131411443956,0
1.00519150268326e-06,0.229039179860936,0
1.01048626825693e-06,0.224882482086109,0
1.13710899989125e-06,0.237104523333385,0
1.32326559683806e-06,0.264247998550589,0
1.49865138644356e-06,0.280512931167628,0
1.53194808341296e-06,0.273817039062126,0
1.61397746684931e-06,0.291422089449964,0
1.51040754066579e-06,0.284928785117801,0
1.58276699446181e-06,0.294130193226473,0
1.57383932056448e-06,0.311921875041236,0
1.43650497624616e-06,0.300842014848038,0
1.9706069350539e-06,0.337523863829699,0
2.80293384029595e-06,0.387586946832782,0
3.17620558268439e-06,0.402842076314835,0
2.72331047551563e-06,0.359562396250272,0
1.54058562011678e-06,0.28408686935819,0
1.60103313173938e-06,0.287834537176749,0
2.42926667283261e-06,0.357239327916643,0
2.84928254233543e-06,0.385855613757401,0
3.39259183108744e-06,0.411377597295743,0
4.45259401330907e-06,0.471056407194679,0
4.37839130696513e-06,0.458101134535725,0
4.03795175618702e-06,0.433875523151852,0
3.24417641366874e-06,0.378627172593978,0
2.28266556570484e-06,0.331953848971864,0
2.11881034746257e-06,0.315588453909896,0
2.08589776069393e-06,0.32661465729939,0
1.88036104733535e-06,0.312878391682196,0
1.81494678238495e-06,0.302488981008798,0
1.92486721145054e-06,0.296944972626743,0
1.59294418777502e-06,0.268396825050694,0
1.62256438437938e-06,0.283226119832457,0
1.09878611672886e-06,0.239034502958443,0
7.44493825104013e-07,0.212326396686374,0
7.56807266653178e-07,0.214000709930393,0
9.87988010742507e-07,0.242877032025364,0
1.07031991818194e-06,0.258693812124974,0
1.12115204976793e-06,0.247172292764116,0
1.15862929496893e-06,0.248740904653316,0
9.96727976833194e-07,0.252390421882466,0
8.6209800653614e-07,0.242345840265937,0
8.71182897631916e-07,0.24841710642408,0
6.08249996444047e-07,0.223395386324031,0
5.5532437493593e-07,0.214941073131887,0
6.06283709527936e-07,0.213339050647462,0
5.86223747836796e-07,0.208872312833169,0
7.42174633218949e-07,0.218787964759882,0
8.6677891041221e-07,0.248506204155249,0
4.92790043211735e-07,0.202316795394227,0
4.93704761457282e-07,0.197926953229278,0
1.05251721432799e-06,0.263852019187249,0
1.65365051225538e-06,0.325597843426851,0
1.72269268316404e-06,0.308372650460109,0
1.7566819695342e-06,0.31122198252008,0
1.69648302783067e-06,0.322266286830001,0
1.62242622381104e-06,0.310409299044211,0
1.35482683032363e-06,0.29368313650979,0
1.1047962205555e-06,0.2616470774539,0
1.09860567426246e-06,0.244843170008248,0
1.13102957757257e-06,0.257439344723628,0
9.35058220596553e-07,0.228807181893019,0
6.70721917704613e-07,0.194897218830339,0
5.95664521499981e-07,0.189538519091926,0
1.17343629656871e-06,0.238506905493157,0
1.56925393804687e-06,0.248081302397769,0
1.6073523102857e-06,0.249578223017251,0
1.50662241750908e-06,0.236643182862011,0
1.65827924860651e-06,0.252468764295455,0
1.63900072785405e-06,0.25202243945623,0
1.67839828585101e-06,0.245551321130788,0
1.75877736511935e-06,0.261946239046657,0
1.78242271266279e-06,0.273404842272333,0
1.88479600157899e-06,0.292662951793847,0
1.23792869703728e-06,0.258939631646055,0
4.75167424512374e-07,0.184260882298123,0
4.60511923122009e-07,0.188830499607404,0
4.36196258614251e-07,0.191009331325217,0
4.49764936568338e-07,0.198244703761525,0
1.06888519214211e-07,0.137706064644657,0
1.02898179971952e-07,0.134131002493677,0
6.28035066245769e-07,0.218565902115725,0
6.70683685340443e-07,0.215036574579937,0
6.86695065963533e-07,0.21451058394728,0
9.64107790232892e-07,0.240611990634831,0
9.18886406968679e-07,0.219962611277243,0
9.45214094304825e-07,0.225084790284521,0
1.2146786554648e-06,0.253909700217973,0
1.35478347649011e-06,0.267660912999268,0
1.30079366129398e-06,0.261913665824973,0
1.28148500724515e-06,0.260307826498434,0
1.27660174577804e-06,0.271085203892643,0
1.29567028628741e-06,0.271380081442885,0
1.29911131816659e-06,0.27673979091591,0
8.76583070190911e-07,0.251273980389768,0
7.2234108811437e-07,0.245585049659449,0
7.35080445346619e-07,0.234241223492752,0
5.63550288429248e-07,0.206036727660028,0
4.64866363103411e-07,0.191981219768395,0
5.3324250478953e-07,0.1992396560057,0
6.86988657171251e-07,0.224506337159017,0
5.59714069683048e-07,0.210892887595685,0
6.27389999316358e-07,0.213286012270849,0
6.75451654195355e-07,0.20889386040025,0
7.11811704455835e-07,0.208258992519034,0
6.92941829315412e-07,0.206526207654575,0
7.39382836907021e-07,0.213266879887303,0
7.46837790608228e-07,0.216560415482591,0
6.69906174831729e-07,0.21089349965236,0
4.74729122019717e-07,0.184170294507142,0
3.8151564057643e-07,0.174656015894236,0
5.72030488830669e-07,0.202650302233791,0
5.3582181967567e-07,0.21063671111455,0
4.04819874440803e-07,0.203184701559814,0
4.44778769298605e-07,0.202041537266199,0
1.23602208119422e-06,0.234070772481886,0
2.3675723811847e-06,0.300689288805429,0
2.46949343244748e-06,0.282838604136626,0
2.62102877752792e-06,0.274150655726171,0
2.5391957964857e-06,0.256609674744529,0
3.28179991850588e-06,0.285918222818436,0
3.2732590941999e-06,0.283422785634391,0
3.27866355450067e-06,0.284293610490465,0
3.32679583801504e-06,0.284260914967412,0
3.2114352174672e-06,0.28412344455846,0
2.61374438066624e-06,0.315061967756174,0
1.07155431139767e-06,0.211018143674029,0
1.22811643819078e-06,0.238613154802235,0
1.22469803605987e-06,0.251845396020021,0
1.08851661786353e-06,0.264763261736176,0
7.62129902548392e-07,0.235488485564655,0
9.12460511293713e-07,0.25255553698658,0
9.50615100591387e-07,0.24408887886033,0
1.16212940240146e-06,0.257871926313472,0
1.0416495754849e-06,0.234047995331668,0
6.92729347889623e-07,0.186935926123511,0
6.81945200907231e-07,0.189299197297355,0
1.59561592731722e-06,0.2100640670626,0
5.14092604379953e-06,0.337599822626757,0
5.3340703496979e-06,0.321311665331338,0
5.3667977298426e-06,0.323399663992223,0
5.21986241706419e-06,0.321777140973464,0
5.36549949691598e-06,0.328121706690957,0
5.52134592814431e-06,0.33701905930278,0
5.53062460134758e-06,0.340448092919093,0
5.39424963925163e-06,0.342692351745622,0
4.93952604842329e-06,0.326808588619734,0
4.34647383360033e-06,0.447165858883526,0
6.41031211568825e-07,0.219046743463629,0
1.46067997900287e-07,0.165149952262179,0
1.94008881385928e-07,0.178065493279005,0
2.54724138661655e-07,0.183258230756864,0
2.33622374822885e-07,0.183860854480566,0
9.3709072930231e-08,0.14373095774436,0
5.54499103747986e-08,0.140104696875773,0
3.74524596714599e-07,0.199987059862084,0
4.10959086936467e-07,0.186592109289118,0
4.11286741870517e-07,0.18363725897595,0
3.56344571584359e-07,0.166029638843658,0
4.13583184903379e-07,0.166912432833751,0
5.50995661405181e-07,0.183232917655515,0
6.38106376157902e-07,0.197667524917701,0
6.61571876754629e-07,0.184799377089236,0
9.69932925643465e-07,0.212336121161164,0
9.47428474724253e-07,0.20912391612946,0
9.58924744153275e-07,0.216871483765114,0
9.54886763335726e-07,0.218140496739143,0
9.90539693514981e-07,0.220839913454983,0
9.67637435442107e-07,0.223039656149315,0
9.12968727798108e-07,0.227514784821903,0
7.28246142267489e-07,0.206338944440311,0
5.22288753799109e-07,0.174611011317965,0
8.05799004185753e-07,0.219903735226516,0
7.17502967039846e-07,0.198790798837145,0
7.69553889225659e-07,0.204852035878167,0
6.35300406477324e-07,0.194070909549581,0
5.87754114339014e-07,0.195987003225717,0
5.37735105339272e-07,0.192736099787543,0
8.25070616909801e-07,0.225718316856345,0
8.78198000489266e-07,0.221697738185104,0
8.98438047334997e-07,0.216980336851159,0
1.09032020880003e-06,0.241117307911736,0
5.71240472408441e-07,0.189641383554703,0
7.11919969935679e-07,0.221989416823266,0
7.67614877111401e-07,0.232156526096151,0
6.10645772161387e-07,0.215308359183582,0
5.21422272648541e-07,0.205527315700462,0
4.84927396729994e-07,0.202336707659557,0
4.9178957013067e-07,0.210578679455298,0
4.90767301028907e-07,0.203275486746685,0
1.6545280700722e-06,0.354370732786084,0
2.18278262103292e-06,0.331265492367727,0
2.25586432111033e-06,0.338390379241197,0
2.13374598131564e-06,0.326828249446173,0
2.11178238137989e-06,0.313103249808982,0
2.11428356408256e-06,0.311178789104361,0
2.22773328104556e-06,0.3165999493382,0
2.21906727850051e-06,0.313966012490266,0
2.22967145943225e-06,0.306095523195519,0
2.1346807090228e-06,0.324609849777717,0
1.06502253232163e-06,0.24348308118769,0
4.83305201091409e-07,0.210887415341944,0
4.90622351536091e-07,0.216647440497995,0
4.77198980386631e-07,0.208944361643013,0
6.90836071687643e-07,0.256613994246756,0
8.17219761717945e-07,0.26754817171723,0
1.14942815842945e-06,0.283568187486862,0
1.09336414814917e-06,0.254690012103401,0
9.67433529499871e-07,0.243526333079336,0
1.090119756872e-06,0.249283220150966,0
1.07043902212016e-06,0.243179828039661,0
9.90822803576135e-07,0.226937153964836,0
1.16276398818431e-06,0.22740870180894,0
1.22746089011481e-06,0.222343142222916,0
1.49587447812391e-06,0.234012734861384,0
1.48989200641095e-06,0.237944064118296,0
1.18055335239718e-06,0.219044323269213,0
1.03127324038698e-06,0.209123313426143,0
1.20632935029148e-06,0.222598470447232,0
1.13960601395608e-06,0.213317210299421,0
1.16401898638136e-06,0.217193556765011,0
1.12400244521746e-06,0.220584634727901,0
1.09197777830827e-06,0.224387077471149,0
1.10387864381543e-06,0.229976752470104,0
7.42003719067601e-07,0.196629406833073,0
7.84449980571235e-07,0.197913779850782,0
7.34087118501845e-07,0.193160232743338,0
6.94370719262264e-07,0.195571178516468,0
4.60714995336677e-07,0.170870904338963,0
3.62459010460873e-07,0.164400746397339,0
2.98906935584571e-07,0.156332270138866,0
3.04005179660171e-07,0.157341395220952,0
2.47705700894034e-07,0.152176319028709,0
1.54467207623718e-07,0.143226894629314,0
2.11670447073086e-07,0.147387138503086,0
6.61377499127451e-07,0.208053394758007,0
6.35675702986663e-07,0.20109209404681,0
6.69763250105862e-07,0.196163031065388,0
7.794638133015e-07,0.204067618817747,0
7.8519271272999e-07,0.202129170343582,0
7.89114090792017e-07,0.200515166430445,0
7.34844500445001e-07,0.194479072381536,0
7.519727186968e-07,0.190886270690315,0
8.04776258668241e-07,0.192806529977864,0
8.24527502951507e-07,0.207652628212159,0
4.71434230672738e-07,0.164305086090809,0
7.86352665984335e-07,0.202964856846854,0
7.86913883741239e-07,0.204278361720717,0
7.7973251178613e-07,0.19921993803908,0
7.84819202779724e-07,0.197235184097985,0
7.43502880338005e-07,0.188124806994193,0
1.00366018334954e-06,0.205591312710127,0
9.76533070380048e-07,0.201568002133919,0
9.13121776358725e-07,0.195818303509446,0
9.00282371818368e-07,0.189113751803792,0
9.12499934697266e-07,0.195583921526322,0
6.98167752812788e-07,0.176200034320967,0
6.97045793714735e-07,0.179362257142145,0
5.72113266067733e-07,0.171798960615951,0
5.93532918317617e-07,0.176341725689577,0
6.37441418870808e-07,0.182875648275318,0
4.1200136549985e-07,0.161915570420714,0
4.758143971048e-07,0.179829844820995,0
4.90549936341651e-07,0.184711193941723,0
4.48164179638633e-07,0.18493632495627,0
5.68344460150568e-07,0.205268541086718,0
7.09954754955013e-07,0.222254162548161,0
6.63950977920618e-07,0.218329258550367,0
5.88913710281545e-07,0.207145901212881,0
5.8834058213082e-07,0.212399340485353,0
5.72537276087804e-07,0.212865370577886,0
6.066572194782e-07,0.215513662055662,0
5.04871946704997e-07,0.205969652074743,0
5.03631002772659e-07,0.204627315152632,0
4.53941316162102e-07,0.190246699842951,0
2.96540102124218e-07,0.162952068613015,0
7.98949217594655e-08,0.118056071465692,0
1.10437459261419e-07,0.124040710345834,0
1.55700290696133e-07,0.131595463281273,0
1.88406232131955e-07,0.138298551149294,0
2.97102272712626e-07,0.153912720027377,0
7.96492698868822e-07,0.217064222078073,0
8.46304467016058e-07,0.213409072301386,0
8.22055381609765e-07,0.217928679003864,0
6.76904722241666e-07,0.206470687748928,0
6.97432643306081e-07,0.214487405980739,0
6.91593572734736e-07,0.205573245644614,0
1.21741328188638e-06,0.261448697446686,0
1.41484985551041e-06,0.27051531560539,0
1.45075076008904e-06,0.273677899956459,0
1.52237593810592e-06,0.290024606809795,0
9.34522729290306e-07,0.233144266136002,0
8.5911528661124e-07,0.22530832072916,0
8.55261559586121e-07,0.22480451933578,0
8.5866304895781e-07,0.2318773282008,0
6.4141270148295e-07,0.203614445191656,0
6.95686579571743e-07,0.208543223198792,0
4.97548483751589e-07,0.182210591191624,0
5.1379962060232e-07,0.189294316689729,0
1.00837669930314e-06,0.237275606933191,0
1.04101415597449e-06,0.218079174803621,0
1.08235834873775e-06,0.226304691592143,0
1.06124931955875e-06,0.228692473612072,0
1.00656631944216e-06,0.219143181521287,0
9.67332529360259e-07,0.206791298248861,0
9.09120241346272e-07,0.195645221862322,0
1.42837113009709e-06,0.252841190635778,0
1.7100795761063e-06,0.277053534458536,0
1.74045524899081e-06,0.284995911686608,0
1.111093841289e-06,0.246091819958186,0
1.27081984509704e-06,0.274078654710973,0
1.65055619194037e-06,0.282412329507435,0
1.66128983885295e-06,0.282565272637972,0
1.66024934684864e-06,0.281432057813126,0
1.43553547018903e-06,0.269344369445467,0
1.40775423839082e-06,0.27572085071689,0
1.35880907049809e-06,0.271397477525475,0
1.24307339164879e-06,0.263481735312029,0
1.19645039323958e-06,0.256028564999761,0
1.20341654437832e-06,0.254444796039914,0
7.8148369698981e-07,0.227401942252991,0
3.48655221332732e-07,0.173966370868825,0
6.12667799720586e-07,0.202299913749757,0
9.67961993673763e-07,0.251406909764443,0
1.37391049703316e-06,0.302845289015865,0
1.4166312931144e-06,0.288921020020193,0
1.05400267864549e-06,0.24987569529164,0
9.25675807863099e-07,0.237779326215347,0
9.20491928055914e-07,0.241448570672467,0
1.00396413659989e-06,0.244276346006782,0
9.95922834210812e-07,0.23695008366608,0
1.01235203144918e-06,0.235372660220442,0
1.01278545068037e-06,0.234146700020591,0
9.61006680993399e-07,0.224812307276807,0
6.838633698323e-07,0.190010715798548,0
6.4296772250038e-07,0.190390333768689,0
5.9734424434073e-07,0.185196109648897,0
6.4724129090773e-07,0.184178173495477,0
9.63497382549502e-07,0.211659260693805,0
6.96877142538211e-07,0.185878914086977,0
6.28797331450391e-07,0.182296182792655,0
6.16093228983856e-07,0.18554187940274,0
5.18324974735072e-07,0.188833906144179,0
6.01188919466542e-07,0.208506950306697,0
5.29693207430507e-07,0.194058454361039,0
8.98034046776547e-07,0.243078533660346,0
1.08250222629512e-06,0.267952995285472,0
1.05674147370492e-06,0.26420145055904,0
9.74739007758607e-07,0.259197836818371,0
9.69719967801923e-07,0.260348601142629,0
1.29958880585493e-06,0.28985487242233,0
1.25347354753436e-06,0.286611124216342,0
1.15474114690566e-06,0.272270898301522,0
9.2363567650529e-07,0.234780516066234,0
8.68072260077365e-07,0.236940013680193,0
7.89933049471235e-07,0.233332139431993,0
1.14945197921709e-06,0.265414683031748,0
9.89552560074996e-07,0.24819694305641,0
7.35052813232952e-07,0.216238713068549,0
8.59896608445976e-07,0.221627228285294,0
9.08569504735932e-07,0.218797237789044,0
1.14795758210422e-06,0.243585015543235,0
1.28520105011768e-06,0.253365500530643,0
1.41053257595773e-06,0.272154344394483,0
1.46967780511981e-06,0.277390177382588,0
1.53561553187871e-06,0.284324692584213,0
9.60610898606687e-07,0.235534265849998,0
9.47676568227568e-07,0.235390820733022,0
9.57869602364564e-07,0.240270307106098,0
2.06348883113317e-07,0.144743746458902,0
3.76743741291555e-07,0.186654101912303,0
4.09559258350542e-07,0.189178299980982,0
4.22317672212906e-07,0.189842377698643,0
3.80819954473273e-07,0.179892217253767,0
4.1033581602775e-07,0.18212484415074,0
3.14455240095851e-07,0.166685257144474,0
3.00814146947321e-07,0.171532632424063,0
1.93567601294814e-07,0.157558412321456,0
1.86097044977702e-07,0.155709096812552,0
2.64648831625836e-07,0.167102213993958,0
2.59884793200885e-07,0.165199611247902,0
4.34510699680529e-07,0.185206011425827,0
3.85903429660535e-07,0.179070833836691,0
3.71957311326218e-07,0.180015111778326,0
2.81308137672854e-07,0.168461748319973,0
2.66256853895773e-07,0.164840082851021,0
2.74708945767775e-07,0.163985611661415,0
3.69286000558196e-06,0.193544827358676,0
3.04516016451207e-05,0.38700765752238,0
3.98115151682302e-05,0.385594791272772,0
0.000100338624905579,0.187359841432619,1
0.000508371468622573,0.206303218616425,1
0.000660877495554221,0.134288296710192,1
0.00073428687379094,0.135646971856745,1
0.000685547075389638,0.111877368359496,1
0.000609621220909065,0.106227435115273,1
0.00051920746869551,0.0983867434670739,1
0.000387036555824732,0.0786317512138893,1
0.000311871300999309,0.0663395689687383,1
0.000222379262720217,0.04951676459698,1
0.000174733326321526,0.0460414990741749,1
0.000109624413378112,0.0495672059092374,1
8.62085124254181e-05,0.0645255039348801,1
8.10527977220253e-05,0.0693601007902446,1
8.09590667339704e-05,0.0819530141742837,1
9.69332964566497e-05,0.0934092533914727,1
8.66933145248051e-05,0.0795060319789521,1
8.85764553389546e-05,0.0723959236281741,1
0.000173069207406829,0.0897123778904396,1
0.000191240164439628,0.0717316227441111,1
0.000279229749058154,0.0783088375901259,1
0.00039422207164406,0.0883549722948617,1
0.000417173318715076,0.0863447992241607,1
0.000457681664694413,0.0882708540018406,1
0.000465296918956824,0.0860445500596128,1
0.000473269546015118,0.088144171143901,1
0.000468553477892326,0.0819461973612727,1
0.000615464588393189,0.066442598705959,1
0.00144862850406464,0.0705268263162056,1
0.00155569422516531,0.0573955635041397,1
0.00185086136533626,0.0649858372138018,1
0.0016711838066933,0.055825270924537,1
0.00158895508137763,0.0518457012935215,1
0.0013523853334629,0.0460777264430855,1
0.00108541274541267,0.0389051975572326,1
0.000879180841899734,0.0334486925236506,1
0.000828876794665182,0.0331057020924233,1
0.00081324941478634,0.0358762094749664,1
0.000516645879691184,0.0376365702388479,1
0.000534673831126543,0.0480764443786597,1
0.00104900317173468,0.0410165223363716,1
0.00174718454420191,0.048687916515956,1
0.00208842675547632,0.0550405199586707,1
0.00247769417677746,0.0606768693130255,1
0.00389134882629258,0.0467390375349709,1
0.00503662784658101,0.0384490068903169,1
0.00407155745057766,0.0314509500985132,1
0.0043201936343145,0.0111846191008814,1
0.0201960173360533,0.0194313026239195,1
0.0439792916958739,0.0330058019807075,1
0.0535856500492608,0.0352968086959579,1
0.0806801403058398,0.0293634906678484,1
0.143581422926421,0.0302031999771158,1
0.132708378147456,0.0169231793652311,1
0.119144064221809,0.0155899446737141,1
0.105524289423819,0.0144187619972517,1
0.0802913250712156,0.011437086753805,1
0.0529800923639911,0.00763577348084995,1
0.0510782905836043,0.00748914097515097,1
0.0696088462862361,0.010402346072288,1
0.0687288976768871,0.00672647545248356,1
0.0737929770985524,0.0106969366875128,1
0.0482689219396117,0.00860990941803944,1
0.0563615968618752,0.0180236179957959,1
0.0614809700391239,0.0177386808052172,1
0.060308339408163,0.01724102017072,1
0.0610310706769677,0.0173775735461409,1
0.0633802115379103,0.0180461635511553,1
0.0580882826617853,0.0157250839915264,1
0.0214679693816387,0.00576795854149465,1
0.01448385629815,0.00847241950304546,1
0.0186903936184058,0.0109677072570425,1
0.0200227769694983,0.0112076186867499,1
0.0180836970702117,0.0116502685793012,1
0.0169621576477479,0.012409711487065,1
0.0169445558293604,0.0119215145637743,1
0.0166989618841684,0.0108786795393392,1
0.016570212530874,0.0110771292344871,1
0.0138713041520457,0.0202170340894851,1
0.00648355925161226,0.0125948142364104,1
0.00628345252907913,0.0162710142009471,1
0.00560455079301095,0.0109423662617884,1
0.012813556611305,0.0208984099831217,1
0.0185788222381996,0.0302841022959702,1
0.0221610898382765,0.0376319895914024,1
0.0265520288576866,0.0435279739873105,1
0.0255820807942899,0.0493915232052337,1
0.0182215499422197,0.0326019825628358,1
0.0147189476513997,0.0244727026979872,1
0.0122467213179894,0.019022014727654,1
0.0100042657706499,0.0157737095400322,1
0.00641049249133735,0.0144047903287266,1
0.00639765228641853,0.0173115391900999,1
0.00639067065653197,0.0176239555801009,1
0.0051228313285325,0.0174864463234185,1
0.00393482529874858,0.0149954727413142,1
0.00404013777795876,0.0145098709049793,1
0.00351886688391451,0.0154548901259601,1
0.00273172557799216,0.0174402511841737,1
0.00410437966044424,0.0268541548808535,1
0.00329521077183143,0.0209576436633439,1
0.00376722097723902,0.0191273972153886,1
0.00444665966149281,0.0215759894233895,1
0.00789095590603591,0.0213248617481418,1
0.0110432813688535,0.0253815077113226,1
0.0234382473698381,0.00968711719019922,1
0.10068261258352,0.0268956663442959,1
0.163484746690163,0.0404480801578701,1
0.215121418011069,0.0485203211769676,1
0.201000896802283,0.0383626751373938,1
0.172812497413784,0.034316247206918,1
0.159219990802614,0.0236101452962384,1
0.160003259764732,0.0236176953068821,1
0.120717519704206,0.0178091377454843,1
0.0721486963254186,0.0115702089009942,1
0.0358362282550044,0.00664240117886248,1
0.0370328107373699,0.00868478463447294,1
0.0417260714754032,0.00774824401139344,1
0.0573973119798986,0.0116185545314378,1
0.0597913735808727,0.0150600373590561,1
0.0587719395673228,0.00722973350561974,1
0.0689626108403544,0.0142548873721298,1
0.0674353840443179,0.0151523624233441,1
0.0737264692077825,0.0106420694260247,1
0.0826217966461536,0.00761528500042897,1
0.0848407969376217,0.00697425125763109,1
0.0858011505151474,0.00735734700530094,1
0.0874756237167791,0.00805162020405712,1
0.0829245328929324,0.00626455189179721,1
0.0753219658129631,0.00276723692403736,1
0.124113077883072,0.00850434214929898,1
0.118952382014775,0.00463227672676014,1
0.114024002082709,0.00401111040473336,1
0.112842865234877,0.0049291960374888,1
0.111461043846645,0.0053310327994774,1
0.140907351725845,0.00870727980052063,1
0.149083395264573,0.00931708062034277,1
0.144819809001162,0.00847816554432045,1
0.141904128549586,0.0096641035307637,1
0.144261560432547,0.0139435900191771,1
0.0694638671173633,0.00725847585360621,1
0.0534590902616757,0.011795750623872,1
0.0592089298053046,0.00870824987417245,1
0.0699668702066749,0.01135248159141,1
0.102113448225289,0.0236200912164086,1
0.113747295520448,0.0270739421954367,1
0.114426933870544,0.0139350957790206,1
0.10352803927878,0.0119572050232551,1
0.107639348052016,0.0110827842738847,1
0.115045013872679,0.00755776455600954,1
0.141872918532652,0.0116550761183266,1
0.156962434818732,0.0128365598778751,1
0.186374462331661,0.0165895202647681,1
0.186225586006775,0.0158195277315084,1
0.196328891253018,0.0155420884040137,1
0.173206480498255,0.0125779288248866,1
0.123012869246075,0.0119848707120463,1
0.130219603448314,0.0140956755511022,1
0.0624604053742422,0.00707896946358245,1
0.0320938404846159,0.00793087630509251,1
0.0312257090060604,0.00698837449155125,1
0.0305608101269415,0.0069715512073803,1
0.027907142272095,0.00941491042037569,1
0.00856740945303128,0.000631634661281046,1
0.00798593221116241,0.00915583527375844,1
0.00753688464523664,0.00915022243861805,1
0.00851804611180697,0.0078336212957972,1
0.0153156712351136,0.0097509015954345,1
0.0160671205371424,0.0103771350739427,1
0.0176418393564414,0.011347859761892,1
0.0186587973487103,0.0122554394926073,1
0.0203229087798692,0.00767712490933029,1
0.0280989543688818,0.00917009732940411,1
0.0275234518078991,0.00861639132523413,1
0.0219469067808352,0.0064203966006979,1
0.0224455813526611,0.00748298104551326,1
0.0246923119416046,0.0100688490102572,1
0.0218080358255143,0.00936440276205052,1
0.027758903828836,0.00945563315632512,1
0.0274045486288931,0.00857275546520129,1
0.0352896608178748,0.00738130084039444,1
0.0496614932046931,0.00962055243271531,1
0.0486874977170849,0.00859409574736953,1
0.0497585622111546,0.0067363535855742,1
0.0868241045163637,0.00714984213972725,1
0.122738145344664,0.00565947823772067,1
0.121384306132891,0.00429802834764159,1
0.119780117706171,0.00404423700841266,1
0.130690168909612,0.00236103459307833,1
0.143468702613887,0.00242949232321194,1
0.145976465466001,0.00399168672326412,1
0.143651708981224,0.00396914638428717,1
0.136445196763952,0.00384041888891501,1
0.125314287168494,0.00358829739937955,1
0.116768183667758,0.00457345675985117,1
0.095559969833801,0.005671433723397,1
0.080597603381933,0.00554657585072848,1
0.0796164117724189,0.0052611978067657,1
0.088821340508997,0.0100865521796681,1
0.0835448514346484,0.0135497623085512,1
0.0649228931020859,0.0112145384149095,1
0.065319041947319,0.0091996698843034,1
0.0717366561538309,0.00746138757980114,1
0.0646382341894982,0.00385776335229538,1
0.0938841192106072,0.00826231449591236,1
0.173454678465373,0.0163024371908714,1
0.203514297163231,0.0133084540878197,1
0.205930467399984,0.012821523275913,1
0.208301798477901,0.0117454138778863,1
0.204083618579509,0.012495395711144,1
0.198702105486637,0.00851460821293059,1
0.199909498429499,0.0069925047761762,1
0.225786129441172,0.00828860205988808,1
0.206055881083125,0.00624364467131398,1
0.205942669882875,0.00661617165602844,1
0.181253129025408,0.00463035083980326,1
0.185460632950349,0.00677908210123608,1
0.239735148345139,0.00911625622385162,1
0.31799238835008,0.0134762563637551,1
0.353235029505432,0.0146026176287247,1
0.352649973018591,0.0124405255318164,1
0.35518558740146,0.0154985023583706,1
0.280214204070196,0.0148322474648894,1
0.209995470261176,0.012397935990137,1
0.163258565566729,0.0060711419592401,1
0.139460686250966,0.00713504305689188,1
0.145424902784691,0.0063624517330422,1
0.153241523244949,0.00686450189700861,1
0.188378982801194,0.00956711188068253,1
0.208575921603445,0.0100326719750146,1
0.30145118858382,0.0219975428820977,1
0.322562435195635,0.0133419216486429,1
0.292722202411261,0.0147918194448102,1
0.277254671378123,0.0131235778852643,1
0.330188860298832,0.0180154691123682,1
0.333419667263873,0.0144954927641162,1
0.327197859807811,0.0131644455210664,1
0.331874200532473,0.0176296524710038,1
0.333567586228088,0.0171782569333951,1
0.311155885123452,0.0195270163212602,1
0.171729116282011,0.0107406812172837,1
0.13396949164867,0.0145508312407945,1
0.175878556597814,0.0177963100010761,1
0.182364869723401,0.0178273481429212,1
0.186843843829779,0.0205696081674786,1
0.143602493820782,0.034039916183055,1
0.0904966444782251,0.0292414569888179,1
0.0533901738702428,0.0146681114134793,1
0.0378406425264635,0.0110858610383084,1
0.0323399463712879,0.00695234692714717,1
0.0300021840008673,0.00690614735441351,1
0.0299163540730537,0.0109157019744177,1
0.0180605756257568,0.00665950101159715,1
0.016785498277468,0.0105117734575458,1
0.0161549190819025,0.0162017841590391,1
0.0218116496772078,0.0144679526561148,1
0.017626560134525,0.00615681307276933,1
0.0198353269590466,0.0028129048049702,1
0.0317160597029521,0.00639865396278365,1
0.0344368425127662,0.00885314745536099,1
0.0331556411887104,0.0070278578346169,1
0.0346455756532932,0.00460316583402666,1
0.092297570055461,0.0115653519428197,1
0.101818963129651,0.0105059127093169,1
0.205133285977829,0.0165285023094052,1
0.248690385213911,0.0116803098423502,1
0.218918440682045,0.011405474297981,1
0.197171053075916,0.0116137007255823,1
0.194465168705582,0.0114936745793965,1
0.180645578082373,0.00812653708290007,1
0.148549054590864,0.0060761014989717,1
0.108522803186832,0.00261721042867579,1
0.194943617906787,0.00661021578136707,1
0.279212933302414,0.00961207716383768,1
0.220349322983496,0.00908187348606093,1
0.177892983623877,0.0110774503004873,1
0.183096998459677,0.00778416027362484,1
0.269908623361749,0.0104280220872236,1
0.27599713698372,0.00938713884891908,1
0.271802279503506,0.0109054419811912,1
0.265762355911498,0.0120707818244134,1
0.249370039922219,0.0130100495600851,1
0.216261029473197,0.0117839383249449,1
0.206946326559329,0.0102381539182846,1
0.188643030160671,0.0086275758880592,1
0.158323509139537,0.00684236514873346,1
0.136507563940446,0.00779860150540206,1
0.144079689260447,0.00483048402248892,1
0.284200127006554,0.015392296519444,1
0.383323798050225,0.0173976002922471,1
0.405097986118316,0.0156283192177461,1
0.463275596012236,0.0172561296774348,1
0.351854474584987,0.011638788353237,1
0.364478897315443,0.0130458790231148,1
0.358537945027507,0.012294047215181,1
0.308743827054858,0.00915843234585722,1
0.356606567601582,0.00912140431283229,1
0.466148215536302,0.0190337358520009,1
0.459383012149924,0.0174709009426693,1
0.426075721795764,0.0170883120567454,1
0.395608278364858,0.0203779878434426,1
0.17377216900216,0.0098883085419289,1
0.128537833637618,0.0107134659257739,1
0.118278132986989,0.00705634490443265,1
0.109014699686573,0.00614392529276869,1
0.0514847045731437,0.00190476706968507,1
0.055427190865521,0.00373207138927076,1
0.0735751767433833,0.00422011666764049,1
0.107174309754159,0.00442315216427597,1
0.136438055876855,0.0055860195695175,1
0.137768454965865,0.0056295657159646,1
0.166124571929546,0.00695926361749138,1
0.184581562541025,0.00699353429375678,1
0.186534847014549,0.00598282239050231,1
0.198981924901904,0.00772102810439405,1
0.198117646840108,0.00628401160732178,1
0.189634989839922,0.00711821896853563,1
0.135386571725304,0.00231691511612484,1
0.140678252604162,0.00544741115450724,1
0.149746355524383,0.00608509383009489,1
0.198200849939616,0.00893865960747522,1
0.172347016270096,0.0088677677749444,1
0.115310449324002,0.00352448748930937,1
0.15185909368926,0.00754923105126011,1
0.154646099980835,0.00698428588214929,1
0.165541082326951,0.00869719877716059,1
0.0997880044649328,0.00137508058922356,1
0.117959421520019,0.00387927861788813,1
0.123162530137187,0.00274415421218432,1
0.128784604527074,0.00358830966684675,1
0.129061876501456,0.00338500462387987,1
0.121922490910385,0.00358139955296327,1
0.113818907707918,0.00513734893451164,1
0.10005815371652,0.00410000493344844,1
0.102335211958856,0.00470712695049493,1
0.105832338466483,0.0043005494467112,1
0.105835938126704,0.00787686150343158,1
0.0417663252050329,0.00191939198521904,1
0.0463555009777474,0.00640066525164648,1
0.0410508400969145,0.00374454266802293,1
0.0399596126181528,0.00369124282143837,1
0.0479067137086861,0.00427164321983658,1
0.0527327914430717,0.0051135589495142,1
0.0728273240117813,0.00381843917817178,1
0.164273169370564,0.0123664615295887,1
0.232508117673422,0.0141901671262282,1
0.237100223373479,0.0121148839378802,1
0.221124914676313,0.0101640862937509,1
0.223078472677153,0.0111501531668512,1
0.249095835283607,0.012924993805115,1
0.222562384310491,0.0057980105537731,1
0.24992307962695,0.00733567231489673,1
0.25695293764615,0.00723854281865391,1
0.282074938269213,0.0108352384355049,1
0.266227695653799,0.00946030249683699,1
0.191793472421931,0.00702712301740227,1
0.190224573458046,0.00962421970804904,1
0.187367164283925,0.0111736045163648,1
0.180137421662939,0.0104213390979063,1
0.0529902319567865,0.000480122139807531,1
0.0232505082093264,0.00289983723447847,1
0.0533463631006643,0.00504986945047223,1
0.208307006859771,0.0169259119727121,1
0.218663605905353,0.0139142583084743,1
0.193463713397324,0.0123132913883937,1
0.202590258143502,0.00591863552685828,1
0.335953499672813,0.00944089483047135,1
0.32698639385565,0.0074335033812563,1
0.330273099827352,0.00656588592715505,1
0.356499315532246,0.00733176454667896,1
0.488360963613105,0.0106020823699072,1
0.50538342197306,0.00512125752002039,1
0.546971484571616,0.00621024123457561,1
0.55253492775814,0.00701248578683659,1
0.570071436157229,0.00736590434724875,1
0.538089759277619,0.00902292158222006,1
0.523577654078315,0.0095752503061746,1
0.514802436033722,0.00897248471019182,1
0.511922441301878,0.0101406570132761,1
0.480349115658921,0.0088901101534913,1
0.2187622200983,0.00114134431848259,1
0.177703731554285,0.00464677747214151,1
0.317967153250691,0.00893444144644308,1
0.324620109426339,0.00523601933673368,1
0.2748751139577,0.00364741328130816,1
0.264329008909475,0.00335216977401949,1
0.243506223790825,0.00231560570631753,1
0.246370469726807,0.00397556242975055,1
0.254252111793487,0.00419054903814413,1
0.30958676954845,0.00707274932262006,1
0.362259943238923,0.00917093468898601,1
0.334574978866237,0.0177141036265321,1
0.178518212594312,0.00996729899067402,1
0.137289412108826,0.0142528175757845,1
0.134500327698287,0.0171297879592084,1
0.083628387817228,0.0112807819379196,1
0.0642424648056009,0.00779679035089401,1
0.0459184064858255,0.00459618579880041,1
0.0424526826864862,0.00275446463241444,1
0.141707086925574,0.0100513510208121,1
0.203048933788803,0.0106988775484851,1
0.218034781200006,0.0129355468832848,1
0.198961893495978,0.00969567416595333,1
0.194555494260614,0.00906288318465252,1
0.190851715528223,0.00816073739827478,1
0.193230859854144,0.00847421291597538,1
0.211818306032618,0.00922908446440326,1
0.251754010770039,0.0109037571232996,1
0.253939112031148,0.0107793193625592,1
0.190553790348178,0.0138295262076148,1
0.119842354265663,0.00797317368979289,1
0.120303074847093,0.00518654464672933,1
0.1289036879899,0.0068130008404531,1
0.126503337582242,0.0079759071849401,1
0.127394374757162,0.00902530116868954,1
0.130818962688318,0.00794523198518531,1
0.118362547287675,0.00776699591729843,1
0.110933288150976,0.00522343667104876,1
0.196780016356084,0.0116726872823821,1
0.216602036117963,0.0140723684618025,1
0.236024969976156,0.0127099157232647,1
0.247676794801289,0.00963822013284908,1
0.357028394122384,0.0130054411197953,1
0.511125008916291,0.0180392009148223,1
0.649894085918538,0.0213875400498584,1
0.743378357527904,0.0239426785371983,1
0.82439557882021,0.0284361075743341,1
0.827610201089459,0.0360883626008612,1
0.652473415250438,0.0316380494112815,1
0.485428608840286,0.0293313168660714,1
0.121013971714557,0.00568924558904034,1
0.0211929673464481,0.00336869059878598,1
0.038947564607605,0.0440388331332903,1
0.0523826279920138,0.0554362550244883,1
0.131584903913912,0.0242460628851807,1
0.22951549168139,0.0293137777118474,1
0.252098167627025,0.033055775966932,1
0.244443614253764,0.0287005979663618,1
0.211583118711489,0.0230445782674191,1
0.197144308145093,0.0175133883193662,1
0.154882789584115,0.0103374740243127,1
0.130354020577492,0.00691713715955504,1
0.11932062378549,0.00651036056128031,1
0.124064150946658,0.00606598872121866,1
0.115789952224171,0.00745559312982027,1
0.116265195219656,0.00628375120055321,1
0.119249634067836,0.00571419182705133,1
0.120708617923029,0.00580470651210214,1
0.149338500429001,0.0081372085912152,1
0.164815690510563,0.00881218236308413,1
0.154281028070202,0.00932056672195689,1
0.191588627993067,0.015251816657879,1
0.223775994608036,0.0172520220183992,1
0.170221475667326,0.00952976112224039,1
0.169771843018906,0.0106750200199512,1
0.11894124100762,0.00899007716542537,1
0.108233337888176,0.00556030097804296,1
0.130716386361489,0.00661312884898916,1
0.126278078733602,0.00564847081560538,1
0.133789871253724,0.00708922990342387,1
0.132257392703404,0.00767298671675875,1
0.115526065379166,0.0061753900042105,1
0.101181849075101,0.0049941083154328,1
0.101425339150225,0.00947243600590905,1
0.108431527341257,0.00566355532583675,1
0.189937509539186,0.0104008043719656,1
0.230689406728149,0.015603422804094,1
0.246983286561285,0.0239608213431487,1
0.251151103635125,0.0262425971092123,1
0.210430572874676,0.0228480677912346,1
0.19495811408284,0.0224135253075185,1
0.17462418408472,0.0139201185582332,1
0.18928795598717,0.012894879724509,1
0.250793676530348,0.0166107461242724,1
0.299550030109768,0.0215263150429118,1
0.315238503949363,0.0235194582585257,1
0.37340733492294,0.0222141586289078,1
0.590309004023018,0.0299689674413054,1
0.592690128455247,0.0182446298790276,1
0.493943390294686,0.0166041441528045,1
0.321122476209349,0.0105263308104062,1
0.28917308011216,0.00977923772067541,1
0.382953825121157,0.0133814792409112,1
0.3789295219731,0.0114060839432541,1
0.441025022678053,0.00797211616007958,1
0.524482736217953,0.00911360138154595,1
0.536971996591846,0.0116078899556164,1
0.321066165845079,0.00549170200705902,1
0.221746799368476,0.00431259825186539,1
0.188548078367373,0.00302858082722293,1
0.17591984308317,0.00242514692531613,1
0.173748851165196,0.00314562969438818,1
0.18527879207972,0.00469508985389771,1
0.0836807343345453,0,1
0.0454633648636613,0.00420231013482137,1
0.0382861374867993,0.00339711651859102,1
0.0481324357710023,0.00411490164974492,1
0.0574495108023773,0.00652313198932842,1
0.0569981407031055,0.00740224517587455,1
0.0755506543395413,0.009804234074288,1
0.0792849671098209,0.0104940426333936,1
0.10345891147214,0.0118779162492281,1
0.127659847735635,0.0110311715231988,1
0.120715353887108,0.0112637854591211,1
0.11462391383814,0.00983308167251224,1
0.10539347499773,0.00418687594827489,1
0.201226324588544,0.00932992773713927,1
0.243171477121492,0.0105289541203985,1
0.242826938940146,0.00984611829565244,1
0.231809128676921,0.00921718241738572,1
0.239378880877276,0.00952954050064789,1
0.199096599608589,0.00827528944251145,1
0.147117908101394,0.00612723716562587,1
0.172601561148756,0.00611946968926557,1
0.208721812247006,0.00848281137096212,1
0.206273085343093,0.00630670316920134,1
0.169513343627469,0.00614055067336442,1
0.160242393485636,0.00812574290970893,1
0.163905611973103,0.00952416337793191,1
0.192561626736024,0.00882657830004401,1
0.255509485475705,0.0128118991313528,1
0.267420634082452,0.0143146535003084,1
0.513294853829038,0.0106232512154498,1
0.800698973177569,0.0158575268253243,1
0.632399844493675,0.00678433419312356,1
0.562847735171288,0.00823855553153586,1
0.558013346201397,0.00807424655160204,1
0.53804910765377,0.00732424656801689,1
0.536715011958698,0.00677842318028278,1
0.584684302026004,0.00869791396844969,1
0.705566443968883,0.0095302603177736,1
0.986889739080353,0.0111943252144349,1
1,0.0345778546761071,1
0.585019771871225,0.0230225991606655,1
0.512429726145253,0.0564094217698378,1
0.482991935973595,0.0385980433287828,1
0.334746906997054,0.0321246302763667,1
0.212436540011967,0.0217570169307264,1
0.141123615329231,0.0150466576844142,1
0.0692804963138899,0.00679088549268082,1
0.0250675011402001,0.00627404637785549,1
0.0247120995096114,0.00935635691903459,1
0.0258126749248042,0.00618096057572913,1
0.0292497029832462,0.00814708364339741,1
0.0297653093885571,0.00779932797957173,1
0.0585994491307349,0.0218238188055461,1
0.0918263532323529,0.0366438451411751,1
0.139098852721864,0.0524569002214292,1
0.142657576851737,0.0405772007247561,1
0.129408044598519,0.0420009976230134,1
0.143258732813715,0.0218331691048553,1
0.262265784303283,0.036703618777079,1
0.265696602972712,0.0179538847129307,1
0.22629856012875,0.0157761195041666,1
0.187864967304703,0.011916724072615,1
0.214822042003681,0.0142467272564977,1
0.238263274834145,0.0152696942211327,1
0.258399556586287,0.0155218370017289,1
0.256290676572075,0.0127346204208581,1
0.249615929935027,0.0101495190136146,1
0.251391955687721,0.0161363767599816,1
0.161973693704294,0.0132640260339812,1
0.0911083400592965,0.00812089756435784,1
0.0841718999072332,0.00783540163353341,1
0.0915778576445026,0.0089877020076892,1
0.0889154215068423,0.00418343473778574,1
0.117978558952628,0.00638103987548648,1
0.115338913217173,0.0045182955580827,1
0.108957880316258,0.00531353975481144,1
0.0880466472743559,0.00421289743537612,1
0.088121010173472,0.00392251188039965,1
0.0989119908282885,0.00477057838864491,1
0.102963625676055,0.00636847899629413,1
0.0992706273206483,0.00542995450943617,1
0.0797346192254219,0.00287572926208808,1
0.104413906620059,0.0113198193324551,1
0.0930805799940263,0.00383769045653062,1
0.0957705947317165,0.00610221389774874,1
0.093759751412854,0.00659669842134039,1
0.162912841160777,0.0101445788525247,1
0.298207880347341,0.016765120548687,1
0.285151076712985,0.0157230304953777,1
0.306112947157251,0.0152583267690418,1
0.283381102743945,0.0118197520245163,1
0.539854036343669,0.0146477307107116,1
0.90275994861488,0.0170944427971171,1
0.835749458602454,0.0108068243568277,1
0.652611194573382,0.00873276289150876,1
0.671570223662811,0.00862612094442129,1
0.717629012050205,0.00794843197102146,1
0.729680045382951,0.00813048429475086,1
0.704836605178163,0.00723395389141003,1
0.715657254659126,0.00595886537327223,1
0.735987676575566,0.00593763935814346,1
0.638380194089014,0.00781251248668046,1
0.34272319692653,0.00238706791204004,1
0.321059661637493,0.00600248008792395,1
0.34759427654658,0.00561612459141632,1
0.347015996117299,0.00371517240414435,1
0.353921051322092,0.00422228974183263,1
0.34702040486153,0.00330465844067656,1
0.37984386944511,0.00432612756040463,1
0.360725188607461,0.00417246017659248,1
0.284381350940459,0.00172778165653832,1
0.369315067850022,0.00305260019597212,1
0.485261471718386,0.00545428288825048,1
0.507649163788626,0.00438906090419052,1
0.493968253254176,0.00411120260584386,1
0.422849555860864,0.00571465122147809,1
0.293086401457367,0.00319974317428965,1
0.284911003727824,0.00419180231123104,1
0.295350285866907,0.00418435090004934,1
0.230793198868932,0.00394997959079252,1
0.178433252676936,0.00385417943924521,1
0.18829400405825,0.00940642814084758,1
0.211682388732169,0.00988153437730858,1
0.278309011585419,0.0156894589885532,1
0.291271962521788,0.0149297732784632,1
0.27371626434772,0.021704341979794,1
0.232217033446387,0.0192364518027654,1
0.232933027455619,0.014583115784863,1
0.278539812795757,0.0168559184801112,1
0.282693798058766,0.0167008389247375,1
0.278710759528107,0.0202943558647911,1
0.276055603266599,0.0218088365714629,1
0.234821208238669,0.0271431671025437,1
0.132049416824168,0.0102451712922892,1
0.109750590205445,0.00880481424286144,1
0.113747538778332,0.00427403265127209,1
0.116193297751932,0.0029981393928672,1
0.125951931788807,0.00614863950510879,1
0.102542555428339,0.00401456530846638,1
0.112345445035119,0.00469256249272354,1
0.114904890489543,0.00397224622459905,1
0.155417445609798,0.00593809058629081,1
0.162861940810267,0.00652686961354976,1
0.186058706191663,0.00978653017894012,1
0.156527125184722,0.00859771451947918,1
0.154620845495851,0.0143044626515458,1
0.148842137034199,0.0177387806373088,1
0.132949990458474,0.0148746171250382,1
0.12296928853683,0.0169006255845876,1
0.0681890245044757,0.0105260317259958,1
0.0630272144998271,0.0125989145070834,1
0.0564609498140315,0.0125465260277729,1
0.0627509898143544,0.0153465074804767,1
0.0513859881068354,0.0121687442392185,1
0.0459401983849284,0.0093819304821158,1
0.0689926873909634,0.0128767317124441,1
0.115010996981827,0.0232758993895952,1
0.17856473517893,0.0371682876947793,1
0.223948614680805,0.0431533145528389,1
0.267327652959452,0.0499609692587361,1
0.297602655448956,0.0509109265633449,1
0.267237476294943,0.0568426318281671,1
0.189996538437983,0.0481670775864057,1
0.0993972935614277,0.0261682996229203,1
0.0301779116459312,0.0107451594149094,1
0.0196840321153081,0.0138987687928495,1
0.015920406695755,0.0112958946145123,1
0.0168130777866183,0.0166912150829839,1
0.018891409041458,0.0164330229765901,1
0.0192354007957312,0.0111458122007625,1
0.0135569311538147,0.00675436736338797,1
0.0131443152810739,0.00755283014199215,1
0.0172419084337775,0.00691252529906776,1
0.135879670036306,0.0178217922578054,1
0.212321325555176,0.0112253039775219,1
0.199566342852404,0.00885843473202231,1
0.191521916331777,0.00849201793538515,1
0.183052818548047,0.00753538398312752,1
0.189445196244146,0.00782967461739715,1
0.19756916246142,0.00888460549996427,1
0.172804785920681,0.00781975090889672,1
0.168416227985041,0.00442819936495455,1
0.201399157875942,0.00412351520212222,1
0.184344698769674,0.00494231480534785,1
0.156484178914761,0.00587505527796124,1
0.145278473889471,0.00504878852268261,1
0.150492415426327,0.00556925307705317,1
0.160901715869296,0.00651072097857431,1
0.161698572674502,0.00673399160357643,1
0.158197844820023,0.00626092100571948,1
0.160233758021341,0.00595571218034335,1
0.141963629403217,0.00729086439353708,1
0.0821883213025964,0.0043069080361608,1
0.0776112486678209,0.00552919162200942,1
0.0799539676321224,0.00732028830895031,1
0.0847418643191042,0.00796244319000379,1
0.0905682388927668,0.00657738721613429,1
0.107046216020403,0.00905430218614154,1
0.112616224224458,0.0056888819693452,1
0.130410144291599,0.00701398771370894,1
0.133249724797802,0.00609426925281842,1
0.126977061064451,0.00767958500973313,1
0.129326737832135,0.0095597875006534,1
0.133524163983512,0.00922565392234414,1
0.133818408441195,0.00944206184467343,1
0.132158591184378,0.01149416815206,1
0.110859356735414,0.0106207320203773,1
0.0880952449940266,0.00533049485857547,1
0.159324285198988,0.0174930664275271,1
0.263139546660631,0.0256243506374433,1
0.279839106677274,0.0231987956277162,1
0.282977732562145,0.026822655544653,1
0.276581283080553,0.0273877758139226,1
0.254669297297964,0.025926892469265,1
0.229318733683993,0.0265524250784298,1
0.133340711598605,0.015727379683123,1
0.0677846921290047,0.00918667788146872,1
0.0458203033012977,0.00659307356697581,1
0.0440325815467534,0.00878356211435519,1
0.0464130589367142,0.0113328369094551,1
0.073105569215409,0.0186862918765977,1
0.0649484385560849,0.00384693245726657,1
0.0942507735111514,0.0081944209783958,1
0.151037511878724,0.0133063962958679,1
0.226606390775048,0.0191538981824203,1
0.274042611705734,0.021682034721055,1
0.276107138566398,0.018809179592493,1
0.27095453283501,0.0180059301202399,1
0.268637597467434,0.0170819663122536,1
0.24716419879685,0.0161784234319056,1
0.16039617287278,0.00953755750069585,1
0.103274372037023,0.0108388650840481,1
0.102809120454742,0.0102049178519569,1
0.101896840456305,0.00968491493861651,1
0.140867978831058,0.0120738046220551,1
0.146768084325954,0.00426269703970536,1
0.266687479445833,0.0071303062078742,1
0.506754012643741,0.0143481063713297,1
0.639745798285494,0.0115544964039512,1
0.64899722052139,0.00717269616429313,1
0.671131100613456,0.00902129368982412,1
0.665787036766474,0.00857851507421616,1
0.689221900782182,0.00820187314671893,1
0.66992464389246,0.00923453321382947,1
0.580987379102694,0.00675124115284334,1
0.57287496566157,0.0140531156063163,1
0.544574825469299,0.0209678767669425,1
0.348651354899223,0.0161379634463984,1
0.118813825678939,0.00878693763552308,1
0.100329124379733,0.0180915182524435,1
0.0993897927976124,0.0148083749724502,1
0.0982280070242461,0.0132732947896316,1
0.100200082722387,0.0157728040634638,1
0.0692839136594498,0.0112174878078824,1
0.104169531638882,0.0167329037453326,1
0.128388997197901,0.012388554069857,1
0.136182422590796,0.0121722613371886,1
0.129337483543681,0.00965046418459593,1
0.117128248663692,0.00873159253860927,1
0.0921940712142,0.00627018680075906,1
0.0906970959666406,0.0058102414672511,1
0.10293804478792,0.00789158236362899,1
0.10703638141468,0.00637914568790586,1
0.165246337481227,0.00749527501246418,1
0.162809959921197,0.0050574801747936,1
0.13908024113076,0.00530363024813253,1
0.133314714663501,0.00652464899479828,1
0.126329656989784,0.00664077660994719,1
0.126589999042061,0.00643389566051557,1
0.133544291187595,0.00718613333707007,1
0.139906753953437,0.00819468147640432,1
0.136694883772198,0.00628355281152837,1
0.143700900038602,0.00733881510042787,1
0.0802886075775382,0.00622771347030614,1
0.0966105938686394,0.00492087705356495,1
0.192285010249214,0.00758708618153512,1
0.181475889563536,0.00720185563545783,1
0.185504637876378,0.00601710551670505,1
0.268820088711549,0.00976439657616771,1
0.280028792958496,0.00964863719579516,1
0.227773174113336,0.00634181216504365,1
0.172609788077014,0.00487636504287894,1
0.206733267642731,0.00638123477210662,1
0.201399791513062,0.00614258766831804,1
0.206985770634083,0.0116022680939849,1
0.185804593132431,0.0137231931861517,1
0.170830753513487,0.00824121825222296,1
0.190163693141173,0.0137423461200385,1
0.141191840601959,0.00868033280281894,1
0.100361218109775,0.00452445487788415,1
0.0872525306484355,0.00452603018354422,1
0.0909103336667055,0.00382610168598185,1
0.0930952126518768,0.00408855690306923,1
0.090266759362974,0.00395676393212463,1
0.104287516668616,0.00534644125282432,1
0.131126877581,0.00743758423627894,1
0.131824231053894,0.0087213772885528,1
0.115654758101515,0.00578690535594602,1
0.123384929550984,0.00767913216048222,1
0.126667087230922,0.0101251587133735,1
0.0989675036517455,0.00719438408968639,1
0.0609816260635037,0.00310151785668888,1
0.100614709165364,0.0060761233462249,1
0.11824946700957,0.000726029534246799,1
0.192263055481193,0.00360362195477075,1
0.187525657535174,0.00310462044259421,1
0.259782693649027,0.00364437250112018,1
0.317610459882748,0.00287549821388274,1
0.326469407216494,0.00340113501465589,1
0.346894516741906,0.00254492602430332,1
0.429756059722451,0.00418147431496275,1
0.443332737838524,0.00396628301023946,1
0.391319801870012,0.00323932454989272,1
0.382201419125677,0.0045856676889035,1
0.392895375195871,0.0052236629430471,1
0.407463201404573,0.00395234587871388,1
0.330989073229221,0.00368672311276368,1
0.291126454726403,0.00482861788390551,1
0.305103379584954,0.00391551249528026,1
0.286982769334597,0.00582423017187987,1
0.217660716637131,0.00358910790748525,1
0.210695082055029,0.002314801486235,1
0.245148876231133,0.0036241330529164,1
0.281665997308943,0.00685252135101939,1
0.240312083597986,0.0025750439371729,1
0.245244839050716,0.00287337887713153,1
0.319094151050499,0.00599616489130901,1
0.337240215112473,0.0071326972561007,1
0.382472134866443,0.00914306760153646,1
0.462195713876656,0.0111285155938183,1
0.417176654701569,0.00957017474808783,1
0.375157738585635,0.010826770340486,1
0.422466147322241,0.0121082007194274,1
0.456365219801842,0.0111478501117736,1
0.296600020838056,0.0162249552406689,1
0.0523720872928856,0.00958700334104833,1
0.0399936724644353,0.0150857041190994,1
0.028135968583826,0.0114814696363951,1
0.026356529276174,0.0129315475292104,1
0.0259967995866498,0.0122244910572246,1
0.0183655531985536,0.0164037876504569,1
0.00135058382291489,0.00818763040392817,1
0.00123301445473018,0.0340246204045166,1
0.00140297995595524,0.031068168311328,1
0.00533201530640792,0.000638825183140139,1
0.0458890283907244,0.0181246503604617,1
0.0548230113814678,0.0189203042829482,1
0.058510564805889,0.0177236434499948,1
0.0549045883379945,0.016740619271899,1
0.0526318475128955,0.0160048201555275,1
0.0494011434870064,0.0147693453009818,1
0.0459611854513173,0.0132744090500696,1
0.0405013545056285,0.0120183546458381,1
0.0303664096746842,0.00839366162700059,1
0.0262399412941878,0.0141786093263454,1
0.0146882174888684,0.0184432494891008,1
0.021797072084681,0.0260105835167964,1
0.0305692219264277,0.0217181159548332,1
0.111168750466305,0.0299238277941018,1
0.133254199432238,0.020733496721327,1
0.134802592993921,0.020612154142153,1
0.156789312843397,0.0201430656756881,1
0.177600212110425,0.0110928357906398,1
0.185208120854692,0.00773524604323893,1
0.205666526482625,0.00837671260794769,1
0.195291876330849,0.00744931164463515,1
0.199765530266307,0.00722899703581424,1
0.217900829083689,0.00820941910136775,1
0.190887606439028,0.0080685262974482,1
0.182746709255823,0.00863451017888868,1
0.17958952680682,0.00743335544368099,1
0.147139340406651,0.00754465357970845,1
0.0482046853595144,0.00101165277400323,1
0.0503154361283268,0.00404912298412989,1
0.053092806543626,0.00185556774954972,1
0.0749060512008653,0.00446463200996,1
0.0774319795557673,0.00386313097884099,1
0.0767775931094345,0.00414370001029672,1
0.0805272017682018,0.00307172909694074,1
0.0883148341889903,0.0029949551701182,1
0.0843942860603545,0.00421692959544679,1
0.077905920782725,0.00340634858401227,1
0.0774865681887617,0.00336555396007152,1
0.0723676882044847,0.00360716071579807,1
0.0666043259317719,0.00551135222801502,1
0.0382936653584326,0.00167179840851436,1
0.0344615371178874,0.00251466023305021,1
0.0337954192848772,0.00280980094502086,1
0.032597316495409,0.00323721855635219,1
0.0494882168112216,0.00752986839184305,1
0.0514084808454306,0.0044273062324983,1
0.0512307974998851,0.00454078275477228,1
0.0599666463161863,0.00378517806725538,1
0.0908359775057756,0.00700645597862147,1
0.0912797443089396,0.00677282644221728,1
0.0952777505375419,0.006770618554256,1
0.104756586930516,0.00597454692217105,1
0.0994966012188327,0.00466085019048499,1
0.0940978694411212,0.00530676031604198,1
0.0917493684500076,0.00550038831696764,1
0.0905240458323002,0.00822338145141566,1
0.0875145277224677,0.00748211746434312,1
0.0838578206196712,0.00754562023152737,1
0.0517593743995803,0.00363633113891605,1
0.0484307259587627,0.00402995585654682,1
0.0322686697104509,0.00220450668748746,1
0.0309190865678579,0.00408913028112731,1
0.0390625345995126,0.00904283995601618,1
0.0423819343903713,0.0103418396412595,1
0.0455618425986314,0.0125245122744458,1
0.0462948660703705,0.0124762552741503,1
0.0312852505035533,0.0132482395125127,1
0.0167856190350454,0.0228129388355971,1
0.0152605214736903,0.0337677345981764,1
0.00599565815672337,0.0227066626382432,1
0.0033041894521094,0.0122594743054315,1
0.0030357406551896,0.0170208854061773,1
0.00302443471004253,0.0142378765268068,1
0.00257291870689803,0.00816274891714883,1
0.00290141755559386,0.0060614954857239,1
0.00320932934740531,0.00492210835977686,1
0.00344215307886952,0.00528564896102915,1
0.00344404189474812,0.00498726982579332,1
0.00331433071712413,0.00366932961249005,1
0.00662549171625709,0.00797973681604102,1
0.0115140770160197,0.0149335339194047,1
0.0136223196083462,0.0181169126163784,1
0.0125613422850219,0.018224840004737,1
0.0145775646326359,0.0223169427569468,1
0.0141225809302404,0.0308104250155236,1
0.0128712480681592,0.0356804348645469,1
0.0117565817071018,0.0365937002460308,1
0.00852857622378609,0.0306604817339233,1
0.00242500610533474,0.0185665035487839,1
0.0019819873305244,0.0518686261987757,1
0.00216403751810625,0.0572391068362544,1
0.00161722445828456,0.12707598169969,1
0.000361847486892687,0.0948468145461586,1
0.000195038257538787,0.180272809472435,1
0.000206235126941921,0.185295848802372,1
0.000222130893253075,0.195623646323173,1
0.000188343697681127,0.412217171758925,0
4.01676096215443e-05,0.37758231904476,0
1.11325445819071e-05,0.455210301155904,0
8.10773558821512e-06,0.433903810248818,0
6.9386608778641e-06,0.396069964956134,0
3.09757185252676e-06,0.255897251435073,0
1.94335273818232e-06,0.234493969998188,0
2.13973845775941e-06,0.247281822931345,0
2.51480057054721e-06,0.265808835245217,0
2.83451603607464e-06,0.28289854125118,0
2.43930951690351e-06,0.274228676483742,0
2.40759511575339e-06,0.280571908479512,0
2.3654936601509e-06,0.272657052788944,0
2.35568235413591e-06,0.268772524282325,0
2.3791963300355e-06,0.276111330768737,0
4.68311801828303e-07,0.149563674338682,0
3.27973656188011e-07,0.151633830927213,0
3.64714839050802e-07,0.159010348893152,0
4.16268144982723e-07,0.169730250210653,0
4.78080349529476e-07,0.187972048060426,0
5.62194885612277e-07,0.209841239191656,0
6.85357290529421e-07,0.238593427685796,0
5.89324380660536e-07,0.221122550160828,0
3.9585670756989e-07,0.194870230913268,0
3.79144876686115e-07,0.194174348131059,0
4.37419217851916e-07,0.203878087998809,0
5.26105439499439e-07,0.213637886886328,0
5.40068589696922e-07,0.219399353100169,0
5.31622691229708e-07,0.216264573366152,0
6.0004075750208e-07,0.216217448896877,0
7.31831647223732e-07,0.223380132617584,0
7.08236680646157e-07,0.209179120877293,0
6.23774003751931e-07,0.191745573252493,0
6.52137415600171e-07,0.193258027621329,0
6.53999724778213e-07,0.19043343988621,0
6.24899774176007e-07,0.185116679074788,0
5.67530265628879e-07,0.181880909405843,0
6.6607388651549e-07,0.186814069768582,0
6.40442719010068e-07,0.181305277243652,0
1.0549244240234e-06,0.223844069011437,0
1.14098523756069e-06,0.221297347468045,0
1.02890545409512e-06,0.213458549622741,0
9.00351332998599e-07,0.206400733928364,0
8.34418846812986e-07,0.200398490999602,0
8.03494104773277e-07,0.20347413180781,0
7.67757801837268e-07,0.205811768151737,0
6.7955418934742e-07,0.18074875835195,0
2.40606332000391e-06,0.248092765390159,0
