Activity,Complexity,Tag
6.65658185492949e-07,0.293601997913708,0
6.38377511011111e-07,0.319548557235644,0
4.86217478586814e-07,0.283548395539787,0
4.05936690067218e-07,0.250511521690859,0
3.39834508844599e-07,0.237371963438669,0
3.34034384639068e-07,0.241895430963094,0
1.96298881958311e-07,0.199946184226223,0
1.90370861967712e-07,0.209558927064617,0
1.83962779609063e-07,0.196373590815778,0
1.89402580098866e-07,0.195649108496024,0
1.83702557003853e-07,0.196422372913582,0
1.35418776274849e-07,0.173483980169863,0
1.06760553411945e-07,0.159962160877243,0
1.16584560990693e-07,0.17188715474539,0
2.54983913289695e-07,0.214406602767248,0
2.61884243362843e-07,0.205545743113731,0
2.77735566399967e-07,0.196103631123432,0
3.07634680494064e-07,0.20882288042264,0
3.69748124508026e-07,0.236106069394561,0
3.71417315561185e-07,0.236579576909662,0
3.65445085925195e-07,0.227914141621859,0
3.95075518165305e-07,0.233981339813108,0
4.10392397949391e-07,0.243549304921861,0
4.17035224461577e-07,0.243591900238584,0
2.68172284953144e-07,0.213077994585432,0
2.33699637726063e-07,0.197970796082981,0
2.83139918609183e-07,0.224393973815797,0
2.82048977633084e-07,0.222739338314525,0
2.28643423886124e-07,0.205946919982105,0
2.4854229605197e-07,0.211214487276534,0
2.37346379591341e-07,0.217789515502473,0
3.1346904451607e-07,0.221184136461427,0
7.28537493637184e-07,0.305512533432329,0
7.10995730719619e-07,0.300651100781738,0
7.59830268967158e-07,0.300023101802209,0
8.02516746050574e-07,0.303894395726864,0
7.46456196652003e-07,0.298383834322634,0
7.45479656945067e-07,0.301184433174436,0
7.31276175428475e-07,0.296493707068653,0
6.87130981457879e-07,0.284878254661326,0
6.42800489656946e-07,0.274366710157754,0
5.8112863857017e-07,0.285634252980948,0
2.6582011026665e-07,0.212288472428759,0
3.10935298096916e-07,0.221520842483729,0
2.74867981770182e-07,0.213908990889113,0
2.23931219496416e-07,0.216776262540104,0
1.89653134991189e-07,0.198616343269086,0
1.95462524088237e-07,0.203364979445382,0
1.966427907032e-07,0.2044636495748,0
1.55519260536527e-07,0.184897304142241,0
1.66709940319341e-07,0.181459489696611,0
1.74268581216894e-07,0.180788285244309,0
5.95718425780874e-07,0.28752685408396,0
6.44504121937266e-07,0.262346302865151,0
8.27955821932768e-07,0.290178549862963,0
1.30477950616431e-06,0.314299683859874,0
3.24450660007701e-06,0.483541797939996,0
9.84059254020497e-06,0.576961749558072,0
5.49658983369447e-05,0.63739610905313,0
7.73520820913045e-05,0.516860102259686,0
7.90878217524694e-05,0.394730930950774,0
0.000167920132433199,0.344891097194846,0
0.000262482423832839,0.419027104790133,0
0.000391053888879772,0.425161222204928,1
0.000619070207002469,0.33315010712944,1
0.000576190749378837,0.22599227753961,1
0.000493474328029965,0.173006819074307,1
0.000394168040973841,0.148487190314667,1
0.000370057049727485,0.127343436755949,1
0.000324012909895683,0.112418321966831,1
0.000184454160049154,0.0830555343081683,1
0.000179993158288533,0.0872227151660595,1
0.000184704804770643,0.0883136275476095,1
0.00020052077771489,0.102184589998793,1
0.000165091758536303,0.0966196355622457,1
0.000213332777259217,0.0895030893229179,1
0.000323910333951371,0.12578205996388,1
0.000225854057398032,0.0953734466409646,1
0.000190425970247391,0.0977264889815882,1
0.000225294166408452,0.0880857660744864,1
0.000193570458818857,0.0548973735143637,1
0.000221464326822457,0.0425349468695357,1
0.000328466037807684,0.055905727516805,1
0.000380207954904654,0.0554087168304016,1
0.000285763749985483,0.0509732898049695,1
0.000266547017542202,0.0585250725475913,1
0.000376929942025817,0.071485263605658,1
0.00037840013932205,0.0726191301534179,1
0.000327290037373148,0.0573722822683873,1
0.000607963670158767,0.0566974859008317,1
0.000503356267867607,0.0447640814793706,1
0.000711346057214579,0.04892945083774,1
0.000836006372980512,0.0274289719238321,1
0.00124859792737304,0.0385666936886435,1
0.00133201289978993,0.0226855769743024,1
0.00240707363601925,0.0290901777780598,1
0.00300683887608196,0.0331232931894907,1
0.003277084691793,0.024618785740672,1
0.00334398143091775,0.0183766077633427,1
0.0042935179851418,0.0211580155061707,1
0.0042704119611093,0.0188476320043685,1
0.00434477313007515,0.0175707413855789,1
0.00438341229297541,0.020020526871473,1
0.00584855603912558,0.0219698527335844,1
0.00717163502084448,0.028853947214179,1
0.0105081356460239,0.0407935013135495,1
0.01230348773402,0.0379352174471269,1
0.0115138843821844,0.0394937437610375,1
0.00940735333296922,0.0367024423354567,1
0.0095905186355304,0.0380599549120257,1
0.00694501673557658,0.030389131086218,1
0.00432725672315156,0.017142738441916,1
0.00454057097072845,0.0158368472384786,1
0.00462403966592091,0.0174436337958741,1
0.00442986607988492,0.0173611726628402,1
0.00436767992822491,0.0159476508237584,1
0.00371185755458814,0.0117863224499942,1
0.00364635120750174,0.0133971466107449,1
0.00435030664343207,0.0125666973134059,1
0.00636484652979204,0.0183200721326066,1
0.00720315267120442,0.0227925674981614,1
0.0107178828705883,0.0342117639044717,1
0.0116817989992881,0.0347863395911767,1
0.0141024979226384,0.0359432054994218,1
0.014205783811418,0.0237736639966425,1
0.0107729965757678,0.0185792883896146,1
0.00744717443665437,0.0129168581117356,1
0.00559272263004752,0.00871363444641026,1
0.00553917388820781,0.00962022170598537,1
0.00647233590790926,0.007937552609327,1
0.00720662020670412,0.00703213900022324,1
0.00766190619158591,0.00844961936832536,1
0.00928170045577988,0.00645054731460146,1
0.0108820059524908,0.00574889747944063,1
0.0106472515749423,0.00776894107233269,1
0.0105078264782053,0.00729487670746044,1
0.0108839377955648,0.00723456007446715,1
0.0144690045589875,0.00435668048770307,1
0.0271790447274629,0.00744677596548781,1
0.0275743552744757,0.00706331913406376,1
0.0380639080996883,0.00931542172338117,1
0.0363023106504713,0.00777238067832454,1
0.0370007853101164,0.00923318556365189,1
0.0447859860959226,0.0113997384139546,1
0.0423613692186314,0.0075454478030957,1
0.0454404155793236,0.00748727406601452,1
0.0438088904487674,0.00718807955548878,1
0.0411090378247718,0.00913344293486574,1
0.0406506768492839,0.0104174055943185,1
0.0371116498212442,0.00741861595481241,1
0.0431409190717268,0.0118780221511459,1
0.0478545827417678,0.0135738878428048,1
0.046469958025888,0.0133132357728405,1
0.0364156619415641,0.0122032313469886,1
0.0334083449941594,0.0163175596709072,1
0.0359479718527483,0.0194943281965974,1
0.0332655735053138,0.016313095587618,1
0.0326105231404445,0.014363680963554,1
0.0216670591878844,0.0129981707358678,1
0.00857488594713743,0.00958481996074821,1
0.0101743186440381,0.00959883898019681,1
0.0101786531465953,0.0101434479615521,1
0.0151773692075462,0.0138199357212184,1
0.0173035649353298,0.0154816280998681,1
0.0181248665916309,0.013841424605403,1
0.0180053998112079,0.0129162874415471,1
0.0169838551560616,0.0141491536375592,1
0.0172540489328911,0.016131507714101,1
0.0174305676995595,0.0149994277141923,1
0.0156841483238241,0.0148018917228651,1
0.0151499159147416,0.0141688003717032,1
0.0174374783645185,0.0101157095285772,1
0.0152104548387808,0.00869703836262377,1
0.013486116984941,0.00561560812674592,1
0.0146562869869916,0.00868460337376703,1
0.0149856379694724,0.0117905379556031,1
0.0137278879267697,0.0106117209498494,1
0.0143119138842291,0.0113419950523106,1
0.0182596385714281,0.0154810316413936,1
0.0203035683738473,0.0187717335362331,1
0.0341338806684839,0.0134644562174656,1
0.0771712206913309,0.0334693851047992,1
0.116917094626854,0.0490667288010937,1
0.160717044162558,0.0660297200201111,1
0.140581332245558,0.0390518508065973,1
0.116632731430378,0.0289785485050986,1
0.108131756311107,0.0199050638181741,1
0.101517878593252,0.0163112200488033,1
0.111652257517761,0.0133040169768446,1
0.104877371220653,0.00811545863034592,1
0.0999583981993154,0.00935566905532501,1
0.10495826070761,0.00943117429535582,1
0.106600281900029,0.00897207056779776,1
0.0987987261806861,0.00726869199925588,1
0.10188972794853,0.0059178348792847,1
0.168610658766581,0.0105868330401578,1
0.155851367389086,0.00982200646201006,1
0.122901959934584,0.00792172579406649,1
0.119214079597991,0.0098407035472241,1
0.115640880243478,0.0130995553426605,1
0.102018794135923,0.0123735250679673,1
0.102884335167141,0.0132548909293348,1
0.103878016610802,0.0152642337277211,1
0.0807562012837096,0.0143780329251023,1
0.0689526650941951,0.0176053896462803,1
0.0488656318614383,0.0225335598279459,1
0.0395743286001843,0.0216092885840562,1
0.0459449505658644,0.0240078643073678,1
0.0635746809121576,0.0269394198804812,1
0.0668410644024854,0.0205050819063401,1
0.0641641625447935,0.0149921035430018,1
0.0718642516232114,0.0112479864968953,1
0.0831091854835533,0.0103014114787425,1
0.0800079066420457,0.00897588183004792,1
0.0809732648704456,0.0103494331090881,1
0.0886780360459812,0.0110440757609547,1
0.107913429942014,0.0157206454182676,1
0.107537808876893,0.0160073497989803,1
0.0866985345587881,0.0139341092807108,1
0.103453693146136,0.0186151129860997,1
0.0925726419685107,0.0231587664402019,1
0.073796257329545,0.0247670129808536,1
0.0704180067711573,0.0295858356598728,1
0.046620489426638,0.0238270549657984,1
0.0406622756170243,0.0213748922295972,1
0.0505225883474023,0.0170378773085472,1
0.070245937108014,0.0230836971980087,1
0.0790802934745347,0.0242565993514818,1
0.0656044095932913,0.020217171892874,1
0.052127408856566,0.0120046291112755,1
0.0848322678978654,0.0168236216019075,1
0.0909335052380306,0.0177153596798562,1
0.104472629150431,0.0202936017510867,1
0.0879252223672762,0.020101704811287,1
0.0618841688468313,0.0137507322517399,1
0.0553356605187101,0.015305080650755,1
0.0552119918237797,0.0144045155953132,1
0.0592700374060066,0.0168699777746779,1
0.0523498260614688,0.014316872110155,1
0.0756794859712778,0.0236076342989616,1
0.061552031659003,0.0136561679646644,1
0.0782796092192926,0.0191717740520942,1
0.0725668510193071,0.0189143057714409,1
0.072648983259437,0.0160822050660476,1
0.0748319973145133,0.0149916660921276,1
0.0785116248768824,0.0176612429550851,1
0.0873414509546549,0.0190127499469642,1
0.112403969545275,0.0236156051418473,1
0.126434453760725,0.0261256676847787,1
0.113293440652907,0.0249618281684133,1
0.0993911847717082,0.0340494774928992,1
0.0707121225724051,0.0264804082944627,1
0.056557753457725,0.0223574772357709,1
0.0540759944980529,0.0218800183503606,1
0.0376698375166118,0.0208372072808715,1
0.0391442610755879,0.0129445023632283,1
0.0386437686163026,0.0139829828422438,1
0.0377412657999784,0.0114153383710796,1
0.0563530764432306,0.0151568393260764,1
0.126823926663138,0.0281437310097355,1
0.185592826712987,0.0468982047433704,1
0.201223637950411,0.0503391808598916,1
0.203461647268293,0.0486331730111574,1
0.199003232413623,0.0415943957409482,1
0.148517975490791,0.034076933581104,1
0.094312607336928,0.0272957716896242,1
0.0803997808365654,0.0248878163151955,1
0.0499469919275211,0.0157929816923512,1
0.0491902138814948,0.0180542865223137,1
0.0421702669415149,0.0196042182587642,1
0.0382484239237335,0.0174784787159354,1
0.045904958510977,0.0208161503920506,1
0.072381653219689,0.0214600510627138,1
0.145297795862996,0.0509048045033177,1
0.162253515308685,0.0433174524203751,1
0.150239574796979,0.0298187244451032,1
0.125724985634483,0.0261647214093122,1
0.105326706090183,0.026730988915857,1
0.112847702681736,0.0159654977516533,1
0.123164893287837,0.0118183003887131,1
0.131034021886607,0.013568243558478,1
0.131014619910211,0.0121525230057509,1
0.140189246788652,0.0145018840336558,1
0.108684405938417,0.0104806914865158,1
0.0893718679210546,0.00864417093895312,1
0.127800698179272,0.012991159007071,1
0.154382517491968,0.0158042001214538,1
0.240737258540272,0.0187404314664334,1
0.386485985411391,0.0397971927356107,1
0.471849732884829,0.0536726142743861,1
0.557853986170952,0.0570891745470731,1
0.555328254495249,0.0729996922618997,1
0.395258768785332,0.0620507382603478,1
0.279766579872611,0.0490414083767374,1
0.165695149591661,0.0322936627508553,1
0.109203877391015,0.0256145843826212,1
0.0366245252430102,0.00716710019682358,1
0.00469465168898119,0.0217998771292571,1
0.00796347910733801,0.0529512148248001,1
0.0160498378353116,0.059117086746845,1
0.0365210757189251,0.0696536984974701,1
0.06768552990259,0.0436777451708357,1
0.126336044020604,0.0713100736754664,1
0.143004748717482,0.0648391532161454,1
0.131482247429589,0.0632029975838689,1
0.116046044403829,0.0576576093140486,1
0.0996908078435076,0.0530742329460974,1
0.0889886063331329,0.0504309350373923,1
0.0625138894405916,0.0172251831105754,1
0.0454748008618463,0.0122181471905519,1
0.0380174210215059,0.00924578930781893,1
0.0359361809801007,0.00814798747990405,1
0.0458718406865606,0.0100369012540285,1
0.0470002348773525,0.00827719862739005,1
0.0487347727338494,0.00848257384488489,1
0.0485301862855829,0.00873091899494331,1
0.0475301550232428,0.008616792597107,1
0.043593601972849,0.00576602755344742,1
0.0702030853364039,0.0169679862115123,1
0.0613918937485344,0.0145155119033713,1
0.0622889440627061,0.0158719383239399,1
0.0700990809174219,0.0188811466456465,1
0.0823443608633333,0.00846638625611564,1
0.105168554260672,0.0127719758581041,1
0.104653911996523,0.0124884387047735,1
0.128785406379326,0.0151918384143707,1
0.147612120104085,0.0170515026700552,1
0.183029639620267,0.0233267428703585,1
0.161910084083555,0.0219504104507702,1
0.148039976501092,0.0193964848306873,1
0.126916957950852,0.0163119246681274,1
0.0748675404362689,0.0119928087688403,1
0.0331089381335078,0.0268571443768071,1
0.0361954009874925,0.0324121272193448,1
0.0685776636904969,0.0287887617028944,1
0.0800079300311637,0.0219478723467327,1
0.0808266611739279,0.0222672831821885,1
0.071686991951527,0.0219632169825693,1
0.0530111463699698,0.0118873031073013,1
0.0579270898417712,0.0132194753598688,1
0.0648020345794363,0.01481519652589,1
0.073214700086922,0.0166526955044416,1
0.0739021299715044,0.016390731329904,1
0.0727493783844396,0.0152442488768557,1
0.0628000843638246,0.018797426248475,1
0.0645169506602013,0.0206290433680875,1
0.0659309897832767,0.018033562644255,1
0.0509101964322903,0.00888065607580772,1
0.0682333910217767,0.0172918626918472,1
0.0642532070382071,0.0119820073583872,1
0.0672483807593713,0.0122948459739102,1
0.0607918701883918,0.00871159147518338,1
0.0652983901808726,0.00987591802197382,1
0.111022061895288,0.0113673741466579,1
0.389353482759554,0.0304850658732987,1
0.457614617481253,0.0269935803718162,1
0.446432957577885,0.0250941712883193,1
0.426385650580711,0.0250731751085669,1
0.428066377477992,0.0238476615388351,1
0.445771516767486,0.0239893541609235,1
0.501582408589756,0.0255358704265131,1
0.637024718952306,0.0325504182905857,1
0.813388039598232,0.0394572764831383,1
0.919069505597512,0.0559432388471459,1
0.604607580019271,0.0579508157037831,1
0.405020593536501,0.0525273090502775,1
0.3204107992485,0.0494276220816993,1
0.237631247773549,0.0514120772733458,1
0.0718235041791607,0.0220504883382477,1
0.0136792103228941,0.0150213098281041,1
0.00589585340135636,0.0214034185462918,1
0.00636480140584285,0.0338227147442573,1
0.0092279589925148,0.0343802735167112,1
0.0145042198106333,0.0473406828307522,1
0.0188522043991384,0.0597358271500192,1
0.0369928393778208,0.0289238947595937,1
0.0884349831879816,0.0554550932240418,1
0.125552056706629,0.0724447003851521,1
0.147385689038408,0.0645032631687003,1
0.125158288455795,0.053999034780952,1
0.113487541399876,0.0458733005707169,1
0.0899202709542194,0.0231851261011604,1
0.0793774820937715,0.00691620033466862,1
0.162005037888626,0.0120631255878137,1
0.148128624356343,0.00595505333298358,1
0.139920148971248,0.00453833971195314,1
0.147184621826455,0.00462225449917348,1
0.147141635895993,0.00462344449629626,1
0.145704224905914,0.00469469289263429,1
0.136831877968044,0.00415203376662516,1
0.135523930414401,0.00431931028627819,1
0.126015769451132,0.00476114242540765,1
0.103629220334668,0.00835689768987929,1
0.0372366527325573,0.00158957854774119,1
0.0243232868834616,0.00523871279549402,1
0.0193757213008568,0.0108240890898306,1
0.023344669468207,0.00751764870028534,1
0.0499224991797431,0.0162040332428785,1
0.0519159259675674,0.0151223434799747,1
0.0538446986529466,0.0133111390256642,1
0.0681808568783077,0.0138297340326928,1
0.0727783386717691,0.00983253655823821,1
0.0706080400068829,0.00763222329190712,1
0.0656315709657792,0.00669898242468984,1
0.0600912684107627,0.0065783135503095,1
0.0642319039125167,0.00679896217979221,1
0.0678023628503877,0.00990862190321653,1
0.0578814399238791,0.00870891395419321,1
0.0596875658279348,0.00765123829575817,1
0.0945242800648629,0.0135385694142366,1
0.075837070124068,0.00920796595672367,1
0.0867103445627318,0.00837511288251605,1
0.224374279029243,0.0230367179153967,1
0.237746014207838,0.012265863016783,1
0.231105903165364,0.012045836831399,1
0.225314364605496,0.011803916651304,1
0.251536751775864,0.0112146569344262,1
0.358511024885066,0.0163434812347509,1
0.42321169698986,0.0180475211642735,1
0.425036821004325,0.0176332648112141,1
0.372249981744901,0.0160173842714386,1
0.349106684301061,0.0177106804502549,1
0.36564827556609,0.020875366632453,1
0.349806256866866,0.03129560924137,1
0.294844647566434,0.025461870830077,1
0.280163779890321,0.0227621660348387,1
0.336713286802448,0.0445625463748403,1
0.293245464241842,0.0525079653921399,1
0.144429077145591,0.0267575350624818,1
0.109372249873015,0.0193882939257919,1
0.0784438514871765,0.0147886706895949,1
0.078969551221707,0.0174022546389009,1
0.122525537354332,0.0155369674559935,1
0.136354038355124,0.00536465820357521,1
0.209565532769138,0.0095532724655284,1
0.311880508764026,0.0147731685488889,1
0.397032227375155,0.0181319509489925,1
0.46915479534399,0.0206881982827633,1
0.470014240290991,0.0211847757904539,1
0.471415351529158,0.0219421381570954,1
0.467742595469555,0.0218327931220355,1
0.442594403464739,0.0192532528297261,1
0.184877034366659,0.00912480638498121,1
0.00698616946707003,0.00545600831348384,1
0.00337118730821838,0.0208312583547264,1
0.00329894539063878,0.022051502146397,1
0.00512469814360299,0.0188371224778676,1
0.0182777985970723,0.0332912703250497,1
0.0361138816270864,0.0499422368525938,1
0.0897572469846252,0.0676346980091899,1
0.15663414894299,0.0833070950775425,1
0.230612839383811,0.101723910782373,1
0.242391558155853,0.100836103113607,1
0.253496608329383,0.0994765390471417,1
0.232148924586985,0.0398506211704638,1
0.174076075176084,0.0295301388176116,1
0.118022202926722,0.021395010543089,1
0.0865230912996999,0.0146734277740124,1
0.0713253452841139,0.0107951133959284,1
0.0725071735272576,0.0101293131981659,1
0.0756801905010206,0.00895381533667858,1
0.0708574156113465,0.00645818741083115,1
0.068666950341387,0.0058101250290287,1
0.060735092714739,0.00474864795500744,1
0.0545750519605875,0.00864083002131155,1
0.0506711337070741,0.00892967834165368,1
0.0594806410846956,0.00773142431137382,1
0.0674225499221592,0.00868401852502621,1
0.0627685501083621,0.00797130603670907,1
0.0749023841278997,0.00967191444372057,1
0.0739347916821896,0.00917800489673906,1
0.0846688067909512,0.0115082984508485,1
0.0867495378244531,0.0113914143643491,1
0.0832969280271175,0.0125475463429919,1
0.0785930808484113,0.0102692804677524,1
0.0710694771658317,0.00800849586925561,1
0.0811364454809564,0.0146644025872772,1
0.0798933991408303,0.0161059854159498,1
0.0843460197763548,0.020382786693657,1
0.0479716202157718,0.012151014114818,1
0.0385225243554652,0.0146102311208683,1
0.0423925870667695,0.018218837662994,1
0.0462178174096171,0.0123375616939863,1
0.0537246419308584,0.00642442083130462,1
0.0865325063469107,0.0127351431200904,1
0.0929709345332453,0.0163456554462266,1
0.100214716138655,0.0111422052348406,1
0.207140942985511,0.019132719678212,1
0.195825299856599,0.0139488527020638,1
0.187507781224755,0.0127048136946443,1
0.2105485635774,0.0145676427575442,1
0.216228877421962,0.0147640974409297,1
0.206418236498884,0.0113382850886358,1
0.189660062634062,0.01217277287198,1
0.198609117429963,0.0126328473528371,1
0.228038826616715,0.0140163070433389,1
0.225672389482001,0.0169184479163853,1
0.167816510055543,0.0146517642897267,1
0.164546737788545,0.0174013517958911,1
0.186576914642249,0.0219017384309593,1
0.164660523210802,0.0143753346797021,1
0.166872290763951,0.0128563461531971,1
0.203520650109271,0.0238238951804362,1
0.261080517985813,0.0361480876034339,1
0.277836765648671,0.0225369932904215,1
0.273121839414602,0.0217246593990966,1
0.268855549864959,0.0259242080195448,1
0.25389344836789,0.0192946408512219,1
0.272796598133566,0.0213122328792279,1
0.197278196466823,0.0163582864831199,1
0.163348879711066,0.0181650608210804,1
0.188268240197176,0.0217395008770106,1
0.21381627676657,0.0240217912409326,1
0.228046731250455,0.0238301568396932,1
0.194545854038176,0.0518393454169911,1
0.11404704935578,0.0379440847046532,1
0.0443840098964239,0.0132772364780544,1
0.00744138604260714,0.0217819838138011,1
0.0110271199096391,0.0228618006585112,1
0.00972024502418931,0.0215014628514459,1
0.0128836331839137,0.019507257816306,1
0.0560625363298845,0.0286377420527466,1
0.105209760037698,0.048742362408273,1
0.153714859888102,0.064443291138103,1
0.16354441763395,0.0572868480688156,1
0.23311526881092,0.053589054415971,1
0.256911649952649,0.0437464845738903,1
0.2221211732083,0.0406676287396768,1
0.193278394466103,0.0327611856658842,1
0.133381748190928,0.0250013376852941,1
0.0824400565005132,0.017737623889612,1
0.0770654966827028,0.0154073186755409,1
0.109792789619531,0.0179708534640677,1
0.12441588879572,0.0205792242016315,1
0.125447282182614,0.0172249519040533,1
0.113764022602282,0.0214039390404232,1
0.107038766102434,0.0226379190056381,1
0.113213660928653,0.0178830040812977,1
0.101063906099795,0.0146188118796891,1
0.0855675251681755,0.00864697104519127,1
0.0975607328431079,0.00846850159503933,1
0.10577760070974,0.00876866782293618,1
0.0934114016658393,0.00642730889283269,1
0.0934879450018541,0.00513203151994209,1
0.094799488128575,0.00449423573537328,1
0.104070824956966,0.0029611173058151,1
0.118586737248811,0.00354198563662091,1
0.115930818169087,0.0040562573322813,1
0.131212190257542,0.0058300476523826,1
0.137576159302309,0.0084415008873636,1
0.0878240160873254,0.00467996997065223,1
0.0878267483280031,0.00536961545029494,1
0.139980084177937,0.00788808713988042,1
0.18928514866385,0.0103485966071744,1
0.178592405778707,0.0122065170159065,1
0.170265213521464,0.0146031001536105,1
0.178859646946091,0.0155743041372611,1
0.177348111315196,0.0158651260499826,1
0.165797849515529,0.0136585562941756,1
0.153389399335684,0.00802448119563095,1
0.152678761674391,0.00783695047205701,1
0.128507367067989,0.00691528487818902,1
0.105076452301195,0.00895013903418355,1
0.0735113577456994,0.00673189722999808,1
0.0901074585678413,0.00874903752416265,1
0.124433525719144,0.0151206807698974,1
0.123640185646629,0.0150965092845331,1
0.117176807621943,0.0149707905391973,1
0.112611797880896,0.0171964024039495,1
0.103372460708947,0.0314071116834226,1
0.0910946609074065,0.0228562893302104,1
0.117531844557238,0.0250890130299765,1
0.0919239764785545,0.0081364251946453,1
0.132539966312573,0.0111870074215449,1
0.141078975226934,0.00870962100486588,1
0.132587376883218,0.00701022847929259,1
0.13141645431981,0.00741718977659015,1
0.127936476890943,0.00712298641491346,1
0.131370091042834,0.00702140751965274,1
0.132805163088491,0.00687006068873332,1
0.114203560101602,0.00855190189927365,1
0.0791474197530588,0.00520489276056032,1
0.155074680068536,0.011233497135298,1
0.282110141503763,0.0239804281978787,1
0.327645748243198,0.0394797520767422,1
0.379633527427475,0.0444189046141907,1
0.39633081530381,0.0448631534917439,1
0.372751177604418,0.042589053205308,1
0.352107498138028,0.0411332687243339,1
0.29445000639323,0.0432692638236127,1
0.16987651834335,0.025659593686394,1
0.0372286760457564,0.000772073325974666,1
0.00624716149143213,0.0162118727442218,1
0.00771564325120777,0.0231046612187857,1
0.00743586288588837,0.0353676270779821,1
0.00938421496731525,0.0691340332189649,1
0.0159894152465876,0.0799569641384088,1
0.0257062909411132,0.083933881543273,1
0.0806051054975913,0.0599614289336351,1
0.0983270915648107,0.0226642094841371,1
0.0901492919425759,0.0193780075792449,1
0.10950699907991,0.0203086298008225,1
0.15395556056215,0.023988674893271,1
0.226510474756456,0.0232965279674897,1
0.201810805515665,0.0193013365010647,1
0.174082818236638,0.0167438387327636,1
0.141544234782941,0.0132780600762951,1
0.111156252348862,0.00981861266638241,1
0.14801130575411,0.0117268552160131,1
0.157120754438053,0.00677091119275106,1
0.140546802535461,0.00592500709995426,1
0.137046014719356,0.00556782869787123,1
0.153437309536551,0.00667785992103373,1
0.149902836367849,0.00695027742751418,1
0.147716279386132,0.00684595045829996,1
0.146949877841295,0.0066537392233413,1
0.191654659354622,0.00941500459031407,1
0.203939619271377,0.00768189033224325,1
0.169169048716041,0.00595429680086204,1
0.136116572332248,0.00748671561088591,1
0.120105402688253,0.00665999152089753,1
0.115835658635388,0.00714452996750913,1
0.107488105774099,0.00720272775886887,1
0.0926740642453084,0.00536730216584155,1
0.0945772424982848,0.00581713836547129,1
0.103663851749507,0.00717177050701136,1
0.0490589654694485,0.000852524823802606,1
0.0554836118238098,0.0069028453712135,1
0.0538697239176859,0.00738700545147342,1
0.0529860275404003,0.0100024480666871,1
0.0600371747691321,0.01202226509351,1
0.0880214251820399,0.0176541810752029,1
0.103257445805172,0.0246946090696587,1
0.0869365374031742,0.0211063362580841,1
0.0868332872900682,0.0237878165067805,1
0.0673729115732026,0.0199115727653556,1
0.069528364511976,0.013613451595349,1
0.187813422050746,0.0123959826603233,1
0.279576401018168,0.0100119956975192,1
0.279500964606276,0.00905455820760998,1
0.297730603926245,0.0101641943170546,1
0.308834072177353,0.010996248620569,1
0.305269603668688,0.0102653088616332,1
0.3097104647329,0.0113352571597186,1
0.301922454014259,0.0108985391597357,1
0.284980255890425,0.0101189647861089,1
0.314120006464676,0.0133289558357701,1
0.292727250036634,0.0316133294915938,1
0.161741905294283,0.0357258615237929,1
0.160640025357043,0.0415072399022411,1
0.166758556107458,0.0371633794347977,1
0.172201246838578,0.0290730877230257,1
0.170978603598743,0.0330865418671446,1
0.123943028182933,0.0254395715691895,1
0.0967398536339364,0.0145889549447999,1
0.137721096159445,0.0189917555198356,1
0.195246414059342,0.0260253441732981,1
0.232176577069519,0.0294468763826512,1
0.265890512503865,0.0374889793336231,1
0.271286190329496,0.0474376494318275,1
0.206223619292923,0.0502655194624444,1
0.120878245415079,0.0379619223067308,1
0.0885673647113663,0.0296073067251821,1
0.0393999988996866,0.0150823237665314,1
0.00461358699960164,0.00728091780094969,1
0.00554037977899508,0.0511940820109127,1
0.00520116875636248,0.0399666358839223,1
0.00794470591073009,0.0500739494013351,1
0.0223485098091669,0.0558491811967219,1
0.0420475252320121,0.0619095899033995,1
0.0900134433148112,0.0881451101186808,1
0.0998107289751169,0.0580422497252942,1
0.112072138322332,0.056239053229646,1
0.122283193854795,0.0641457088349391,1
0.12248030367579,0.0685188308954717,1
0.131379902719547,0.0652154262555674,1
0.0949832732914523,0.0218713161887049,1
0.0688216154342129,0.0152513015608643,1
0.0671787254216575,0.010374095680791,1
0.067454534844503,0.00523125007332081,1
0.0837969620395302,0.00778361693980511,1
0.081570689592868,0.0073326461080212,1
0.0817737720068431,0.00737222318038817,1
0.0853792666818361,0.00689890539970059,1
0.0866689292440717,0.0068109215354121,1
0.0733941151261512,0.00475254849568255,1
0.0696833527758998,0.00605251796437058,1
0.073640928462932,0.006216209996251,1
0.0675130481369714,0.00652879499525014,1
0.0662077551025431,0.010663065662815,1
0.0547064593973466,0.00896110561930535,1
0.0649598942257898,0.0113072637410964,1
0.077564326348544,0.0150603941873636,1
0.0733619032941266,0.0120594903515153,1
0.0781410667808147,0.0139731152310771,1
0.0765151129760546,0.016806880385905,1
0.0741008597442788,0.0244542520990903,1
0.0435427554873761,0.0175330389264883,1
0.0627888435052886,0.0391025211625055,1
0.0598648664343269,0.0213117124874277,1
0.0947859289517837,0.0183741495059404,1
0.137944796953536,0.0275096515094091,1
0.148794180194996,0.0155752871299609,1
0.133584916902433,0.0123983855024704,1
0.159065739548436,0.0123276054714544,1
0.159264888800352,0.00891390049059048,1
0.151349537494763,0.00793863013893367,1
0.140729349105405,0.00701865251737528,1
0.140125575054336,0.00684705213577921,1
0.113904630604013,0.00610802829929083,1
0.110617490149322,0.00811555986249649,1
0.0993117500273013,0.00727490644709028,1
0.0912385975993618,0.00933014774844482,1
0.0844139227483582,0.00834260607281924,1
0.0744598270855289,0.00995713598758534,1
0.0707537581536898,0.0130530933179341,1
0.0642517473669353,0.0102450909445802,1
0.0687492116564609,0.0082200805544169,1
0.102342612095684,0.0108654996550361,1
0.102455280608985,0.00612175786646906,1
0.110838587073447,0.00673741472759522,1
0.11773793944636,0.00619874064209785,1
0.210386745545724,0.0142153332077766,1
0.299213488880633,0.0181517796107322,1
0.309961998987198,0.0197688314451956,1
0.311274862462471,0.013935909713541,1
0.417497521958857,0.0197486371606275,1
0.595387572975995,0.0279261053167525,1
0.725158296354719,0.0333508575779908,1
0.860279002011189,0.0470235780448086,1
0.93946101009573,0.0504559110857903,1
1,0.0607568348652094,1
0.815698943801294,0.0717865549530185,1
0.440382563465677,0.0533284030685646,1
0.197503384816489,0.020364888047781,1
0.019381449926686,0.0198894442941933,1
0.00452021369036084,0.0144432805547711,1
0.00429400342034128,0.00981681776841569,1
0.00738851084871299,0.0175205153485424,1
0.00828603900087313,0.0191912130176454,1
0.0225665093550829,0.0228785581510811,1
0.036538341382738,0.0371512820571443,1
0.101384749541965,0.019776314094549,1
0.195608551160062,0.0206974965852771,1
0.188638614983639,0.0211161091834849,1
0.188643719947425,0.0217826624892585,1
0.170339684343342,0.0195997476977518,1
0.159307071196944,0.018154824950024,1
0.132787795886704,0.0151638616434031,1
0.087998485757776,0.00932720075863569,1
0.0779295202310345,0.00845301400475229,1
0.0659944664416761,0.00613936015379896,1
0.0598657230098015,0.0158701570455082,1
0.0339368330092722,0.0211712992222965,1
0.0407289840850942,0.0254748111816162,1
0.0454776975616998,0.0149561858833347,1
0.059765906403155,0.0233890446793321,1
0.0595989348413326,0.0234044965326424,1
0.0675561845039944,0.0260290880589677,1
0.0735431792248835,0.0197615582242838,1
0.0872678514371134,0.00632261733842475,1
0.13692535395041,0.00782033911219309,1
0.138668474848027,0.00718574894909613,1
0.137040171080775,0.00599819275413875,1
0.114229002784347,0.00311310111550153,1
0.129290299764398,0.00567792373985769,1
0.129164679821079,0.00465495055991424,1
0.130358615620832,0.00388315079542219,1
0.135643251367647,0.00298801231282836,1
0.152452194488525,0.0046766024558722,1
0.138244829231727,0.00812795022155376,1
0.112761308674893,0.00832182689235183,1
0.0958519101538435,0.00727818050792391,1
0.0896579605988582,0.00845649118237321,1
0.10936514113958,0.0117092398197143,1
0.106362830049014,0.0108865806016181,1
0.108974750086014,0.0133237168749806,1
0.101866251938809,0.0157130188048335,1
0.0691577711104278,0.0144480546533664,1
0.104922643900259,0.0164006136434258,1
0.122341554333452,0.0141134724088799,1
0.142627781776314,0.0145188004588939,1
0.140972229708427,0.0125692433828005,1
0.131063992498272,0.0100039781526596,1
0.131523055324539,0.0112957713996855,1
0.135559397575224,0.00941699692306421,1
0.175800580729294,0.0121207437051242,1
0.181468486604045,0.0105227012511533,1
0.182263178951122,0.0108122265335586,1
0.183224959075196,0.0147733479713594,1
0.173791150597575,0.0163448377267469,1
0.161263762133507,0.0186694669792172,1
0.150491957159647,0.0187549563995464,1
0.150064036306488,0.0173007538624378,1
0.180933131192729,0.0128770702310593,1
0.221685406800593,0.0204666333834502,1
0.147861709282828,0.0139013143888669,1
0.109078427195614,0.0113697268368898,1
0.125048593065114,0.0105113663309557,1
0.129654504985985,0.00882853742287176,1
0.137353842723796,0.00962262928600629,1
0.141386895270618,0.0102025857468069,1
0.156650398922526,0.0130707846435445,1
0.0983719750916822,0.00975383503488491,1
0.121349285372452,0.0219116114474659,1
0.174940103991607,0.0286861428660562,1
0.212938500991017,0.0334185573629645,1
0.239732649244579,0.0397207665478189,1
0.168927456902834,0.0650082442953248,1
0.107433213928227,0.0853542298623241,1
0.0877229216080291,0.0805057433647297,1
0.0532024735867692,0.0550382977701872,1
0.0291656256224939,0.0445939187349562,1
0.00828695470126005,0.0174394223550234,1
0.00305800683365299,0.026585490220915,1
0.00385322814077878,0.047481393683634,1
0.00579475722346297,0.0540987022145655,1
0.0166341311449117,0.0689043505604915,1
0.037855154545716,0.0412571235631106,1
0.184261634353077,0.0453692544143988,1
0.258366665897542,0.0474191788914819,1
0.454480558406224,0.0445816120053179,1
0.632225417426118,0.0523155926173324,1
0.602908051674714,0.0383890578690113,1
0.52996651374533,0.0353713086741437,1
0.424207903419482,0.029891759885077,1
0.311010980154215,0.0229233465102304,1
0.211955619306219,0.0160779553868345,1
0.133361393033328,0.0098858970853409,1
0.159071756497286,0.015476488680598,1
0.210117081567315,0.0197315405896542,1
0.197583616624246,0.0317077167342397,1
0.0976902245427998,0.0163337801456655,1
0.0977375853590641,0.0206326368380668,1
0.0984669525939283,0.0153664028507306,1
0.0980682140179202,0.017413255491543,1
0.0695653607553293,0.0126951095157369,1
0.0586306575947612,0.0112618832924847,1
0.0377212289695496,0.00662414293401106,1
0.0425876094449657,0.00868636064963312,1
0.0448676681743092,0.0101385721722513,1
0.0578491750366547,0.0173495901247011,1
0.0627101527930001,0.0196734219877707,1
0.0733624058174114,0.0262767179666589,1
0.0686486921582455,0.0355285410575657,1
0.0630999608690779,0.0299079386037435,1
0.101954592776803,0.0245954714601763,1
0.206643005446548,0.0443553439050145,1
0.350543410874771,0.0717656366114673,1
0.402148057619283,0.0590706662397085,1
0.388484186168205,0.0384520244916591,1
0.351184822403614,0.0365058011803656,1
0.295053527186979,0.0297021979283161,1
0.227696684702751,0.024634389576403,1
0.191008474297778,0.0227332716513865,1
0.155840570863066,0.0145114582562968,1
0.163885964141674,0.0191810132815308,1
0.159530098455074,0.0141206308200993,1
0.134791656871789,0.0122963909253386,1
0.130829795217039,0.0109533508051063,1
0.148962810781969,0.0147426369940509,1
0.162863593947433,0.0176887520494244,1
0.216175567597606,0.0258592200390557,1
0.215572379849618,0.0237517087198082,1
0.179995107728758,0.0205227265481233,1
0.139257827998773,0.018895840686809,1
0.180887220636117,0.0207044771807305,1
0.21193298073967,0.0297968774707308,1
0.152370967136754,0.021895678479395,1
0.0839164091595513,0.0149111440073894,1
0.109331173473251,0.0142686670704517,1
0.133776714441682,0.0118604582718092,1
0.131994103157775,0.0106607120118008,1
0.129807744189247,0.0122221623581489,1
0.119735021418682,0.00789418432756748,1
0.139778880676408,0.00967869149237136,1
0.173284893079684,0.0151915012405135,1
0.201735970955053,0.0182179960511627,1
0.23154107625254,0.0201806536639566,1
0.251934527075764,0.0230035007303112,1
0.204846139308611,0.0347910836739537,1
0.128298511220753,0.03268065268838,1
0.114153236458328,0.0298250465035135,1
0.05066246896099,0.0130556491884367,1
0.00510044427493987,0.0128142118401093,1
0.00342969935929199,0.0325459585077483,1
0.00371109403487824,0.0358421997322565,1
0.00483694276862953,0.0374960389946678,1
0.00482057997071037,0.0294258240811241,1
0.0178038800882573,0.0135965786647257,1
0.0496025582113207,0.037856258450309,1
0.0633985276561343,0.0555317455510329,1
0.0677008151479056,0.059758041997278,1
0.0870892964546419,0.0558327858664144,1
0.0927731949067788,0.0425326834342104,1
0.107578582631725,0.0417297146022941,1
0.110053639446316,0.0406881941828139,1
0.108660835849362,0.0390636366840841,1
0.0711327328880892,0.0225836697785082,1
0.0484476176021942,0.0187801813627917,1
0.0486798099537527,0.0174150495117568,1
0.047632003685756,0.0121640811893986,1
0.0423000022385684,0.00781221827180101,1
0.0411638536870527,0.00802704407524877,1
0.0440933398128634,0.00974998831691434,1
0.0536019138525286,0.0120977092241274,1
0.0483997701802321,0.0114781681974277,1
0.0499937133223629,0.0100496856576309,1
0.0561388046964066,0.00101411416677718,1
0.109967319535241,0.00568928943825102,1
0.115618526484427,0.00438177324476715,1
0.124507587161518,0.00534361254022963,1
0.121888359094907,0.00599175939145186,1
0.116464819025469,0.00569808333724244,1
0.131574893712319,0.00606882693749299,1
0.170008946409924,0.0091195124033926,1
0.182664081973967,0.0096232465967472,1
0.200935712380992,0.0110404790406916,1
0.202533166730501,0.0292369194293262,1
0.075292063077976,0.015002476910641,1
0.0701287667300476,0.0320685375711769,1
0.0704227277852504,0.0398210567056715,1
0.0505184447258803,0.0280727243639077,1
0.0196681168364235,0.00891658308627166,1
0.00688303650338131,0.0184501017879639,1
0.00740361915917265,0.0219140238060932,1
0.00336180198116831,0.0178700781818293,1
0.00104085402431942,0.0399860171926995,1
0.0011709263006839,0.0425243316364064,1
0.00118404674055147,0.0456161047553598,1
0.00109662326377635,0.0477213731681098,1
0.00107670641923154,0.0468636807143586,1
0.00114239071930482,0.0560135283918123,1
0.000574839050145808,0.0403091115322716,1
0.000340523664104148,0.0433184607678008,1
0.000350165960876156,0.0469588264653439,1
0.000309469638079893,0.0422162120413024,1
0.000324560329636344,0.0397865821298029,1
0.000354872320327781,0.0435573730926344,1
0.000368608693405949,0.0422483858738934,1
0.000533135743209084,0.0637528892673151,1
0.000473136907460851,0.0845416383701304,1
0.000465905065873305,0.113837140883477,1
0.000437956498353012,0.105657803651107,1
0.00040883699335928,0.0780979459721141,1
0.000487307563567503,0.0873778726953335,1
0.00049845424750237,0.0780945064576441,1
0.000603745354980643,0.0994796110494536,1
0.000707088087797237,0.105880492769498,1
0.000747027983762291,0.0700131723885384,1
0.000850967693620037,0.0760284737026949,1
0.000850403222350066,0.071449172664245,1
0.000845706403420481,0.0714418376188686,1
0.000867136069704115,0.0728910339168067,1
0.00103568811728579,0.094780258879903,1
0.000881967817512501,0.0531188860125924,1
0.000843159801259411,0.051929320297646,1
0.000796079904562311,0.0496465465495963,1
0.000744410042842889,0.045403814334566,1
0.000972486629890546,0.0747392316406697,1
0.000966073687492065,0.0699455680421351,1
0.000999655801402979,0.0768897449029775,1
0.00104923652263358,0.0516223867251295,1
0.00142642358493582,0.0525459758634359,1
0.00138920961814241,0.0485792981337957,1
0.00165136612846944,0.0692612396322427,1
0.00252189615794715,0.0541289448342763,1
0.00447500827849935,0.0827902141021272,1
0.00658065266591456,0.0989334118582156,1
0.00581433140901619,0.0514291820518004,1
0.00495073915115306,0.0366769047621288,1
0.00438868969472061,0.0293567124441993,1
0.00310837847138123,0.0228398932501859,1
0.00327640776860718,0.0208254227600528,1
0.00330835233308358,0.0210347475561651,1
0.00267280914574171,0.0143375490002473,1
0.00235445163016001,0.0158160401194536,1
0.00244913725690328,0.0158506063178705,1
0.00231167809542275,0.0099209881773403,1
0.00391666213062664,0.0213407805067903,1
0.00345929052853314,0.0182716165746112,1
0.00367779333650836,0.0199652581024268,1
0.00308465777799017,0.0177359963816979,1
0.00301942606675973,0.0218489090328408,1
0.00295986251102287,0.021106225664526,1
0.00284342291648057,0.0245033380166973,1
0.00263408051500664,0.0206740754273476,1
0.00540295669329012,0.0193788621616936,1
0.0155928057503037,0.0505800466666887,1
0.0320880577184144,0.0819848317425414,1
0.0388132474005697,0.0803595725825952,1
0.0470379060826551,0.0646708735423704,1
0.0435670707161066,0.0426748298444346,1
0.0400235199025674,0.0360475170395318,1
0.0324017220611034,0.0294237643583279,1
0.0207059176568314,0.021338957121345,1
0.0126867813817896,0.0113908778816212,1
0.0169850630555176,0.0118656389397027,1
0.0179231695770253,0.00991561170951399,1
0.0170352259793086,0.00850271899924179,1
0.0224052578280175,0.00999916429683893,1
0.0250745343205738,0.00868786308837931,1
0.0227980817921457,0.00707158434856714,1
0.0222382927120419,0.00711485417788943,1
0.0222245806277832,0.00709782923513295,1
0.0228726239891361,0.0051613304024173,1
0.0305837192992582,0.00904703138484418,1
0.0326912276167835,0.0129081397939527,1
0.0384782906701995,0.0165601972496884,1
0.0470395535495518,0.021323327135563,1
0.035924653080019,0.0185787798616888,1
0.0351581017807988,0.0245801741530093,1
0.0312759275767159,0.0303666781221909,1
0.025099490903363,0.0222092767519687,1
0.0174925148412884,0.0173137387591008,1
0.0119968848957732,0.0226971147863251,1
0.0131734448021631,0.0229386082722376,1
0.0151189327197193,0.0260205522684928,1
0.017924653251214,0.0288011707962347,1
0.0180082994370552,0.0277222178819112,1
0.0179921641558685,0.0278270345025243,1
0.0193640067241879,0.0355723212240544,1
0.0136805749329549,0.0253955700746515,1
0.0115980351879956,0.0328893542160819,1
0.0127009288988297,0.0350401030252103,1
0.0123031759381948,0.0306825245095956,1
0.0121665799768884,0.0339564833021255,1
0.0133365641152454,0.0279528845760971,1
0.0174311154287677,0.0336469578732716,1
0.0198994461016049,0.0435653647646428,1
0.0196502252706788,0.0556953580025979,1
0.0136307603295078,0.0439766962502506,1
0.00909567113073829,0.0441694418820504,1
0.00759650157341119,0.0376286376465381,1
0.00764138979154035,0.0440317877983548,1
0.00647568969400548,0.0491689227156988,1
0.00254781025257172,0.0248159569689149,1
0.00112569312647428,0.0279523951663723,1
0.00139022605005529,0.0370659759011063,1
0.00131291336540458,0.0393226415118924,1
0.00122973263844838,0.0462903573125387,1
0.00119538751802199,0.0468701953027223,1
0.00119996638853814,0.0566931564280282,1
0.0010751928904405,0.0622086185619576,1
0.00106322592604209,0.0659636681349704,1
0.0010229443106663,0.105156271995196,1
0.00037610896951516,0.0651935537447732,1
0.000324873619928877,0.120251321984432,1
0.000273434975259077,0.0921409102171583,1
0.00023518354534975,0.0835201648856237,1
0.000224219051377642,0.0829292449615548,1
0.000226459479488507,0.0794116237985476,1
0.000233984103631918,0.082242758243885,1
0.000252557075662218,0.0805336842377749,1
0.00030146127018393,0.0719067363607707,1
0.000363966961507216,0.0868658040843689,1
0.000680715836432145,0.165627646246854,1
0.000794804394862554,0.177871624985784,1
0.00085504759564923,0.223024458733042,1
0.000977925994930446,0.218608465811204,1
0.00107965653964388,0.133262103899124,1
0.000939432841584519,0.118101529323913,1
0.000759481739861152,0.0931378115273852,1
0.00040262178076497,0.0425803136854897,1
0.000609563555795166,0.0612893219309204,1
0.00104349170580219,0.0879824045784783,1
0.00113263346607509,0.0916445215280684,1
0.00131475795384514,0.0970021571607448,1
0.00157913489522316,0.113077104897813,1
0.00142632240426403,0.110281594290476,1
0.0010667189668818,0.113205034337407,1
0.00098950637609082,0.111415431731814,1
0.000499048286666564,0.0916229413783382,1
0.000245899480510131,0.0958530997072462,1
0.000266579780514828,0.121314972463134,1
0.000292844405864794,0.132981210303098,1
0.000255194403467823,0.14763966264178,1
0.000234673149021938,0.200145143681485,1
0.000245609398770847,0.207381156281424,1
0.000231431545454772,0.278418810389835,1
7.50432179529025e-05,0.202234375283277,1
1.70663813338401e-06,0.282527133480992,0
9.8076520240598e-07,0.314468031231789,0
8.96238777348821e-07,0.298601861231411,0
9.41278234761472e-07,0.298690980337145,0
1.04268096183247e-06,0.321524306669652,0
1.04873164093032e-06,0.323840947507663,0
1.04179264000563e-06,0.321213589364349,0
1.04654834910333e-06,0.319898616553656,0
9.5496701127217e-07,0.306707960776735,0
6.78168709495534e-07,0.268036379666847,0
6.99406660601582e-07,0.275979825941904,0
6.68083270847465e-07,0.274911752660325,0
5.19400191080868e-07,0.254059288561053,0
4.18006124669331e-07,0.251479817986384,0
6.75163158546423e-07,0.276346436608115,0
1.1018481703441e-06,0.328095792532346,0
1.10767498146541e-06,0.326723591820967,0
1.0848397429208e-06,0.325393475939576,0
1.05836712810777e-06,0.32935092822732,0
8.63979734256853e-07,0.289397030524513,0
1.06383663667364e-06,0.328830602948024,0
1.15018542561001e-06,0.33958230498368,0
1.15420246101993e-06,0.343326599003368,0
1.1604800292546e-06,0.32628090753724,0
1.33047457502733e-06,0.367395582175896,0
1.05408110872784e-06,0.329722795605885,0
1.24585630669774e-06,0.357052658603215,0
1.34350342942814e-06,0.343778281789678,0
1.49317664412292e-06,0.354280273600906,0
1.58829928532568e-06,0.357773750503968,0
1.51441378958623e-06,0.347210855147396,0
1.44098348199521e-06,0.34001196533809,0
1.4448138097e-06,0.333150613948584,0
1.36511157337349e-06,0.321390185251246,0
9.24175245021498e-07,0.274003232644009,0
9.10586166799951e-07,0.276490266161827,0
8.0738776276552e-07,0.262346099920136,0
7.46266870607965e-07,0.268471366129324,0
5.51702134648772e-07,0.23584222834201,0
4.75073727493639e-07,0.225390118810186,0
4.42598772147193e-07,0.225453112114627,0
4.43509148444059e-07,0.225572762017368,0
3.83437605956121e-07,0.221499000681482,0
2.23237863212797e-07,0.190338792024849,0
1.28206360345065e-07,0.158162240766392,0
1.16464520222345e-07,0.154210885860044,0
1.00481776713162e-07,0.148229620961971,0
6.61533395366474e-08,0.135610076495275,0
3.24311485224267e-08,0.123680105702835,0
2.44970781077594e-08,0.120995890934395,0
2.44874103948724e-08,0.12107748161422,0
2.55839908701571e-08,0.120350013823929,0
3.77805156145974e-08,0.127205626182133,0
4.827814122982e-08,0.133880073786313,0
4.68383569470441e-08,0.129025954348663,0
8.18533024438835e-08,0.14172410788123,0
1.72758001078289e-07,0.183208816927807,0
2.27575443728131e-07,0.201892216757282,0
2.40087075489484e-07,0.197200390554887,0
3.61359369471639e-07,0.236236156883268,0
3.90372175845744e-07,0.231245274546917,0
4.18504716820413e-07,0.230088734223185,0
4.10642952841714e-07,0.218448770561577,0
3.9951410613924e-07,0.215790052605382,0
4.04986535160036e-07,0.230614791755303,0
3.7415891780741e-07,0.23111342624131,0
2.962432949635e-07,0.203114038673503,0
2.44775916239714e-07,0.175776943674045,0
3.11624928282861e-07,0.198987623771113,0
4.72840183700697e-07,0.234048555223732,0
5.49671411415774e-07,0.249208518548234,0
5.77076154879664e-07,0.260123644435439,0
6.31328640557667e-07,0.286645231286115,0
7.77580189827823e-07,0.321118879799027,0
9.04658247514694e-07,0.347445178108365,0
9.48641809410459e-07,0.363927542600999,0
9.47404040044886e-07,0.369284830935127,0
9.2151914161112e-07,0.385217771427132,0
8.17924663464347e-07,0.348460760872334,0
4.41466844096665e-07,0.271962988980287,0
1.85690883287628e-07,0.196104552659272,0
1.83010207773659e-07,0.199853288448681,0
1.88017680227793e-07,0.202086759642346,0
1.74853075025191e-07,0.194400509725929,0
1.93247510078329e-07,0.182115715947878,0
3.00233139930926e-07,0.200592700489274,0
3.09577790079023e-07,0.204055265139104,0
2.67280438439311e-07,0.193106710560971,0
2.67773793912579e-07,0.201227003663027,0
2.82416350722792e-07,0.20596753457564,0
2.52262754228011e-07,0.198562337953381,0
2.50031224541922e-07,0.198618414944759,0
2.62265312379142e-07,0.196447360411326,0
2.26161540718397e-07,0.183967553667848,0
1.7554794188895e-07,0.176029269293659,0
6.80622093051317e-08,0.137054200163135,0
6.73677452627431e-08,0.13539663235465,0
6.39527263907274e-08,0.13231561969926,0
4.37604995619652e-08,0.119738908575275,0
2.96677939222048e-08,0.116827348511667,0
3.13740445414304e-08,0.119186437935083,0
9.9670091652018e-08,0.150486438546337,0
1.89960789812752e-07,0.183085762719206,0
2.03100923617108e-07,0.180986018590069,0
1.94416497694924e-07,0.181579547774826,0
1.85601960470135e-07,0.179767817562222,0
2.57385030772679e-07,0.207790840321616,0
2.79553902065478e-07,0.210913403436739,0
3.39282643567295e-07,0.215494954879304,0
3.89999968899592e-07,0.224367823535828,0
3.77415426470215e-07,0.221114167388967,0
3.11575079138287e-07,0.206046740575306,0
3.04870117429731e-07,0.215909454841717,0
3.22617117835462e-07,0.224340103436689,0
3.38698552580368e-07,0.225501281894201,0
3.7307583184803e-07,0.223945767798985,0
5.69839166846291e-07,0.266122675410338,0
1.73947280821413e-06,0.446998562945563,0
2.15609725558335e-06,0.463970931952286,0
2.03460884793603e-06,0.443456695526599,0
2.05453601830314e-06,0.427997388392211,0
2.06322034351998e-06,0.418502627966019,0
1.89072014811868e-06,0.401795370174096,0
1.73654913070853e-06,0.384842246930338,0
1.8862360413299e-06,0.407944780133677,0
1.90869887151767e-06,0.419271318348598,0
1.89400847966974e-06,0.433754518621905,0
8.51721376432073e-07,0.304477244034053,0
2.91698966379863e-07,0.202076177199749,0
3.61014554378667e-07,0.225031099585841,0
3.37519897250885e-07,0.221184733311603,0
3.78771222497284e-07,0.243579316815494,0
3.07222594232252e-07,0.218899100502986,0
2.97505737138004e-07,0.225870362792399,0
2.7924211832487e-07,0.218960212356924,0
4.31423198165765e-07,0.25239090675716,0
5.76490553312597e-07,0.276270260179274,0
5.70237960002883e-07,0.274896749895905,0
5.68993644790042e-07,0.282986506862427,0
4.49212293404691e-07,0.260028134313311,0
4.30616850487777e-07,0.264292572801482,0
4.06763279519063e-07,0.257090468096484,0
3.83970840745048e-07,0.252552635443691,0
3.84904278565363e-07,0.242289014857006,0
6.26961553376959e-07,0.282408179920226,0
7.04949482656838e-07,0.310697035744543,0
1.12623900431544e-06,0.380480824150322,0
1.11694943998973e-06,0.366726930792967,0
1.05729159504909e-06,0.347381532936219,0
9.20629611320165e-07,0.321580757402142,0
7.70702820572782e-07,0.290963305654307,0
6.718879186899e-07,0.272170942142007,0
6.98974030449886e-07,0.277508678951178,0
8.63814980316403e-07,0.315255745772899,0
7.48941503801379e-07,0.315412962588686,0
7.03851290896072e-07,0.315909430777733,0
2.54481192219567e-07,0.207083580564805,0
2.17505715113504e-07,0.195414087572632,0
2.04328622448423e-07,0.188290459418074,0
1.95185886512187e-07,0.181842046829719,0
2.00977652174284e-07,0.189804891634609,0
2.08858751578757e-07,0.193267023633081,0
2.25654489318538e-07,0.199739994731331,0
2.19877527341799e-07,0.192396288042261,0
2.21165045146603e-07,0.179631210567527,0
6.27601233712987e-07,0.264978080730681,0
6.44543900547582e-07,0.260764422470125,0
6.18276422517378e-07,0.266664919782767,0
6.13915780478595e-07,0.26747661274294,0
5.79404462399967e-07,0.265623439740714,0
4.52208075935573e-07,0.231083424048433,0
4.8554154432746e-07,0.228478773691865,0
5.96242395678286e-07,0.254363408990585,0
6.77272029125259e-07,0.267456602516731,0
6.8920601504161e-07,0.275543537907966,0
2.56489961687884e-07,0.187217546271538,0
2.51656910887088e-07,0.193854860390613,0
2.61335197835132e-07,0.197661118544981,0
2.83896819963968e-07,0.20708398180465,0
2.75181678912299e-07,0.207661091334958,0
2.69714587274658e-07,0.212887774865394,0
2.799671967914e-07,0.23663752216662,0
1.76717735148286e-07,0.193359316671874,0
1.2125879946625e-07,0.169440876405518,0
2.19138853654021e-07,0.22817203147443,0
3.0324543813799e-07,0.259105120171143,0
2.84387758509014e-07,0.258077392002747,0
3.5898312620827e-07,0.26469592218288,0
4.40216788679298e-07,0.283851018680825,0
5.96097379984979e-07,0.324605672240081,0
6.49687224508848e-07,0.312348684497829,0
6.30625314445132e-07,0.299249993589761,0
6.45765254942316e-07,0.29799022955653,0
6.01126201971738e-07,0.283783763888466,0
4.95213990365634e-07,0.254785747208288,0
3.66335321153546e-07,0.218981407830774,0
3.88954546738334e-07,0.224122314049403,0
3.53355711665254e-07,0.222774465872736,0
3.44597569432306e-07,0.21575322563552,0
3.2150613649619e-07,0.211803529690554,0
2.99241393717261e-07,0.218768092390714,0
3.07872244397195e-07,0.225236179241131,0
2.91369156382934e-07,0.224117539250726,0
3.1770320064458e-07,0.236679195982449,0
2.27435765417981e-07,0.210586096310105,0
2.18229987937294e-07,0.218772863891497,0
2.08891480815094e-07,0.219665006226106,0
1.79382700628813e-07,0.207026802670509,0
1.63813654666923e-07,0.212365618886814,0
1.2445720114639e-07,0.193428052917129,0
8.64696353474609e-08,0.163113078084352,0
9.19709668015756e-08,0.160656909816202,0
1.16933001475998e-07,0.171884330575297,0
1.49593254652779e-07,0.189512612117634,0
2.20900693622347e-07,0.215267694227822,0
2.14331482715581e-07,0.212705310932865,0
2.01875943830041e-07,0.207662154340152,0
2.32204364799529e-07,0.211685182583965,0
3.33244351226577e-07,0.241645541175963,0
2.92404004483221e-07,0.226254501314842,0
2.47801104730628e-07,0.21585752958495,0
2.270381807255e-07,0.220158648969237,0
1.50721960132345e-07,0.195027393864733,0
1.43145393683814e-07,0.188462805661817,0
1.46448528920231e-07,0.180174229313547,0
1.47045812307036e-07,0.176935751523786,0
1.69453657377761e-07,0.181492911680075,0
8.49125696227236e-07,0.347145454876234,0
8.95691443811933e-07,0.31866571965904,0
8.79414237881065e-07,0.315852022988547,0
8.90148923872705e-07,0.308674354801371,0
8.93504123771233e-07,0.310213268358367,0
1.07857516567532e-06,0.330442655356286,0
1.3155677673982e-06,0.367247710415923,0
1.41886456055232e-06,0.401449954333255,0
1.61980344116972e-06,0.432187234355964,0
1.78239987036095e-06,0.466573538386673,0
1.02707848169684e-06,0.387817546326123,0
9.68827188275927e-07,0.375894099799508,0
1.30215713904369e-06,0.402014535702074,0
1.19605872325917e-06,0.389595383492341,0
1.22282056381607e-06,0.377014649221861,0
1.21749738011296e-06,0.381554697235868,0
1.06877049352235e-06,0.35853570539987,0
1.07667052553122e-06,0.359747127458191,0
1.03059581719692e-06,0.348779800983899,0
8.92363635766586e-07,0.320247526770749,0
8.55298933727001e-07,0.314394186589283,0
5.9870927374997e-07,0.29695023406793,0
1.50785605908851e-07,0.177787415395538,0
1.90991206877966e-07,0.199415560755316,0
2.21811976267297e-07,0.213457362213126,0
2.322047676209e-07,0.217463043311667,0
3.16171975910747e-07,0.243536209215167,0
4.08919985135621e-07,0.267564695763953,0
4.12889386918505e-07,0.240360722117967,0
5.81708600638053e-07,0.272458699826349,0
5.46755790337581e-07,0.261859507640177,0
5.69430303155442e-07,0.261681034827609,0
4.91017397329903e-07,0.244082115537362,0
5.76828117620903e-07,0.262063408315673,0
7.17780853880862e-07,0.301265576266286,0
7.3301606163212e-07,0.306182298016772,0
6.49110384306586e-07,0.292314634298066,0
4.74006754389071e-07,0.262615254470714,0
2.42206721539974e-07,0.214855950157372,0
2.5914938837457e-07,0.22209219389855,0
2.52236973660313e-07,0.224994712719441,0
2.54559742386775e-07,0.233570293139338,0
2.11588269183874e-07,0.2137869802815,0
2.09335692081186e-07,0.210813670184689,0
2.16837031638814e-07,0.203109036719761,0
2.2537442776084e-07,0.20672317541964,0
2.28516434449139e-07,0.208203975814106,0
1.90887278964429e-07,0.181755648744897,0
1.81661159004542e-07,0.179002249077848,0
1.20882665011738e-07,0.159369176014802,0
1.51070904144363e-07,0.17386144618651,0
1.47773811228501e-07,0.169275361959985,0
1.30323085940621e-07,0.164711653883517,0
1.30985827800099e-07,0.171456835518845,0
1.46983475699983e-07,0.17050611807074,0
2.33932770594122e-07,0.197249967153608,0
2.28595387437717e-07,0.192951866221873,0
2.1024284580709e-07,0.192090014478071,0
2.71255781837407e-07,0.203337819894671,0
3.71426983274071e-07,0.229428050479303,0
3.32648276303884e-07,0.220139735032269,0
3.22452766716382e-07,0.219653706534825,0
3.38287674782667e-07,0.2252664518858,0
3.50497190516299e-07,0.22439427191576,0
3.20271992522949e-07,0.224623815073495,0
1.7250412290966e-07,0.179472736561892,0
1.73987009079058e-07,0.183168652123703,0
1.44270473771048e-07,0.175796503252501,0
1.38065816204398e-07,0.178156030522573,0
1.34435086488589e-07,0.166825187979394,0
3.25709678200557e-07,0.233009469151232,0
3.41839753625926e-07,0.225403037448406,0
3.92820121313025e-07,0.230773693614858,0
4.18775412781251e-07,0.236925719432882,0
5.09731672551055e-07,0.267007902727107,0
5.62699560879189e-07,0.280784699350157,0
5.11209322042639e-07,0.253042125255621,0
6.52351082230607e-07,0.279088444610056,0
5.01158928853785e-07,0.242575893467123,0
4.34359765955213e-07,0.237246338558155,0
3.96217416044748e-07,0.231021169851032,0
3.47848337890584e-07,0.224511022726751,0
4.01734558237647e-07,0.245818255822963,0
4.26078262108667e-07,0.253861743614896,0
3.6652797047389e-07,0.235949093081401,0
3.509636576631e-07,0.233881468979712,0
2.87862999175889e-07,0.213079362943825,0
3.57885035152847e-07,0.227261187033151,0
3.37449806332454e-07,0.227024098474715,0
3.09637105525799e-07,0.224071564103808,0
2.81416548081721e-07,0.213981416997591,0
2.95080248962117e-07,0.219470867860551,0
2.83032667419344e-07,0.213639838426549,0
2.74430114940672e-07,0.204215551383807,0
2.83386344582461e-07,0.205375135172478,0
1.92038542440732e-07,0.175056502590945,0
1.70472392623237e-07,0.177168032778874,0
4.49644319324333e-08,0.122144156939424,0
1.07008288554677e-07,0.158861321641738,0
1.17875603482487e-07,0.154865662132053,0
1.48838367404847e-07,0.16817955644591,0
1.32154412595323e-07,0.164110438935974,0
1.25992454093926e-07,0.165851479288779,0
1.25583590403077e-07,0.168386696709249,0
1.76444219437856e-07,0.189388748442178,0
1.76986417002272e-07,0.187881362351269,0
2.76106657483838e-07,0.221120114092391,0
3.03780485623084e-07,0.220456176626255,0
2.82293087383482e-07,0.205036181666629,0
2.99451666472555e-07,0.20706325175041,0
3.47624268503358e-07,0.214727552879848,0
3.75327603307978e-07,0.226995759713104,0
3.77239695647424e-07,0.224176342400617,0
3.75022566825323e-07,0.232247003668739,0
3.20312274659979e-07,0.218186998258488,0
4.0291794671823e-07,0.248319878054336,0
2.86323818719993e-07,0.21538617702173,0
2.24488220746192e-07,0.209277618316014,0
2.78710394116081e-07,0.22814979372697,0
6.83954432837078e-07,0.327222097170803,0
6.3741879614981e-07,0.305806923144161,0
6.075246166175e-07,0.286283853863002,0
6.08786756675975e-07,0.29433393914627,0
6.11783244144254e-07,0.286180855712724,0
6.09467524791774e-07,0.292527505901477,0
4.77754604418293e-07,0.264574085667128,0
3.69687298481111e-07,0.236119179999735,0
3.49719443155603e-07,0.214891125029801,0
3.739088664418e-07,0.225728008695013,0
1.83727632634154e-07,0.176194784216838,0
2.3317596994468e-07,0.199496797452959,0
3.26364262927286e-07,0.231804498518942,0
3.52394479170388e-07,0.216938187769013,0
4.94597673669083e-07,0.255781350596568,0
5.49145024590141e-07,0.267341859142337,0
5.61726344448556e-07,0.263473490147088,0
5.60423217315652e-07,0.259655643844353,0
4.88583550610583e-07,0.261208690418425,0
3.24607861047458e-07,0.234542172796863,0
3.23389829929031e-07,0.23629652237271,0
3.07298324649868e-07,0.239823186276946,0
1.28896292647037e-07,0.179934249878004,0
6.29996510286104e-08,0.156727362309494,0
5.19864140594105e-08,0.138265972035369,0
1.29546144222665e-07,0.181919117426739,0
1.26198195108803e-07,0.18417109480118,0
1.26778257882028e-07,0.190086885671276,0
1.53575647424855e-07,0.199815646548055,0
1.53013208086581e-07,0.183175430205607,0
1.2355216223268e-07,0.164732264398202,0
1.17887990239624e-07,0.160599979991554,0
1.25101010401463e-07,0.160986350806882,0
3.22911177435778e-07,0.23080965685347,0
3.7370775787268e-07,0.251724571856165,0
3.79113721367377e-07,0.244708313411708,0
3.69557892115905e-07,0.241945370734799,0
3.49397186059367e-07,0.228494573863966,0
3.71617618487563e-07,0.240033766088491,0
4.02722981175007e-07,0.245583881656163,0
4.9729788601951e-07,0.256068560240547,0
5.14821723386099e-07,0.252447700543754,0
8.00419657996821e-07,0.315033899426112,0
7.48093665522252e-07,0.312266923877957,0
6.10454034327625e-07,0.288152973039527,0
5.79713124274955e-07,0.289908065843701,0
5.86887372879904e-07,0.282789577289978,0
5.98671408541162e-07,0.299548659673694,0
5.24578963322719e-07,0.282785212885192,0
1.53984813231732e-07,0.182099936586321,0
1.30512109868632e-07,0.186278281073781,0
1.40380024976741e-07,0.184051512194157,0
2.45383471571461e-07,0.221494904959504,0
2.22705333361268e-07,0.207640992890743,0
2.18883867726624e-07,0.210335106551265,0
2.03253895032477e-07,0.206108249874727,0
2.6888004210075e-07,0.222577619862883,0
3.94198978863543e-07,0.260536838076303,0
4.46118625280828e-07,0.262159524188332,0
4.46191435243509e-07,0.259021063070479,0
5.25683398814724e-07,0.275154238535667,0
5.41353150119189e-07,0.291508289254148,0
4.12978813262711e-07,0.267589718174786,0
4.02720664952129e-07,0.275635848671763,0
4.52116131957803e-07,0.276720366141678,0
4.31832968204696e-07,0.271024824884051,0
3.81957539536315e-07,0.272359508513021,0
2.67438646532494e-07,0.228414978549628,0
2.1355000925721e-07,0.219196390958158,0
2.74279862569552e-07,0.235718409212475,0
2.98186505253801e-07,0.23300068704446,0
2.60641438730142e-07,0.221636294069498,0
2.36111228564675e-07,0.211631931539139,0
2.37159369770182e-07,0.210018900608827,0
1.86091388435043e-07,0.195265759224405,0
1.9982356894839e-07,0.198913977680235,0
2.7296777266116e-07,0.218484958457273,0
4.16249722789503e-07,0.258210309639379,0
3.72812688787886e-07,0.233372532153942,0
3.87357057889088e-07,0.243400670409965,0
3.44485585091364e-07,0.243258543348448,0
3.22217619741473e-07,0.231789686177632,0
3.25050964554783e-07,0.228662711182635,0
2.999785568249e-07,0.21665602486733,0
4.1121093097383e-07,0.237849409212454,0
5.19335437545593e-07,0.23841541128006,0
5.91717201109738e-07,0.249867081839467,0
5.09248286906701e-07,0.233190955113549,0
5.4316020678633e-07,0.232769602926696,0
6.37587175482593e-07,0.254843387729535,0
6.83005788510033e-07,0.264932094681943,0
6.7250614878796e-07,0.264439629548331,0
6.82992092583444e-07,0.272721662078165,0
6.84103476744087e-07,0.26897111559821,0
5.22408461074228e-07,0.256366991673049,0
4.30161662339344e-07,0.263507947492221,0
5.11910231226951e-07,0.299002806922832,0
3.85847988330621e-07,0.259269323492768,0
4.10892198564584e-07,0.284467010241692,0
3.81502351387883e-07,0.261161957994942,0
4.00060835444072e-07,0.258771267559952,0
4.54674853301915e-07,0.278733768030813,0
4.84387461101566e-07,0.283059092849877,0
4.76566684197294e-07,0.288664806667895,0
4.84664904320356e-07,0.280556445136873,0
4.25453888984709e-07,0.260450628856428,0
2.89264314017802e-07,0.219765756494619,0
2.50752174089406e-07,0.212177102038715,0
2.33426927658374e-07,0.204882364264963,0
2.09283828829761e-07,0.206585069337901,0
2.268503652616e-07,0.213806199199439,0
2.19245097790436e-07,0.198827467786859,0
2.03584309261461e-07,0.191302326354384,0
2.06205770033997e-07,0.19228114295489,0
1.63523723985653e-07,0.180663880418525,0
1.09841331251959e-07,0.161414592352427,0
1.135367137977e-07,0.159345394665297,0
1.04627110729522e-07,0.144392977017945,0
5.36016572605524e-07,0.263975073506796,0
5.81669929786504e-07,0.260767256603672,0
5.4496323523977e-07,0.25501258886639,0
5.36070550669144e-07,0.256346416232422,0
7.65447210154547e-07,0.297690961663551,0
8.25644835731387e-07,0.282764275236876,0
8.28148370547768e-07,0.274711689493701,0
8.18329599646835e-07,0.273130318165502,0
8.01258332089773e-07,0.274800129613961,0
7.29223397725454e-07,0.272138185500347,0
4.83593399475372e-07,0.24075278589348,0
4.95976128398231e-07,0.255622362288768,0
5.00853489549759e-07,0.259496411253325,0
4.67581753532871e-07,0.257079676574391,0
2.75760936042782e-07,0.220372612784512,0
2.08186140595708e-07,0.238818995597584,0
1.67439046999575e-07,0.222423308581043,0
2.0891756349882e-07,0.23984608548864,0
2.68634321064871e-07,0.253775084486966,0
2.30311910001885e-07,0.228613290186661,0
3.49466068513688e-07,0.264431166168736,0
3.09754326544555e-07,0.241941390808931,0
3.14288081067222e-07,0.242383607346368,0
3.28015427724124e-07,0.243217232517421,0
3.26849259857121e-07,0.237392781624766,0
2.91821424076433e-07,0.221242553693685,0
2.99115008512331e-07,0.22687686436312,0
2.66849016751726e-07,0.220080209591408,0
1.3815040869216e-07,0.168207432649752,0
1.2666798553191e-07,0.175084267324271,0
4.02603846754743e-08,0.13809054687486,0
3.08242940763209e-08,0.133092252579522,0
2.74948747454927e-08,0.130660344374226,0
1.95464034668376e-08,0.124656986839241,0
2.96902512135988e-08,0.129251278718244,0
4.17443786036399e-08,0.140800750345897,0
3.71622855165378e-08,0.141421390872167,0
3.84991489392034e-08,0.140466547238984,0
5.88980231309271e-08,0.145110258279756,0
9.98448154213834e-08,0.164805415591084,0
1.28526200513079e-07,0.167006234621501,0
1.30516440198362e-07,0.161163604344349,0
1.30459743090494e-07,0.160409427247454,0
1.46937554063769e-07,0.163853866850419,0
1.47186799786639e-07,0.170715749958903,0
1.43654157074497e-07,0.161816917023066,0
2.12645272459528e-07,0.1781425878523,0
1.9421871240211e-07,0.175971864224531,0
2.41824041238195e-07,0.191153618033768,0
2.56683315945626e-07,0.195469226815104,0
2.22361424616379e-07,0.192463598920016,0
3.06004764524509e-07,0.221624282504913,0
4.0388562435502e-07,0.254175385644967,0
4.18348925655452e-07,0.264752286656191,0
4.25035357580974e-07,0.263276945966228,0
3.78240001815208e-07,0.256525329234888,0
3.90412760098802e-07,0.276247257314479,0
4.24066068658702e-07,0.288140786530918,0
4.16780641355553e-07,0.308323660434722,0
3.80717353242521e-07,0.301574730117786,0
3.98217524853604e-07,0.314215967782893,0
3.83984234555611e-07,0.302026824759117,0
2.5789178005651e-07,0.236809337558828,0
2.29804355075314e-07,0.21776062463043,0
3.76767689706781e-07,0.262165534431251,0
4.57593797656413e-07,0.284439854457219,0
4.93047314920161e-07,0.275627447051731,0
5.06344448353589e-07,0.275611750326632,0
4.61138625715007e-07,0.262083208928779,0
4.35780617633585e-07,0.250507658220714,0
3.94146612085406e-07,0.241389916028545,0
2.58090471697408e-07,0.205549477984225,0
2.49074825903499e-07,0.208572889177487,0
2.56043333493569e-07,0.215305800725045,0
2.39789793318207e-07,0.209380451901433,0
3.81729542640729e-07,0.257070180607845,0
3.34323106856226e-07,0.24554126205326,0
3.73534544683453e-07,0.25931385628752,0
3.80942429683173e-07,0.256206790575083,0
4.00281984376364e-07,0.271930570012962,0
3.97197883260045e-07,0.269667505889876,0
3.80793889302876e-07,0.274080696940054,0
3.77520160026492e-07,0.267821219047332,0
3.77670714513641e-07,0.267868548949643,0
4.07919376851809e-07,0.28524315629927,0
1.30008885271791e-07,0.171893709193317,0
8.42056785410619e-08,0.154737113466737,0
7.20590029411956e-08,0.14813924461003,0
8.42581460245428e-08,0.15476568794479,0
8.4703565754746e-08,0.150630012693529,0
9.02722690830428e-08,0.145920086928755,0
1.1559644016936e-07,0.15261534560585,0
1.91934614527196e-07,0.18372987859516,0
2.02476550493151e-07,0.183861424141686,0
1.12906701174559e-07,0.147037687872159,0
1.30270819867826e-07,0.1590534296891,0
1.68030388771168e-07,0.177584094989312,0
1.98808358389905e-07,0.186249881876303,0
1.98313794452526e-07,0.186218933762158,0
1.99034039062612e-07,0.183714613268745,0
5.1422313082984e-07,0.273104333290233,0
5.46543906296806e-07,0.266627520644126,0
4.34771147279627e-07,0.247280061523586,0
4.0751011033959e-07,0.250649079485351,0
4.68490115722885e-07,0.268335528689858,0
4.90871575993857e-07,0.264260268471784,0
4.79057630845854e-07,0.2615775228868,0
4.72841794986178e-07,0.263976277598328,0
4.51080881036145e-07,0.26038468901149,0
4.50050967497645e-07,0.276748484313823,0
2.25554086091992e-07,0.219392854556825,0
1.36786455532342e-07,0.191656614885551,0
1.53668296340023e-07,0.195634923206988,0
1.83825014700423e-07,0.207925640449305,0
1.08093086504881e-07,0.181485045172408,0
9.19931219769417e-08,0.184245480875059,0
2.12747589087583e-07,0.24117798478783,0
2.23320038772337e-07,0.242950265465456,0
2.33016855503414e-07,0.238962405303819,0
3.13715671900033e-07,0.250258958417258,0
3.52899717874079e-07,0.249941755151311,0
7.11496840504265e-07,0.313592251854301,0
7.5396962085074e-07,0.294578885617825,0
7.11287373391712e-07,0.284619610417448,0
8.00484915058808e-07,0.299337219870625,0
8.39070368476597e-07,0.31024603086319,0
7.67097569308645e-07,0.295093001796132,0
8.65593436666253e-07,0.306090049475977,0
9.24586626345914e-07,0.312057077114395,0
8.37325447005821e-07,0.312590907976367,0
7.12630077724246e-07,0.295202357682839,0
4.1196692598053e-07,0.26214622765871,0
3.36578906529877e-07,0.265414062410748,0
3.22877340440673e-07,0.252400062199066,0
2.43192828254455e-07,0.221838176609243,0
1.78710089645764e-07,0.19419257825584,0
1.70539965908104e-07,0.196972298522611,0
1.11470240168089e-07,0.175401711639688,0
1.70448827573074e-08,0.122746809340111,0
1.83573754870701e-08,0.123841055544067,0
4.24070197577749e-08,0.139554640210358,0
8.7707807534404e-08,0.153433219374879,0
8.49953091321821e-08,0.146058163393451,0
1.18244084330964e-07,0.162571282011741,0
1.79466991000547e-07,0.189004072993557,0
2.01582186345754e-07,0.194047035325104,0
2.44486690495843e-07,0.203518504279921,0
2.07114635750724e-07,0.190109506248639,0
2.33173150195088e-07,0.197787392085318,0
2.27489239954887e-07,0.193369908590053,0
1.76971512611571e-07,0.177249107908455,0
1.77088330808957e-07,0.184738401667378,0
1.99551966639469e-07,0.200618115715793,0
1.74820345788855e-07,0.194575935317052,0
1.34840425492449e-07,0.177244419634411,0
1.27687828536153e-07,0.181456071746739,0
3.08307392182454e-08,0.13006266150697,0
4.02562557564286e-08,0.136391045328674,0
1.33343944101804e-07,0.178255692623741,0
1.81737695064898e-07,0.196491765881604,0
2.22718324350459e-07,0.207741150435812,0
2.21034430317285e-07,0.205269631904719,0
2.27696793665932e-07,0.211517521732236,0
2.29360748041276e-07,0.20820419888407,0
2.30429835958039e-07,0.201115471540224,0
1.94378229664746e-07,0.180236456323938,0
1.50963652954522e-07,0.162353533356029,0
7.15418810070794e-08,0.128666714854172,0
4.90716993293004e-08,0.124056458602695,0
6.47518232840495e-08,0.132735951992565,0
1.60049792488232e-07,0.185183857637238,0
1.44896357475143e-07,0.17112690016929,0
2.51648854459682e-07,0.212677329664322,0
3.00912397466586e-07,0.226977530467295,0
2.99828002337752e-07,0.231765876648016,0
2.99757005071238e-07,0.237278301786156,0
3.27774540544688e-07,0.251560703717813,0
3.40545186447141e-07,0.253340673405813,0
3.3333055499982e-07,0.246055088607121,0
3.2441772936068e-07,0.240985062940862,0
2.22557095096999e-07,0.203508505779465,0
2.16158781156581e-07,0.204421745866089,0
1.45281555410487e-07,0.172929245637484,0
1.45912272971026e-07,0.178309550428063,0
1.94358793533629e-07,0.196661838316517,0
1.83064487953307e-07,0.190343518076837,0
1.97368674812471e-07,0.187434866230792,0
3.03481491460983e-07,0.219648414263243,0
2.76743115248904e-07,0.20813390829893,0
2.57347971206612e-07,0.203827771590257,0
2.56636286550644e-07,0.203322884757391,0
2.15792213709613e-07,0.184010328497245,0
4.95176628683539e-07,0.258985036185084,0
5.04470120517608e-07,0.254291813674639,0
4.62232285735357e-07,0.252181152447583,0
5.45700499052751e-07,0.271664138010904,0
5.3082591713325e-07,0.266439104415377,0
3.75350463420742e-07,0.235897011177308,0
3.80228630215011e-07,0.231764760340376,0
3.84754831836985e-07,0.228042482121284,0
3.99707963923694e-07,0.22690253517335,0
6.66457383091614e-07,0.269975891111375,0
6.88197652446419e-07,0.258729835384982,0
1.1424641455842e-06,0.316789650418608,0
1.26204740956071e-06,0.316200631814141,0
1.1941144052101e-06,0.317367695469289,0
1.17809943599129e-06,0.321405930195823,0
1.2278639880775e-06,0.323377129529204,0
1.23299190412135e-06,0.320897173499783,0
1.15182742622067e-06,0.309323203149026,0
1.17342016224861e-06,0.314627194841686,0
6.99473428243709e-07,0.267045965535187,0
3.11597234313653e-07,0.203229592047614,0
1.13625334499165e-07,0.150896414581932,0
6.0480406178787e-08,0.131092122864969,0
4.60815562976031e-07,0.248627713551068,0
2.20960452172631e-06,0.497727081507981,0
2.58468952586402e-06,0.475755358774023,0
2.49625663986309e-06,0.480855326178262,0
2.3520674353035e-06,0.475073647817459,0
2.27079550480229e-06,0.467326553488522,0
2.29986712309646e-06,0.366882553105118,0
5.19620272536529e-06,0.505397024121464,0
7.32926272748682e-06,0.593394067698206,0
2.26551959218699e-05,0.555687037488982,0
3.80920556482766e-05,0.372918388926611,0
3.78199627029264e-05,0.351365440885047,0
3.66415074749598e-05,0.339190403725939,0
3.34969413603796e-05,0.330623061066558,0
2.96764630409149e-05,0.317623358578564,0
2.76141549870933e-05,0.308519514965517,0
2.67910006951891e-05,0.324281232091681,0
2.98945702690396e-05,0.336750217435473,0
2.99525498594462e-05,0.321287457343383,0
1.94566891053524e-05,0.404535265916978,0
8.19046772743974e-06,0.192411807097315,0
3.1753020397184e-05,0.258780341566654,0
3.21694999295652e-05,0.223814509088873,0
3.39661335937509e-05,0.22769990772432,0
3.61997120293303e-05,0.233918167804505,0
3.77643519035877e-05,0.243325233805948,0
3.7074138130183e-05,0.23311273556595,0
3.54108116526491e-05,0.22241185497747,0
3.6913861448558e-05,0.226282807369635,0
3.89686050205721e-05,0.221744275577448,0
3.52241797786405e-05,0.363515817382297,0
6.19951746525899e-06,0.267020515229943,0
4.80664737055316e-06,0.367539616358811,0
4.73548625644635e-06,0.364217253780308,0
4.83402311087838e-06,0.369588075562772,0
4.69578770687709e-06,0.364704199090731,0
4.16904962100959e-06,0.402261369545783,0
8.7526870245402e-07,0.245749526218114,0
8.98440699664195e-07,0.263052913990849,0
1.0596868716222e-06,0.262403456388826,0
1.38652475177561e-06,0.285508830157883,0
1.64345630639068e-06,0.266829680127405,0
1.92267445684402e-06,0.271967928569898,0
2.36468460626387e-06,0.301908560082295,0
2.60657491161748e-06,0.315028047227376,0
2.52696733831299e-06,0.315364045573679,0
2.58919316948926e-06,0.317989892599419,0
2.72182210565879e-06,0.326016259709092,0
2.65261376884983e-06,0.332726965884832,0
2.34884536786785e-06,0.322215389629179,0
2.3762391344494e-06,0.345335028226401,0
1.4787789020005e-06,0.329717170125562,0
7.58245066169706e-07,0.265307637204631,0
7.72210580961795e-07,0.278280528947233,0
7.19981064205411e-07,0.283294205971214,0
5.50493670537887e-07,0.253756922084628,0
5.32397323298769e-07,0.254346764555177,0
5.30131453090861e-07,0.272061180140585,0
1.49191238925225e-07,0.167450986564433,0
1.25677749898383e-07,0.160790995911299,0
1.44224451429492e-07,0.179177235152916,0
2.25799001485131e-07,0.211193119247096,0
2.56473848833072e-07,0.224451967112715,0
2.42407326582382e-07,0.21916542980346,0
2.95236241537763e-07,0.234380078982347,0
3.01957215395788e-07,0.230651210642734,0
2.98387915938949e-07,0.236886665616168,0
2.98404330909789e-07,0.232586661735105,0
2.28055707506864e-07,0.205052174826548,0
3.28887535990813e-07,0.229050160686376,0
3.69108041350628e-07,0.223801235028705,0
3.29939302588652e-07,0.219623603922236,0
3.06080595647467e-07,0.208245681552708,0
3.14556662215866e-07,0.209975773622161,0
2.78085718876095e-07,0.206954791398487,0
2.642999631205e-07,0.20098895612867,0
3.63634907392433e-07,0.226325546638006,0
4.37733898458144e-07,0.244523713240026,0
4.73905545519784e-07,0.248676550554945,0
3.67958691275834e-07,0.23997697837027,0
3.34782826745075e-07,0.246671350828925,0
3.19338151881264e-07,0.235141908436889,0
3.0376155301868e-07,0.232002657575926,0
3.01191854792228e-07,0.238205656766413,0
1.96331006962592e-07,0.18789489763852,0
1.64441250361842e-07,0.188510182557918,0
1.52949260194047e-07,0.190892496740148,0
9.09142656419502e-08,0.161180156133818,0
4.28489148009881e-08,0.139863544225694,0
8.83523217268755e-08,0.154086938091411,0
2.90721721735528e-07,0.241673979225049,0
2.80816344239981e-07,0.22860497746192,0
3.19090819559903e-07,0.244919075386312,0
2.83191882565951e-07,0.230606009003205,0
3.27399413143601e-07,0.238628402660857,0
3.44446813534473e-07,0.232559440686533,0
3.41122026649403e-07,0.228783468520151,0
3.45427784276483e-07,0.229220601446925,0
3.11225329483528e-07,0.228645946033181,0
2.75310581750793e-07,0.234136642633496,0
9.26609998088904e-08,0.153707960120863,0
1.04617543721978e-07,0.175836702699903,0
1.18532504432095e-07,0.180940148396371,0
1.78464267904541e-07,0.204309967554801,0
1.44817102370537e-07,0.193329461449818,0
1.85491184593304e-07,0.225301185972741,0
1.81298619771277e-07,0.211408433109968,0
1.91162909487054e-07,0.212172902293911,0
2.07066196480946e-07,0.198787820000224,0
2.0895432094886e-07,0.20063570730513,0
2.32663883277693e-07,0.202253088952453,0
2.53114822131528e-07,0.209423940825587,0
2.4696655955672e-07,0.195278674290184,0
2.05351788728972e-07,0.175653330780564,0
1.85986654878767e-07,0.174298659786472,0
1.60481516291845e-07,0.165970763700726,0
1.82186840892778e-07,0.181629449441665,0
1.81066493956645e-07,0.18616401761176,0
1.78559031631903e-07,0.194036801954998,0
3.37844571275343e-07,0.240730782778982,0
3.83363386118644e-07,0.244171528536943,0
3.01750970854197e-07,0.216921600033451,0
3.04139701580045e-07,0.231604557721174,0
2.88692307671983e-07,0.239337771075966,0
2.87528153911832e-07,0.240154582319011,0
2.973091603093e-07,0.234333352622985,0
3.15979427295746e-07,0.237136242204009,0
3.37384549270467e-07,0.242952397523063,0
3.38938734822407e-07,0.234859477589369,0
2.34359861951976e-07,0.210173830682272,0
1.54943528093033e-07,0.19495488001163,0
1.47720940923649e-07,0.186430320640041,0
1.52949562310075e-07,0.175710153215659,0
2.30351688612202e-07,0.201257309647428,0
1.90300871754623e-07,0.181536094964027,0
2.19636640162362e-07,0.195941770132792,0
2.08274761297173e-07,0.189788503507471,0
1.79917647408564e-07,0.18063063670905,0
2.25094064087116e-07,0.19941462021493,0
2.56071933810861e-07,0.21077800169401,0
2.42663621679232e-07,0.203969996075582,0
2.55269412935891e-07,0.209804976672309,0
4.9457682766317e-07,0.280411151279419,0
3.03038387953659e-07,0.214744160624387,0
3.02291255017104e-07,0.221574360948834,0
5.76352788403957e-07,0.286587957715331,0
8.37213361959539e-07,0.338510615825942,0
8.47894573414273e-07,0.327265119680496,0
8.69432324325162e-07,0.333458716453378,0
8.87933406336085e-07,0.34176929089871,0
8.66799081027545e-07,0.335519266131054,0
8.46972213181641e-07,0.343240707830324,0
5.31622294982322e-07,0.301626195755011,0
5.04260250583684e-07,0.301968994543024,0
5.08160669206905e-07,0.294807827775987,0
4.22022656552539e-07,0.279647614489291,0
1.59305277890584e-07,0.182031293600599,0
2.19697063367907e-07,0.208473851139877,0
2.37359269875191e-07,0.207414972781332,0
3.1673320678491e-07,0.230389444302937,0
3.35075275059909e-07,0.231904779388057,0
3.44924257563615e-07,0.220302676946904,0
3.89017487577443e-07,0.22261746374029,0
3.89700269800093e-07,0.224315411425338,0
4.38102480011963e-07,0.24177593065502,0
3.98721051566473e-07,0.238885470585657,0
3.44209148925999e-07,0.227940504425007,0
1.61528146917213e-07,0.178083096772645,0
1.5821614961065e-07,0.179171372626615,0
1.26150360071081e-07,0.167516932250687,0
1.74084793966697e-07,0.194705661488157,0
1.51579164008332e-07,0.201186383104117,0
1.4315616915547e-07,0.198226807154657,0
1.85988165458906e-07,0.219575117844573,0
5.76755509068909e-07,0.337161273211497,0
6.55939717113219e-07,0.341634858945278,0
6.60194316426272e-07,0.33597927733447,0
6.61660586214145e-07,0.327215284841764,0
6.68096161131316e-07,0.325784593643901,0
6.41040160268759e-07,0.320174262466688,0
4.84388568860333e-07,0.279879224357378,0
4.24172917027173e-07,0.255220660630717,0
4.17770876989079e-07,0.253506958955588,0
4.34608004624657e-07,0.263294433057933,0
1.51843515532588e-07,0.185664393746644,0
5.92404212956774e-08,0.144183655894585,0
6.89275703138671e-08,0.154706358520145,0
6.79789259868229e-08,0.156931385924514,0
8.01251987653195e-08,0.167399882530536,0
2.30477268174392e-08,0.13433932327483,0
1.12562691724328e-07,0.183733016505229,0
1.48425072678925e-07,0.19401133594586,0
1.49954283305906e-07,0.198082322525357,0
2.14017282046751e-07,0.217180810721547,0
2.11197633160031e-07,0.206472166206256,0
2.65758176480967e-07,0.211088647680063,0
2.23481167320455e-07,0.192857684136317,0
2.68274903697226e-07,0.200742394509075,0
2.75229715360707e-07,0.191467172737394,0
2.91789198366809e-07,0.193514813101522,0
2.47496269658657e-07,0.185547431654481,0
2.36552821491861e-07,0.185996105082284,0
2.50482787298022e-07,0.1905026205662,0
2.31100634244922e-07,0.194673436549961,0
2.3365331326848e-07,0.204168323891876,0
1.54954102154003e-07,0.182282420046523,0
1.50029107375438e-07,0.180015287081052,0
2.57642836449668e-07,0.220567563525184,0
4.63393619745917e-07,0.299262244997795,0
3.5318773515384e-07,0.252369403546111,0
3.83640527221407e-07,0.244250310669886,0
4.08992996508987e-07,0.245250117264662,0
4.34645769128122e-07,0.242522227608414,0
4.36116570656411e-07,0.237682963617556,0
4.60883941903638e-07,0.24120585517591,0
4.66629785929522e-07,0.2417608798299,0
4.58010214247956e-07,0.244898660967265,0
4.23580769612839e-07,0.245314749433099,0
2.60700250650204e-07,0.199956863711125,0
2.64128361216755e-07,0.212833631857273,0
3.9889940072817e-07,0.268345809336883,0
4.57039414745545e-07,0.292451271639152,0
4.6237679790195e-07,0.293344283846763,0
4.68600488778346e-07,0.297796868936289,0
4.68189208159275e-07,0.297677948235412,0
4.877147656202e-07,0.29319163433414,0
4.47434642697581e-07,0.271120917474815,0
3.29123589313805e-07,0.231891590095003,0
4.60579912474406e-07,0.274715317177765,0
5.08133277353725e-07,0.277494645972499,0
3.75220855644849e-07,0.241355521812585,0
2.18976516641792e-07,0.187796843452104,0
1.85327538411622e-07,0.180399287537561,0
1.81177370538818e-07,0.179637859586377,0
3.67705719455289e-07,0.224732823229024,0
5.94659307693028e-07,0.271791452551448,0
5.78365686791319e-07,0.268966295979191,0
6.50723180367903e-07,0.28380955505973,0
5.81966104199013e-07,0.272225146156124,0
5.58542343632404e-07,0.267853073259283,0
5.93760210394529e-07,0.282860871976088,0
4.6546643781211e-07,0.246717995750443,0
5.77251482881084e-07,0.272488643034523,0
5.53371728523301e-07,0.264351570930887,0
4.77261047534339e-07,0.27566321993813,0
3.70322144960696e-07,0.250926390177111,0
3.88731081583164e-07,0.258639938031078,0
3.69771890968874e-07,0.248357245004551,0
3.72554883110897e-07,0.237176360975001,0
4.43424052429584e-07,0.264072155422923,0
3.31877981138538e-07,0.223384002743818,0
2.9922608650519e-07,0.226687433377338,0
2.31094591924368e-07,0.199629350391865,0
2.29456619527407e-07,0.20257199091647,0
2.28787936052718e-07,0.193069513626245,0
1.72413890922714e-07,0.182854796447917,0
1.31476766345145e-07,0.168495763549192,0
1.25126690263819e-07,0.172444142814176,0
1.27349458585106e-07,0.178809326507622,0
1.0627787270499e-07,0.157081107880463,0
1.20363025444057e-07,0.166506530530383,0
1.9466090956135e-07,0.193343525674669,0
2.16041560137825e-07,0.194313915782126,0
2.33964190661004e-07,0.200725969999665,0
2.37189682078297e-07,0.203688392743895,0
2.44055369513599e-07,0.205986565404181,0
2.22850349054574e-07,0.200404484784121,0
1.83051597669457e-07,0.183519895264696,0
1.79506769610864e-07,0.1854345003999,0
2.05256420769555e-07,0.197179694593185,0
3.56504969138217e-07,0.246043751108049,0
4.86767732578637e-07,0.272639095119695,0
4.84713242884791e-07,0.276116274336243,0
4.86161083594973e-07,0.26512656659987,0
4.79778378982653e-07,0.259533371690094,0
5.3018422269037e-07,0.257652924938345,0
5.79234471781703e-07,0.267640260796875,0
4.99346937624857e-07,0.246076329554052,0
3.95881160905895e-07,0.226728649241643,0
4.59017771200405e-07,0.254637637018827,0
4.05980295480554e-07,0.249558181018296,0
2.77962757652814e-07,0.225863397790198,0
2.88034903195663e-07,0.234417274017348,0
2.76748654042745e-07,0.241219508737022,0
3.25328609184258e-07,0.256314848053107,0
2.28919255819434e-07,0.223955681557934,0
6.30575566005902e-08,0.145458081304331,0
2.16282850138631e-08,0.124685856342323,0
2.62264909557771e-08,0.120120301563595,0
2.26449054471444e-08,0.121034695948656,0
1.02520354962881e-07,0.166463005010871,0
1.52879572096986e-07,0.185218749185186,0
1.37812038741113e-07,0.173653638135446,0
1.38483441260051e-07,0.176806260404137,0
1.15726551471965e-07,0.174068467555395,0
1.01357913193553e-07,0.177453155714356,0
9.79947575729627e-08,0.175711024249269,0
1.01194267011871e-07,0.173285637685895,0
8.68264343761991e-08,0.171316834076982,0
8.54076975100213e-08,0.168396354471219,0
5.33431164345633e-08,0.146423582313613,0
4.64105606517914e-08,0.14682445782715,0
4.34563694273924e-08,0.149592293881966,0
4.13757970498205e-08,0.150338363979162,0
4.25958422751003e-08,0.145135698843698,0
8.1471427784844e-08,0.156956847345398,0
1.09246666204062e-07,0.164399986921059,0
8.58194816558052e-08,0.152432238523257,0
8.77103251679685e-08,0.1510735420756,0
1.04352386554981e-07,0.161957060856625,0
1.22842390978221e-07,0.171072992951666,0
8.46210880791784e-08,0.151743685775209,0
2.08730352266976e-07,0.201277087123577,0
2.61547786813305e-07,0.216131730530528,0
2.28156412849438e-07,0.199419851625296,0
2.23574319762336e-07,0.204197195444632,0
2.72013589540274e-07,0.215851769877517,0
3.96479249935439e-07,0.239767627896851,0
3.98144614185581e-07,0.234853265301126,0
4.48555996687139e-07,0.246115973692346,0
5.10232077398304e-07,0.267129017616577,0
6.02127313782263e-07,0.287024656232933,0
4.76101425514603e-07,0.259891488503517,0
3.05455316175427e-07,0.212709113729967,0
2.56357030635687e-07,0.199898280193985,0
2.22012984131073e-07,0.194852720555205,0
1.67249720955536e-07,0.182341983101611,0
2.00965970354546e-07,0.21167493677598,0
1.76550060752901e-07,0.199248395609883,0
1.84659660579674e-07,0.196817844594741,0
2.37932786801148e-07,0.209457364831605,0
2.25233440281237e-07,0.211241363652084,0
2.14363708425205e-07,0.202518868386115,0
2.04184915924571e-07,0.198797456552452,0
1.05838797411369e-07,0.156435987460161,0
1.5481230903166e-07,0.165503204094712,0
4.37750816955696e-07,0.243436676858468,0
4.06513228153453e-07,0.227026426522843,0
4.61805295082844e-07,0.24496264942396,0
6.45600098180495e-07,0.291769134116993,0
7.09032379360802e-07,0.311583785530559,0
7.51592571944631e-07,0.310948399392288,0
7.84809624960502e-07,0.322198179743404,0
8.1975991762741e-07,0.328840165616365,0
8.124705628159e-07,0.327433931374842,0
7.64089198609941e-07,0.33953092439067,0
3.91934619235774e-07,0.261085003742082,0
4.31991176297879e-07,0.279225125998856,0
4.84751108093599e-07,0.28849878251334,0
3.73871404054363e-07,0.24857777657173,0
3.756188431587e-07,0.231601162505948,0
8.14502293102323e-07,0.310663390645089,0
8.08400052869072e-07,0.296649606399366,0
8.26869815518454e-07,0.298508106115963,0
9.14446806812855e-07,0.315418701136521,0
9.15027272407449e-07,0.311715306249252,0
9.5733398964402e-07,0.318727416632136,0
8.7108389194337e-07,0.310354499009581,0
7.27545747423518e-07,0.289833850045648,0
7.29837297493786e-07,0.295928533238179,0
7.24203135692813e-07,0.304278043587589,0
3.08764896553768e-07,0.215235584040096,0
3.5745159935841e-07,0.231631551478055,0
3.39480529565452e-07,0.219237264181552,0
2.58137501092389e-07,0.18948281099098,0
3.461069411068e-07,0.214312326097138,0
3.25175033536834e-07,0.209951352478929,0
4.06475362944645e-07,0.224092543329518,0
4.34537813000883e-07,0.226317674520893,0
4.41300881692104e-07,0.228015551470685,0
4.52015930141942e-07,0.233715350013221,0
4.83802060945184e-07,0.243334127109341,0
3.71443096128884e-07,0.231047855356873,0
2.29915835889543e-07,0.195003143884639,0
2.35628749268405e-07,0.201311798334137,0
2.12368232062108e-07,0.193705638964308,0
2.36666417118284e-07,0.203388938134215,0
2.48034741125399e-07,0.201236996295277,0
2.57195402612613e-07,0.204308342886784,0
2.00376944805833e-07,0.186882951965726,0
2.14242056371376e-07,0.199642129702584,0
1.38361084268824e-07,0.170759481272727,0
2.37944972147599e-07,0.195592504801027,0
2.44269670482596e-07,0.191388628115872,0
2.52023579039399e-07,0.198487894538721,0
2.65247298278091e-07,0.198191498220254,0
2.78164168337961e-07,0.197062417238054,0
2.63370150692517e-07,0.20069036848166,0
2.36867424982061e-07,0.195947869909464,0
3.59131263767196e-07,0.235343400253753,0
3.81575362761248e-07,0.233112260999551,0
4.86384951571514e-07,0.251899786750131,0
2.9956848466994e-07,0.209516332816007,0
3.2718964391502e-07,0.231296139015847,0
3.43285177407886e-07,0.230341584727496,0
2.82282614027854e-07,0.219270213785295,0
2.2108276888172e-07,0.20919926622606,0
2.66160192208521e-07,0.232571633840359,0
4.0632017601174e-07,0.272896282520316,0
3.997058491115e-07,0.256280551158223,0
3.51526097001374e-07,0.262266851189078,0
1.68216995770957e-07,0.19876658089108,0
1.64329366726242e-07,0.202511997999887,0
1.64810234737032e-07,0.19615451747606,0
2.57392281557344e-07,0.234167273867995,0
2.77364970739297e-07,0.239018168788398,0
2.87622917639193e-07,0.230937946937126,0
3.56455019288301e-07,0.23810763257899,0
2.8285059215997e-07,0.212360655466041,0
2.30813422607902e-07,0.199529805583362,0
2.31953407085836e-07,0.193321121803896,0
2.31970728404759e-07,0.198213554587111,0
2.34840729962766e-07,0.193616389533809,0
2.26938985963065e-07,0.190814399267443,0
1.89985462621682e-07,0.183699394580943,0
1.9385365553528e-07,0.184906771363284,0
1.93002091158477e-07,0.183795029123826,0
1.38548799027382e-07,0.171503606219092,0
1.32020575195043e-07,0.177187935512978,0
1.17159387086103e-07,0.175576321054566,0
1.0978735318834e-07,0.177809562423858,0
1.02766579525474e-07,0.172005811006683,0
1.03682091794811e-07,0.174537443190394,0
8.29988257156594e-08,0.165000144527552,0
6.58898943604746e-08,0.151619427386,0
9.82705895062717e-08,0.167791464023269,0
1.10510014726649e-07,0.170785802253303,0
1.33411920208041e-07,0.173379571034218,0
1.44540766910515e-07,0.179290642136075,0
1.88035001546715e-07,0.18794202093404,0
2.44256276672034e-07,0.209109336813452,0
3.37318587271081e-07,0.243109422557988,0
3.46960922411825e-07,0.243603595735828,0
3.4189665214448e-07,0.244369119433691,0
3.3922222036175e-07,0.256687949356667,0
1.77799612643554e-07,0.19714443012655,0
3.2685077043726e-07,0.243726913973463,0
4.1019984933439e-07,0.253499135158579,0
3.3798727074577e-07,0.235642183712537,0
3.48396074248842e-07,0.248608696682466,0
3.74195675257449e-07,0.255073600918244,0
3.6332956879375e-07,0.246954527658713,0
3.73701413436098e-07,0.24533869546184,0
4.79919769283626e-07,0.260775550498531,0
5.88439846441019e-07,0.261165697859488,0
6.85349000421038e-07,0.264349712874853,0
5.17503405953493e-07,0.243707980809236,0
3.89493521731789e-07,0.227461324270445,0
3.9758700870375e-07,0.226348107096704,0
4.21822454331503e-07,0.229382903490568,0
4.82624311963785e-07,0.244288604594925,0
4.59040631313171e-07,0.23676330696911,0
4.40220816893001e-07,0.237854514717375,0
3.44710258710646e-07,0.212818126882067,0
2.91600677965511e-07,0.2119525311,0
1.85114043085366e-07,0.192955274871044,0
1.42676106787421e-07,0.180325082959938,0
1.474998926967e-07,0.184353361387316,0
2.71317111391034e-07,0.23217753245569,0
2.8328493430249e-07,0.238956823382989,0
1.92057978571848e-07,0.215163079342044,0
2.42305513481039e-07,0.228588656580091,0
3.07064688255097e-07,0.239966852381489,0
2.78607271845285e-07,0.242065494744103,0
2.63882539475533e-07,0.237788118741067,0
2.76852581956281e-07,0.236338684919336,0
2.71688411989103e-07,0.232060999892804,0
2.68353051043063e-07,0.238481325892813,0
1.36657955515218e-07,0.17887467189939,0
9.52131753057349e-08,0.155727025490501,0
1.42535824245216e-07,0.166272219384862,0
1.58459353012965e-07,0.17365478790139,0
1.22495964599767e-07,0.161197724531507,0
1.26615618753771e-07,0.157472388285134,0
1.43583965450723e-07,0.164602782483761,0
1.38041646922181e-07,0.165092579745933,0
1.7732831164031e-07,0.182947472894111,0
2.10963896059918e-07,0.194374652773025,0
2.4987855524258e-07,0.211746722079058,0
2.40103993987036e-07,0.218271681032871,0
3.1976766016734e-07,0.250676160665893,0
2.17371978418566e-07,0.212547320914731,0
2.03997201166013e-07,0.217649403534354,0
1.58887149308218e-07,0.202446009972045,0
5.55264082615603e-08,0.153875173305134,0
8.0947760003461e-08,0.161818294449538,0
8.29972144301777e-08,0.160172126489831,0
1.14797544686723e-07,0.179104591608827,0
1.37858363198696e-07,0.192113355041666,0
1.48365455116121e-07,0.189791375424354,0
6.45745818811198e-08,0.147244548958052,0
3.69531205200124e-08,0.130966370538307,0
2.3010667251372e-08,0.122678602247769,0
4.07106382621212e-08,0.129156130559749,0
9.40047111948509e-08,0.151576296687728,0
2.02033346280484e-07,0.205880250154781,0
2.03622073764926e-07,0.198459835372146,0
2.18257077674446e-07,0.206048871872581,0
2.14417787194167e-07,0.206442223369385,0
2.79815735956169e-07,0.227445031544666,0
3.08582821294395e-07,0.24508631116275,0
3.16030283493746e-07,0.258006455451809,0
3.26784707732532e-07,0.26176278702636,0
3.65649819886647e-07,0.256605513816096,0
6.06711723092245e-07,0.315459657120525,0
5.44660313569308e-07,0.298800459639384,0
6.00629120400795e-07,0.307188317385696,0
5.91734018901947e-07,0.305053212294217,0
6.24480677262657e-07,0.291500846937937,0
5.86913052742259e-07,0.268943707591097,0
5.64482045442741e-07,0.257202362388292,0
5.19312073906116e-07,0.23913333618249,0
5.14936124655262e-07,0.230299885169038,0
5.43302100614018e-07,0.246047395448227,0
3.16827064164189e-07,0.194124546564944,0
2.67065331827573e-07,0.180209126297239,0
2.2986840367319e-07,0.171920518951313,0
2.39694727474817e-07,0.176698923846623,0
2.22169580938775e-07,0.182901330527754,0
1.6523158589036e-07,0.174859341266825,0
1.87015359953157e-07,0.188680537989306,0
1.71194953456203e-07,0.189639501278806,0
1.56296705781196e-07,0.192585956982068,0
1.3540669163374e-07,0.195580754501299,0
1.01116623192747e-07,0.186658567686213,0
8.49404247204795e-08,0.186620540345607,0
4.80868010789353e-10,0.128277203063321,0
3.72438568440211e-09,0.125335191471024,0
3.92255365751871e-08,0.15759397337112,0
5.71804935133327e-08,0.168640665127275,0
5.93209855697362e-08,0.169367107708478,0
6.54156729022952e-08,0.164921785855544,0
8.82420493767574e-08,0.172217103474419,0
1.08714941995273e-07,0.171327026250837,0
1.19865541051743e-07,0.171367324651524,0
1.17282247604043e-07,0.16850556155173,0
9.10761998328083e-08,0.147779351372348,0
1.72305632679448e-07,0.179393764319002,0
1.93549928222078e-07,0.184337049332918,0
2.20008947813857e-07,0.190903834135133,0
2.36047280672141e-07,0.190278512137211,0
2.33997322718711e-07,0.199785155412949,0
1.63059573061731e-07,0.182233701210707,0
1.66162103255741e-07,0.189038376067751,0
1.95729292540714e-07,0.209489169233403,0
2.39274181964229e-07,0.223970090805891,0
3.16777114314272e-07,0.261263498531419,0
2.1170156269427e-07,0.231458995794309,0
1.83315949193713e-07,0.221326799391838,0
1.33593693351386e-07,0.190925470043116,0
9.35712754004137e-08,0.17531327727593,0
1.34604271464113e-07,0.182687843217361,0
3.01049356732486e-07,0.250375769208263,0
4.00346032974241e-07,0.281180736955857,0
3.8003527595727e-07,0.258341674216266,0
3.93360606886618e-07,0.257980416001395,0
2.82081203342706e-07,0.231209981641479,0
3.86890590742287e-07,0.242046782069128,0
9.6706927581596e-07,0.344714770399407,0
9.57119587969681e-07,0.328908701136914,0
9.07612841560462e-07,0.316537591716476,0
9.05379599883549e-07,0.319306173774741,0
9.1341991443463e-07,0.325053760495901,0
9.21324981710636e-07,0.329305415984082,0
8.94221145810356e-07,0.338474527753016,0
7.76407476113552e-07,0.31868586996236,0
7.54295100517939e-07,0.305291021745403,0
7.4557683760065e-07,0.326886748106978,0
2.60127942188358e-07,0.214610352934837,0
3.2742166902431e-07,0.236227777535292,0
3.53204653651393e-07,0.231632242638575,0
3.88702481265873e-07,0.241555517792234,0
4.19387701264099e-07,0.241256484293142,0
4.12861189422585e-07,0.246106496338011,0
4.25797092792201e-07,0.250566602776676,0
3.95758703209325e-07,0.248560957539557,0
2.75615920349477e-07,0.210441429736809,0
2.6561436925177e-07,0.219263914606569,0
2.79845544737571e-07,0.22836912697406,0
1.49005135452149e-07,0.195861132734544,0
1.02737979208182e-07,0.181603852600803,0
1.27510587133224e-07,0.189637399422508,0
1.93501287541614e-07,0.214516648577047,0
3.35507401684893e-07,0.244684416586231,0
3.92901894051195e-07,0.244954030330814,0
4.6953896186579e-07,0.250542454368167,0
4.99359827908706e-07,0.250261330909632,0
6.49137373338396e-07,0.268679800825288,0
7.37282745586282e-07,0.275692840203259,0
7.71371504047472e-07,0.278908273816527,0
9.42703517474917e-07,0.297583626481568,0
1.10257848548844e-06,0.303653714760158,0
1.21785941581952e-06,0.325419854763967,0
1.16500925203685e-06,0.315761288479273,0
1.13187799997285e-06,0.319980982044096,0
1.23808104860831e-06,0.334627065384923,0
1.41416715984798e-06,0.326501448013491,0
1.52821847794623e-06,0.285294819628274,0
4.54213522127585e-06,0.44101194401338,0
5.34015849494079e-06,0.432353861510399,0
5.28806321840606e-06,0.435916903295236,0
6.99245814028423e-06,0.357915136599068,0
5.05756111629419e-05,0.334339550591915,0
0.000178799746000971,0.556152912132619,0
0.000291965740874661,0.664921886736743,0
0.000488359510226495,0.612270159505595,0
0.000796587293526477,0.441927769234348,0
0.000789297492892415,0.333006309365039,0
0.000853818913128128,0.311088231392278,0
0.000830760760588688,0.261840314929388,0
0.000605629622433936,0.211053671630201,0
0.000346637071653543,0.148819336622514,0
0.00021537775634051,0.122366058610709,0
0.000176882416983711,0.0739670237000812,0
0.000236474305060943,0.0756088504174633,0
0.000502823267420012,0.134744087082821,0
0.000663299200607665,0.177002085954346,0
0.000706685940850622,0.185202053026813,0
0.000669861341294445,0.218730062411589,0
0.000578421132635307,0.207238616900095,0
0.000557295436566162,0.18772163017588,0
0.000517383028325774,0.168229807194478,0
0.000346614342961251,0.136535265885348,0
0.000149859284733685,0.121786097645268,0
0.000151883368664858,0.120952722815744,0
0.000268997817804534,0.147475123259468,0
0.000377155383523336,0.17627291161141,0
0.0004478427876544,0.128636415423251,0
0.000536518102834976,0.0973496934225518,0
0.000729411633634159,0.116545205385212,0
0.00088942850604943,0.138939694835411,0
0.00102126455673046,0.163288244646923,0
0.00113459961815019,0.172747364397944,0
0.0012270667369117,0.174661455554083,0
0.00128872659963167,0.226611713356694,0
0.00105419128671705,0.281226434961502,0
0.000560072992734499,0.197985498036907,0
5.94654401328737e-05,0.0935697634226337,0
7.26760547867471e-07,0.302561158587404,0
4.36978104862129e-07,0.259917050777914,0
4.50896086732522e-07,0.271612851676587,0
4.40624443906036e-07,0.271807154809656,0
3.9016150026908e-07,0.245803890402305,0
3.44273600345246e-07,0.224397421713872,0
2.96933730792185e-07,0.212846780686766,0
2.56380494980507e-07,0.208399461430804,0
2.63720605284675e-07,0.209970676283368,0
2.79691767679461e-07,0.216427315786179,0
4.18122842161374e-07,0.254410371567938,0
3.92329384178664e-07,0.244602410704795,0
3.66822735011603e-07,0.234325993749938,0
3.44972092601337e-07,0.232860679204366,0
3.19654769478315e-07,0.24194547407556,0
2.64379721751819e-07,0.223131745438172,0
2.81673648821311e-07,0.240499447843749,0
3.43871282501664e-07,0.262049368670375,0
3.29691466740578e-07,0.254655008619044,0
3.04228825808222e-07,0.253911471757821,0
2.08066804764758e-07,0.220619333113811,0
1.82339409486776e-07,0.210731457838173,0
1.92314978606097e-07,0.215275127671171,0
2.49201311813772e-07,0.233470284167246,0
2.5013797220505e-07,0.227647806818943,0
2.60117770948758e-07,0.243400087393668,0
2.74027696391747e-07,0.246156237457991,0
1.93114881142159e-07,0.207592510221761,0
1.63229261563968e-07,0.209238663763102,0
1.53805658427294e-07,0.194322878551309,0
1.19036031144963e-07,0.178777535458498,0
1.15023628180801e-07,0.176441498536875,0
1.16332797634259e-07,0.176238492357917,0
9.73981791235561e-08,0.159529008485287,0
1.3946632540357e-07,0.171909886757665,0
1.84349488124547e-07,0.187464925037742,0
1.77408070271628e-07,0.175294881605061,0
2.90870765642537e-07,0.213046707398813,0
4.07006583626722e-07,0.246977851574433,0
4.2087814033419e-07,0.258757946888768,0
4.14625547024475e-07,0.256877434663007,0
4.35105891838341e-07,0.262569940523474,0
4.56374860189902e-07,0.261773226916217,0
3.58335792266207e-07,0.231179692083934,0
2.880011669059e-07,0.215350480776119,0
3.06394796316297e-07,0.214996324432371,0
3.62601972693655e-07,0.239915253531352,0
3.25843012074125e-07,0.237210988437999,0
2.69703308276291e-07,0.216882810778328,0
2.77915325436462e-07,0.213810573351703,0
2.96458703691265e-07,0.214377635427309,0
2.96144503022435e-07,0.214252158829923,0
2.64417989781996e-07,0.206782755070631,0
2.45490219234589e-07,0.221534669580854,0
1.15567437030698e-07,0.171206650532793,0
1.00117223373045e-07,0.170768995719916,0
4.94679748523279e-08,0.140867477281763,0
8.97695480129146e-08,0.163138798573512,0
8.81033781200335e-08,0.158540411018813,0
6.59982533090845e-08,0.151288990652881,0
1.3871153886098e-08,0.118732409096683,0
2.67407931403007e-08,0.133920716733393,0
0,0.109472666022274,0
1.72769078665972e-08,0.11873755712347,0
1.56615236779756e-07,0.188547997514528,0
1.61912438504474e-07,0.190799756671078,0
1.70139662171373e-07,0.200651461772998,0
1.5560465866703e-07,0.196221131731751,0
1.53179170491143e-07,0.199626562931491,0
1.61819688883964e-07,0.200201823816972,0
1.68139956183887e-07,0.204260195829176,0
1.49002013586529e-07,0.197734901363022,0
1.19625862336418e-07,0.17790599569839,0
1.2805278469764e-07,0.191770251417614,0
1.17755059187427e-07,0.19230868556918,0
1.21379645877338e-07,0.193086943379802,0
9.13179933603278e-08,0.171802076851689,0
6.20534236297879e-08,0.159155330548151,0
6.29350989040206e-08,0.153794157141005,0
8.95833438344961e-08,0.158499412786145,0
1.13509321944521e-07,0.160197513826451,0
2.89327959794309e-07,0.21762767148966,0
3.25935660989293e-07,0.232949939159624,0
2.97479553748935e-07,0.220116120666396,0
2.52222572796325e-07,0.203499595478347,0
2.92325857137384e-07,0.208230652487128,0
3.06160253573443e-07,0.209108067671418,0
3.16291311741697e-07,0.207400081212208,0
3.08154219356401e-07,0.212865828923617,0
2.96029396815874e-07,0.221738529064154,0
2.61145871791094e-07,0.221984622236027,0
1.18458083183933e-07,0.166077052136232,0
7.77387842623509e-08,0.145016687421967,0
2.01316022125332e-07,0.193500437211241,0
3.51970711088838e-07,0.236738707435941,0
2.82065896130635e-07,0.220786964738015,0
4.62044570976799e-07,0.262065013458831,0
4.56434880574075e-07,0.246228991408533,0
5.62687073416708e-07,0.263742020950459,0
6.42871084102091e-07,0.279961822040109,0
6.33117167441775e-07,0.2768568798479,0
6.57178896353588e-07,0.285623623673155,0
6.65761307763748e-07,0.287416805715494,0
6.25801528535853e-07,0.295627174299643,0
4.85800558468558e-07,0.268621581691374,0
4.61977199102617e-07,0.277396488012588,0
1.14261087326832e-07,0.165846600974903,0
4.08637103828332e-08,0.134676255115644,0
9.95742201658879e-08,0.166544204680682,0
1.16814068466418e-07,0.164770022243294,0
1.18516089461256e-07,0.174823858515876,0
1.39983245927001e-07,0.174217833989447,0
3.96111876845731e-07,0.256957322021222,0
4.6505324379153e-07,0.26296073430526,0
4.15427967194103e-07,0.250843908420636,0
4.16009641252809e-07,0.25100232136884,0
4.3832886562207e-07,0.244499566485904,0
4.96674620654322e-07,0.251405388022429,0
4.86127145894526e-07,0.266283153149909,0
5.9135617245661e-07,0.286119916890731,0
1.19222789202766e-06,0.366579079372356,0
1.12513879844782e-06,0.337924787286733,0
1.09677775705085e-06,0.341248730775894,0
1.21904663110312e-06,0.361407673107934,0
1.44038438591223e-06,0.384920124319701,0
1.46889698884978e-06,0.391012555045997,0
1.46578922197795e-06,0.400608668367673,0
1.37304967200186e-06,0.381710127924051,0
1.44046253325807e-06,0.3741388965034,0
1.29027713119096e-06,0.363504553874372,0
5.23415514499966e-07,0.231177109823969,0
8.87300976784722e-07,0.315417933045218,0
9.55550195911013e-07,0.322904163962367,0
1.08732998463196e-06,0.350811096916187,0
8.27307279526594e-07,0.286777436174346,0
8.00099817828806e-07,0.274733735012055,0
6.92737449289641e-07,0.259290395917849,0
6.84500255793827e-07,0.26841739931339,0
4.7665691618424e-07,0.229553180392361,0
4.39121114552096e-07,0.23044092910684,0
3.81897619857484e-07,0.238547108061939,0
2.36845169101353e-07,0.203566559227219,0
2.76606155983004e-07,0.216981838958613,0
3.35563796676734e-07,0.240102342867121,0
3.24702624774821e-07,0.255591585731385,0
3.35108608528301e-07,0.264635419859191,0
2.91180233160266e-07,0.240802540317049,0
1.91187078769272e-07,0.203574206209445,0
1.67642169675546e-07,0.199955651502224,0
1.67265028167607e-07,0.194175523116507,0
1.48160519743983e-07,0.180031627615176,0
1.25154988465083e-07,0.170407841220534,0
1.24185699542811e-07,0.170834159249239,0
5.44211671268143e-08,0.140765208942586,0
1.25656098249729e-07,0.174395082326147,0
2.35336300953571e-07,0.226142561919672,0
1.93981450615006e-07,0.21102593109798,0
1.88228657920485e-07,0.213331736158858,0
2.3202792903934e-07,0.223069508474775,0
2.70547722573772e-07,0.225304438061083,0
4.82884937390366e-07,0.29079976554491,0
5.51129624776241e-07,0.297685526269866,0
5.44013080332587e-07,0.296062447133428,0
5.9371680639188e-07,0.301229572078682,0
6.64181442349449e-07,0.322324981029488,0
6.06212224593079e-07,0.306075195924099,0
6.93264037525959e-07,0.293682568726056,0
8.73620860933487e-07,0.314584424899282,0
7.98958222065391e-07,0.307196806417566,0
7.81282420336859e-07,0.319522620744119,0
5.80951799988612e-07,0.285417027717073,0
4.98260125567802e-07,0.257076350398353,0
5.65014877410299e-07,0.275995206703275,0
5.30276871605538e-07,0.267960062678882,0
4.03421473431099e-07,0.243433265890558,0
4.19969878849518e-07,0.253969992713545,0
3.3569118893509e-07,0.263132182556865,0
1.79957929545594e-07,0.205414106266871,0
3.09143649347188e-07,0.230618331504246,0
3.1305897236111e-07,0.226994229022298,0
2.64741052520973e-07,0.209749118990586,0
2.8062298998224e-07,0.224313472439721,0
2.7686547224013e-07,0.225081412264887,0
2.72301506114692e-07,0.222460167258851,0
2.68855067175793e-07,0.226779793309887,0
1.99877446306667e-07,0.190551569281981,0
2.01607966913453e-07,0.185802098253198,0
2.28764572413241e-07,0.201085202833235,0
1.76018840070825e-07,0.194894641553687,0
1.70108947041888e-07,0.200708036282648,0
1.81100431657093e-07,0.20442817880134,0
1.22466558639736e-07,0.182485280145096,0
8.3740822679742e-08,0.15969228842067,0
2.65469655674494e-07,0.222995820336877,0
3.32825417001471e-07,0.231034820364226,0
2.87728758954238e-07,0.219787806118154,0
2.9195435512863e-07,0.228394516265563,0
2.977356474351e-07,0.225945244579847,0
3.66110546828922e-07,0.247369281455327,0
4.06613429969314e-07,0.250433951443659,0
3.9535940652602e-07,0.241355679840751,0
4.00171611320903e-07,0.235390671974473,0
4.84250099014295e-07,0.243835636035346,0
3.70868370738815e-07,0.221678484119307,0
2.49040183265654e-07,0.195960667256185,0
2.33521590680393e-07,0.190904829654698,0
2.03970111428862e-07,0.177137702489896,0
2.41371370723326e-07,0.190403467883934,0
2.0433748451857e-07,0.179359542977086,0
1.88405093680674e-07,0.17501251269544,0
3.13723627622096e-07,0.222138317788335,0
6.37043366632695e-07,0.298760507104762,0
5.69779549283487e-07,0.283803323417101,0
4.77049667020277e-07,0.273818540255192,0
5.18547821061324e-07,0.286911731238084,0
5.4046774874728e-07,0.292468245433388,0
5.287219811162e-07,0.300510435605039,0
5.59661381399083e-07,0.310832238205493,0
5.25649662524963e-07,0.296494060364328,0
5.24003633700594e-07,0.301691293167936,0
4.35213747260238e-07,0.274937981818304,0
1.18182553366652e-07,0.165891391036409,0
1.08922898527687e-07,0.159416783190714,0
1.3603116546304e-07,0.170384201029004,0
1.38022613612434e-07,0.169760963701566,0
1.46338457980798e-07,0.17015867987708,0
1.48146018174653e-07,0.169383205265795,0
1.35990782620668e-07,0.167213604277919,0
1.33443038158896e-07,0.167658350826463,0
1.53811600042506e-07,0.175655041057354,0
1.44006625773504e-07,0.169166661353459,0
1.083145375532e-07,0.160722208122415,0
1.05154907429951e-07,0.175828346271488,0
1.14435005453457e-07,0.18245505541935,0
1.437442883561e-07,0.200363930170284,0
1.26091548151018e-07,0.193206940487047,0
1.25749552807637e-07,0.188297278469132,0
1.65812152190297e-07,0.210631472168876,0
2.45009552634485e-07,0.242547183976926,0
2.13179111480511e-07,0.217025596085116,0
2.46333727183986e-07,0.22090196364824,0
3.43715793452731e-07,0.241717368142283,0
3.27993171843416e-07,0.226727203593547,0
3.466703874985e-07,0.233240548963427,0
3.08776981194877e-07,0.221867319262857,0
3.28201531197201e-07,0.224132772604049,0
3.67097962712857e-07,0.231657622060595,0
4.82585540406894e-07,0.24766768678779,0
1.19113272142718e-06,0.357727131579401,0
1.23183731736874e-06,0.348448334971312,0
1.2027118217163e-06,0.363446456006007,0
1.15432290460965e-06,0.367139387854838,0
1.12323194278619e-06,0.367364992732525,0
1.02961545068696e-06,0.342906905498781,0
1.42258381026425e-06,0.366361165378453,0
1.60264083386694e-06,0.358774549954977,0
1.41020551237647e-06,0.342054443960338,0
1.45571415598017e-06,0.349693062464314,0
1.01008304526274e-06,0.308630019003692,0
1.01396986866472e-06,0.331215329063133,0
1.05448151316991e-06,0.331646262947877,0
1.12608996040843e-06,0.333039070446105,0
1.13665515930852e-06,0.321905708503814,0
1.11058697715127e-06,0.315942425384392,0
7.67598276271922e-07,0.296115082051143,0
3.19013175740778e-07,0.219582012598124,0
3.27824087573234e-07,0.22581673508221,0
3.87784854184341e-07,0.250264112245689,0
4.5123324821946e-07,0.236754878329846,0
9.42778039428422e-07,0.29298634587727,0
9.43375826341939e-07,0.276070473516831,0
8.70626286866716e-07,0.270790978752102,0
7.30424308935644e-07,0.257808969182404,0
7.2380152278663e-07,0.264507476692584,0
7.17521436918391e-07,0.266372642411267,0
7.41610154862016e-07,0.264137109648814,0
7.28820576355159e-07,0.260711950042445,0
5.84451914875102e-07,0.238054655654716,0
4.37269445418195e-07,0.231527217064694,0
1.55236782050608e-07,0.177363671265139,0
1.01089533455594e-07,0.171294125523513,0
9.65288906064601e-08,0.170629932788997,0
1.7478258128539e-07,0.210636481636993,0
1.93008637005744e-07,0.198003883167078,0
1.95082260714678e-07,0.200821866217866,0
1.92154252879349e-07,0.19766015133217,0
1.76337371069385e-07,0.181862073989807,0
2.18813373986823e-07,0.202424823751372,0
2.41489397384823e-07,0.214724443608858,0
3.09538011468707e-07,0.236067077797827,0
3.30210300665518e-07,0.234277184983719,0
3.54007879463761e-07,0.228213922633105,0
3.77537078524044e-07,0.229597481976687,0
3.68329286936505e-07,0.230277346004427,0
3.47503925618982e-07,0.22612527447807,0
2.66231491591064e-07,0.203271261886852,0
4.71891136552283e-07,0.263385446070864,0
5.60334898730215e-07,0.263225782691708,0
5.29998421333321e-07,0.25471669664607,0
4.26170407497122e-07,0.235198966979477,0
4.32307894600274e-07,0.251530625928374,0
4.31945355367009e-07,0.252693952931228,0
3.77171216014474e-07,0.231876240579399,0
4.45841484178065e-07,0.256829896797922,0
4.53046649323185e-07,0.254672945822893,0
4.70968977730335e-07,0.257237060443409,0
2.85369031367052e-07,0.202647640270349,0
2.61137412542317e-07,0.2015395024281,0
2.73431017236998e-07,0.199917078983418,0
2.94181957306359e-07,0.19470730037288,0
3.0101310280916e-07,0.182769008838,0
3.13379718877207e-07,0.189797818184912,0
2.86520294843354e-07,0.188687598328907,0
2.36023413505951e-07,0.176807490293916,0
2.29347857757427e-07,0.17590176155405,0
2.02816431024337e-07,0.170888062504663,0
1.91912962878543e-07,0.177678571378689,0
1.24715812466119e-07,0.154118913546312,0
1.70147617893437e-07,0.170965651326596,0
1.29863567462458e-07,0.160942674640615,0
1.62327747337248e-07,0.184437232083031,0
1.85908406827587e-07,0.193276367325398,0
2.25759524990842e-07,0.206017556658594,0
2.31140412855239e-07,0.205049393219021,0
2.08285637474171e-07,0.20412221938791,0
2.01013402570898e-07,0.193829607988503,0
2.44211966321302e-07,0.207802056904045,0
2.81731655098634e-07,0.228347223521654,0
2.47791437017741e-07,0.221126815454476,0
2.68442477387269e-07,0.239415226839095,0
2.314941907237e-07,0.231592237860463,0
1.85574065090242e-07,0.217139260564866,0
1.60156036624646e-07,0.210425783215829,0
1.57387848167981e-07,0.214457731198421,0
2.14760084653575e-07,0.222737351152544,0
3.04369813287824e-07,0.241200771791312,0
7.64939957344004e-07,0.316438353944686,0
8.72132435970248e-07,0.297186959609007,0
8.53906783071264e-07,0.298960971439018,0
1.03852736997802e-06,0.313409927357434,0
1.15059882104127e-06,0.322669868326532,0
1.2111871833473e-06,0.339853996239842,0
1.24673496081169e-06,0.335670622494381,0
1.30691163967728e-06,0.321176791098307,0
1.32732501543833e-06,0.332155908138123,0
1.13037305933343e-06,0.305909747270466,0
9.29226725710337e-07,0.304343513264315,0
9.68492846538582e-07,0.341650743446988,0
9.16944299308681e-07,0.330496819776782,0
8.6057146264279e-07,0.340845747675579,0
7.54705978315638e-07,0.321241208963839,0
7.07243046833953e-07,0.297559172514575,0
4.45904626427859e-07,0.248602641997467,0
1.54398208662997e-07,0.176754718662682,0
1.63266321130035e-07,0.179589876124851,0
3.91851335917466e-07,0.258380024211358,0
4.74799003319098e-07,0.286792636972516,0
6.8804941418215e-07,0.331450643177942,0
7.02414527773573e-07,0.314971772195436,0
7.99924187711358e-07,0.338028361547653,0
8.08903881697967e-07,0.343928889861359,0
6.7782026901023e-07,0.327967866103233,0
8.05644754696256e-07,0.350424820257956,0
8.21048946012351e-07,0.339228833172765,0
8.32976184670751e-07,0.34495421789619,0
6.32647880545382e-07,0.31528946927373,0
5.0641534491476e-07,0.289639205739171,0
1.5106647310929e-07,0.177294810771082,0
1.27745029170735e-07,0.169120782300728,0
1.12855945681902e-07,0.160594071665447,0
1.08179693099494e-07,0.159132004936009,0
3.82407893828305e-07,0.24295846048689,0
4.04347962582776e-07,0.242379601134596,0
3.77392767768136e-07,0.24841258836096,0
3.71689622807503e-07,0.246737184554988,0
3.96141383511105e-07,0.252814297399298,0
3.9506786455927e-07,0.258035975082341,0
4.22618429359206e-07,0.261772716814667,0
5.66650332173697e-07,0.305601469899673,0
6.28006572716847e-07,0.321003154858393,0
8.04454417547034e-07,0.36531636575642,0
5.09573061636501e-07,0.313145170600746,0
2.73166766418085e-07,0.253934782161537,0
2.09054522764721e-07,0.225136055389455,0
1.95995053939767e-07,0.213359597850979,0
4.02146140972746e-07,0.278134261997218,0
3.73373516840678e-07,0.256702342907026,0
3.87328759687825e-07,0.270629755622643,0
3.40288186412893e-07,0.257039691626192,0
3.22956293429251e-07,0.257836199667246,0
2.4636635571498e-07,0.22147416018021,0
2.78782096319993e-07,0.237148848986958,0
3.37016370538017e-07,0.257478143532829,0
3.35806798668364e-07,0.254386477892796,0
3.34666310663718e-07,0.267405284676998,0
2.40198254187685e-07,0.241935722030196,0
2.4231920940763e-07,0.247330574365147,0
1.55909493739e-07,0.208352003114672,0
1.78092161663731e-07,0.198952297763786,0
2.18865740764961e-07,0.20440635058628,0
2.06158237112302e-07,0.203463227618722,0
2.14154241312652e-07,0.202399511947752,0
2.07598021395078e-07,0.194487567196211,0
2.63610332934556e-07,0.204399942876122,0
3.11376790318759e-07,0.205975978675767,0
3.12272665046294e-07,0.207730832016587,0
3.27212604733127e-07,0.215405114401343,0
2.90902991352161e-07,0.201665587994991,0
2.36940335650084e-07,0.193825948390446,0
2.40370359618144e-07,0.194049162612065,0
2.26084299720642e-07,0.182539640592591,0
2.20985286110109e-07,0.185060846845841,0
2.15552534994287e-07,0.186120486447054,0
1.96441380018053e-07,0.184694338144209,0
2.7122969915368e-07,0.20386334228394,0
3.54183509581209e-07,0.21059851901474,0
6.611892852109e-07,0.264024138618506,0
7.21999199270588e-07,0.258885410760778,0
8.2640405330905e-07,0.278961015499581,0
7.6539685748326e-07,0.274777604875117,0
7.55024207198171e-07,0.279207368763007,0
7.47642002060808e-07,0.276319282637968,0
7.50433554156951e-07,0.276918918427812,0
6.85403381306027e-07,0.268280537016459,0
6.05322492891441e-07,0.266690438072832,0
5.50195079197159e-07,0.270355840436635,0
1.79271521930611e-07,0.178428023254892,0
1.19877625692852e-07,0.175137150684833,0
6.26870616452616e-08,0.141275038668732,0
1.38226541931146e-07,0.176547410150825,0
2.03173330758418e-07,0.204554188800355,0
2.24864455906047e-07,0.201138811803845,0
2.82378586219327e-07,0.210610389205733,0
2.79284515274093e-07,0.200956279170357,0
2.41409235932134e-07,0.189036970365722,0
2.53267390725527e-07,0.197718610234798,0
3.58826730811253e-07,0.233466510643781,0
3.85479910303515e-07,0.234097568324961,0
3.96838264481715e-07,0.24237408808953,0
3.42957985749864e-07,0.230607052381246,0
2.35484136396469e-07,0.196443162128141,0
2.45743191055134e-07,0.204837788178172,0
1.4590028903526e-07,0.167832320557004,0
1.41634310018496e-07,0.183742203907219,0
1.97530306887302e-07,0.203877538590302,0
1.98694460647454e-07,0.2036445712799,0
1.58758246469725e-07,0.186864635887016,0
1.92148109853452e-07,0.20380493371205,0
2.03967392384612e-07,0.204383310632753,0
2.082601590225e-07,0.210277710596058,0
2.33206886484851e-07,0.220091864046263,0
2.31575459935157e-07,0.226477089672162,0
2.69697366661079e-07,0.255734460373027,0
2.4617854025108e-07,0.237660490368324,0
2.05468606926358e-07,0.231648935519086,0
2.14661494123195e-07,0.239138401311647,0
2.71374211320273e-07,0.254384297855343,0
1.51289636148432e-07,0.196851496795474,0
7.02052189950993e-08,0.161267553745133,0
7.66770478355965e-08,0.159324878717871,0
7.53155116040006e-08,0.154004106947626,0
8.5472148929269e-08,0.16075074778162,0
1.33128333963353e-07,0.178154084474806,0
2.84812332233305e-07,0.232229168544926,0
2.88657765739481e-07,0.225011821138096,0
2.89517285838346e-07,0.225427683963218,0
1.85940632537211e-07,0.189786791047119,0
1.38365011777185e-07,0.182090493220084,0
1.56694290473677e-07,0.18467304525153,0
1.77640095380918e-07,0.191793170295957,0
1.38196330328374e-07,0.178216089057504,0
1.34356939142752e-07,0.171687514885772,0
3.99494871418808e-07,0.256039302845935,0
3.90326657030901e-07,0.24791322779179,0
3.58400243685453e-07,0.248345480307458,0
3.586172636987e-07,0.242000479699909,0
4.60604383872654e-07,0.262764388677232,0
6.83183029912964e-07,0.295156843481168,0
6.97199098787025e-07,0.294767761146827,0
5.81926627704725e-07,0.267538053553879,0
6.13080328956604e-07,0.250944592154865,0
6.66400988099773e-07,0.250248187944657,0
5.55660257433288e-07,0.240141957940979,0
5.36659576217857e-07,0.241858496128163,0
5.63950724055323e-07,0.240306251763046,0
6.11806607783732e-07,0.249720866944475,0
5.75967590468613e-07,0.244229256439009,0
4.09875578131303e-07,0.207755379836901,0
4.71182473056593e-07,0.226245426806972,0
4.6598214987143e-07,0.226465638972966,0
2.52714014868084e-07,0.187797681329955,0
2.45006027947495e-07,0.19324031780413,0
2.54604052737507e-07,0.190513452437552,0
4.37986467457319e-07,0.226398651271003,0
4.54923796908758e-07,0.220001948107823,0
4.27335366900014e-07,0.215027944302589,0
3.90202487343508e-07,0.212338652966451,0
3.55648470199628e-07,0.218677924322185,0
3.21843700804496e-07,0.203221772114347,0
3.82676172860922e-07,0.222957299090417,0
4.36849202023634e-07,0.23456994609176,0
4.03048964368919e-07,0.236320491564464,0
3.7858592466695e-07,0.234488081631422,0
5.68389009913229e-08,0.131638093882006,0
6.51723687946374e-08,0.146450663134399,0
5.41979033823283e-08,0.136067298227188,0
1.52566579892267e-07,0.173157636338383,0
1.45144998965957e-07,0.16142093468645,0
2.05049672701251e-07,0.185414173888789,0
3.78629932901654e-07,0.218599538701285,0
6.91276013358211e-07,0.279525431293635,0
7.72783392950354e-07,0.296790368475139,0
1.0223702048155e-06,0.336895408920341,0
1.21223683513294e-06,0.341861377581019,0
1.15444727570773e-06,0.332835307533259,0
1.19322739255271e-06,0.341051791620811,0
1.02866066333402e-06,0.326345138823775,0
9.87633306769503e-07,0.331932811001504,0
7.73558824088171e-07,0.297796195852269,0
7.00401528680867e-07,0.31612364051864,0
5.54439205154582e-07,0.289775980781972,0
5.86435407302433e-07,0.296392299040514,0
4.33693499408746e-07,0.253536679651344,0
2.68864634183337e-07,0.224542554322154,0
2.75951168434905e-07,0.222723543972094,0
3.13976599442641e-07,0.225320316408691,0
2.80333764238368e-07,0.211330559611283,0
2.5458461660639e-07,0.202587254994046,0
2.25293863486781e-07,0.191052241478974,0
2.64361896906183e-07,0.202667570810934,0
3.61516872627424e-07,0.234512518269949,0
2.87030367403489e-07,0.212748334829725,0
2.07551193410781e-07,0.19474223007499,0
2.32486339758736e-07,0.202417713162116,0
2.46384079855273e-07,0.209042586587808,0
2.14681131664997e-07,0.208701173174724,0
2.16755661722015e-07,0.218738048993198,0
1.96907947870197e-07,0.210018915248663,0
1.97714295548184e-07,0.201882993319891,0
2.84689874536735e-07,0.223688531890242,0
2.54481192219567e-07,0.205254967511956,0
2.33075264602107e-07,0.19703173233433,0
2.44241472986676e-07,0.199115750060393,0
2.19201593082444e-07,0.187875231391181,0
1.84981615559882e-07,0.181094789295896,0
1.49025276520663e-07,0.167613023203903,0
1.28267186371979e-07,0.161657411216769,0
1.07938000277317e-07,0.151681727268942,0
1.010114868151e-07,0.147769150635936,0
7.32948589052596e-08,0.141267987134995,0
5.33017265387653e-08,0.135597146378093,0
8.03079789620904e-08,0.154279140299748,0
1.0361200087638e-07,0.166798510547087,0
1.23271798558955e-07,0.174998235169646,0
1.1525525046872e-07,0.166549390886555,0
1.28790854153363e-07,0.171328762387777,0
1.84694403922862e-07,0.198600189474488,0
2.12638827317603e-07,0.209929981088603,0
2.45884480650765e-07,0.22306260354378,0
1.88570250442494e-07,0.20430207405915,0
2.30206672918895e-07,0.204610921022856,0
2.45553361484383e-07,0.204658976548325,0
1.85001253101683e-07,0.188513195163504,0
1.27213304961946e-07,0.169821303443821,0
1.35444556842548e-07,0.173441039908239,0
1.53754399407923e-07,0.178179899598178,0
1.85394406759091e-07,0.181169820944965,0
2.51523979834891e-07,0.203482167021596,0
