Activity,Complexity,Tag
5.52581378883182e-07,0.229443406073536,0
4.89054439890398e-07,0.240832388171562,0
3.42031014757259e-07,0.208939828577211,0
2.20621765863366e-07,0.173831701155354,0
2.30926190012756e-07,0.177436087299461,0
2.0649329206926e-07,0.162909884122135,0
1.33602346635852e-07,0.133611364101383,0
1.60492349157196e-07,0.149135210378243,0
1.76895853254921e-07,0.151424606898569,0
1.89156065370609e-07,0.156047523821051,0
1.75517640811442e-07,0.151025485778592,0
1.09418963930938e-07,0.121876703755048,0
1.08128277775339e-07,0.12400900637813,0
1.83109566513128e-07,0.158710238246826,0
1.60514067433852e-07,0.146957953674957,0
1.57692324421611e-07,0.147970342354856,0
2.09149127043282e-07,0.170455690901108,0
2.91174322411629e-07,0.197410010970033,0
1.49438121918146e-06,0.289170243532047,0
5.09339440924024e-06,0.410344432425699,0
4.88262833200557e-06,0.364977571663328,0
4.60576700709197e-06,0.350787868809414,0
4.51305184733975e-06,0.309210520359102,0
6.63641297416552e-06,0.335033695581601,0
6.19004588869156e-06,0.313983340187871,0
5.58388372504781e-06,0.296754316521342,0
5.71530656913826e-06,0.300145590441899,0
5.91495386849657e-06,0.279600821591911,0
6.34162492647258e-06,0.315607369573721,0
2.03468303545434e-05,0.349856581634386,0
2.91908439353501e-05,0.271255058359558,0
2.84547378932676e-05,0.266166867395708,0
3.59350553307583e-05,0.266959856079656,0
5.62883778170689e-05,0.338857488992836,0
6.91152512867262e-05,0.386211227179453,0
8.36433936258156e-05,0.442181947150955,1
0.00014544811655298,0.318088321909483,1
0.000223219947630811,0.222456050699984,1
0.000194201002712131,0.19223916363988,1
0.000204229260521462,0.161274496950921,1
0.000289252970160981,0.202152570713845,1
0.000235926833827161,0.135526456924955,1
0.000194287253990205,0.114685151690143,1
0.000183082426015596,0.0987919862717173,1
0.000164421311958264,0.0813283649618779,1
0.000162558544840545,0.0800265470891594,1
0.000184739835560149,0.104574481880228,1
0.000226405388659738,0.151133034771241,1
0.000218851998039244,0.122945472697236,1
0.000216980420812787,0.135920770332999,1
0.000291935108744054,0.0868086163830437,1
0.00045331868126396,0.0738646323226074,1
0.000481597212410195,0.0667868519111931,1
0.000417910572723932,0.055462095314833,1
0.000411154854071097,0.0481817251810159,1
0.000468912773440779,0.0485371632537714,1
0.000467256584202102,0.048068789059581,1
0.000462794616680774,0.0453997045962868,1
0.000466034852921706,0.0463699894849834,1
0.000440657479217614,0.0460040551218019,1
0.00039244588142337,0.053239478356361,1
0.00020584177054999,0.0418750890877577,1
0.000498678089144929,0.0611929982571707,1
0.000556628992058827,0.049290583290772,1
0.000956748362743401,0.0502828602206127,1
0.00116166572979269,0.0544798645997671,1
0.00120281660709116,0.0504929643534994,1
0.00109972775462405,0.0497999329339523,1
0.000896807075301672,0.0412725686810534,1
0.000775380555152387,0.0359453009895822,1
0.000714324396883227,0.0353524611189841,1
0.000461124735293379,0.0287661936607781,1
0.000883823760349693,0.0254429551039359,1
0.0070679503244104,0.0538173674739698,1
0.010823549596751,0.0353343747741086,1
0.0107648157945433,0.0320919573392799,1
0.0104207838295615,0.0310151555846334,1
0.0104484875914149,0.0282786701693374,1
0.011281080817824,0.0300093745656721,1
0.0101844392214949,0.0285866341256584,1
0.00865424301231117,0.0253305795634757,1
0.00674671280853631,0.0187683397422668,1
0.00665261060598325,0.0214252906204695,1
0.00529533223285138,0.0208218851483338,1
0.00420850033433239,0.0289115092331002,1
0.00350788805946932,0.028672645693919,1
0.0027682617174366,0.0215030173736152,1
0.00384260691520002,0.0280362495247508,1
0.00486873798245888,0.0306156827421244,1
0.00544228182237569,0.0323278907416347,1
0.00562350783313466,0.0267892357339813,1
0.00552805859562239,0.0285096788862431,1
0.00391157913889793,0.0224789201111929,1
0.00350962406647732,0.0294459123521418,1
0.00337297435610394,0.0335535420693805,1
0.00384821582589136,0.0278274684792524,1
0.00365914625853804,0.0172669339905737,1
0.00356875513074703,0.0180319636220138,1
0.00385923601716169,0.0203509559681638,1
0.00418212292216773,0.0191774342812966,1
0.00390213980236978,0.0222988519953171,1
0.00288378519513072,0.0162685300368792,1
0.00265080670553917,0.0168459478815839,1
0.00303613540205007,0.0168272838528871,1
0.00372970656916425,0.00709777284679064,1
0.00665789889204244,0.0154998898513303,1
0.0108099801783418,0.0236560390867303,1
0.0186554072458748,0.0314100356005072,1
0.019284727438907,0.0251844543734697,1
0.0190794905403243,0.0250454104557602,1
0.0194528357299341,0.0256074332143471,1
0.0185114114688562,0.0245538289231483,1
0.0195796995084973,0.0241475083679312,1
0.0149749945912685,0.018063761350223,1
0.0116817255557437,0.0158363092933844,1
0.0119632912267589,0.0137368734208279,1
0.0140534961884936,0.0163869293817384,1
0.019290792679984,0.0105108732467456,1
0.0254819783294645,0.0143461201663878,1
0.0261472266364703,0.0150777571750108,1
0.0309895829403478,0.0177858810866057,1
0.031945304774865,0.0177608460599528,1
0.0286691748692285,0.016185858011853,1
0.0227691313128903,0.0123062619533261,1
0.0227061672752136,0.0124459641922272,1
0.0193465603351745,0.0109543201385713,1
0.00669323672595454,0.000688175422818834,1
0.00493880581973123,0.00670424619184003,1
0.00449437784519982,0.00694298658910235,1
0.00658312588631335,0.00824203114374285,1
0.00675454115302916,0.00655430383471503,1
0.00755315352223064,0.00659581713228731,1
0.00763194859962555,0.00748932705602339,1
0.00767004386856941,0.00785404155823997,1
0.0079832960875173,0.00900691933039019,1
0.00766001484310882,0.0110459975032764,1
0.00778862436581622,0.00961242475025326,1
0.0119699434517815,0.0179277983262139,1
0.0143565785396099,0.0214056682051896,1
0.0122358846751642,0.0224963228702413,1
0.0119943816574759,0.027308688148421,1
0.0112054541982556,0.0261510501749527,1
0.0112222175399055,0.0260093905565241,1
0.0142407111376552,0.0350989479606003,1
0.0199649626504313,0.0494066269800506,1
0.0279714082617741,0.0657164012087306,1
0.0258599312779577,0.0579080126135117,1
0.0284629467387016,0.034767949311379,1
0.0237315134295841,0.0151488763808206,1
0.0227300698590537,0.00990323012982425,1
0.0213134417476727,0.00979442926999292,1
0.0167979598844881,0.00757434373089607,1
0.0193654237459977,0.00875240297687746,1
0.0208020981964333,0.00860269542179941,1
0.046754667643669,0.018724194252786,1
0.0710648498712568,0.0285330671985448,1
0.0845916634098038,0.0349806504923247,1
0.0963391783201177,0.042680737231342,1
0.0918549089087665,0.0650134766427521,1
0.0703510868836603,0.0628426433727921,1
0.0577450982982577,0.0596839987995504,1
0.0380131268517544,0.0436676618444943,1
0.0326099330721012,0.039177129682745,1
0.0267033382188378,0.0410778610502327,1
0.0281476731136886,0.0285615125000573,1
0.03641390210926,0.0193737117614615,1
0.0341751013557403,0.0138284789502163,1
0.0462110019432908,0.0143362908612452,1
0.049596298463956,0.00744754220271729,1
0.0643268075820527,0.0106681090708397,1
0.0666428892380699,0.0104079147580205,1
0.0795301288985552,0.0108380909501722,1
0.0893314838957377,0.0100252102700985,1
0.0932995005415709,0.00970575295541051,1
0.0937685194527195,0.0109408553674464,1
0.0779692835475823,0.0104760423054598,1
0.0838054907751764,0.00814263427390303,1
0.0953326063312727,0.00929293611747707,1
0.0905790238730154,0.0135349524651148,1
0.0866385877040134,0.0114357918757228,1
0.0903964413883382,0.0102428387359919,1
0.0759955209633371,0.00487252274444441,1
0.203534862864513,0.0118477116810588,1
0.325505450854359,0.0168947233114014,1
0.389088385096809,0.0211650313059716,1
0.406433456863026,0.0202111964620615,1
0.361385957400273,0.0197264901646347,1
0.356715273273994,0.0196614686067394,1
0.356591660277774,0.0182330448035548,1
0.413390251491793,0.0222195047267886,1
0.49189121033983,0.0269215796826673,1
0.549334669642651,0.0398037503943175,1
0.551611114165494,0.0769867068870381,1
0.461732379510263,0.0603461134135084,1
0.343309577075027,0.0620832615720006,1
0.155703251097666,0.0441584458762246,1
0.0988910943235791,0.033006591851854,1
0.0450231225481582,0.0192491713614745,1
0.0381832413649952,0.0248555469258848,1
0.0475624818317932,0.0236722019644589,1
0.0458315093507304,0.0195714675672919,1
0.053902242224946,0.0200525863700717,1
0.053263987189724,0.0162427982677231,1
0.0535672236667952,0.0193248881527676,1
0.0527074238154374,0.0173871037931463,1
0.0640507032277499,0.0203293167432351,1
0.0730453531893603,0.0241018747572607,1
0.078665771831806,0.0253592474923981,1
0.0885927035798643,0.0312143941903286,1
0.0565620119367075,0.0236977153789898,1
0.0499858668763718,0.0185518872144027,1
0.0481528016968335,0.0168796274986256,1
0.0337051010724184,0.0150969412362159,1
0.0200693835968264,0.00912033953287922,1
0.0158845936119888,0.00509599878957039,1
0.0289740456129792,0.0112304621503394,1
0.0329557253422703,0.0119537283553641,1
0.033064631332917,0.0107232193275074,1
0.0336333143659811,0.00583442361528849,1
0.0494456671074226,0.0111516626811084,1
0.047124065712692,0.0121231783911082,1
0.0511362912446194,0.0143689399154619,1
0.0791868092683902,0.0222632594229189,1
0.10015111598714,0.0289822499590861,1
0.104383981686353,0.0238463372377454,1
0.10342605408177,0.0249337165510227,1
0.0995076182703207,0.0254462798546377,1
0.0909820767865218,0.023449393895776,1
0.148846832163205,0.0392549889514633,1
0.157315315491162,0.0205053258542746,1
0.15322661872895,0.0179180481533754,1
0.148765348813692,0.0170729644367329,1
0.149784538999783,0.0182376788585864,1
0.147606555188493,0.0185694128682722,1
0.146229653398757,0.0212097567849968,1
0.138277010306635,0.0179516730220495,1
0.142606950635103,0.0184307148893301,1
0.144908983582188,0.0232293836778137,1
0.0713229463211684,0.00804699630829952,1
0.0514621034623635,0.0134073386865866,1
0.0406520367264016,0.0127133294253088,1
0.0371184253023021,0.0112769362927852,1
0.0445540357677215,0.0156010915503552,1
0.0497455336256395,0.0168433031208319,1
0.0505266451950638,0.0170809260400662,1
0.0564496124087427,0.00973277720300647,1
0.101481518880909,0.0188564308948352,1
0.129591062677111,0.022234032325659,1
0.331063429017214,0.0214151978257845,1
0.799552361281014,0.056154970406279,1
0.961220728401282,0.0487112008777181,1
0.971127546535229,0.0510471552610144,1
0.872509590029803,0.0422118986134297,1
0.761021185012774,0.027684682871922,1
0.591116129884885,0.0196851128201485,1
0.516174394110845,0.0158404217731402,1
0.702890653069904,0.0194691511971877,1
0.841269237330546,0.023136771583873,1
1,0.0389580287005881,1
0.777533161150873,0.028525036003883,1
0.586671463166421,0.0243629664237234,1
0.401840692437283,0.015630044207893,1
0.207364190733846,0.00473239667966008,1
0.202626964489853,0.00648363726055316,1
0.17631173700414,0.00961366813584005,1
0.0879851699080294,0.0060065955869632,1
0.0831728546110067,0.00847847929610432,1
0.0866663165218997,0.00728046140411781,1
0.0840617393784264,0.00670582048674519,1
0.0967454168312532,0.0107431470782476,1
0.140481224737238,0.0160933291915918,1
0.162737221530434,0.0197837796605473,1
0.14461531154643,0.028897223818399,1
0.0989906468179615,0.037100535481629,1
0.10822025712445,0.0371960375903497,1
0.106682415761008,0.0381563049686967,1
0.0815728230591921,0.0354642681372614,1
0.0204395361011373,0.0222560848322282,1
0.0147331221716582,0.0170776575435455,1
0.0134818572667871,0.0215062401411534,1
0.0184799378361304,0.0368960579026019,1
0.0275820303738383,0.0387153980823577,1
0.0660486650885593,0.0472133360657329,1
0.0768058463655743,0.0458845120258641,1
0.0726074729937198,0.0424335149028991,1
0.0654548373676515,0.022726378211262,1
0.11103493905662,0.0288948672360453,1
0.144545017287142,0.0383591277771084,1
0.162893906254679,0.038692966654635,1
0.143536362275031,0.0346909056327726,1
0.145057981483619,0.030267801226281,1
0.118686184234831,0.0200192354525898,1
0.113163522746244,0.021090995787237,1
0.0938121677567809,0.0182061028128671,1
0.0857310371504942,0.0133465906599604,1
0.0910843320333977,0.0173984155548245,1
0.108704734762493,0.0234622746826678,1
0.124185822244795,0.0244162614268706,1
0.124736646978265,0.0262173079555527,1
0.111597308418629,0.0249805768029406,1
0.111888606942639,0.025811864904354,1
0.0992470369063128,0.0180125216177607,1
0.122796729005293,0.0198114039609948,1
0.125279167513269,0.0176548667625795,1
0.152298064289479,0.0196216589243212,1
0.219498989466148,0.0254974050278823,1
0.232186315763199,0.025119710165431,1
0.198959326232788,0.0220907380487755,1
0.177101102378444,0.0147207979558513,1
0.204468295679126,0.0126223837937905,1
0.276397892193373,0.0190975976240054,1
0.336820161799798,0.0185804887432012,1
0.332566226107628,0.0166806352123996,1
0.365047087460578,0.0176892639096845,1
0.391570551439997,0.0244920345005003,1
0.305260049527437,0.016764696919753,1
0.25581503097854,0.0118939443292296,1
0.223286336751267,0.00511501897151501,1
0.322338478784832,0.00993767454077751,1
0.384873665166831,0.0137280261326859,1
0.404263045281083,0.0151500340428668,1
0.378720769620791,0.017500182794762,1
0.407771404534568,0.021150812349229,1
0.354815796422754,0.0159010319153527,1
0.276492734484905,0.0101276388625308,1
0.270562491497824,0.0106180855026505,1
0.137481269926577,0.00320561731204887,1
0.123068395162483,0.0122305912514828,1
0.109303016949952,0.00889154719826321,1
0.111397020305842,0.00929261617182334,1
0.115031052746698,0.0106216877087351,1
0.10799834715697,0.00970924282476549,1
0.107442073997156,0.00935883556035213,1
0.0946743240352774,0.0165269226639193,1
0.0788028442979057,0.0222859198371593,1
0.104178212986373,0.0315382368746038,1
0.110485868566815,0.0477023946451795,1
0.0598790740964479,0.0275375036307092,1
0.0348869853970827,0.0321613692433529,1
0.032997881925683,0.032334615003303,1
0.0340192196757156,0.026483186692539,1
0.02921868390558,0.029564038440529,1
0.0254271228889227,0.0257740516087977,1
0.0216670965082011,0.0163530261431265,1
0.0357386861077372,0.0328077900041541,1
0.0437527302169281,0.0397782600064118,1
0.060932781936837,0.045664513457692,1
0.0799120068672473,0.0377418054206698,1
0.0811357317027124,0.0402908371854545,1
0.0825705427653449,0.0341959418097765,1
0.0790585588766561,0.0307983958517853,1
0.0829743312732892,0.0314058175688809,1
0.0560722309860077,0.0209282697969506,1
0.0609881108056003,0.0107026572073012,1
0.133026815560395,0.0242743511028393,1
0.202451909961082,0.0341586808189402,1
0.226213729505013,0.0177551498197815,1
0.242328235140243,0.0187419375529512,1
0.228322194114868,0.0168436185337969,1
0.214086001070476,0.0146089776280495,1
0.225643029212605,0.0159413562678554,1
0.231797369654362,0.0158057213525152,1
0.228417012995893,0.0154007065457487,1
0.218633817231808,0.0216331172983102,1
0.19290854662133,0.0170144855712594,1
0.125322797467836,0.0109271009735823,1
0.0670023942367379,0.00970979946267061,1
0.06771231026648,0.0127920538363577,1
0.085938668401062,0.00939763867087138,1
0.127138029376544,0.0149654372255595,1
0.129892810858326,0.0157715254084015,1
0.148050910126746,0.0185361439601299,1
0.176370313867795,0.0213576219792254,1
0.182458428124343,0.0249974678285857,1
0.194325400460395,0.025886642750241,1
0.217708634697671,0.0301462473046074,1
0.294388477699935,0.0298825851574056,1
0.243613311082054,0.0143942949849084,1
0.225543701978228,0.0173225116294395,1
0.23222386934893,0.019372574956353,1
0.27122387992656,0.0222746990686658,1
0.304437712661651,0.0220999124347452,1
0.309913221401548,0.0215236674303234,1
0.333445271003856,0.0219255204216348,1
0.324018289875435,0.0268057706571963,1
0.249600450988002,0.021747122787825,1
0.0662151320440161,0.00619263488985735,1
0.0478553852739064,0.0120561337576271,1
0.0762072577601754,0.0156695782981091,1
0.126347322606031,0.024400231615223,1
0.154776546158548,0.0212284655633277,1
0.158100218969304,0.0211810044453135,1
0.186859511513462,0.024143149410136,1
0.19036044318426,0.0243392353320193,1
0.181080280796013,0.022949352409448,1
0.148690744501166,0.0193503230045876,1
0.111292867685815,0.0142859014409304,1
0.0597253310392932,0.00818843165475842,1
0.0713814171962036,0.0122448876055615,1
0.0851214223151643,0.01412540163762,1
0.0833522547716359,0.0221849227892544,1
0.0548532305480021,0.0211278793763905,1
0.055838822389788,0.0219735944787344,1
0.036904625108009,0.0187358181265412,1
0.0262989081288334,0.00959528346191062,1
0.0433957699954385,0.0169648514112349,1
0.0448961542344673,0.0169383674004655,1
0.06076211727842,0.0162861195447923,1
0.0761881179602774,0.0181652781843228,1
0.0818702635616461,0.0158525729218824,1
0.113418454816956,0.0217519512824403,1
0.129973743493743,0.0221585294482839,1
0.115354481798349,0.0203841495274819,1
0.100928580727894,0.00695077089087401,1
0.118072205886643,0.00750208589885185,1
0.114919594196382,0.0069900734855942,1
0.105120815024695,0.00610847752811447,1
0.104347835256343,0.00395753952896503,1
0.117665872555797,0.00490492005058608,1
0.112742711374184,0.00474512694831732,1
0.205744884586751,0.00868918719988715,1
0.242623741973897,0.00504763942338902,1
0.222111449428287,0.00402638192283791,1
0.227746475169132,0.00651774976606053,1
0.227742662760484,0.00618149900673064,1
0.215475475879197,0.0060269945924301,1
0.156206062396124,0.00268125431113212,1
0.181903926161514,0.00501333758952355,1
0.210265295362201,0.00646323995991271,1
0.23297231920298,0.00846494223477488,1
0.18046317458505,0.00710819146130562,1
0.145568114593816,0.0136719774470506,1
0.151470830044243,0.00763543392125488,1
0.25794723151059,0.0139530507432842,1
0.307135348470775,0.0175072143699421,1
0.32989456605286,0.0192031839928027,1
0.447610407347629,0.0206846892805134,1
0.626902493011856,0.0343170788831211,1
0.605012570716619,0.0143624502215565,1
0.510917349567276,0.0108420147028582,1
0.406323266834956,0.00827120897054999,1
0.367246577137411,0.00647221853975368,1
0.432821158347677,0.0109998491029398,1
0.63754732309436,0.0167913750370147,1
0.657698824199355,0.0134094574743642,1
0.668426257787088,0.0132884327578566,1
0.60760495832676,0.0150455939931571,1
0.396402034323738,0.00877368188603184,1
0.307633490479859,0.0115094904516157,1
0.296052520560566,0.0147484126864252,1
0.167922386933111,0.00792211343595056,1
0.154064149424626,0.00740535005348818,1
0.153396279920522,0.00636191527489888,1
0.128355467270437,0.00520550087279463,1
0.125900350226471,0.0127781726373629,1
0.106695547075728,0.00842177212953945,1
0.0726264108658993,0.00382749770652878,1
0.0693988903865906,0.00422747542620929,1
0.0864767314688005,0.00651089146155748,1
0.081450111334221,0.00652188976830379,1
0.0950743289070441,0.0086905660484346,1
0.0895085424629745,0.0097967452850493,1
0.101964796594944,0.0144990513505954,1
0.103573147136678,0.0143285117657445,1
0.110923529868844,0.0156448791096366,1
0.0662877849220289,0.0141538435030109,1
0.0571530345076932,0.0180669030218176,1
0.0254798091493058,0.0091864658660774,1
0.0233891572029027,0.00848095245858293,1
0.0262766956162132,0.00740748003069177,1
0.0374001648036276,0.0099231458253101,1
0.146178610748321,0.0270752688285404,1
0.183286322834293,0.0290497483096124,1
0.219592556295872,0.0322912142029784,1
0.22737737969106,0.0332016840221749,1
0.237757532759797,0.0310327530010872,1
0.202438018100401,0.0198921164059337,1
0.187979169471677,0.00916066298927762,1
0.277411895230357,0.0117502975879105,1
0.392084771108812,0.0140103925773564,1
0.351850135697145,0.0118935743139993,1
0.355996528101976,0.012290683319122,1
0.371652865568231,0.0131840666093817,1
0.369285745613435,0.0115987091009025,1
0.371358550009811,0.0121555649396062,1
0.376268030903989,0.00959757826879945,1
0.371094418156632,0.0106661543976857,1
0.357937644691613,0.0172289692014929,1
0.297483823087696,0.0243247479698562,1
0.170484907792582,0.0163584780962704,1
0.152131998293743,0.0133714764956756,1
0.147944473954197,0.0144132343860387,1
0.177480671816472,0.0151091256353152,1
0.174381706972907,0.0188227382196584,1
0.115593744428345,0.0125025444813126,1
0.0708427564326737,0.00732682490864368,1
0.0835289449702835,0.0108751583681468,1
0.121128205903089,0.0190368700324776,1
0.125239760223637,0.019708266698676,1
0.134001121747761,0.0220634005350117,1
0.152993864652842,0.01945709011717,1
0.278192003424545,0.0323896743008278,1
0.272197820793572,0.0307007097703725,1
0.246741711411571,0.0285750811801764,1
0.151339921837905,0.0143993158284831,1
0.134252471006138,0.00639794853143207,1
0.206111444223164,0.00677159135148898,1
0.274107634080558,0.00777714643821942,1
0.272160883101752,0.00720323964372586,1
0.27700608045423,0.00617810910197003,1
0.327822706687122,0.00974529158747119,1
0.272878293289516,0.00718641940964586,1
0.251839650257528,0.00684820635000784,1
0.227069268379416,0.00575382592503765,1
0.225236251560601,0.00669141419382011,1
0.120338954984103,0.0039352950131152,1
0.120582400505194,0.00771762232257584,1
0.131983868771085,0.00857361504913317,1
0.118505201142343,0.00890581052083023,1
0.119733698311913,0.0112440258504821,1
0.139106555628309,0.012992325634878,1
0.1558533629589,0.0156843632567277,1
0.163090087160319,0.0158921716422609,1
0.162929945868652,0.0148176881509729,1
0.196488732538472,0.0181812386078995,1
0.208758427770978,0.0182199933399856,1
0.172138982863658,0.0307308068883063,1
0.0675578483974,0.0235742949586151,1
0.0508509264077159,0.0168200502431889,1
0.0408929460023311,0.0149869676422423,1
0.0457261392248532,0.0197430814040542,1
0.0494492778274169,0.0224220045640943,1
0.045132997808836,0.0237504921034544,1
0.0102749377453475,0.0110802026011817,1
0.0274977174501595,0.0189461597592898,1
0.039061973109638,0.0116448988762728,1
0.0419394587172813,0.0111265191501045,1
0.0527876164441764,0.0118296839335838,1
0.0900945206562316,0.0171485688254299,1
0.107047427533395,0.015464756399158,1
0.170240473866515,0.0236272953121774,1
0.163044022146368,0.0217430420946173,1
0.129816074892864,0.017683346653175,1
0.124807589367592,0.0142631715978252,1
0.169419480203147,0.0209805481615941,1
0.17370520850127,0.0144596834278361,1
0.151434895615966,0.0109629112292936,1
0.139701465057052,0.0105474335389713,1
0.176677249841827,0.0134565585520001,1
0.17795509663954,0.00886302721135107,1
0.219700265418256,0.00995076536200168,1
0.232185138188441,0.00596206466300146,1
0.273666716623445,0.00691349000120724,1
0.287944195381831,0.00788040618099017,1
0.238391949601714,0.00525140042419591,1
0.193205625542401,0.00491110946267492,1
0.211142488291827,0.00573925888411836,1
0.264932595631072,0.00803496772887518,1
0.290358481757217,0.00673943523820402,1
0.278346232055336,0.0126833064032164,1
0.155733732727041,0.00656505956579221,1
0.093615123685995,0.00728642513372069,1
0.154931272026834,0.015102882335843,1
0.278367434203843,0.0272073329083439,1
0.495240074072722,0.0287379543862075,1
0.503915284043873,0.0287727832287279,1
0.477584957885348,0.0287378721813863,1
0.389587392217029,0.0267879000856201,1
0.273832710323937,0.014849678047921,1
0.283430852361802,0.0156001413550506,1
0.243958261232578,0.0141716585154427,1
0.198438579362741,0.0119122497829584,1
0.198219154896567,0.0138965018295497,1
0.176475992015662,0.0137101779734158,1
0.0871706181534859,0.00914883018506244,1
0.0915497726574507,0.00823967436804724,1
0.0965592876078083,0.00533325076531085,1
0.0875357194582433,0.00367757243017056,1
0.0851522276459813,0.00608756635314224,1
0.0749363879585117,0.00540033934819062,1
0.0816771846163881,0.00362126085141477,1
0.102550618279768,0.00604472923175831,1
0.116245562009856,0.00745835179466205,1
0.12001550170008,0.00870628110205509,1
0.120627716761145,0.00994558781679359,1
0.110398957249085,0.0128718986580878,1
0.0888503525490164,0.0145159606685333,1
0.0995026486983385,0.017987890027527,1
0.0943649333928701,0.0259752131245942,1
0.0691357649449614,0.0193380779068085,1
0.0623538236656299,0.0290062017019107,1
0.114659863590178,0.0416511214219576,1
0.130364657824504,0.0361665592884947,1
0.131248207453174,0.03581347337272,1
0.12339331612045,0.0353412445147627,1
0.0785242482850835,0.0285052257415174,1
0.0347109803581358,0.0222856464481628,1
0.0266934762101906,0.0181708708629614,1
0.0234840008218615,0.00902763449415394,1
0.0385432741039059,0.0145877523433267,1
0.0565940741223204,0.0234001895078749,1
0.0411324539951287,0.0156946641400805,1
0.0371262638705512,0.0158978079407764,1
0.0533857572102193,0.0174001033135782,1
0.105413249975984,0.0326423373708466,1
0.112550299232927,0.0274675435661414,1
0.17197218157803,0.0212967991235844,1
0.234034056124995,0.015849169191574,1
0.217788950251203,0.0139090884195344,1
0.267624784531028,0.015519022242339,1
0.262450337174467,0.0148553369381479,1
0.255079444089653,0.0144450356143515,1
0.18430721263099,0.00896277954415008,1
0.13740378481039,0.00472131705174274,1
0.143132611011319,0.00528408187925442,1
0.144165906720538,0.0056866056638833,1
0.148071177399134,0.00926053729579269,1
0.145657373089802,0.0129333369247993,1
0.143003704090778,0.0165979470585328,1
0.139426543461807,0.018327029832534,1
0.191406917577066,0.0301297518799605,1
0.16045487069923,0.0391936429661146,1
0.111708500233236,0.0274952237277052,1
0.0838133359797471,0.0180407936709834,1
0.0903383839469897,0.0190012480163203,1
0.0968281356332622,0.0210941876554713,1
0.0900816223136288,0.0169488032774538,1
0.0930113648870947,0.0187596294979242,1
0.0891070757287805,0.0202069544873396,1
0.0860313213983709,0.019894998332023,1
0.0878238716803353,0.0242101009458673,1
0.0821854928258542,0.0209541086536481,1
0.0874687679604855,0.0246478296367202,1
0.0871248156627147,0.0327924581023151,1
0.120753061117643,0.0193159068947729,1
0.19404700951693,0.0282211418413451,1
0.368741282559025,0.0351927794516482,1
0.381721655629834,0.0128224423763502,1
0.356676032004095,0.011642169028773,1
0.349072367622865,0.0116874075985514,1
0.390404714307097,0.0128541249250214,1
0.460386485602524,0.0157856123135298,1
0.498629527262521,0.0162405038129745,1
0.52158653213066,0.0162143833067864,1
0.522327572608962,0.013072396853493,1
0.523343678919463,0.0106227149902705,1
0.31647471305424,0.00454846581012559,1
0.175522976428321,0.0082343024243525,1
0.171741690623425,0.00831996964328544,1
0.172704128011663,0.00805366442249906,1
0.168215831464532,0.00883032657137005,1
0.156221500777891,0.00684613106191259,1
0.208729849682744,0.010665563313415,1
0.212806494033638,0.00924077051046177,1
0.227418911710724,0.0187741415359238,1
0.147010359462809,0.0129406091579312,1
0.144036104748339,0.0154202668712294,1
0.145670147744859,0.0156234204703645,1
0.123583541737953,0.0121395635510066,1
0.0881636887633633,0.0083266188222538,1
0.070542577071826,0.00527553749031878,1
0.0585451598921356,0.00481956967525857,1
0.0612056893002333,0.0054438624526175,1
0.0255870527864791,0.000167516375780172,1
0.0204541327447172,0.021813408216729,1
0.0256205721541489,0.0204343749533382,1
0.031686033314095,0.0246747524413417,1
0.0329407095909814,0.017920585906722,1
0.0335908010556286,0.0148063586133909,1
0.0459983481160618,0.0189062976106146,1
0.0536180833688367,0.0234870698391661,1
0.0408759268716367,0.0159663511395751,1
0.0583632182530567,0.0135332456002225,1
0.0972544876548163,0.0229496037372578,1
0.104366347744069,0.0142430826839529,1
0.101016610148392,0.0143464622002622,1
0.102234094338303,0.0137853905883711,1
0.101879110188017,0.0186973095222874,1
0.118833107105323,0.0242228639248032,1
0.152250180741518,0.0235168302928282,1
0.136386707941294,0.0206053704681819,1
0.0948650833051298,0.0158148529407617,1
0.0911740471806443,0.020345339822259,1
0.106509020227705,0.0119118564433964,1
0.135174230935991,0.0190608783549625,1
0.101592450297788,0.00834291228322726,1
0.146549365880269,0.0126035056017557,1
0.172365328749465,0.0104396073015584,1
0.162537120417561,0.00831298784252097,1
0.145294124487292,0.00685314588211124,1
0.149927652272429,0.007587697721241,1
0.152097400849109,0.00627437104420015,1
0.167129626946606,0.00728692867702411,1
0.174605088606576,0.0139786984539862,1
0.141168067875359,0.0119525957132073,1
0.137601324235059,0.0210164659226895,1
0.0892452168163925,0.010908362690909,1
0.126952245540485,0.0219147092821965,1
0.154321107344832,0.0273101226337169,1
0.167711442880967,0.0317692085408788,1
0.1662286315219,0.0232197965048147,1
0.196832594375374,0.0259877975871759,1
0.220410838908895,0.026554866317885,1
0.210993560924826,0.0269028950441399,1
0.204082890602212,0.024925814620458,1
0.253701895815732,0.0162542728038157,1
0.282611320002228,0.0145987264815034,1
0.210413867967522,0.0119350948249426,1
0.229984559846739,0.00998280490059427,1
0.288697183404181,0.0125997289195146,1
0.336574590463904,0.0168458593470593,1
0.335862008861399,0.0178020320103026,1
0.290021878746765,0.0159007411203577,1
0.261570382105925,0.0124645148178515,1
0.281349707515073,0.0136974777763709,1
0.214837587710084,0.0142808535735077,1
0.141150145645977,0.0121106287728616,1
0.130357755015475,0.00996624789241462,1
0.117314085256147,0.0158182918376151,1
0.0988204479871857,0.0146086225496807,1
0.0926805213222616,0.0134379917797068,1
0.0925087050827611,0.0140182630231955,1
0.106742627420419,0.0157982266368845,1
0.116071470409869,0.0228663332280669,1
0.0613068643002769,0.0151688835503862,1
0.03449492501507,0.0274415672311521,1
0.0387888116197067,0.0334376907859191,1
0.0286884031276674,0.0306645826561259,1
0.0296825418102216,0.0308991695863371,1
0.0311587537887526,0.030468710495946,1
0.0259837246506715,0.0307133188972774,1
0.0173930461307029,0.0247617536330995,1
0.018906354310018,0.0232595990865899,1
0.0163100441911594,0.0145774468189774,1
0.0150200785264879,0.0119147464474881,1
0.0264869966545231,0.0183910002366636,1
0.0310884433542476,0.0308966121817819,1
0.0301383447906117,0.0292279709114214,1
0.0296674989772215,0.0257362963089456,1
0.029196305198175,0.0228360040839834,1
0.0275879353688155,0.0207411219340062,1
0.0252672084675163,0.0197417710953646,1
0.0189156869167294,0.0122073812592835,1
0.0262788031447164,0.0206326279896364,1
0.0277542820045298,0.018333058732697,1
0.025517177114968,0.00913568224810084,1
0.124093616130584,0.0121633678455488,1
0.280308989885107,0.0222142595352308,1
0.292997906155801,0.0234839054098074,1
0.308867575479675,0.0281972076231214,1
0.298514996653644,0.0305655536945592,1
0.280459441493998,0.0263208354010698,1
0.231099355377233,0.0195868639750066,1
0.211175298235909,0.0174513256246159,1
0.160573605348395,0.0139181042101483,1
0.0757101708610596,0.0031138640781871,1
0.0737298805647948,0.00601866417438467,1
0.072979512192484,0.00736870481513811,1
0.0801110526310881,0.00841351610822744,1
0.0825107632900051,0.00732629711696844,1
0.150904973429172,0.0100781456929859,1
0.229888170030346,0.0171495869498119,1
0.26780683224511,0.0165924975296395,1
0.267369067588578,0.0132423640507968,1
0.25780795280593,0.0106892090938116,1
0.259648574998142,0.0110483213581936,1
0.263286243672416,0.0149528387984321,1
0.243261985865031,0.0157422696231793,1
0.170548311871937,0.0096791431423275,1
0.155705644679551,0.00898507623222304,1
0.167171164056021,0.0157264680362846,1
0.153615479458506,0.00763052066642844,1
0.174906001172361,0.0123941040850861,1
0.16113685428232,0.0182630767092467,1
0.117615664954484,0.0172634025813029,1
0.170066831035524,0.0164507786651044,1
0.282815046879167,0.0271846986990775,1
0.281712698055467,0.0226066008717011,1
0.287477174936205,0.0222924005586761,1
0.256114404855046,0.011615086495171,1
0.251647568794996,0.00903269392729088,1
0.408338840652948,0.0207242906388895,1
0.53557872836784,0.0247224146824744,1
0.586111374115686,0.0245989233537888,1
0.603987956368235,0.0241239878628923,1
0.561581450937154,0.0316201706932332,1
0.414191565620979,0.0225735529459403,1
0.315842089088394,0.0181850855456692,1
0.179287849562048,0.0107668661927193,1
0.0557981770341187,0.00826674454347495,1
0.0613119259734285,0.0046749854878759,1
0.086463537009416,0.0062844611270504,1
0.0735352996516174,0.00521575058437466,1
0.076110408544424,0.00610273881766371,1
0.0900697717727125,0.00835082719853522,1
0.0950019883047007,0.00939107011273919,1
0.0953091713982659,0.00936779864655965,1
0.0899902001795641,0.00848511594518768,1
0.0913446171687666,0.00879980172163681,1
0.0974604658708476,0.00940676906472618,1
0.0860975777159745,0.0217563155430842,1
0.0203168032171759,0.0110196341614148,1
0.0200235214028393,0.00677361569934447,1
0.0242554555308671,0.00738714764187533,1
0.0334592602252856,0.00390657741700566,1
0.0504517762469696,0.00593637205361716,1
0.0501390395439773,0.00522708661587018,1
0.0496306933272004,0.0056062783571798,1
0.0496484265200494,0.00540880240287064,1
0.0485216529589266,0.00513318786757893,1
0.0480249992344312,0.00529137721406498,1
0.0477302465695668,0.00586337743981329,1
0.0463711758484614,0.00838375305877053,1
0.036698681316426,0.00564564553963501,1
0.0597755757269322,0.022134703437862,1
0.0676031614027948,0.0348744052843961,1
0.0568398596245891,0.0318225154958314,1
0.129831786516516,0.0130223985622348,1
0.231511542345536,0.0227788526845697,1
0.336372535535019,0.0304696245617841,1
0.328910716472293,0.0206598592750861,1
0.281774098834615,0.0175799345095599,1
0.231593054799336,0.0146661512441877,1
0.203844362685513,0.0131937447686266,1
0.217325599178145,0.0143181120380163,1
0.19818247415972,0.00936799197774185,1
0.126472026071208,0.00439510677321897,1
0.125578036233274,0.014242118922038,1
0.131248326349961,0.0136644252792099,1
0.0993107870582415,0.00996307822885717,1
0.0975811514212039,0.0186894271008382,1
0.11612223091556,0.0210826935742248,1
0.177189694928382,0.0289673728707423,1
0.223386919165683,0.0388935730716578,1
0.191433817899198,0.0386453668817184,1
0.162236935003356,0.0476781797963199,1
0.141548543068073,0.0510106261396382,1
0.118529893530746,0.0604595619031172,1
0.105692376038861,0.0602362690711785,1
0.0818415154472298,0.051891945937058,1
0.0365028625218984,0.0243701707414468,1
0.00681620787247441,0.0115741720731186,1
0.00702806963627652,0.0159860529785086,1
0.00754409916093519,0.0202096812614323,1
0.00765641251322765,0.0136050644271144,1
0.012007506294887,0.0314519411716473,1
0.0121765970449811,0.0370040882614827,1
0.0150492485363907,0.0361010390438302,1
0.0215042001438952,0.046644835165532,1
0.0239340409896466,0.0314566592522956,1
0.0241130870445524,0.0279470215420441,1
0.0231538738754077,0.0207146710181291,1
0.0163563704083744,0.0154629318408319,1
0.0110910682522061,0.00802092395061578,1
0.0130783813674713,0.00820240005823128,1
0.0133213198293445,0.00765520529896202,1
0.0134308133374226,0.00768608720246511,1
0.0132613359871441,0.0083898960623623,1
0.0117512521082437,0.0048547248749226,1
0.015393172816768,0.00966924886242825,1
0.014722395157364,0.00770129682710594,1
0.0137340455817159,0.00721003133084909,1
0.014279689872128,0.00670382714939526,1
0.0160161534412516,0.00667464630055725,1
0.0205804554418106,0.012738532440437,1
0.0234860952214214,0.0155071201078427,1
0.0298989402816466,0.0196680679591515,1
0.0358530188784642,0.0230498196196246,1
0.0389946456734101,0.0366181927408906,1
0.0316930596057335,0.0326078381599529,1
0.0292027733875834,0.0375875243706096,1
0.0243530972137113,0.0610738426876603,1
0.00550472931403005,0.0303511975170298,1
0.00138645242345062,0.108035003296539,1
0.00121953708698726,0.114195786168667,1
0.000861450112813284,0.106068205379733,1
0.00229633111580819,0.117796310889575,1
0.00250584293725516,0.0738539110198591,1
0.00235875902884437,0.0697948368808803,1
0.00197733423093692,0.0602122340215747,1
0.0015834784790077,0.0493428895930223,1
0.00130358265427146,0.0386822121164723,1
0.00127429075013267,0.0399435933172006,1
0.00127360072292537,0.0394552655167254,1
0.00139516542634471,0.0364202405285918,1
0.00147026029824021,0.0406958491656664,1
0.00104834729925641,0.0444644478087,1
0.00100448859489926,0.0586062133550173,1
0.00109388982307241,0.0582014827383041,1
0.00134753871268162,0.072221904309252,1
0.0013464834970613,0.0669466824518599,1
0.00134718749973469,0.0637287734612532,1
0.00162351772640081,0.0599737467317484,1
0.00200905275552119,0.0728652369282654,1
0.00223680679445738,0.0983708610897952,1
0.00196017947172761,0.0961167108107002,1
0.00116548895104029,0.0779716132271573,1
0.000822187179993814,0.0765761276733271,1
0.000866859891891866,0.0884883092853565,1
0.000950053134716505,0.0959851586737677,1
0.000843847072860726,0.130132427833292,1
0.000234950092708924,0.0939392394967141,1
0.00018301070165188,0.186808479844282,1
0.000195575041327405,0.195182919711655,1
0.00020053890287251,0.258356038212733,1
7.23664309263682e-05,0.211339989271166,1
3.39642494210959e-05,0.292185125527908,1
3.39603923857979e-05,0.296033742352979,1
3.51538745567803e-05,0.305921857522004,1
3.53361905080712e-05,0.307620951320277,1
3.61996584030999e-05,0.308488888873153,1
2.61592429311107e-05,0.448296941388538,1
5.09053020944657e-06,0.342948630089076,1
5.09621860168218e-06,0.38880575686776,1
5.87374286700685e-06,0.435285404370405,1
6.88831803965678e-06,0.497350430971646,1
7.03461757666646e-06,0.505717992909714,1
6.34793204464994e-06,0.490162794923533,1
5.95128511614168e-06,0.484440880008702,1
2.31865023756985e-06,0.351995708809133,1
4.2994153650895e-07,0.223126178172847,1
3.99902873758322e-07,0.19605931554074,0
5.17346169380322e-07,0.215780781450742,0
4.69862668319639e-07,0.211335006004422,0
4.65170867380534e-07,0.219588560229255,0
4.70540017278828e-07,0.218282910862617,0
4.98194895047239e-07,0.230085016711052,0
4.53827068562572e-07,0.219543852532902,0
4.94076750543436e-07,0.23062066515258,0
4.24620558728053e-07,0.21023715074943,0
2.90686559311076e-07,0.17254037176791,0
3.15733937518175e-07,0.199430140802156,0
2.1950074353819e-07,0.172005929943044,0
2.17858645868566e-07,0.171407389589713,0
2.09367452877042e-07,0.170844144034858,0
2.21121449521783e-07,0.180881165744386,0
1.87404233250509e-07,0.16250171693925,0
1.40934959380163e-07,0.150006428489111,0
1.0698112820005e-07,0.143408967066118,0
1.28964759740734e-07,0.155124766575439,0
1.4522227782845e-07,0.169958522699677,0
5.73223702721171e-08,0.123790168207535,0
4.88168072930302e-08,0.114379312668712,0
6.04511084731905e-08,0.120442272984942,0
1.20443357116265e-07,0.156759044569855,0
1.3087270218026e-07,0.169314297817662,0
1.28773867519593e-07,0.175849107873383,0
1.47773767097332e-07,0.17450361755995,0
1.51663461457956e-07,0.161739141541248,0
1.6324044598318e-07,0.172336902853331,0
1.92054067294119e-07,0.175241846366078,0
1.54741904702561e-07,0.151374441903262,0
7.39602031442965e-08,0.109878921461466,0
7.95827873686888e-08,0.109540436536529,0
7.42410710830148e-08,0.105149941865876,0
1.22596242525605e-07,0.112249987658581,0
1.10540933368931e-06,0.295839530293262,0
1.47677161590038e-06,0.333811424764167,0
1.45888734990248e-06,0.325578733250721,0
1.44551281056945e-06,0.3139890352271,0
1.56028149225641e-06,0.314768108953614,0
1.49505660859689e-06,0.297500459369303,0
1.45641048659173e-06,0.284233872047233,0
1.37711509897429e-06,0.272037236706398,0
1.30364853756182e-06,0.257982189880215,0
1.62913528766137e-06,0.296149734595755,0
1.39855299757823e-06,0.27547918071343,0
1.4404259982677e-06,0.273028290075941,0
6.96741175756241e-06,0.275421424841326,0
5.51644925984619e-05,0.520194279991646,0
0.000328644163447506,0.207702324505204,0
0.000711255513109552,0.144112933266639,0
0.000687338752950118,0.119266126380243,0
0.000664835302785717,0.120844323446709,0
0.000660027908523594,0.125210698947707,0
0.000666820361273612,0.122850668810995,0
0.000667365519410852,0.119479697646871,0
0.000667412809080376,0.114243678731382,0
0.000684094009758542,0.117633424827172,0
0.000708083453968247,0.117611739496435,0
0.000508281334323484,0.210632267804287,0
3.88389842209563e-05,0.195053946682353,0
3.46705996279102e-06,0.410826967883891,0
1.48175212295323e-06,0.319149237004335,0
1.41457830973056e-06,0.340277031529047,0
1.41953840486927e-06,0.337797094793134,0
1.42761956332933e-06,0.328725157248796,0
1.32284537128729e-06,0.296910092807015,0
1.30388368281284e-06,0.302509478667273,0
1.42926558008647e-06,0.303598208185802,0
1.31528169567479e-06,0.288729083395827,0
1.64432769573915e-05,0.212376485415781,0
5.28197232755444e-05,0.236537270218455,0
5.10790344276178e-05,0.220072331744394,0
4.96698520482169e-05,0.217461939959305,0
4.93115011365623e-05,0.219509830682031,0
4.87050421020391e-05,0.214797389263754,0
4.79326342054679e-05,0.20718312893815,0
4.8475736128124e-05,0.207447239720599,0
4.96789338803562e-05,0.205048820532284,0
5.0641166699901e-05,0.197130546417628,0
4.10905398435303e-05,0.381436270485726,0
2.10829729747759e-06,0.222263455648235,0
4.85321509030453e-07,0.241742727131694,0
3.37119091735949e-07,0.206836573338374,0
2.36701128764372e-07,0.19976505390886,0
2.60246190089954e-07,0.205618197173918,0
1.61198601386822e-07,0.165221532832908,0
1.1027463137215e-07,0.145470256020486,0
1.14717406958612e-07,0.144888049121087,0
1.0698112820005e-07,0.143408967066118,0
1.18461441899854e-07,0.149580269210604,0
1.14590853090876e-07,0.155194332843951,0
1.04055039482668e-07,0.132042352321053,0
2.36803514925754e-07,0.189690000364968,0
2.39737605113483e-07,0.18766648892363,0
2.25132472300122e-07,0.179378123074522,0
2.23137820049281e-07,0.181504146179926,0
2.2051970629261e-07,0.174996480026723,0
3.56496530077826e-07,0.220216861574042,0
3.71032262383074e-07,0.209071436351549,0
3.79740474845852e-07,0.211625514709887,0
3.74916078112423e-07,0.20482611132405,0
3.25786396999285e-07,0.203675269893924,0
1.9072370037741e-07,0.168877438764371,0
1.93858153914446e-07,0.170136009426287,0
1.99569570789223e-07,0.167118080060867,0
2.04747501875749e-07,0.171766280104771,0
2.09877587435505e-07,0.185465935849476,0
1.19358912941248e-07,0.147437285099739,0
1.07328130740618e-07,0.152708670232579,0
8.42747516031061e-08,0.130435199414443,0
2.41850809761713e-07,0.191564996195723,0
2.52050071729398e-07,0.183584602201513,0
3.32117846178315e-07,0.203986573781013,0
3.71137587860093e-07,0.194208237970851,0
6.9003177957479e-07,0.256756020954661,0
7.14581596962544e-07,0.242739008160239,0
6.9604104710086e-07,0.235388711000949,0
6.5038237116528e-07,0.229375451211222,0
6.55607821187949e-07,0.226141898270275,0
6.70739254795781e-07,0.239844028515321,0
5.55145768481807e-07,0.229904887250383,0
5.54237356654429e-07,0.237034929589159,0
4.58055600698104e-07,0.213315888768219,0
4.19884994645009e-07,0.22027447981992,0
2.70766327348093e-07,0.197641486003916,0
2.39835582301407e-07,0.19395146377304,0
2.01461183697429e-07,0.176046643209933,0
1.80551545431718e-07,0.162110972939218,0
1.72103299107567e-07,0.158645646632519,0
1.77893097732685e-07,0.153952586703914,0
1.96956845777889e-07,0.163691354801588,0
1.86783711060317e-07,0.167412338981641,0
1.45375938718179e-07,0.154630674179292,0
1.54496145256183e-07,0.167906743005316,0
7.26108939712552e-08,0.114583063458727,0
7.95958509937456e-08,0.120744596150853,0
9.99674312024354e-08,0.134673956789434,0
1.07375649676762e-07,0.141111022828206,0
1.13829080454758e-07,0.142036755456349,0
1.29095232695987e-07,0.149595094078459,0
1.1653325084149e-07,0.137140276808113,0
1.2965321278122e-07,0.14232590610348,0
1.26649885380691e-07,0.140906241398821,0
1.13293471827435e-07,0.136689835172262,0
1.52903689361774e-07,0.153268859156318,0
1.36696956116465e-07,0.145606319294246,0
9.61278685029658e-08,0.130334781999798,0
5.0357008687212e-08,0.0990306690306288,0
4.71662182671196e-08,0.102361428600099,0
4.2718543821262e-08,0.103062334033647,0
7.72817931102691e-08,0.12163143340419,0
7.22091875007628e-08,0.123046971778937,0
7.26264070260102e-08,0.121007169663406,0
8.36298984112461e-08,0.119920525416903,0
3.72775439851574e-08,0.0928886066718262,0
2.77502422313255e-08,0.0896955125187991,0
1.63104257691964e-08,0.0785999509136987,0
2.09597699268666e-08,0.0825504387117702,0
6.38711655130277e-08,0.112297498041274,0
7.01921637920122e-08,0.117347280967991,0
6.68308930649302e-08,0.119623276091831,0
1.2423638065147e-07,0.13990227782443,0
1.75119200247214e-07,0.156225314472011,0
1.7196041570851e-07,0.163777286833918,0
1.80637275471152e-07,0.167709588103406,0
2.08476350352864e-07,0.178736754086507,0
2.17099159366833e-07,0.173690523145006,0
2.30701658957095e-07,0.176038684311433,0
2.39903513151703e-07,0.1877271347267,0
2.53558920423444e-07,0.189629885553566,0
2.4674379052669e-07,0.188692552766829,0
1.95954375850102e-07,0.186466331229201,0
1.53587080247551e-07,0.181224560166852,0
1.91533645130924e-07,0.19569561079002,0
1.91096013691525e-07,0.195494224754082,0
1.56411272689492e-07,0.178869927664509,0
1.48126484973862e-07,0.191241287843881,0
1.27054204576195e-07,0.18934032276617,0
6.29567117590604e-08,0.136917285523456,0
5.35458395635461e-08,0.123450135045489,0
1.72283577133349e-07,0.190995575843675,0
1.90494433757666e-07,0.191357147172333,0
1.7074860118919e-07,0.178531419203497,0
1.53635252364948e-07,0.153591815625611,0
2.0765677117587e-07,0.167644950521825,0
2.07150555704924e-07,0.167456241217207,0
2.15925392655492e-07,0.16586910626748,0
2.04403275355505e-07,0.16416393850286,0
1.90767300226037e-07,0.154517472134194,0
2.05415543002084e-07,0.163349390322762,0
1.60072516906937e-07,0.14469473915129,0
1.6988591204951e-07,0.148613353020604,0
2.6972531972639e-07,0.1742457671957,0
2.70188425234649e-07,0.175881522131007,0
2.80781065611853e-07,0.180347948013976,0
2.79871837307909e-07,0.175541559788015,0
2.75501891431137e-07,0.172115918134488,0
3.14429697851579e-07,0.181270270804315,0
2.93595175429944e-07,0.175635373048104,0
2.39204772506484e-07,0.1609276712109,0
2.37973525844892e-07,0.164644637430208,0
2.31486619527688e-07,0.166732711403022,0
1.90788202026127e-07,0.153074858854394,0
1.50342728964727e-07,0.140712337578247,0
1.12764395012639e-07,0.128363098034117,0
1.31975762020983e-07,0.141140975665671,0
1.60607309057694e-07,0.156274534659725,0
1.49111319007822e-07,0.146576210292764,0
1.55921386749866e-07,0.137272520035032,0
6.68027246234017e-07,0.255587835530034,0
8.64854435533217e-07,0.269874143227106,0
8.66798956122903e-07,0.265215350528361,0
8.67242302898264e-07,0.267705016221204,0
8.62088212927467e-07,0.270671435747952,0
8.13895683616832e-07,0.275211547407733,0
7.46792577264786e-07,0.266076719833418,0
7.57200367347436e-07,0.27087104029323,0
7.7035200857793e-07,0.273228026312577,0
7.16088322817519e-07,0.293574110588613,0
2.92573436655198e-07,0.199547211353634,0
1.61325808435812e-07,0.159264335258282,0
2.05175335596355e-07,0.166718038088905,0
1.95393946335171e-07,0.165506779364551,0
1.98030675757547e-07,0.169073893036776,0
2.03232121369175e-07,0.166067430456393,0
2.08096198863714e-07,0.15983503727495,0
1.60766685283386e-07,0.144139192544541,0
1.74798324956759e-07,0.150608342185193,0
2.15666569584057e-07,0.164684164093267,0
2.35951929867372e-07,0.177983730885699,0
1.44993664389959e-07,0.149736524993421,0
8.50041917672083e-08,0.128404028175219,0
1.22099661478138e-07,0.144108024088518,0
1.56828818805365e-07,0.145477481521099,0
2.51224613921129e-07,0.178297613685519,0
2.95465723242746e-07,0.200793095913708,0
2.84830789379421e-07,0.189073139108298,0
2.89612076150164e-07,0.195985131017916,0
2.79274666347505e-07,0.195526344842528,0
2.99898374519789e-07,0.196827501835377,0
3.33731203872814e-07,0.194715577029105,0
3.41494263062743e-07,0.209083630365816,0
3.2344947777196e-07,0.204098455615549,0
2.71407261452436e-07,0.198931981330869,0
2.56452513373497e-07,0.196792946643267,0
2.40083791177485e-07,0.194044964008337,0
2.59988836676338e-07,0.196540861532664,0
2.55640119190285e-07,0.187518132844374,0
2.57436367635577e-07,0.180125327622362,0
2.42837766634745e-07,0.18918241127649,0
2.05039310600452e-07,0.180401998355014,0
2.06490679344249e-07,0.175483827755392,0
1.88853479155234e-07,0.173768638937304,0
1.54981622222351e-07,0.168137824877374,0
1.21981598966689e-07,0.145959827762952,0
1.47449136014673e-07,0.152991303426787,0
1.1573522664584e-07,0.145550505572452,0
9.17765382919009e-08,0.13492862912703,0
8.1935709536709e-08,0.121014065032453,0
9.66218368254212e-08,0.125929313820128,0
1.17435947332906e-07,0.143649823592051,0
1.14020625857152e-07,0.147310761720707,0
1.03293266846551e-07,0.138772954991388,0
1.09085841491993e-07,0.136872474957172,0
1.19230889415693e-07,0.139646828434505,0
1.19881457943515e-07,0.142364413413485,0
1.5509200985408e-07,0.162154511601114,0
1.66353507834185e-07,0.166977088561452,0
1.75425378959479e-07,0.174099014302183,0
1.3019780265077e-07,0.152774814970784,0
1.68481572355918e-07,0.162286357925029,0
1.67492002757875e-07,0.156724715235845,0
1.72164698145334e-07,0.156228710029195,0
2.32983874254496e-07,0.169644138303337,0
2.67392809472521e-07,0.176193600549575,0
2.55093896367602e-07,0.168082888752749,0
2.6993041863978e-07,0.162759438741846,0
3.0450705814447e-07,0.172433048158011,0
2.76747671375605e-07,0.168449932526566,0
2.84703419035119e-07,0.165345080859213,0
2.39345696361782e-07,0.149466411868897,0
2.88325309082081e-07,0.164371224805978,0
2.84698846766349e-07,0.160754543559721,0
2.36184299098067e-07,0.153618328869284,0
2.46973547032374e-07,0.16357240748159,0
2.44986079775314e-07,0.164792993558011,0
2.13125694510533e-07,0.159138305290758,0
1.46384450572554e-07,0.132665406054938,0
1.3955348103042e-07,0.132434128894692,0
1.29033996953534e-07,0.131674330332994,0
8.95189805867947e-08,0.120178842286394,0
8.04515184349577e-08,0.111744624918401,0
1.49799772048308e-07,0.144710522638999,0
1.72014466457182e-07,0.15391751961499,0
1.60688303533046e-07,0.154083351750855,0
1.53551155278646e-07,0.155740064346681,0
1.19284450278425e-07,0.14761655462419,0
7.43181464708493e-08,0.126868681762453,0
5.91917750177272e-08,0.114605323420132,0
6.01775888235665e-08,0.115263723485485,0
5.27750856852025e-08,0.110235383929558,0
3.46754331691811e-08,0.102139042016373,0
1.05593281333092e-08,0.0877711168210817,0
0,0.0799984213204166,0
1.32906055420338e-09,0.0804964899588108,0
1.13710691352683e-08,0.0885601450474105,0
9.42422975213481e-08,0.142059693507632,0
9.93689538795263e-08,0.135301899889601,0
1.11061714781815e-07,0.145718621108797,0
1.21263589474511e-07,0.15251086329376,0
1.5983394245434e-07,0.180754520180738,0
1.68449403179216e-07,0.177460150997261,0
1.75945474532048e-07,0.177639144658141,0
1.83302254982714e-07,0.177513545620701,0
1.80658177271243e-07,0.176562381383823,0
1.74890586808722e-07,0.174266603366007,0
1.36344238239935e-07,0.16068752141693,0
1.13217212916166e-07,0.149694349647345,0
1.96964847248236e-07,0.183593085390349,0
1.98900223300382e-07,0.17830083354418,0
1.97084379417504e-07,0.174750493918817,0
1.87585164457544e-07,0.164945212364264,0
2.20671244343268e-07,0.172512770083007,0
2.19782917839414e-07,0.172108589226783,0
2.23337040331395e-07,0.170927325806913,0
2.40854055169888e-07,0.177681427478929,0
1.67779402509122e-07,0.147847184577819,0
1.43964414030806e-07,0.136067501220323,0
1.22106193290666e-07,0.135436392689678,0
1.22022096204364e-07,0.1365562055153,0
1.03078533509682e-07,0.125239960827135,0
9.28371413511897e-08,0.128354518995009,0
4.85958687342593e-08,0.105269470081541,0
4.91192302130924e-08,0.106609754367225,0
3.7998819383599e-08,0.103717562921098,0
3.25610854537587e-08,0.106679727712362,0
6.60945944976735e-08,0.134325729554706,0
1.27349932388415e-07,0.167376540255817,0
1.03972575349498e-07,0.147463350199381,0
1.2391828138134e-07,0.162050335286011,0
1.43321520382704e-07,0.168665944534702,0
1.53671340629167e-07,0.170480284520406,0
1.58745742487118e-07,0.169612600627683,0
1.61325808435812e-07,0.16768203691332,0
1.96882383115065e-07,0.17147437462018,0
2.06386986820362e-07,0.169842306254123,0
1.41038162018111e-07,0.147941464582698,0
3.70998786843867e-08,0.0942203676357152,0
1.13183247491019e-07,0.144208344936496,0
3.42890764581301e-07,0.231890052016337,0
5.12365825622779e-07,0.270652851533016,0
5.12802803880924e-07,0.258682401172219,0
4.83118981845898e-07,0.247707800691526,0
4.83685289992105e-07,0.258852427329093,0
4.32367288386661e-07,0.246909538775332,0
5.33176833519312e-07,0.275804189051,0
5.24906252495932e-07,0.257994115431232,0
5.18627221112441e-07,0.260127504166196,0
5.00094346130479e-07,0.255619890204045,0
3.48272978104651e-07,0.214727926142389,0
1.51499512963495e-07,0.157490487162839,0
1.38954350526258e-07,0.16319888658943,0
1.36012422163496e-07,0.164916342664596,0
1.70988971890233e-07,0.173630983953431,0
1.65353324040784e-07,0.177831196976078,0
4.50504008938782e-08,0.111842431857759,0
1.95987034912743e-08,0.094542105180137,0
6.75002405537715e-08,0.127813472552235,0
1.02855635407153e-07,0.151590859210708,0
9.75304119481129e-08,0.162984726642779,0
9.86153460090694e-08,0.165733132346667,0
1.08030137292101e-07,0.161594878258462,0
1.12905645458565e-07,0.174978069348668,0
7.58650429728725e-08,0.149951060181115,0
1.16652129829505e-07,0.168891964850483,0
1.31332541782255e-07,0.17330362501277,0
1.62130691034616e-07,0.185562528608522,0
1.32014952896153e-07,0.177834133885848,0
1.17435947332906e-07,0.162036946555675,0
1.75802917723617e-07,0.18519351366917,0
1.83463590752164e-07,0.172921227172192,0
2.47856648086205e-07,0.194283414782428,0
4.33166945535443e-07,0.228595002593757,0
4.432100971837e-07,0.21956759587531,0
4.43038963695457e-07,0.22793105206022,0
4.31158413182979e-07,0.224907884009475,0
3.98601899997991e-07,0.225431488901305,0
4.13996728946027e-07,0.229640112892857,0
4.13004546622974e-07,0.229371053976745,0
3.10215372408296e-07,0.197134211180898,0
3.07778189858661e-07,0.196215108931393,0
2.76669289625265e-07,0.192307273232828,0
1.13013420365282e-07,0.134290892954187,0
1.42579506479485e-07,0.165433708864956,0
1.20996601637415e-07,0.151188215740002,0
1.35555195286512e-07,0.152755516590977,0
1.81770544944819e-07,0.153237059747325,0
2.35132677281006e-07,0.163648860069187,0
2.32564368594863e-07,0.167167877421072,0
2.22551099988923e-07,0.168294356013828,0
1.50537866864011e-07,0.145164005106085,0
1.29515881422811e-07,0.137857592508317,0
1.15657987962693e-07,0.135632080929784,0
1.28371017981907e-07,0.133261514093204,0
1.2669103579962e-07,0.130578896924071,0
1.24202905112263e-07,0.132322541467031,0
6.96688023131793e-08,0.114866601853371,0
2.98275219106498e-08,0.093355832228262,0
2.5746445442945e-08,0.0917050500050816,0
3.93900954521348e-08,0.100590452578752,0
5.13805437104024e-08,0.109334254316222,0
7.6047933723666e-08,0.127961022245907,0
1.29145037766515e-07,0.155689634565383,0
1.53997931255584e-07,0.164332128156465,0
1.55933960488983e-07,0.168285369416937,0
1.51987929245302e-07,0.15929339023139,0
1.40909975197242e-07,0.146333015302722,0
1.18616899038029e-07,0.135067850592831,0
8.50180718688309e-08,0.115895190187748,0
1.02045690653638e-07,0.126751015610618,0
1.26401676504614e-07,0.136425839899768,0
1.30005767362437e-07,0.136035456456955,0
1.07967595187142e-07,0.129859891775142,0
7.02365801172049e-08,0.10950079638406,0
7.34376581420299e-08,0.108714309799873,0
1.09054325496544e-07,0.134761560186237,0
8.6219925374045e-08,0.125841754063432,0
1.57827369645634e-07,0.170205467872582,0
1.66061372518856e-07,0.169894181873767,0
2.27870118226061e-07,0.175274968188867,0
2.61625708895939e-07,0.184110583377257,0
2.54538692302694e-07,0.181695434489426,0
2.52865241932934e-07,0.178606829213368,0
2.26190789225026e-07,0.174424912597194,0
2.79490379456254e-07,0.195739006419321,0
2.63254742940507e-07,0.190132332278021,0
2.51330265988774e-07,0.195245931309996,0
1.60290679445383e-07,0.155030780830654,0
7.77318349934717e-08,0.115755931025901,0
6.88564081299673e-08,0.110979754990462,0
1.00027360582383e-07,0.123710017075985,0
1.15541884995001e-07,0.121230470752497,0
1.32157346409271e-07,0.129321538598711,0
1.25501429442896e-07,0.130110307277372,0
9.48933559351102e-08,0.11488157460191,0
9.49921495996012e-08,0.116630220076361,0
1.06678868575301e-07,0.121419216578329,0
1.22474750812579e-07,0.128697551901637,0
1.32909811212536e-07,0.13767053748435,0
1.4540598505581e-07,0.147284168727516,0
1.22788114518625e-07,0.146366233183542,0
9.53832418747352e-08,0.14255023850384,0
1.42530681180836e-07,0.1685914412251,0
1.99560426251683e-07,0.187904044358149,0
2.04766280836767e-07,0.180291969824324,0
2.05158189588468e-07,0.177425386400191,0
1.94644747438171e-07,0.170450509812401,0
3.098618380552e-07,0.202703091152616,0
3.85455810808147e-07,0.215774402227661,0
3.4656490912849e-07,0.207675696621226,0
3.44869740482074e-07,0.207183541831769,0
3.60011298399325e-07,0.208722291261605,0
3.28300001755502e-07,0.188014262504685,0
2.8312925221579e-07,0.170367474336194,0
2.83377461091866e-07,0.173464641542038,0
2.73325001610756e-07,0.171530357733429,0
2.52596294552079e-07,0.169283968648424,0
2.14257820917007e-07,0.161228517990693,0
1.47547603088538e-07,0.143678439962375,0
1.46988479936113e-07,0.147984709168873,0
1.44216541994399e-07,0.149191143805849,0
1.0338226279225e-07,0.134226318469047,0
6.55447791781006e-08,0.120278107094767,0
1.28013564541294e-07,0.167978319827815,0
1.89955559224078e-07,0.195163187060817,0
1.69670852122014e-07,0.189708933523894,0
1.76728638854196e-07,0.19067045933861,0
1.77552300414019e-07,0.193164300675657,0
1.75826595544033e-07,0.188280194950829,0
1.64478061161988e-07,0.182860850331897,0
1.39428560115816e-07,0.167328967908412,0
1.07717426767307e-07,0.14112768374247,0
9.88367744537803e-08,0.138966433117613,0
1.38788442488039e-07,0.154755059709686,0
1.02533127163566e-07,0.133440085188803,0
1.15309189173679e-07,0.137700126301288,0
9.48033802175322e-08,0.124970970234231,0
1.4353707019614e-07,0.146824311305105,0
2.25374312658983e-07,0.174131346858283,0
2.45736585034821e-07,0.170341620320313,0
2.35461880632433e-07,0.16814283860768,0
2.36240635981125e-07,0.172980979046047,0
3.03690744873741e-07,0.197789942407141,0
3.22630388480906e-07,0.200622941621457,0
3.30742899641101e-07,0.215282091591155,0
3.09651023805848e-07,0.205392476730439,0
3.69853923402962e-07,0.210006758984676,0
3.17693481276675e-07,0.200024309909695,0
1.83372145376767e-07,0.154919237261997,0
2.12264311733359e-07,0.174642335146464,0
2.59574719762041e-07,0.198018628253995,0
2.82572741788375e-07,0.209929332611879,0
2.38437937715657e-07,0.197383580627283,0
1.49819367485894e-07,0.163798531592313,0
1.43857129010028e-07,0.156642885232599,0
1.45129526090548e-07,0.173321173811562,0
1.0991783111279e-07,0.164706698026452,0
9.17170987978932e-08,0.157277591775409,0
6.24082028019933e-08,0.136336498393429,0
6.50679568635322e-08,0.138335494208135,0
9.04451916033126e-08,0.152775941907638,0
9.62036375282944e-08,0.140079574563989,0
1.09755352276148e-07,0.150847786048349,0
1.66953618110226e-07,0.184562549817148,0
1.61666932345104e-07,0.177871296925954,0
1.53197620925549e-07,0.158263627726796,0
2.34522769286172e-07,0.188837086203931,0
2.44264967672186e-07,0.192455836363184,0
2.47761446918605e-07,0.193637791404482,0
2.41793819697404e-07,0.186910729756217,0
2.01572224510411e-07,0.182378282117597,0
2.00708718894165e-07,0.188733224481249,0
1.93467061639311e-07,0.175682884785439,0
1.8554658576745e-07,0.166736711636346,0
1.75373940935818e-07,0.155266601972207,0
2.39805535963778e-07,0.179254837160629,0
2.13437425263448e-07,0.162845364780097,0
2.11727886629469e-07,0.155805802228693,0
2.13773650313344e-07,0.154565695679117,0
2.94510935546416e-07,0.182227208193505,0
3.30297430026668e-07,0.187914259807616,0
3.34040158605405e-07,0.191319664659747,0
3.1464198175875e-07,0.190480867200397,0
2.93533613096864e-07,0.184224596232573,0
2.77241966288687e-07,0.189373109331062,0
1.56534070765024e-07,0.152841506123722,0
1.14760680216612e-07,0.13742587200121,0
9.78365906603785e-08,0.141068028767196,0
1.22242054991256e-07,0.158249440988325,0
1.62092643226638e-07,0.176503121008853,0
1.56123872938244e-07,0.17920598874594,0
1.31924323997323e-07,0.169770094375956,0
1.51636027845337e-07,0.176468304972535,0
1.54010178404074e-07,0.177844729619378,0
1.91568100442011e-07,0.192459533344484,0
1.61431787094084e-07,0.174642224762123,0
6.68798816588927e-08,0.130048410486444,0
6.10624861258427e-08,0.123242052753099,0
6.36048308571847e-08,0.130694089498093,0
7.85319820281927e-08,0.128337640004183,0
1.10334560752098e-07,0.135194520208905,0
1.30728349123384e-07,0.136360870308736,0
1.80624701732035e-07,0.162384797354904,0
2.06611027990084e-07,0.178094592009452,0
1.61212971374385e-07,0.164947589732112,0
1.12542313386676e-07,0.143869480193866,0
1.23184758834408e-07,0.141661273473414,0
1.64647888287724e-07,0.155529167534745,0
1.25927303619744e-07,0.136307821671076,0
1.10799135918176e-07,0.140295953753336,0
1.02674051018865e-07,0.147005406918313,0
9.42741401074237e-08,0.148274976071449,0
8.28878845080271e-08,0.129605134662378,0
2.04818535336995e-07,0.177571691821368,0
2.35553489303143e-07,0.170407707869028,0
2.37539160311758e-07,0.171070060418758,0
2.2945653219388e-07,0.180928837810211,0
1.86887403584204e-07,0.16730176041113,0
1.75467182559661e-07,0.16252004893989,0
1.78410580580242e-07,0.161200308282241,0
1.81034899558815e-07,0.162268041351954,0
1.77358795467866e-07,0.163552486291915,0
1.83962457934015e-07,0.163770586497138,0
7.39850240319042e-08,0.110841367349455,0
9.0510509728596e-08,0.129457799617326,0
8.83199031019052e-08,0.119539495999131,0
8.21275815297288e-08,0.110886126450291,0
7.84712361716789e-08,0.107402198436908,0
7.8054343237058e-08,0.105586106814018,0
8.45796239528662e-08,0.109721118736628,0
8.30761640041563e-08,0.109756474362791,0
7.98323026072712e-08,0.108067408918727,0
6.82971216822283e-08,0.104987777065914,0
6.14961984777242e-08,0.104347009933911,0
8.79521620565599e-08,0.116223984439937,0
1.06879231924608e-07,0.125161974737813,0
1.10236583564173e-07,0.128765429274044,0
1.24338766812852e-07,0.13339420114358,0
1.30426416089262e-07,0.134177291446188,0
1.37539559932621e-07,0.131593126942934,0
1.63877297704693e-07,0.140373302421899,0
1.68445484091699e-07,0.144011140999157,0
1.64101828760354e-07,0.146381641582243,0
1.68974724201807e-07,0.148253459450287,0
1.60760153470858e-07,0.149246190281538,0
1.36864333812504e-07,0.136003010069739,0
1.57345485176357e-07,0.145690698918624,0
1.58929449714478e-07,0.143400026780069,0
1.60399107533354e-07,0.140098677421565,0
1.59692855303727e-07,0.144541204582262,0
1.38475731963245e-07,0.139739796300964,0
1.36525985923535e-07,0.133009402241158,0
1.60731576791046e-07,0.139154714501484,0
1.69905507487095e-07,0.139958577587411,0
1.34619839732455e-07,0.130707694197759,0
1.29048203645783e-07,0.130027282220393,0
1.37045265019539e-07,0.124716668781743,0
1.48644457707359e-07,0.124689582566819,0
3.85086273514356e-07,0.192970254052862,0
4.02784709445824e-07,0.187573481576152,0
4.26217097005293e-07,0.18181116268803,0
5.73025952096876e-07,0.211432741727913,0
5.90600610180932e-07,0.214578599951285,0
5.38860653486158e-07,0.210801463579477,0
4.43778364873666e-07,0.193247382249405,0
3.81190537227142e-07,0.183459234931882,0
3.11344559499131e-07,0.17745248758491,0
2.12108854595185e-07,0.164468061682879,0
1.26455074072034e-07,0.143401489293424,0
2.04599066436042e-07,0.186638550727176,0
2.2804974307059e-07,0.212432858602965,0
1.14901604071911e-07,0.16810113536986,0
1.047193248168e-07,0.157832394785748,0
1.49313968491514e-07,0.165122007827967,0
3.05119742159628e-07,0.203588039498138,0
3.28962980727129e-07,0.202600740247942,0
3.24840100659242e-07,0.201372752753176,0
3.38316536267707e-07,0.205542934341466,0
3.10251134081889e-07,0.204187556335004,0
3.06211861214366e-07,0.204444495240389,0
3.06635122666201e-07,0.214163877645643,0
2.98280934442459e-07,0.211364442605431,0
2.5058694572305e-07,0.20584638758447,0
9.16875423462023e-08,0.137439301269505,0
5.64993618935467e-08,0.127549061879199,0
5.15286525594825e-08,0.13486019786914,0
7.4158770245158e-08,0.148831449940988,0
7.13866690081318e-08,0.139570217314551,0
5.80617714503249e-08,0.118543039976293,0
4.95181606632603e-08,0.112516233586121,0
5.29656513157165e-08,0.110367354690442,0
5.68039076526804e-08,0.106828717218619,0
5.04587416673412e-08,0.101853377120245,0
2.7136415148975e-08,0.0859114188435047,0
4.73171031365242e-08,0.100573569411938,0
1.07392795684648e-07,0.125594089274452,0
1.50950677415801e-07,0.135302795177444,0
1.52017975582932e-07,0.135727896088383,0
1.34666868782658e-07,0.134072969913889,0
1.30754313078184e-07,0.136372550146748,0
1.36153672609421e-07,0.140865494882571,0
1.32589262512707e-07,0.143851553020939,0
2.05196074101132e-07,0.172110882202034,0
2.7440062783886e-07,0.203803076150643,0
1.82773668053858e-07,0.161730825811094,0
2.03843988907766e-07,0.186755754493721,0
2.00931616996694e-07,0.208768774896922,0
1.87515274063491e-07,0.197931266652037,0
1.86817676485464e-07,0.193450854545239,0
1.8806133359086e-07,0.198189461213195,0
1.9046569378254e-07,0.18408383916321,0
3.16348744372404e-07,0.221919514101955,0
2.79257683634931e-07,0.202043974429893,0
1.44490224939337e-07,0.154389391730028,0
1.3532658184802e-07,0.158344535618314,0
1.51295557117298e-07,0.172783003594182,0
1.51734494919202e-07,0.166285048864875,0
1.81695918986683e-07,0.177274955898491,0
1.81607086336297e-07,0.167848066149161,0
1.84961825250851e-07,0.161416994995939,0
1.8869802201706e-07,0.1680162580372,0
1.27576749578462e-07,0.148843367542777,0
9.83899984768418e-08,0.132374207602184,0
1.4641629315863e-07,0.145512586990785,0
1.56590244352767e-07,0.147721422528795,0
1.32948512201766e-07,0.131568341105682,0
1.17100375464262e-07,0.125351319182031,0
9.61757140297357e-08,0.120797644801021,0
8.16376955901036e-08,0.121956752222591,0
6.85309605707433e-08,0.118563349692757,0
2.6582517446572e-08,0.0906000332792147,0
3.40340091788986e-08,0.0946415647075666,0
4.34757441886093e-08,0.107941903095294,0
6.09475262253439e-08,0.124538807035567,0
6.79509356182267e-08,0.123966439403884,0
5.9963345372637e-08,0.122427397662664,0
6.68890261964322e-08,0.122196600404665,0
1.51691384956515e-07,0.158976462609458,0
1.67527927726781e-07,0.162134005174263,0
1.90899242839109e-07,0.168948151285898,0
1.71643459505572e-07,0.161022454000129,0
1.45468037274829e-07,0.149599959207083,0
1.4340071860961e-07,0.148667434090914,0
1.41440521669857e-07,0.150240010308433,0
8.66131404882506e-08,0.127221228299014,0
7.28432632019511e-08,0.116907146333523,0
5.93929548435998e-08,0.110476337917745,0
3.21953039521719e-08,0.0950581001978545,0
3.69117624835705e-08,0.0987150934426636,0
4.50099036562024e-08,0.0989926006924829,0
8.78659421311858e-08,0.11929665186759,0
8.36150385377442e-08,0.118955715369512,0
8.33268223099313e-08,0.118764699497177,0
9.51097222251112e-08,0.116688599302934,0
9.32847338046939e-08,0.116651880896579,0
8.95516396494364e-08,0.114732391461487,0
9.25366779748861e-08,0.116274920336471,0
1.04695157110446e-07,0.118790259766138,0
1.14558030732921e-07,0.125154640630851,0
1.13349645415178e-07,0.126359254429738,0
9.17724559090709e-08,0.11277217936048,0
1.09850063557809e-07,0.114912753573825,0
1.35998052175933e-07,0.122787290161645,0
1.63553319803287e-07,0.142178650449442,0
1.67090786173322e-07,0.145411312741262,0
1.75797692273595e-07,0.153254213665838,0
1.99569570789222e-07,0.167099757651775,0
2.35354758906968e-07,0.170329448509015,0
2.93545370359415e-07,0.18670453433778,0
3.25597790912529e-07,0.189966093075694,0
2.9182636059727e-07,0.194338528735269,0
2.69077200628266e-07,0.197998223332484,0
3.67761947145449e-07,0.211986857718197,0
4.58168111168905e-07,0.226184825569666,0
4.69775795213012e-07,0.223322041957394,0
4.46951519399932e-07,0.208170221207126,0
3.456365752729e-07,0.179639014859165,0
3.29271935459719e-07,0.18360344182656,0
3.13338068682781e-07,0.185669799875937,0
3.78786830216715e-07,0.208421321479123,0
3.64567237637839e-07,0.199514807274183,0
3.55558398503443e-07,0.192717672278603,0
3.18334905266958e-07,0.185587689169563,0
3.33475810002956e-07,0.189812745981199,0
5.01719624382843e-07,0.231506451763333,0
5.14951770202747e-07,0.233713015624318,0
4.93319713471402e-07,0.220988061697764,0
6.91480372298263e-07,0.265425574721127,0
9.35905532672707e-07,0.293791705772991,0
9.03689816806383e-07,0.281950023170649,0
1.12321097225872e-06,0.305772548609216,0
1.12842858410636e-06,0.305950107074996,0
1.13449663794518e-06,0.32584592050555,0
9.59468393187428e-07,0.307321051873082,0
4.14074457515114e-07,0.198259154035099,0
3.05451852167631e-06,0.339530833194569,0
7.58480651591583e-06,0.491879847525042,0
9.22191910621806e-06,0.524730551061604,0
9.36654796887831e-06,0.452028029454889,0
9.52296136440688e-06,0.457108323409168,0
9.95061464369183e-06,0.470983585105149,0
9.82031804737657e-06,0.465371540578467,0
1.07313238208053e-05,0.396959952676048,0
1.88022147614549e-05,0.504097825697817,0
2.20149050425924e-05,0.531047868334355,0
2.18735605385667e-05,0.597498640428527,0
2.14238452459907e-05,0.601688890307815,0
2.21270301364538e-05,0.621750406619954,0
2.26857883238545e-05,0.69949541199858,0
2.22653989099869e-05,0.691582281674378,0
2.21492330736002e-05,0.685685191163646,0
2.27928974755801e-05,0.699192413152413,0
2.35207107284766e-05,1,0
1.4216397706073e-05,0.941426139405333,0
4.96322306043022e-06,0.57810393148628,0
9.76943604425739e-07,0.313546834088126,0
4.49702718836867e-07,0.227407033876659,0
2.55793616784701e-07,0.168704210935001,0
2.75034213654109e-07,0.170212410082677,0
4.86957074887549e-07,0.21735929974602,0
4.84905432572398e-07,0.214483221122238,0
4.7323765585303e-07,0.221423094255618,0
5.31748816005305e-07,0.22971292377239,0
5.27705134164325e-07,0.224748544852247,0
5.18559780148087e-07,0.219730590518027,0
7.18562736698565e-07,0.246375908517833,0
6.44222708655746e-07,0.230379776344097,0
6.4955021824917e-07,0.235780936471507,0
6.32893933006599e-07,0.239803302932717,0
5.51616140286807e-07,0.236218197142748,0
6.52869032194818e-07,0.260662948627581,0
7.01726173430211e-07,0.253192710871986,0
4.71551631744152e-07,0.209371923198731,0
8.96187376936335e-07,0.183090910079698,0
1.20077802595164e-05,0.479269293573959,0
1.68220835463411e-05,0.416246824125222,0
1.6843954667411e-05,0.398281041415712,0
1.63679976547071e-05,0.398055280579395,0
1.60033788157503e-05,0.395220022668456,0
1.66444827472191e-05,0.405439323422452,0
1.70416406267624e-05,0.410253579401799,0
1.80910083153211e-05,0.423436174534359,0
1.86255718526402e-05,0.429022146794012,0
1.89022992753969e-05,0.516837207168998,0
8.38901911405006e-06,0.492049586372086,0
9.89061423028311e-07,0.233659652573996,0
6.38483858168349e-07,0.229550712072244,0
6.64454344781016e-07,0.248500126672712,0
4.45430913443335e-07,0.222886557368161,0
4.39960683746166e-07,0.224282282228037,0
4.4848649534409e-07,0.225102179135161,0
6.3825279530016e-07,0.266420566460472,0
7.42661859021863e-07,0.29107808804013,0
7.58334943183608e-07,0.283433052262092,0
7.51736342872169e-07,0.289145392367184,0
7.29342676800021e-07,0.288278991526787,0
7.14786695875934e-07,0.291061479578047,0
4.42431505130321e-07,0.248511717638855,0
3.71915363436905e-07,0.217906875927913,0
3.69491571102952e-07,0.214228295791773,0
3.85583997629016e-07,0.228476127018911,0
2.06665731920008e-07,0.178304395748214,0
1.04222090588081e-07,0.130003211238359,0
1.19336214892712e-07,0.135620753133608,0
2.66115840123231e-07,0.180512267221823,0
2.69137293303526e-07,0.170202898571991,0
2.72301303292253e-07,0.171156365211183,0
3.04778944840962e-07,0.182916511849317,0
3.17257156199783e-07,0.196301694489327,0
3.13907152849312e-07,0.202195270158317,0
3.11328883149065e-07,0.197211382848781,0
3.27851756120745e-07,0.190840951495557,0
3.22108986545832e-07,0.192609245461249,0
2.90757756067634e-07,0.191366369141765,0
1.06164651634008e-07,0.126680817361139,0
1.66855640922301e-07,0.167201076035626,0
1.69082988994465e-07,0.162545001112161,0
1.64517252037157e-07,0.160571956198217,0
1.11817282196031e-07,0.134013319815507,0
1.14117296682571e-07,0.128694287872166,0
1.85959886205181e-07,0.159601131855552,0
1.76390780851168e-07,0.158100407643851,0
1.99657913553669e-07,0.169793541053937,0
2.07718660099576e-07,0.167668008400188,0
2.09723436659836e-07,0.171102628866025,0
1.76026305712086e-07,0.155675533997322,0
1.73507802096473e-07,0.161805332168252,0
1.67051595298152e-07,0.159038136564577,0
1.62589060978792e-07,0.164102493709339,0
1.46002339539647e-07,0.163815537831057,0
1.22232910453716e-07,0.154937130945587,0
1.31377447993388e-07,0.16947173476982,0
1.234739548341e-07,0.150084402519228,0
4.2461680293585e-07,0.252520444741539,0
7.99995986556532e-07,0.338564008220342,0
9.12978870698243e-07,0.366471964761144,0
9.51183442176484e-07,0.33567922535161,0
1.05861085646753e-06,0.339273386483447,0
1.1216689746161e-06,0.345588393887489,0
1.14878056887746e-06,0.347486320897362,0
1.02470078843136e-06,0.334257329534932,0
9.32984506110032e-07,0.307477590682937,0
9.64573657859579e-07,0.320014687436643,0
8.27124726825786e-07,0.29030398987076,0
6.47329238694223e-07,0.243932109279643,0
3.98483674191228e-07,0.188854318573359,0
2.60935949492947e-07,0.167708312516961,0
2.47171624247296e-07,0.171958027707657,0
2.45399380213045e-07,0.169130856331478,0
2.94934033702939e-07,0.182500408041504,0
3.87163389898368e-07,0.186005870506866,0
4.82779817480364e-07,0.199346908027255,0
4.7850229675087e-07,0.200355515707885,0
4.55518644712098e-07,0.205669254066577,0
3.47188533929633e-07,0.185845346128551,0
3.53273080595092e-07,0.1874283016204,0
4.56358635803242e-07,0.201971105101391,0
1.07466915427314e-06,0.191151449310126,0
1.59745841366957e-05,0.505258138790358,0
3.55522506193601e-05,0.785205574259762,0
7.01362397195071e-05,0.930344403402736,1
9.20668623356167e-05,0.649329300624185,1
9.27752594491821e-05,0.641722413246667,1
0.0001594046291149,0.276217794615472,1
0.000375608064047011,0.249017083127599,1
0.000343937635811111,0.172064781848713,1
0.000393338760600556,0.130053480924736,1
0.000487622588202436,0.117723745041506,1
0.000448048629412622,0.10859894358227,1
0.000422559312688943,0.101074633532164,1
0.000596056326190662,0.0949682527546406,1
0.00140832059214124,0.139244559761752,1
0.00181128493704579,0.0857400219553847,1
0.00167908863604967,0.0825416254558365,1
0.0017154407288314,0.0654990147445622,1
0.00152200824987352,0.0577806063420644,1
0.00152488584102594,0.0496199727052582,1
0.00153381855074225,0.0415268349435865,1
0.00145623705063957,0.028365004695178,1
0.00158308897135028,0.0244256811479473,1
0.00154422724988991,0.0241667069666624,1
0.00132660575453882,0.023442863950613,1
0.00105315110036846,0.0245694498062891,1
0.00105760437731322,0.0255525415267449,1
0.000939838975154101,0.0293201005036608,1
0.000733712361894174,0.0273217924630711,1
0.00070423965408199,0.0325833216711366,1
0.000770536393154247,0.0421902608468394,1
0.000644124711055907,0.072002478283806,1
0.000373087711928452,0.0670783138346808,1
0.000466189367029447,0.0559115768511366,1
0.000456071409798209,0.053353814309011,1
0.000587072619511332,0.0589121039831092,1
0.00064878649390747,0.0585618851895583,1
0.000656176928215825,0.0491359103537364,1
0.000809752842983041,0.0468643103579515,1
0.000793008100016123,0.0475215486034372,1
0.000764535485041851,0.046637449397051,1
0.000910809045686293,0.057162642395154,1
0.000606859834378081,0.0451482068911667,1
0.00054707920127446,0.0509080866670025,1
0.000574793035999229,0.0438935680221502,1
0.000665652648899302,0.0461433781931108,1
0.00218417647202688,0.0600248494493136,1
0.00544886237806514,0.0996287250539135,1
0.0109477343801659,0.150926508327715,1
0.014882536828693,0.187492556308254,1
0.0189244788025272,0.212518652731901,1
0.0233315632132486,0.254278826560213,1
0.0235107889156969,0.306214045931247,1
0.0178015642927463,0.175445485377002,1
0.0117669224792538,0.115300628795892,1
0.00631574842529391,0.0718949035345503,1
0.00344049510393633,0.0607876370982096,1
0.00272804502110901,0.0510760624369012,1
0.00330867974755469,0.0451879078879382,1
0.0034962792991458,0.034762046399594,1
0.0038904434803233,0.0306450900547824,1
0.00336162354097626,0.0245275985383477,1
0.00418547229454511,0.025992771660804,1
0.00548415567742624,0.0155080955656325,1
0.00652871616751388,0.0156350480719095,1
0.00618644421787028,0.0158848082253414,1
0.00637237045021777,0.0158905679136008,1
0.00636565927281104,0.0155459291625622,1
0.00588785366375671,0.0159514345110142,1
0.00609332598372272,0.017430943425368,1
0.00568513530063229,0.0139981671562581,1
0.00586581959600911,0.0131062416211584,1
0.00533911896594229,0.0123080645932545,1
0.00477974581214794,0.00958069639005912,1
0.00524760572827931,0.0102402116619067,1
0.00513348704423976,0.0106043497257886,1
0.00549423693566879,0.0114881909707336,1
0.00598429677304535,0.0145973601307649,1
0.00625721161879622,0.0118305185561474,1
0.00791369637757398,0.0155849715173356,1
0.0110850713126597,0.0240202607209396,1
0.0111038124500751,0.0183069623779764,1
0.0111356583561078,0.0118543416206036,1
0.0140022776794565,0.0198746783441919,1
0.0117886143144802,0.0145604663970443,1
0.0149470287404374,0.0136313479402454,1
0.0172364175029703,0.0126838500536387,1
0.0139013349227429,0.00778980900517798,1
0.0128655555393294,0.00723723231439519,1
0.0133977335870265,0.00775790686810973,1
0.0134984536853551,0.0082850454456044,1
0.0109684501893442,0.0093433770793491,1
0.00679589122088999,0.00728720733655096,1
0.0069407543599069,0.00958104525987909,1
0.00819542674742554,0.0153762507073963,1
0.00834988888724923,0.020334565788842,1
0.0246268657645836,0.0256237398802222,1
0.0314111930141152,0.020550938053334,1
0.0464184352547915,0.0210793435669998,1
0.0529929313595444,0.016316286579408,1
0.0485312111507649,0.0146052097588721,1
0.0431922959675758,0.0128636417511922,1
0.0323834044235668,0.00806905546812135,1
0.0279584485056002,0.0064210094439951,1
0.0333786009246687,0.0082703214295787,1
0.0328223761464798,0.00507107735684332,1
0.0308490414678053,0.0057201575217955,1
0.0335169798159794,0.00763208500365991,1
0.0266152293136925,0.00837640033251868,1
0.0203046994391943,0.00899469849309539,1
0.0197497949885263,0.00937215053751149,1
0.0156552619079578,0.00393890286405791,1
0.0383352004032172,0.00963733228130718,1
0.0796147020084947,0.0209357457790903,1
0.0963012077521297,0.0204153628546046,1
0.162468369951674,0.0268101350136652,1
0.164662357276009,0.0224351857470882,1
0.141020950089212,0.0199201806017371,1
0.141176101923284,0.0181828351665347,1
0.152703900283546,0.0211471863481262,1
0.202886698045007,0.0241548667178517,1
0.183698510274194,0.0167513683784094,1
0.189361675714959,0.0167335814927087,1
0.245865181805797,0.0204512795488117,1
0.229752572249438,0.0201696802796617,1
0.25956341153874,0.0228635087710643,1
0.256677898672664,0.0289772258233317,1
0.16769060719376,0.00970532653741148,1
0.171745841117383,0.00978812665036248,1
0.228946235575107,0.0118744607288785,1
0.252715134208623,0.015578114866983,1
0.324178656819507,0.0198837198957792,1
0.342230481217508,0.0253837680973442,1
0.304459713284396,0.0202271369952268,1
0.300321934330941,0.016655711234833,1
0.288748895106704,0.0206595929069009,1
0.14528321587375,0.00959711342430813,1
0.068928011477976,0.00727127075170097,1
0.0730594261701815,0.0100646205274605,1
0.0762004377711,0.0125867609396785,1
0.0887037689976939,0.0174345265537819,1
0.116861809031914,0.0246653910825193,1
0.134541548676821,0.0256563725590666,1
0.0980514171609796,0.0250678795169497,1
0.0465749833232308,0.0225974900381501,1
0.0484869914450499,0.0190050327501774,1
0.0879828220192762,0.0256579920428553,1
0.103372193590917,0.0274608385940471,1
0.110502959559041,0.0290269766207774,1
0.117348686791819,0.0271895101851917,1
0.114100800055728,0.022153105172499,1
0.120794264646086,0.0223181353597454,1
0.140944829556842,0.0271940977871592,1
0.166684388385244,0.0325669772319564,1
0.185795907854294,0.0382666238344311,1
0.199039304133416,0.0450910819655807,1
0.141744490170097,0.0445349588476471,1
0.101675594916657,0.0359271440292034,1
0.068507631380596,0.0253050697599322,1
0.0308478832665665,0.014126759140881,1
0.030453705269789,0.0318859032074053,1
0.0321076678976724,0.0382867799399671,1
0.0257511355121372,0.0265531515446274,1
0.0218650887907811,0.0226354903464152,1
0.0164511538325983,0.0210072563971808,1
0.0102500317973745,0.0123734345122851,1
0.0142288342967223,0.0189279549664351,1
0.0244273984060463,0.0273556686204622,1
0.0410117362822908,0.0485399171837758,1
0.0548013074262205,0.069496117711659,1
0.0519283497242561,0.035165402643791,1
0.0436419932142235,0.026159229122101,1
0.0444408057578416,0.0288747408974758,1
0.0436973301329558,0.0309803679174625,1
0.0284915060420955,0.0239841828666093,1
0.0149630236363882,0.0173676019345948,1
0.0138065643381029,0.0133709526298788,1
0.0180953951047828,0.00412035214424465,1
0.0366533636468271,0.0146946826674616,1
0.0623315279114276,0.0184433083571649,1
0.132368705111814,0.0379280108344557,1
0.172597985869798,0.0364675487591279,1
0.178284910101613,0.037693831641494,1
0.194452712070639,0.0403572272913751,1
0.250327831582291,0.0468093326370567,1
0.249288774318495,0.0468526676736005,1
0.20539098346536,0.0416039661111732,1
0.145980187583787,0.0363449182100172,1
0.139797786875481,0.0316791348160371,1
0.121980673977611,0.0117329532807735,1
0.164201589256388,0.0160593283818931,1
0.158754133917125,0.014228351931332,1
0.138164472805235,0.0121290057001278,1
0.137865976763835,0.00908674859780216,1
0.165599924653164,0.0114279928067598,1
0.175470582786771,0.0111340268944976,1
0.15390971905211,0.00934388446259303,1
0.147346426765023,0.00729132496256848,1
0.117363749387144,0.00332735392328151,1
0.108235926536427,0.00999613246902047,1
0.0891459163812264,0.00853505161294256,1
0.0893877687561737,0.00892175858932012,1
0.0915054130928924,0.0104536948209607,1
0.0713901915759273,0.010516343558002,1
0.0697049729309805,0.0122003006108424,1
0.0724714614071384,0.0130683258198507,1
0.0688311357378403,0.0103638954173601,1
0.088006318284043,0.0123785186845987,1
0.0912059209683719,0.00771736263433637,1
0.106104743058373,0.00932566671884231,1
0.0998635128868523,0.0063401234865909,1
0.0898739924154727,0.00825059033750875,1
0.0903384129906941,0.00944494095175066,1
0.121654101085065,0.0109319262510661,1
0.147437031253164,0.0128538891863319,1
0.165820641581004,0.0145121621412775,1
0.19179903102924,0.0176974729212387,1
0.112916144530727,0.0146019387028234,1
0.0555092024628714,0.0088860920752461,1
0.0611524017030631,0.0061786716913133,1
0.073266679941588,0.00694822646187675,1
0.0636342757708281,0.0056043451166322,1
0.0892956357834039,0.00522099148735516,1
0.117676108475114,0.00566608637887469,1
0.11144404763426,0.00498455157158967,1
0.113818968777048,0.00537578800289123,1
0.0898108288596633,0.00313961106191859,1
0.0872902920134445,0.00318984004497289,1
0.0715470643644452,0.00155626785751802,1
0.0792992068784515,0.00519894797743718,1
0.0834948495235291,0.00710581969220685,1
0.0838742205584052,0.00681678281493557,1
0.0747527002279594,0.011172501353162,1
0.0508686432664612,0.0169064389697188,1
0.0498623669419066,0.0283394944735144,1
0.0257906770933855,0.0296271388960397,1
0.0220989436737449,0.0247843272558359,1
0.0173811650356006,0.0139265684121533,1
0.0265740838515932,0.0158461311028074,1
0.0655493607551932,0.0391855400525598,1
0.0786250011685388,0.0346893427362607,1
0.0784783879111861,0.0340411431344436,1
0.0925438297805278,0.0341689746959717,1
0.117611009641556,0.0444675512027535,1
0.167871946281951,0.05031033355697,1
0.148987444704318,0.0362342203407387,1
0.116856195075071,0.0290638991652348,1
0.104002846962811,0.027363890798326,1
0.117800370939252,0.0313034945643058,1
0.127186199665033,0.0177056147681741,1
0.124245708102459,0.0166026216156448,1
0.0794225694405713,0.00965195652704925,1
0.0827406939787175,0.0120167070002929,1
0.0934115395840276,0.013823001816949,1
0.0864252895998618,0.0128936404197349,1
0.092787638224146,0.0155526257019551,1
0.0901438132768374,0.0166369720742505,1
0.0836726731944631,0.01447035696946,1
0.0716280842366267,0.00953075514677445,1
0.0693331329120011,0.0133877999546669,1
0.0902045613219981,0.012927386615101,1
0.0976410619039646,0.0102707347172,1
0.098367205533317,0.00950425619405177,1
0.123366711986623,0.0117319086385196,1
0.14046320208434,0.0139940568799416,1
0.146161252845823,0.0142661354109853,1
0.155516278061203,0.0151887657622021,1
0.159992095095675,0.0159636040855522,1
0.0932595340295028,0.00882489055848022,1
0.0445194300564256,0.00515766336859544,1
0.0706965827850831,0.0161029881921887,1
0.0697977667141601,0.0207860716358687,1
0.066206235319688,0.0234037589697278,1
0.0619413786263933,0.0207165328444569,1
0.0608133093884835,0.0201152646137864,1
0.0731229525735657,0.0223293730130063,1
0.0789064010399438,0.0262430507034784,1
0.0743445548442952,0.0215899847108965,1
0.0719959680647812,0.0240195683071653,1
0.0746528686386988,0.0222355498157689,1
0.0472813113101253,0.0180514628139308,1
0.0439125946523328,0.0171875090786065,1
0.0446263849398029,0.017489823277217,1
0.0474639818367769,0.0208591768767445,1
0.0607005319402967,0.0149205122747038,1
0.0574605821809064,0.00661674831425418,1
0.0670749686361662,0.00789567914864021,1
0.0685780447670806,0.00862138949466699,1
0.0712727701605709,0.00950254032972314,1
0.0605358276393569,0.00809666522340611,1
0.0582530451567507,0.00558430577987352,1
0.0612247486750667,0.00655292195183192,1
0.0634214130322301,0.00545555032327496,1
0.0651153609277913,0.00547550608224789,1
0.0447435861782099,0.00501229140847329,1
0.0356023737099605,0.0149608738356081,1
0.0282467527252559,0.0116722999069387,1
0.0273795232817002,0.0133385776140577,1
0.0249752274140029,0.0139445092918795,1
0.0212329208987834,0.0109214339598975,1
0.0273001338320633,0.0177841536366469,1
0.0307579278629256,0.0206877596137828,1
0.0399448376199203,0.02361014854297,1
0.0978013928892655,0.0402449560256151,1
0.113995746129017,0.0359345933161251,1
0.12002739291443,0.0358349441130111,1
0.127792449023148,0.0381798131011215,1
0.107524520860703,0.0312669749175793,1
0.0843111110623028,0.0244882186251697,1
0.0715677280799692,0.0152800107114972,1
0.0858494515716719,0.0168785948330718,1
0.12266983693549,0.0214016517678797,1
0.12173657161288,0.0165915182409246,1
0.105673615278085,0.0142977394019996,1
0.101714381569139,0.0145050311105148,1
0.105639003942898,0.013543087890165,1
0.121809582298194,0.0161535923724548,1
0.140296022566107,0.0172265147242215,1
0.150093751621396,0.00983010385486285,1
0.200044056958584,0.0156528121707278,1
0.197848276208853,0.0158219830003492,1
0.168153947590733,0.013979519077345,1
0.177744365024312,0.0215756400246818,1
0.19839554803132,0.0219538864827698,1
0.221152122143152,0.0210241317393246,1
0.200593846434224,0.0214804342003861,1
0.12906652123353,0.0123620441647362,1
0.0621574434654081,0.00381820528909383,1
0.0527544064056754,0.0117139257464256,1
0.0700843443396395,0.00654446477080541,1
0.108967729149346,0.0131323953416934,1
0.127701727146579,0.0167714593007641,1
0.131976593448868,0.0126470139238062,1
0.126520146122384,0.0119232250483281,1
0.126777201372965,0.0125380049883286,1
0.130303781025562,0.0128837045195451,1
0.270207127683322,0.0170134663858789,1
0.303829140650277,0.00924433292475375,1
0.254693461243221,0.00667370220871397,1
0.249741247637558,0.00878023623985423,1
0.261323694768548,0.00851787144463736,1
0.289115482070915,0.00784455819720588,1
0.278548996834664,0.00796107882726663,1
0.230415273795554,0.00622302864926829,1
0.225837001702142,0.00563410532766534,1
0.226107731832634,0.00386892402082286,1
0.235921470280742,0.00645031646599589,1
0.188811514579023,0.00532377734920156,1
0.18082082592505,0.00564518258305384,1
0.178555435688559,0.00488710869679086,1
0.261437474675721,0.0086812520848548,1
0.276501375200229,0.00954422851845606,1
0.269647686338875,0.0100773926469171,1
0.266336782960339,0.00974716958239615,1
0.294719226673345,0.00975604458703518,1
0.344473024119582,0.0154002508118531,1
0.170415659495295,0.0102013834447583,1
0.14039780613594,0.0133793700894643,1
0.125883562732955,0.011364576660855,1
0.0905437788525669,0.00896809060542045,1
0.0881009809141515,0.0132470180805773,1
0.0786904482278824,0.0207171040416512,1
0.0578443744656175,0.0149508682194938,1
0.0229835253116476,0.00426550913064281,1
0.0166956731439882,0.030896423577403,1
0.017696321982683,0.0317236961032113,1
0.0133892883531743,0.0211386658846652,1
0.0118815494086883,0.0164995827371732,1
0.0108398411346412,0.0129429401124644,1
0.0149252910884652,0.0120573770619979,1
0.0143322945759733,0.00690181848172172,1
0.0147759018596132,0.00905296703933225,1
0.0152123843401244,0.00767801295659403,1
0.0249301948253618,0.0120867650996095,1
0.0268784911715731,0.00782513276947714,1
0.0288774430637798,0.00739497087876287,1
0.0251538813599569,0.00666092432523433,1
0.0418730334301789,0.00939863964273142,1
0.071213477992901,0.017813416567755,1
0.0855423718979274,0.0218126501554605,1
0.0917355975487268,0.0291591680225484,1
0.0961006666787359,0.0309194835672153,1
0.117386009876907,0.0384760937918859,1
0.126810498591078,0.0415009620367271,1
0.107367174414044,0.0489832168147471,1
0.0643246926307978,0.0347192764109318,1
0.056333198471908,0.00473472222245169,1
0.10808299579687,0.00935047722022383,1
0.108443473601729,0.0102345102056339,1
0.120037107319464,0.00738251313975894,1
0.169612934175197,0.0104413855214745,1
0.170517285670492,0.00938389413383256,1
0.189847169903721,0.00882860777538261,1
0.211157704164788,0.00870811401398105,1
0.212478226840523,0.00868870832243702,1
0.211742660589224,0.00834213510176887,1
0.190722527253919,0.0159676417556491,1
0.0912125371590178,0.00821021688613726,1
0.0662650459737323,0.00243809236071874,1
0.0570528440988634,0.00555213812312568,1
0.0540050770831474,0.00638410051014643,1
0.104357250472194,0.0139661988721537,1
0.137396657467692,0.0314418299010037,1
0.139041538982752,0.0335884631984521,1
0.140473050120298,0.0292444088743033,1
0.138270548501257,0.0262892277630781,1
0.160391457333923,0.0239223778812695,1
0.176640205124299,0.0205780635995628,1
0.156119518346699,0.0193074927544007,1
0.166543892735162,0.0215282931200092,1
0.19789378553212,0.0266376359546766,1
0.171920273216838,0.0314677995270729,1
0.119151281658511,0.0206422993237893,1
0.0747966673628539,0.0139133266581727,1
0.0512623236620854,0.00659908526622013,1
0.0543917514520814,0.00782857388990454,1
0.0516827980187456,0.0110313365540666,1
0.0536532497743492,0.0152563004803556,1
0.056338556517725,0.0165874542248403,1
0.0763848832436702,0.0160115665974769,1
0.0757180404279846,0.0146020929242628,1
0.0664934947656422,0.00834042899808236,1
0.113855315911368,0.0116424188778203,1
0.0959720017017566,0.00696310698658678,1
0.0887572730271255,0.00679686028129074,1
0.101018970029553,0.00785213772200628,1
0.0966253151312055,0.00720795174043518,1
0.121618084911154,0.0104622173966678,1
0.140951460841037,0.0124138806875757,1
0.145634170249567,0.0153049757860349,1
0.140205564981859,0.0142884678552657,1
0.154867774807589,0.0247164675728697,1
0.0671154065837631,0.0123531110631968,1
0.0582259468338261,0.0159083283497417,1
0.0492334344919627,0.0145477948859159,1
0.0460768355134074,0.0142759915199344,1
0.0338986772409642,0.0106349401812255,1
0.0369699115246085,0.0123218674973737,1
0.0349032280748924,0.0104222954829204,1
0.0274391763627119,0.0102241661885781,1
0.0108051013414003,0.00445205743593016,1
0.0104066541619154,0.00595503019173355,1
0.0102085417575067,0.00774839550188834,1
0.00939542883568912,0.00804317758462044,1
0.0147499346625846,0.0196014421304545,1
0.0247130401390566,0.0312596999564012,1
0.0240691403828077,0.0260194245019997,1
0.0202884919404206,0.0220740268263979,1
0.0191686358613905,0.0187852602943335,1
0.0195783062467578,0.014426928948517,1
0.0243149170658232,0.0122098000431081,1
0.0254242141382485,0.00789892853021278,1
0.0285673971527157,0.0101450253862223,1
0.0291743717930068,0.0110127367595877,1
0.0290525154572217,0.0106257449989836,1
0.0235459103441281,0.00339826690133516,1
0.0364876030812578,0.00811902350640483,1
0.0367070374385561,0.00623571091786187,1
0.0370311976154157,0.00727662959411243,1
0.0366595888030043,0.00890984663681966,1
0.0284782870154211,0.00805611340402885,1
0.0304886220828243,0.00944247196163162,1
0.0375299223031643,0.00683629584547388,1
0.0416944760902221,0.00657349510130921,1
0.0449989714064799,0.00505086976322678,1
0.0444825017940937,0.00639741593324501,1
0.0650613771210532,0.00479020023371806,1
0.180608120915845,0.0204014470228433,1
0.294251762124886,0.0286668179166104,1
0.39978742080967,0.0259998085222795,1
0.358927733862684,0.0195404086014814,1
0.361942348550912,0.011596500443012,1
0.551974283610927,0.0207564219499182,1
0.561946458425324,0.0228235452114355,1
0.617040655132199,0.0251845027452936,1
0.482952672543411,0.0180892085948787,1
0.380973323934803,0.0150233430226815,1
0.379954160804623,0.0152616085345449,1
0.385736338809786,0.0156069932095791,1
0.460331289199409,0.0194591762876891,1
0.530159910994262,0.023629136498677,1
0.592951329894107,0.0538940943624376,1
0.603256469171971,0.0639174050225705,1
0.521546959585354,0.0558474108602253,1
0.293638871103526,0.0315153616084791,1
0.154551627217078,0.0183436211821145,1
0.159362460977528,0.0147117593448488,1
0.141588829366905,0.0134631620858384,1
0.0982302215355559,0.0102286439303955,1
0.0937746287769994,0.0104549760502399,1
0.0934073029937583,0.00915455771903008,1
0.13220878669996,0.0122300171662259,1
0.164540866027884,0.0111647181565999,1
0.173117084482839,0.00845684085267409,1
0.159173180075993,0.00840107353038432,1
0.106281077043808,0.00370679372905471,1
0.102771101036903,0.00549105278472108,1
0.105278431303143,0.0050522731498712,1
0.117352286134049,0.00455331614687173,1
0.123109640515265,0.00506387784559838,1
0.121788987618213,0.00587265275243235,1
0.104165943664502,0.00589978221127818,1
0.0785991727462359,0.00486789872269229,1
0.0695877938145162,0.00743060417378109,1
0.0507807111487411,0.00404760966074906,1
0.0467152551832907,0.00630166539206981,1
0.0459664029911437,0.00851957466172388,1
0.045615497663197,0.00875702355371228,1
0.0402940628938348,0.00582410034011575,1
0.0365406688326006,0.00319597865083906,1
0.0383977842817299,0.00243689255804279,1
0.0428900267606581,0.00239992220598208,1
0.0697781852260772,0.0038022761605797,1
0.1012153232351,0.00798184083321276,1
0.100923365807969,0.00740570652903764,1
0.100551154757871,0.00672467822513629,1
0.111405860350693,0.00743630143309013,1
0.13755753478751,0.0104280694849223,1
0.155840683378293,0.0140870733527555,1
0.160009307589575,0.0176553208106558,1
0.16873127358182,0.0202526242993731,1
0.179591597296986,0.0230101636190195,1
0.143810825834108,0.0519085323827393,1
0.0753388850518399,0.0354976483257655,1
0.0403339867363477,0.0144324411813365,1
0.0216983142795427,0.00918797590594177,1
0.024948353454103,0.0146607774270575,1
0.0344024267142697,0.0204573496748961,1
0.0387057904618921,0.0188113391605788,1
0.0409322263664354,0.0136042419049792,1
0.11179297156382,0.022327551487875,1
0.141859861856469,0.0201097621296394,1
0.151736736618973,0.0243650226382116,1
0.130565235306385,0.0200098937062124,1
0.102319123809491,0.0142513710056491,1
0.0998885125632325,0.00998802618959539,1
0.09360838412574,0.00822312134585416,1
0.0869933454473071,0.00626479219917832,1
0.0851903338628961,0,1
0.224828451340772,0.00792118879039282,1
0.255235873112543,0.00643124448225442,1
0.258112929370759,0.00578355898060977,1
0.284549733800508,0.00686254507319681,1
0.289526605104118,0.00542946251316322,1
0.287987310884801,0.00597923934017896,1
0.289407768906006,0.00425201737786714,1
0.351312208125325,0.00629859568103202,1
0.358313191590788,0.00623457562429826,1
0.357203844849644,0.0109352375573233,1
0.211404984605603,0.00676049003857266,1
0.180709024859548,0.00936602345831659,1
0.201299133087723,0.0114865678287913,1
0.201237719651719,0.0105676715829677,1
0.202843694600669,0.0151963187149962,1
0.123274756250667,0.00611811077252488,1
0.10032489293894,0.0111698643316698,1
0.0964648520955166,0.0110434859798418,1
0.0943976268678762,0.0136788177090703,1
0.0916395830279097,0.013696772402032,1
0.0956818897605269,0.010734433969288,1
0.0850552235121296,0.00778130538082322,1
0.0639701282580582,0.00548426636278264,1
0.0729236303398188,0.00813489895508825,1
0.0499410906680676,0.00571932142136758,1
0.0431508709762328,0.00824724125338413,1
0.0569407035148085,0.0119112461897396,1
0.0713088791647644,0.0151765775782179,1
0.0682697060574047,0.0141628744062899,1
0.0625674887049646,0.0142016051362737,1
0.0511120924644728,0.0203564808926835,1
0.0214398369707466,0.0131615176762128,1
0.0192324584863919,0.0114811077356072,1
0.0212081370210787,0.0101650225526376,1
0.0266569505429823,0.0140373494731642,1
0.0342183662829036,0.0221501593191105,1
0.0393827019733485,0.0235273274395759,1
0.0431499535921444,0.0269590438142376,1
0.0402135895983369,0.0306340620577748,1
0.0343695391864617,0.0275446663672632,1
0.0206306200004394,0.0248351452049819,1
0.0187321448344925,0.027411698277238,1
0.00773017675889349,0.0144290185336917,1
0.00499214087198915,0.0139880287342923,1
0.0120905685606638,0.029344594460252,1
0.0119793114525888,0.0184727351828487,1
0.0117680592288772,0.018393338623054,1
0.0118976384982747,0.0188070801095818,1
0.0119433426630591,0.015808370795064,1
0.01248556602868,0.0187634692923049,1
0.0112830402348653,0.0164103890490435,1
0.0111879413267091,0.017300152090268,1
0.0120788167324175,0.0156279135630403,1
0.0127670203687064,0.0203162214292434,1
0.00617577810766575,0.0088615601537334,1
0.00586882275358252,0.00998542925836804,1
0.00838428523435815,0.0163954525544055,1
0.00832879409251025,0.0164713894890138,1
0.00821512806242573,0.0198357429061107,1
0.0105866791568741,0.0263613530040273,1
0.0125625427874516,0.0378962572867953,1
0.0122107309908917,0.0364298258001638,1
0.0116258580840069,0.0399319815404828,1
0.0113349354364144,0.0414567209686669,1
0.00659428773365516,0.0321884373991959,1
0.00247006746014639,0.031612656411703,1
0.00236328474799904,0.0354362786189577,1
0.00256270865936888,0.0351928490900065,1
0.00234975029503545,0.0315537044969295,1
0.00250650956489726,0.0314049110670165,1
0.00241962148751936,0.0303039607447028,1
0.00186299743596024,0.0211928556188623,1
0.00192807481480005,0.0266138214742343,1
0.00148821452762517,0.027850015791239,1
0.0013394607615048,0.0423006112304029,1
0.00129092806699166,0.0392828338240213,1
0.00159840287522348,0.0481027958007922,1
0.00162333096930689,0.0673552331381506,1
0.00179997087871334,0.105257916550445,1
0.00151505661489264,0.178432760301876,1
0.000772420196464099,0.121111272458134,1
0.000583562347689579,0.221193898260179,1
0.00062835300958861,0.257066981892458,1
0.000514529491788696,0.427645462084101,1
0.00023650679738064,0.282340848723672,1
5.5206314324423e-05,0.231920526062981,1
4.51216686838982e-05,0.243194332299845,1
5.86799936260303e-05,0.222444153199698,1
0.000124120304300915,0.271932114795105,1
0.000132167820007365,0.172026246524117,1
0.000137117538708688,0.193068451552805,1
0.000123673881041853,0.212107318023095,1
0.000122757013129976,0.224618645635825,1
0.000120975704409593,0.225218411671549,1
0.000110504576483922,0.213730848509376,1
0.000109538120520987,0.216705629827473,1
0.00011192827777621,0.237715992029162,1
0.000109410891917016,0.292327415032172,1
2.7529602176387e-05,0.188593760013046,1
7.31317456011242e-06,0.476407699703315,1
7.6143931772395e-06,0.486912764349139,1
8.00799366838455e-06,0.529422150866513,1
6.40022181666429e-06,0.484708105449629,1
5.92211159196043e-06,0.500463859978977,1
9.48695785045537e-06,0.128828842280503,1
0.000131482512197906,0.227474580189442,1
0.000171376887744935,0.202440990548639,1
0.000172710950361172,0.194190449583835,1
0.000221063596441743,0.129051263356491,1
0.00032687184364423,0.143673932703252,1
0.000321570757845207,0.117948918341926,1
0.000298841554033135,0.110977940928677,1
0.000270448796345653,0.106618168105504,1
0.00026267881082172,0.105930923210777,1
0.000278126725606423,0.124912140276944,1
0.000281532282022447,0.16640077816346,1
0.000304797171863822,0.183126178013206,1
0.000316851214502047,0.175455428703956,1
0.000273420954426683,0.318811635287733,1
0.000206966926042838,0.254150519264334,1
0.000191649019638223,0.214464522636228,1
0.000195330703366727,0.24179286597679,1
0.000203436198053904,0.251778914128931,1
0.000208371900628608,0.264582933607046,1
0.000211198402882753,0.272770081284523,1
0.000206388830097857,0.267644973963477,1
