Activity,Complexity,Tag
0.000426440633973171,0.0360929212946338,1
0.000426698019141073,0.0257868412873397,1
0.000745547705015201,0.0437222395750731,1
0.00116703899358642,0.0613053713905769,1
0.00169685569667359,0.0628385549507887,1
0.00163607566790326,0.0531666433524933,1
0.00191037586174033,0.0593045505023028,1
0.00200406641721741,0.0551785365186122,1
0.00285679948516828,0.0623978943868665,1
0.00261952871996277,0.0553579594888471,1
0.00258719423555824,0.0531025937911482,1
0.00271056927271052,0.0633711497794648,1
0.00405275742749143,0.0126302292792941,1
0.0441371845141616,0.0352144481061966,1
0.059472507845812,0.0233698439786768,1
0.055019379719268,0.0220680044376894,1
0.0517373881520416,0.0214648772630866,1
0.047005758487514,0.0192524081478521,1
0.0499358633808909,0.019510380946442,1
0.047708255333874,0.0190049682674423,1
0.0472921856904833,0.0194090877120888,1
0.0397206642338898,0.0168128319982944,1
0.0395508714592046,0.0163323854667498,1
0.0678278110859302,0.0476628850666825,1
0.0829216804231905,0.0815560533365808,1
0.104184306688117,0.0658180314231117,1
0.0904555732318837,0.0306207118381648,1
0.0655391544567295,0.0215831606359293,1
0.0559286813779311,0.0193288689157154,1
0.0556230899507949,0.0173790965992135,1
0.0558363940878065,0.0136849237999301,1
0.0516071074059061,0.0105043742008344,1
0.0572694425550771,0.00945404291582719,1
0.059129090539301,0.00430004512941966,1
0.0690701901001651,0.00474894181985644,1
0.0459745139679836,0,1
0.0426893243885211,0.00249565872802337,1
0.0468412223832734,0.00419041852135428,1
0.0490837667089951,0.00459011795776382,1
0.0537476399602011,0.00627667220697773,1
0.0516979933749413,0.00630129988533371,1
0.0507891539796039,0.00601225909311768,1
0.0344903885499594,0.00624366553232116,1
0.0220243610290603,0.0115135814841223,1
0.0347285053985315,0.0277198684570237,1
0.0508509886234391,0.0419993181736617,1
0.0518775748844736,0.0316039079242301,1
0.0484497639605472,0.0310233591156901,1
0.0455747513609918,0.0292231859123889,1
0.0370223733789846,0.0216817875679248,1
0.0378252959985449,0.0273066646472641,1
0.0400248038431785,0.0201355210957957,1
0.048953626027209,0.0216988433102618,1
0.0502188065138888,0.0154497525814722,1
0.0545080201215666,0.0138352933585363,1
0.0426861703747303,0.00832143770517459,1
0.0430720469541132,0.0124999976385775,1
0.0447136205774257,0.0109193281847101,1
0.0459056847995272,0.011095807597656,1
0.0497984388906883,0.0125470298112834,1
0.0559698633775531,0.011954970898849,1
0.0541752952030887,0.015080522356461,1
0.0412321152071675,0.0108009924340439,1
0.0379614558147401,0.0186169436617427,1
0.0323222636399162,0.0221774626484312,1
0.0336487470388153,0.0256594223042389,1
0.0320399702100692,0.0115432957929812,1
0.0535434250368493,0.0246658392801201,1
0.0559551489094764,0.0176536720930872,1
0.0509720691966024,0.0178312231363454,1
0.044449884668996,0.021609335924633,1
0.0480098171279556,0.0239513002655898,1
0.0535053151851545,0.0274153606539265,1
0.0554056922215591,0.0253248131921111,1
0.0560591411527012,0.0256103324520954,1
0.0549944649776802,0.026472253659828,1
0.0543539719002809,0.0408332369369997,1
0.0253565940053693,0.0164293342275656,1
0.0182372374698842,0.0143522428942464,1
0.0179993060304447,0.00863544736907393,1
0.0206771011103239,0.0114918359920594,1
0.0352079245181654,0.0131577659457586,1
0.0631058494498707,0.0199851218496745,1
0.0597952896000804,0.0186381202071208,1
0.0609142591622601,0.0157182366428822,1
0.0685640639341376,0.0169453044292744,1
0.0603712750948892,0.0112860904243374,1
0.0921558717804759,0.0140495665576795,1
0.0706101567728679,0.00958594978020985,1
0.0615561227713812,0.00869906496562293,1
0.0595568145035148,0.00834065326727111,1
0.0558342703949677,0.0106542288149377,1
0.0482647444378121,0.00974826032921327,1
0.0456983428884446,0.00864625892643131,1
0.0434414976736597,0.00756526333458594,1
0.0786916026292226,0.0145351594247884,1
0.115092041072522,0.0219765801133531,1
0.102668587158102,0.0337547529022497,1
0.0983762356806145,0.033714248282698,1
0.129300953159907,0.0298672124752001,1
0.113043935106585,0.01790646521822,1
0.101596678803698,0.0156941624645034,1
0.0983064060110174,0.0164804871377496,1
0.107080794863072,0.0126009501604352,1
0.178812782137607,0.0189049025556745,1
0.181475966777134,0.016745516876126,1
0.179392532015373,0.018139793607339,1
0.190729900241984,0.0166490428295145,1
0.208328268721579,0.0190039024864387,1
0.214857364679903,0.0223373917627885,1
0.205838729818575,0.0260658854074491,1
0.210404260395688,0.0258484972505633,1
0.231236339715912,0.0252202550638831,1
0.209725948668739,0.0215015846858895,1
0.161402393833402,0.0162561180636541,1
0.163507542113101,0.00917887695442223,1
0.194204722906035,0.010913884522433,1
0.191623957813409,0.00945685233115693,1
0.185784333872238,0.0119119516500443,1
0.193493592519449,0.0164066698583636,1
0.214755122104183,0.00705776812845614,1
0.300110421275182,0.0138717961836614,1
0.343277266194463,0.0167768845695391,1
0.42220114302687,0.0314053526129054,1
0.344204372719289,0.0253033205122812,1
0.337989424487171,0.0363507359398562,1
0.368429333235152,0.0389722721691024,1
0.351717372627751,0.0335280430023979,1
0.284384294334154,0.0239820329046061,1
0.148787898853397,0.0095831069422051,1
0.0861947264149773,0.0153898402950253,1
0.0906708736893336,0.0144094447982474,1
0.0929300649593183,0.0170009677055037,1
0.0741467145249953,0.0132449528913828,1
0.0538963273032151,0.00830597577246761,1
0.052158140628736,0.00837759733924254,1
0.0338851195727211,0.00227842406156305,1
0.0277929972377431,0.0049593044256129,1
0.0319617407838635,0.00711747616107537,1
0.0271284697464197,0.00325343694675269,1
0.0293884915992632,0.00710591608429006,1
0.0295817266920422,0.00997479562657292,1
0.0374257489422338,0.0157503791911131,1
0.0306751214632039,0.0140813868389964,1
0.0304797287205829,0.0144092711683421,1
0.030149652185849,0.0124144564652879,1
0.0364065926265681,0.0152952131814866,1
0.0318721047969354,0.0166004564148437,1
0.0345720932187319,0.023459330001211,1
0.0213693988521449,0.0108115085242318,1
0.0213418724020825,0.00911269793932228,1
0.106138358566309,0.0189591022095534,1
0.180005560938955,0.0146547940437979,1
0.172852750244262,0.0143772654030482,1
0.185112995037893,0.0145585186547451,1
0.19480007554088,0.0158992970481988,1
0.200795102104758,0.0147080903682957,1
0.20398252061217,0.0135740353453426,1
0.21027919377138,0.0148494227066439,1
0.206156686373621,0.0108035852839597,1
0.23005943378787,0.00932021913925891,1
0.179300750715176,0.0130902078192982,1
0.118630487155122,0.0116718815213229,1
0.157548410451651,0.0145915517230109,1
0.161940686224291,0.0110988085138383,1
0.187338657604694,0.013249936818985,1
0.198424913914108,0.0112817551284021,1
0.200909079857531,0.0100483937628695,1
0.245846684527663,0.0134418112433347,1
0.244961954897384,0.0157098777178983,1
0.228189160399496,0.0165892322236793,1
0.273776120953679,0.0191222669616142,1
0.298886180439448,0.0220121159935565,1
0.284638929261143,0.0221356676093912,1
0.329889816336534,0.0339666875086326,1
0.355717557756533,0.0393672977414388,1
0.363509088097334,0.0491342509345477,1
0.378045119990571,0.0820704189311883,1
0.203517188724483,0.0594689588889959,1
0.0642760037205446,0.0395743052511035,1
0.0359601058579927,0.0436817355829105,1
0.0329900388435367,0.0334561844310388,1
0.0281742190301375,0.0257672779539569,1
0.0247223507227836,0.00570234399049103,1
0.0588975856294656,0.0273347013120092,1
0.0672328076786972,0.0324567044517185,1
0.0661522404848278,0.0301825334363577,1
0.0628083048867638,0.0290154317979752,1
0.0753958475841143,0.0327414744316674,1
0.0732489014509701,0.0243802090898607,1
0.077282453725306,0.0209014587646792,1
0.0677089483575051,0.0164956536588193,1
0.0608187457147615,0.0133397786573513,1
0.0519700519649215,0.0168589942067755,1
0.0475655615752719,0.0180008046137242,1
0.0509501385085159,0.00824011377400932,1
0.112581511065016,0.0186808944294725,1
0.122085831102426,0.0180333832538522,1
0.132574636342837,0.0188840491484055,1
0.161167726050825,0.0145603575234314,1
0.223953507238999,0.0225270579341308,1
0.187378477379168,0.0192780826588371,1
0.214959237556435,0.0236124996076594,1
0.211367970256676,0.0228711691495047,1
0.152595453411292,0.0153648852494684,1
0.11381092189151,0.0127199970682485,1
0.113487417499765,0.0145364347863831,1
0.104432835030067,0.0139988091183267,1
0.113459526375663,0.0174437004972677,1
0.106396013470438,0.0226624816304425,1
0.117771349425214,0.023141962717199,1
0.127719106735706,0.0242919002481316,1
0.170615631346342,0.0310119955551849,1
0.160340340580649,0.0180424317917235,1
0.171804208621189,0.0141571040005895,1
0.19515765077776,0.0153067502443775,1
0.244426913718626,0.0216649401151946,1
0.27932642085499,0.0252874348920143,1
0.216472577857103,0.0183427449995534,1
0.128717936860498,0.0118340707127267,1
0.128700029727874,0.0154446910585132,1
0.127313061101329,0.0142932212635489,1
0.161913077933634,0.0179775710265624,1
0.185072265239714,0.0319941821108559,1
0.162905405349123,0.0260104800708048,1
0.159769801828108,0.0290486379347653,1
0.135613112209414,0.0257875423581566,1
0.101936596950471,0.0194125906905721,1
0.0992718125205216,0.021287667719459,1
0.106820650028767,0.0235754484492053,1
0.137070585948141,0.0239155341188795,1
0.164725274592961,0.029313981029983,1
0.148159121748626,0.0270589661470607,1
0.154738706211415,0.0264960036615981,1
0.142919282054457,0.0328250182189301,1
0.162910308417364,0.0375890680954647,1
0.168840370113154,0.0406913117330415,1
0.17154893710082,0.0395719200834304,1
0.150277071286125,0.0338599262793365,1
0.105037859280609,0.0241690356443153,1
0.0803735143081235,0.0165638295479979,1
0.0600889724267351,0.0115205774120719,1
0.0420829637433622,0.0218915977546037,1
0.0586473956920638,0.0310526063573031,1
0.0719158696236174,0.0391755280508995,1
0.0844665021715812,0.0534650403250612,1
0.0809950573626408,0.0506098163850057,1
0.107038606322862,0.0327544356934905,1
0.109817014937825,0.0122063596791452,1
0.081116147949885,0.00522660942481011,1
0.0858009024048424,0.0067826079052704,1
0.0800762925506093,0.00664945712265309,1
0.0715182564469671,0.00486273059610916,1
0.0783356153621928,0.00646783028059598,1
0.0799569768262974,0.00709702313062368,1
0.076769804035739,0.00447277934672189,1
0.0712769541450031,0.00115320237071152,1
0.0865418953762826,0.00639715144078063,1
0.0784742573577466,0.0103732753702773,1
0.0474277964746631,0.00459154784469573,1
0.053518614476693,0.00519560803217227,1
0.0525792981312963,0.00380841846576022,1
0.0532028644605286,0.00287845367669699,1
0.0739340543058257,0.00499084521588612,1
0.0741562320501279,0.00428407204807561,1
0.0891288975954332,0.00262735664588514,1
0.228068494596368,0.0198010745898194,1
0.264467489983396,0.0225525890948699,1
0.252579851110584,0.0264770830711902,1
0.2815693130475,0.0284312133776262,1
0.284761543910894,0.0275419609184757,1
0.227385695482989,0.0191471950125431,1
0.199770192881902,0.0155146348969995,1
0.228255256976377,0.0179015993646646,1
0.164934090541855,0.00588078767018671,1
0.172602990861961,0.0133187834760529,1
0.156909440476537,0.00460509482442607,1
0.166533552296678,0.00559309435320641,1
0.190751617786059,0.00400984109619201,1
0.27892414050086,0.011161964473239,1
0.248319696097203,0.00719398871060776,1
0.246931047260659,0.00806907743296851,1
0.254438635306094,0.00933631277605697,1
0.413546478415332,0.00278659610414634,1
0.75824184181128,0.0144603314070294,1
0.754646425885711,0.0146386894719778,1
0.741847110969772,0.0165869205883814,1
0.742700209004529,0.0166603501771626,1
0.712473782394696,0.0189757352708288,1
0.571004349529292,0.0144402315663288,1
0.566011945361587,0.0161756720540631,1
0.54855960416152,0.015129183704006,1
0.480079237389389,0.0144554104718232,1
0.379979477095955,0.0403335044907872,1
0.137306019951874,0.0219914435389727,1
0.21133650290164,0.029643486640713,1
0.282438755923787,0.0392828628202894,1
0.361873920292557,0.0504968057112459,1
0.385824256871785,0.0433486584139413,1
0.407740366107745,0.039318454600413,1
0.492044689863352,0.0461165656415417,1
0.432694615189657,0.0586846250073835,1
0.297771940108283,0.0379862963691014,1
0.202519658589272,0.028020046743175,1
0.13315913900794,0.0231193738958675,1
0.14280887257321,0.0284955669399365,1
0.133370947891014,0.0274511686130883,1
0.117956888541281,0.0248234755621932,1
0.0800823756890929,0.0265639966045501,1
0.0335213012387555,0.0277152415637739,1
0.0462952578773141,0.0370331172820102,1
0.0770769578346047,0.0739057160284903,1
0.0887878113599383,0.0926302842281452,1
0.125810749002822,0.0665427331428058,1
0.13275029390417,0.0526563869922567,1
0.206579789833128,0.0460563330558425,1
0.200427445361794,0.0233569078906119,1
0.171572838154401,0.0190529459804825,1
0.137334979684262,0.014025619369137,1
0.176223676782657,0.0129904294154644,1
0.220167389310406,0.0075056193013174,1
0.235945872521284,0.00853936865139365,1
0.233289868649708,0.00838329515977855,1
0.239190553960294,0.00707080129286868,1
0.253337126591256,0.00840328510231867,1
0.249407286317172,0.00959530689838947,1
0.246155285232215,0.0136189656153816,1
0.211522007139432,0.0123705262987635,1
0.217021691828919,0.0114547359514952,1
0.196643637004016,0.0147832260703627,1
0.152639857790656,0.0220635764701156,1
0.129129322160079,0.0166572326503105,1
0.0977904975680573,0.0105550746804885,1
0.0886929767962736,0.0160271857310764,1
0.0917147066281316,0.0125367134682632,1
0.124039318836626,0.0183594032940882,1
0.147814502090266,0.0251911525438482,1
0.143948635622301,0.0220129524841897,1
0.201110580264837,0.0238942316786503,1
0.210794258632602,0.0140135766531211,1
0.201701795772222,0.0142936861757005,1
0.200122375100137,0.0145914373648642,1
0.214410037424316,0.0173949188051288,1
0.224787411050159,0.0185243612853451,1
0.221480570013375,0.0188349741505962,1
0.234635609807273,0.0156701160829598,1
0.261641848669743,0.0170403913037338,1
0.254567704696576,0.0149811328992591,1
0.21460218653228,0.0282975571953452,1
0.141014370205769,0.0343189310333687,1
0.215347098607036,0.0428345245317135,1
0.260264373878742,0.0376996388520374,1
0.295163616968102,0.0238345109423362,1
0.323697722831156,0.0243629761261709,1
0.367230131998419,0.0256037439018363,1
0.386646502261626,0.027787801468964,1
0.35331636296898,0.0237670254592889,1
0.379990380656536,0.0242785049878123,1
0.431039506597785,0.0275022297171712,1
0.539850897863597,0.0333869638816273,1
0.578127651101792,0.0364207521540778,1
0.652341930756501,0.0426549697608283,1
0.73742807164624,0.0919521745335774,1
0.739024676029652,0.0838906977355185,1
0.58188379020468,0.112700328216878,1
0.304179785497263,0.0691360247816123,1
0.134905284827355,0.0402956421424605,1
0.0833122934663106,0.0317777509702109,1
0.0584725243591253,0.0223704077820964,1
0.0575078498686487,0.0148588376988487,1
0.129780967168479,0.0234531699074265,1
0.144722140270675,0.0228858558951585,1
0.129788799720651,0.02118373402809,1
0.120950539591447,0.0188008347415374,1
0.0919159391230834,0.010588947040741,1
0.0722630981818937,0.00715962740498906,1
0.0631688071983306,0.00546662039245865,1
0.0644659545908906,0.00435501429133143,1
0.0737488971007851,0.00645315326435583,1
0.0793437507364249,0.0114684482045037,1
0.0950373647457616,0.0247224960498131,1
0.0989346974485576,0.0323244687435743,1
0.0969751115963583,0.0179555720087185,1
0.170216646640892,0.0334364156439353,1
0.210531090906051,0.0517726843930291,1
0.190655217985774,0.0341039166129437,1
0.14731066494574,0.0285102640195737,1
0.0983359729457409,0.0210103765591967,1
0.0949408831407736,0.0227477493396853,1
0.0966156338205955,0.0242891273753534,1
0.0982172589830466,0.0228666400802647,1
0.101276319960314,0.0265717531851838,1
0.0921595662485093,0.0339789195817263,1
0.0669341535562658,0.0256425336360104,1
0.0623875476744693,0.0213221781770178,1
0.158114656172918,0.054332141743647,1
0.255820030729908,0.0431827838918963,1
0.24437196445673,0.0274969888164589,1
0.222294714335775,0.0226933718464015,1
0.210743724940763,0.015082263489336,1
0.220807191682756,0.0143912984977332,1
0.221918255295066,0.0141516398387656,1
0.236062683700131,0.0158446712667536,1
0.2612775456917,0.00631697282438862,1
0.419908939047089,0.0142304185429933,1
0.409716143792808,0.0122229567553104,1
0.349267207112058,0.0119418663959958,1
0.34780574549107,0.0136608108031035,1
0.343864428235317,0.0149116443916989,1
0.361766965224511,0.0183635996154114,1
0.298565508519512,0.0125461692308906,1
0.295319117968423,0.0105457029677076,1
0.300363489789015,0.010785537114535,1
0.28701656327767,0.0164885401126445,1
0.198480927884015,0.00954313759877926,1
0.210435581105012,0.00798265287487529,1
0.249297705483373,0.00926169562929884,1
0.247787996066097,0.00835936394198102,1
0.255858229837275,0.0101153009528368,1
0.368541001022946,0.00887618449361993,1
0.617743933781643,0.0201780544790931,1
0.622004846607082,0.0187583131609238,1
0.535699272511648,0.017423039765813,1
0.558095612731903,0.0245257715851897,1
0.567522326215107,0.0243198611266589,1
0.60671153251452,0.0338873898279908,1
0.579256024221978,0.031809034567016,1
0.802235662392596,0.0425677651307474,1
1,0.0453576628769323,1
0.930058207308892,0.0915990946232244,1
0.541890031547841,0.0672860681518502,1
0.404181409409502,0.0674660438189271,1
0.344329552340523,0.0469191063814795,1
0.283523744778986,0.0426903138364727,1
0.168314745491442,0.0300968510067146,1
0.12573135990488,0.0231637979267658,1
0.0391656784377732,0.00570968453280966,1
0.0344172118794809,0.0315439844295374,1
0.0343015998428393,0.0327280458684287,1
0.0376911617208113,0.03852426823525,1
0.0331962959949483,0.0291068416877866,1
0.0322267578329848,0.0271647913359861,1
0.0308972034176295,0.0268365656961172,1
0.0265554024676686,0.021762939793075,1
0.0228049011067408,0.0101109542878091,1
0.0427186747804747,0.022186212711656,1
0.0863278193198794,0.0171595969871289,1
0.251060804969823,0.0442548982765189,1
0.273680568557186,0.034532812164361,1
0.253904643110476,0.0291152000914566,1
0.227970555301472,0.0296727732867528,1
0.224856524923897,0.0307157984388049,1
0.216536415388736,0.0283668874348907,1
0.163427840062216,0.0201116882124366,1
0.134877377702194,0.0168495142953053,1
0.131301110964299,0.0144103014274594,1
0.13550418449217,0.0246885085949923,1
0.0649428127339543,0.00886256880673278,1
0.0485460910923947,0.00531530478098534,1
0.0561718738929872,0.0044376846408882,1
0.0599582216646863,0.00261634854870642,1
0.0587991952779562,0.000627807019034665,1
0.0912505004682146,0.00632607332991274,1
0.0996909172650999,0.00537089086638363,1
0.0958495894057629,0.00541691480606201,1
0.0952733770099946,0.00595014561457489,1
0.0957369568077342,0.00832655501176198,1
0.0922946944651743,0.00791558311388871,1
0.0769289689268557,0.00701773346745394,1
0.074610177044246,0.00610800534698848,1
0.0844311393221843,0.0132177317893564,1
0.080653431329414,0.0123671040199874,1
0.181475791727801,0.0247245228690334,1
0.230737026515271,0.0386978767061536,1
0.223682103110303,0.0221682730260586,1
0.204161535069041,0.0193276998878632,1
0.202059820732415,0.018490082226678,1
0.249137806590338,0.0213641259187529,1
0.300113039800648,0.0270341530803075,1
0.287306488276656,0.0100786569284369,1
0.328645661265126,0.0129241336631175,1
0.335311457656606,0.0142317303137874,1
0.33245255545813,0.0152838988497636,1
0.423119245741396,0.0192930601385075,1
0.443979488987222,0.0143560353394119,1
0.492649042821698,0.011895103252421,1
0.726552638302663,0.0194473072580216,1
0.841784790918719,0.0228492749823051,1
0.850769885864357,0.0219970936938443,1
0.825503743073282,0.0269502454873717,1
0.843900391684361,0.0232140101715042,1
0.870154480644352,0.0228886425991469,1
0.879469634285949,0.0275571656621155,1
0.760736486397419,0.0289641009558353,1
0.709711240040453,0.0427191115281586,1
0.724908221714317,0.0657353482616366,1
0.537178672838771,0.0464980378063675,1
0.303410831595276,0.0242634003028282,1
0.139395302017851,0.00856231094820077,1
0.123009472529457,0.00935875461399045,1
0.265443853269311,0.0254844637621821,1
0.378590486608631,0.0425491822305145,1
0.431385138312935,0.0435875989749556,1
0.409720724616042,0.0392312478936062,1
0.341345331279878,0.0323242913775623,1
0.283087379905016,0.0287391571444049,1
0.247536754996887,0.0346622397061544,1
0.0838517631663633,0.0205749528318218,1
0.0643022546962832,0.0169407364035938,1
0.0470494987657194,0.0258243575879441,1
0.0381438593712579,0.0372745088894778,1
0.0277079385376794,0.0308201094824169,1
0.028329092849855,0.0134586382156547,1
0.0305470294279597,0.00766648865947464,1
0.0328111141794245,0.00513231443325974,1
0.0478725896603158,0.00912529990191876,1
0.0490783467541002,0.00729727468196153,1
0.0560906323019419,0.00886107978232598,1
0.0553278071127351,0.0110471233846739,1
0.055464836196506,0.0125617803690878,1
0.0584215194204355,0.0138036248648734,1
0.0391870287435698,0.00538665620233811,1
0.0507142458542779,0.00912849855733705,1
0.0588234250434716,0.0142151913853698,1
0.0631241169952513,0.0160621543174773,1
0.0830691164055698,0.0260779525899136,1
0.0746871515583181,0.0253605478314839,1
0.0755138040598674,0.023883351959504,1
0.0671401902289017,0.0201517425443101,1
0.0592881728758536,0.0178556613105194,1
0.0616561154200921,0.0198355634802652,1
0.0646162085168626,0.0192931646294219,1
0.073255859935909,0.0213171401751132,1
0.0734266846957581,0.0222113342142578,1
0.0620786969658667,0.025717717674736,1
0.0440446514230067,0.0163123845046512,1
0.0295974348791941,0.0100447497879969,1
0.0471863868751356,0.0174342652652926,1
0.0499187268906897,0.0163794391961712,1
0.129028943255044,0.0110236069157422,1
0.398749413570359,0.0371883666109954,1
0.445243893403476,0.0219981850147998,1
0.426337998107659,0.0222699559450758,1
0.454266747807284,0.0132468411028316,1
0.531401165563859,0.0140139033676559,1
0.506199137190639,0.0123829175596946,1
0.482561056934469,0.0083785223260377,1
0.399999041783199,0.00466051271141671,1
0.360098107097923,0.00178329961521201,1
0.413448465925534,0.00889741507300923,1
0.29549830972421,0.00201386863140317,1
0.266957260824739,0.00406194551818074,1
0.330644282588031,0.00718980932128166,1
0.361043363241982,0.0146385538695507,1
0.334258175372409,0.00930272314568023,1
0.357181128389082,0.00898164510999264,1
0.354032675329295,0.0137481273118844,1
0.333464300561433,0.0109511690713005,1
0.355135805951673,0.0155292378652228,1
0.383933502979701,0.0162975301972834,1
0.417078777932698,0.0171197616807706,1
0.407393696010838,0.0186230129999785,1
0.282288537601648,0.0128927616430235,1
0.208621515676829,0.00402637637917088,1
0.307165445045966,0.0229364390574779,1
0.404656852873038,0.0342181978328332,1
0.421827875105438,0.0356697061133364,1
0.410065638810283,0.0407865663898423,1
0.39322187427785,0.0344684508602923,1
0.328203942516737,0.0256265771468397,1
0.260173783118998,0.014419785476925,1
0.32482603515498,0.0169494030566558,1
0.300028486417907,0.0154330992290347,1
0.327468488361453,0.0234284406914855,1
0.27471732343839,0.0169604298289963,1
0.219106062734948,0.00969806889624966,1
0.260424454628445,0.0122296116382215,1
0.290868383905083,0.0152443077575715,1
0.331639417276682,0.0179544310332496,1
0.314085542558146,0.0254152534490238,1
0.228254796747445,0.0257263716706967,1
0.26261904695576,0.0367217698559946,1
0.204613104533062,0.0290957013655254,1
0.170772147732037,0.0248226675950458,1
0.0803623301451708,0.0104818731360247,1
0.0406064492690101,0.0118299117545505,1
0.039838881396678,0.011752072204226,1
0.0299215792909194,0.0108404199892679,1
0.0178615558483523,0.0174220742626357,1
0.0178654431100157,0.0160412772761814,1
0.0162086738637603,0.0144535834731819,1
0.0124070323997222,0.0106835757713374,1
0.011443969057672,0.0173283991269973,1
0.0121570158635369,0.0150336911890526,1
0.0451803121075138,0.0362276512114999,1
0.0906205649678716,0.042494334598707,1
0.0912419511622149,0.0364257660641529,1
0.143790293567089,0.0391038932039256,1
0.157577726693624,0.0241843105353423,1
0.148715624604684,0.0238882504668238,1
0.127352965919925,0.017752618995751,1
0.113355065646988,0.0102060257742447,1
0.127685172166182,0.0116334541500897,1
0.106297110116295,0.00649205642703673,1
0.106922769391167,0.00625367892648063,1
0.165180528546665,0.0143378597817466,1
0.210279294827183,0.02049956801802,1
0.256706912531489,0.022098139385471,1
0.252330528358401,0.0183944448880291,1
0.244554180514515,0.0176373803670826,1
0.253140207574529,0.015467099438521,1
0.328714343385498,0.0291282872158781,1
0.389818602241798,0.0361708049112755,1
0.406693952418032,0.0318779113638986,1
0.40413903606404,0.0379310624015354,1
0.34652638880648,0.0352523370933224,1
0.23395545590115,0.0246397054617712,1
0.127774278431586,0.0131034256140954,1
0.126059620679078,0.0162556905487334,1
0.12870417924856,0.0137419717519057,1
0.125528690942101,0.0207372536165661,1
0.102746007069018,0.0109408997468904,1
0.0862981760156979,0.00247355666500877,1
0.0837030135021569,0.00228557103583601,1
0.100845097601514,0.00441020500229262,1
0.112972467877165,0.00605111621558778,1
0.13988507082696,0.00948042069529771,1
0.133133703194383,0.00981127298292599,1
0.113196145826837,0.0108876981047205,1
0.119414288922709,0.0131177444052669,1
0.0997787153870894,0.0107901384147919,1
0.108411081601005,0.0150348786657882,1
0.0836932823139525,0.0355999844223814,1
0.0175689502386584,0.027059070869497,1
0.0138348520551968,0.0278919561745546,1
0.00956323876868823,0.0209288730539291,1
0.00946569187402005,0.027546065446596,1
0.00937565144997724,0.0397976961357667,1
0.00871596853516077,0.0352520871389262,1
0.00936514766591288,0.0330025043900944,1
0.0114680768385521,0.039977737705765,1
0.0130601621725349,0.0104842508999804,1
0.0204517601296968,0.0197997030007231,1
0.0203455262465625,0.0175840975062157,1
0.021798165421737,0.0162913562952563,1
0.0210270379696037,0.0143268423876253,1
0.0207920572337615,0.0155000515361788,1
0.0213664786781435,0.0130572880575592,1
0.0223020782088759,0.00672252067042469,1
0.0275642714354916,0.00716375798453777,1
0.0237075731171357,0.00376987779051175,1
0.0221496392458326,0.00876432775742455,1
0.0178906090675993,0.00527763163259411,1
0.0235040613242508,0.00269820379152806,1
0.0436196198837948,0.01074884145361,1
0.0417259867479857,0.00981345744025265,1
0.0428207173695959,0.00751767919187561,1
0.0450832044493702,0.00637527443825534,1
0.0488052248673095,0.0104832600103605,1
0.0540183866529558,0.0138057155690795,1
0.0663090395124393,0.0188369565623159,1
0.0802559145632594,0.023887231401068,1
0.0877525085766327,0.0257737954885918,1
0.0831004627979954,0.0403664622872886,1
0.0526753217815612,0.0320260939053042,1
0.0528638374690963,0.0313984816146372,1
0.0426754601112274,0.0485331601836134,1
0.00828829445626011,0.0366746848149075,1
0.0064464651828643,0.0889319092885129,1
0.00498936658114464,0.0896488408724897,1
0.00515484969289895,0.110969917165554,1
0.0054485688759834,0.126499465821961,1
0.00444558634453024,0.218587126207345,1
0.00112118084776655,0.127753919643587,1
8.48856780428673e-05,0.408091692250297,0
4.09261661626357e-05,0.990771999532217,0
1.60546451541513e-05,0.857931187497566,0
1.48618462670219e-05,1,0
7.79529748676741e-06,0.738424975281692,0
6.24402672613985e-06,0.763363485553702,0
4.83444251912928e-06,0.720841261120255,0
4.01497704596218e-06,0.646340943525078,0
3.80548657494975e-06,0.639981269095912,0
4.42074198928528e-06,0.70471693888114,0
3.58657415413639e-06,0.61579688773716,0
2.77104774484744e-06,0.517369412465383,0
2.14540323864824e-06,0.455432631637619,0
2.20324715400183e-06,0.486783684736669,0
1.92954643308891e-06,0.489387231253545,0
1.09515503988956e-06,0.371839727129441,0
6.22186518644157e-07,0.275444202927798,0
6.2952578941494e-07,0.294307283592901,0
6.3701651311983e-07,0.288937635806407,0
5.69843354543483e-07,0.284884039430549,0
3.89193803426411e-07,0.262387829974197,0
1.24410988580344e-06,0.396067185025557,0
2.7505146863259e-06,0.534268887323138,0
2.67710250379871e-06,0.501038017758054,0
2.95968374234428e-06,0.506157095112489,0
3.06208218164197e-06,0.47696603349467,0
8.57488593351542e-06,0.625041588448919,0
1.51040949937036e-05,0.755565719806122,0
1.50775974900895e-05,0.749323139384875,0
1.5592216372959e-05,0.725455012303386,0
1.93789041140047e-05,0.779340393062985,0
1.93755731151478e-05,0.619800285499955,0
2.29914064954237e-05,0.678188177858413,0
2.30299111103985e-05,0.547179697372731,0
1.94173739640126e-05,0.43223955109977,0
1.83481447371719e-05,0.413239488450268,0
1.78916401638422e-05,0.463814383342972,0
1.60746871575166e-05,0.439196735896604,0
2.7376938816033e-05,0.503617594619563,0
3.47927639751158e-05,0.461274200915156,0
3.2079653013149e-05,0.442879242398091,0
3.11476274296451e-05,0.498488161919823,0
2.59701762045461e-05,0.451914174612645,0
2.61614841150708e-05,0.554912403666817,0
2.70480253727173e-05,0.622985134790049,0
2.54889775602555e-05,0.613694675028455,0
2.41749467959064e-05,0.59509851258926,0
2.45046474403918e-05,0.617851820731147,0
1.55667188449874e-05,0.681683131145622,0
5.79520150864975e-06,0.635371158702612,0
6.04087394076647e-06,0.66499258548127,0
7.23760561476611e-06,0.726416179890106,0
7.94895091451487e-06,0.741790233697365,0
8.00185933122404e-06,0.774988574809081,0
7.93937767272877e-06,0.900136390623289,0
5.41600520836365e-06,0.75850746597064,0
2.55616886492854e-06,0.520524453572096,0
8.59408488643568e-07,0.313366485624452,0
6.73288444670616e-07,0.298699033298524,0
6.68954412141764e-07,0.294044694422122,0
1.12503214893454e-06,0.398761519331406,0
1.07198467235814e-06,0.395825042230969,0
8.01111663027937e-07,0.350366997514971,0
8.21441282114083e-07,0.35334205866971,0
8.86583909110514e-07,0.357104417418418,0
8.86786543801313e-07,0.355962598478846,0
1.68949820004706e-06,0.433875868525953,0
3.72807271941435e-06,0.59226777213923,0
3.6068041458408e-06,0.50345865574544,0
3.855992346175e-06,0.519678921516486,0
3.87945934256674e-06,0.505113282515287,0
4.14465037215964e-06,0.517723220596261,0
4.05982707212417e-06,0.49491266680698,0
3.85771305108312e-06,0.481149126979926,0
4.21019247437653e-06,0.498575482615349,0
4.1079900708639e-06,0.481040079168463,0
3.9676707783258e-06,0.497119395528344,0
1.78006979077505e-06,0.359517479661166,0
1.57822648581814e-06,0.382879245214455,0
1.17156135518318e-06,0.342501744595984,0
1.28118366487572e-06,0.370253268140896,0
9.00245253475075e-07,0.32901885955772,0
8.25825691655024e-07,0.337052825048452,0
1.00091606706107e-06,0.367159590000772,0
1.02219222674816e-06,0.372021328509564,0
6.3525814616433e-07,0.303125008033064,0
6.49988191360427e-07,0.311175286192787,0
7.02704274109695e-07,0.307814610843437,0
8.06344273379449e-07,0.332345846321671,0
6.26113833251128e-07,0.280013072052164,0
7.48398799257075e-07,0.279907924817776,0
1.2360817536533e-06,0.325710258464846,0
1.43079389479352e-06,0.315792321492738,0
1.70874962231537e-06,0.340072427861429,0
1.68971821722127e-06,0.338141104903948,0
1.66905060540225e-06,0.337251772832046,0
1.64577803530638e-06,0.336601874541564,0
2.12711300333263e-06,0.382812459846508,0
2.06832801964139e-06,0.356817864245517,0
2.89453435549319e-06,0.431630206225076,0
3.31306077776683e-06,0.476575390130441,0
2.82810478092915e-06,0.479553779169545,0
2.65864761773752e-06,0.499884654540466,0
2.96095539976445e-06,0.502627384639046,0
2.9773173060646e-06,0.475351111701091,0
2.9894232400623e-06,0.470103583065482,0
3.035697503221e-06,0.463511720851999,0
2.18004330909497e-06,0.396729958649002,0
1.93626379723122e-06,0.394087452161928,0
1.69659797882427e-06,0.376894057839536,0
1.46401117678381e-06,0.355901266607826,0
1.53042916302558e-06,0.35518717736424,0
1.60556526943931e-06,0.368013314182848,0
9.95796603800609e-07,0.311695725650557,0
8.78273794451806e-07,0.326921822368375,0
7.83866308103643e-07,0.331552392896254,0
7.87703330366261e-07,0.3606247491015,0
8.67275671873302e-07,0.394172539847639,0
6.82417628385299e-07,0.359652678162941,0
5.20960753180584e-07,0.310370225984969,0
5.27847274638248e-07,0.309296542314989,0
5.15642196105572e-07,0.297746349384873,0
4.01264167712701e-07,0.263601001731846,0
5.08386618773405e-07,0.299778373219936,0
5.30725041335213e-07,0.314646653819613,0
5.9336201553867e-07,0.338487170321732,0
5.98366078423197e-07,0.327879753151407,0
5.55300010095064e-07,0.328156944505921,0
5.76904505579793e-07,0.329332859035756,0
5.73579944679765e-07,0.318765000364576,0
5.61989047227382e-07,0.329984951056152,0
5.59237625432942e-07,0.335701378437899,0
5.56674031028621e-07,0.328583573043364,0
5.59619879118919e-07,0.327808293137934,0
4.93436395454185e-07,0.294863505466369,0
4.33284794479727e-07,0.264772237396645,0
4.26642593483248e-07,0.273053002025596,0
4.20396648728824e-07,0.273522333383006,0
3.15550659198427e-07,0.254970681249754,0
3.084365559673e-07,0.265629963372643,0
2.80507411706065e-07,0.256472266503138,0
1.73928324200671e-07,0.231125268691312,0
1.55399401636093e-07,0.250700933716702,0
7.96800163347945e-08,0.190750621858775,0
6.15022843145544e-08,0.193190124814023,0
4.60713065700642e-08,0.198671665334139,0
6.63423402491813e-08,0.199824921210762,0
7.17566619318371e-08,0.191136708174051,0
7.31807379796416e-08,0.187834343558041,0
6.96342285183659e-08,0.177875761982108,0
1.49312313466115e-07,0.216911509223708,0
1.67259405683404e-07,0.208363903045279,0
4.76100265338779e-07,0.3090211284297,0
5.21441507605855e-07,0.309958254535259,0
5.17122926173362e-07,0.308771608372084,0
5.70859264129123e-07,0.319311567099233,0
5.70769132733692e-07,0.324721685262607,0
6.3854037749829e-07,0.347303735865202,0
6.45309084346212e-07,0.342457483752831,0
6.70083146920613e-07,0.354964730844139,0
6.19744118776907e-07,0.348849336032834,0
6.22508416484981e-07,0.362023901378288,0
2.16520558907112e-07,0.246563866594269,0
1.09213982281457e-07,0.209051828327727,0
1.13527574297416e-07,0.208639919203815,0
1.02583047709407e-07,0.205164510606585,0
2.46457058103724e-07,0.258425416160392,0
2.55124640314666e-07,0.240196098924402,0
2.80785692389457e-07,0.240613850253267,0
4.86281250248354e-07,0.300218861630384,0
6.46197039540124e-07,0.313883821596089,0
6.86854024427532e-07,0.324381819189598,0
6.90432240826129e-07,0.322597826297802,0
6.47342191108857e-07,0.320562271605712,0
5.98705519696346e-07,0.311384442021612,0
5.52421760551337e-07,0.304890258480641,0
5.32960460890813e-07,0.315978159769643,0
5.57746433685325e-07,0.353212048884346,0
5.23080772360249e-07,0.337930675834975,0
6.9217594533498e-06,0.417779642793236,0
0.000259893647601662,0.130028251654021,0
0.00100094488721855,0.244916245636907,0
0.00134946912132242,0.28367315651112,0
0.00167177671620852,0.282764946363681,0
0.00158865361956864,0.219926410568795,0
0.00150748470903207,0.204699210737836,0
0.00148269862421711,0.215387437855922,0
0.00139842229315371,0.190494002071666,0
0.00123581233208133,0.150197701910631,0
0.00117043724414492,0.122635311595066,0
0.00130950430257856,0.216976339328712,0
0.00111868452115877,0.217343712437926,0
0.000936891024785127,0.203598167684815,0
0.000483747334020214,0.151558901181333,0
0.000337241969726082,0.146123046560027,0
0.000339484472321771,0.163241591257256,0
0.000345326847315198,0.160355108770044,0
0.000334673493580055,0.22456025192677,0
5.08974758318374e-05,0.176410274780522,0
1.43730926804071e-06,0.414689110670023,0
8.9802335362879e-07,0.336651276403147,0
8.48480700743282e-07,0.345933093421654,0
9.51781741586646e-07,0.368558179353713,0
9.83553702271635e-07,0.363867596269856,0
9.74230736056776e-07,0.363699850507324,0
9.71641389825191e-07,0.377556988649867,0
9.7025465392692e-07,0.396406558137286,0
5.90257632761767e-07,0.331528765823682,0
5.50534634459508e-07,0.316670768549666,0
4.63664868900995e-07,0.31178181257628,0
3.426119668808e-07,0.287094937614133,0
3.38244296027583e-07,0.29259168005033,0
1.88207712419614e-07,0.23068102798274,0
2.03324839769302e-07,0.243059643282837,0
2.00118093479015e-07,0.238864890337508,0
2.0478561217096e-07,0.243731249787476,0
2.46992213264093e-07,0.271560176074279,0
1.69041914976966e-07,0.239407180400001,0
1.24213134072482e-07,0.227699066348173,0
1.29056569934437e-07,0.220577191750697,0
8.09392806880967e-08,0.186504691388832,0
4.11931057412997e-08,0.154330536820278,0
3.70959900232949e-08,0.153716780786945,0
2.63317262261473e-08,0.156484633108688,0
0,0.137208894898683,0
2.65836112865917e-08,0.159084432161323,0
2.23916966544641e-08,0.162267768301393,0
1.91915492699144e-08,0.156717616840083,0
3.78427930140059e-08,0.166684763413757,0
3.28791283085032e-08,0.17388604298232,0
2.83970227728725e-08,0.173217963055546,0
3.96880723865281e-08,0.192998790795882,0
2.21200148768087e-08,0.19263255069746,0
1.18205715618106e-08,0.206386339955648,0
1.48729678374225e-08,0.215931486985834,0
1.55251328629312e-08,0.194995558685707,0
7.29682854046977e-08,0.205293441342065,0
2.17681483470042e-07,0.266628986093372,0
1.55049820580958e-07,0.235216285318582,0
1.33232711572364e-07,0.217137177223116,0
1.16996989225814e-07,0.210695010029144,0
1.30729633962118e-07,0.212610030948099,0
1.50836177844574e-07,0.212514662114446,0
1.58370518706896e-07,0.204047309355216,0
1.64602460905246e-07,0.204730863753877,0
1.33285019971498e-07,0.194334194098059,0
9.92262970252963e-08,0.193054828959777,0
1.08416480380816e-07,0.208671949769899,0
1.23940969448065e-07,0.21795603292204,0
1.46927050465611e-07,0.237615882184884,0
1.45483016751675e-07,0.231373499512833,0
1.82444453477506e-07,0.249288376664572,0
1.6068947075219e-07,0.23822336003388,0
1.64158080935988e-07,0.250453253206001,0
1.40466399851356e-07,0.241237483336371,0
1.66246554127252e-07,0.234608566704824,0
5.11701683687129e-07,0.359026124379492,0
5.06113537170428e-07,0.351735971661443,0
4.78523673233421e-07,0.349306079077606,0
5.79587363134139e-07,0.352534259215925,0
5.53830868349544e-07,0.324674250239665,0
5.66781623230487e-07,0.328177942326823,0
5.47243711883846e-07,0.329732416304045,0
4.31310112175193e-07,0.295321155680738,0
3.04600338449282e-07,0.240564198082008,0
6.51873386065211e-07,0.339354578464715,0
9.02389575941724e-07,0.372623168384606,0
8.84166456325927e-07,0.37804848328635,0
1.01789553436884e-06,0.386504986034241,0
