Activity,Complexity,Tag
8.52409618613252e-07,0.28391075371642,0
2.93133043807957e-07,0.210886088396465,0
2.3389381975084e-07,0.189912456704049,0
9.64530891543629e-08,0.157247319953392,0
1.39668710622234e-07,0.166067664281243,0
1.56289499473254e-07,0.154756700676867,0
1.96742221825526e-07,0.158275658440748,0
2.31826329227959e-07,0.163471601367411,0
3.00876765641124e-07,0.176285702459548,0
3.24692994590166e-07,0.182433913505758,0
2.86323191794527e-07,0.180170175971076,0
2.50823189276915e-07,0.172625037495506,0
1.08105866896196e-07,0.142576290176777,0
1.15039977735029e-07,0.140995286042932,0
1.21415612655702e-07,0.14604448237438,0
6.11371329679468e-08,0.141848072578365,0
0,0.12716628739141,0
5.95892702603848e-08,0.149532984975263,0
3.80023989293998e-08,0.141825272628247,0
1.10003500288566e-07,0.169177289763802,0
7.45740304966831e-08,0.154535321523291,0
4.11811931601747e-08,0.148076528088768,0
7.225196091688e-08,0.159489850933729,0
5.24421836520706e-08,0.163011763946088,0
8.94973501164295e-08,0.1743246410932,0
1.1529896508731e-07,0.17437329844418,0
1.19621298685784e-07,0.177516536513625,0
1.50234843558332e-07,0.178014841506611,0
2.4850883421399e-07,0.19511868880355,0
4.57932619710512e-07,0.228228814377791,0
5.14139487598276e-07,0.223466627866627,0
4.9350315495385e-07,0.2129801692871,0
3.67508563254302e-07,0.194437108281122,0
4.31291775510862e-07,0.195710712490013,0
7.10310972934176e-07,0.242341582135033,0
7.47349332772484e-07,0.254566392455034,0
7.06888895903334e-07,0.24793849648553,0
7.60001140449814e-07,0.261023407019537,0
7.08740517712905e-07,0.263455260016349,0
3.33410398660522e-07,0.208510201076004,0
2.29608267866759e-07,0.198167643726075,0
1.76984242031171e-07,0.182640791908264,0
1.75736281167181e-07,0.175266326406841,0
2.46718101984051e-07,0.200942148419148,0
1.3012736859763e-07,0.161675907130765,0
1.16498159183903e-07,0.151503603553238,0
1.75568214906659e-07,0.166289932372687,0
1.05762720154214e-07,0.148443785426043,0
8.49081768895688e-08,0.140291546439717,0
1.16445121880378e-07,0.148326264579842,0
1.46564799913604e-07,0.150212179443471,0
1.99438996510755e-07,0.164994981962301,0
1.75686687844404e-07,0.158257262786092,0
1.34452595139934e-07,0.146428290190083,0
1.26783263290931e-07,0.150398245124165,0
1.08152016238225e-07,0.151231153309122,0
1.21415612655702e-07,0.159674000637311,0
2.66665500719566e-07,0.199494460661678,0
2.8538711782711e-07,0.198244499600387,0
3.00278890583202e-07,0.2025320342101,0
2.52765732178244e-07,0.206415829156492,0
1.67580934754964e-07,0.185599551238028,0
1.42325259612322e-07,0.182437283498499,0
1.52554571231225e-07,0.198979961349067,0
1.5146792642549e-07,0.196099917614743,0
3.21786412597744e-07,0.23099936693052,0
5.76844320602895e-07,0.283250001976802,0
4.70424626681117e-07,0.234368209500726,0
1.26399672715175e-06,0.348023231325486,0
1.28439060355148e-06,0.332753018436959,0
1.34313596076928e-06,0.329573120756816,0
1.44037413977505e-06,0.329078011652487,0
1.5801975540125e-06,0.348684061596499,0
1.75812186502876e-06,0.357305293376364,0
1.74567834930709e-06,0.355012996349515,0
1.67299781942588e-06,0.352058329344273,0
1.44794001444237e-06,0.331140300153761,0
1.3543109895017e-06,0.347259790129714,0
7.92292592742983e-07,0.274957598689429,0
7.43744449243516e-07,0.262016723004362,0
9.4671889863135e-07,0.266265881998983,0
1.88724524435862e-06,0.378111305725284,0
1.99789690182403e-06,0.355874840416158,0
1.56616498557352e-06,0.311423977401362,0
1.50597508507062e-06,0.311772516842551,0
1.6757921276459e-06,0.328812812551787,0
1.678942956753e-06,0.324314574622951,0
1.62974142122595e-06,0.3292407017221,0
1.73954599718649e-06,0.339796535082012,0
1.65420071026033e-06,0.335883645405714,0
1.5081318435745e-06,0.363313376053253,0
6.5087599301132e-07,0.259486950389783,0
1.34293207710898e-07,0.170960054453713,0
1.58990682453839e-07,0.16901126832343,0
5.38108491533317e-07,0.236304539222837,0
4.7934164387565e-07,0.219263411499919,0
4.77561243587956e-07,0.222287187414463,0
4.68970991286832e-07,0.215671916622866,0
4.75627517277343e-07,0.219671108431103,0
7.63857985610334e-07,0.282916204895207,0
7.98236490237036e-07,0.2736424664731,0
8.08321567942196e-07,0.270901665505428,0
7.91943648613554e-07,0.266192676581276,0
7.72911935479424e-07,0.269677539951011,0
4.7311162046102e-07,0.216812501426599,0
4.33798993495698e-07,0.207146926060556,0
4.57478703047873e-07,0.20754916481427,0
4.17932849706269e-07,0.203591998785528,0
3.67756667627417e-07,0.210696019993047,0
1.78893033921167e-07,0.163217191579518,0
2.39332554148717e-07,0.176768087858265,0
3.1666328459565e-07,0.182706069821256,0
3.10087209995422e-07,0.179371172714634,0
2.86114486561173e-07,0.180563783613887,0
2.48256597063977e-07,0.174738720561571,0
2.72006288304959e-07,0.177220621700878,0
3.78648463383084e-07,0.193672292653786,0
4.14412825862942e-07,0.191228063209779,0
5.13574812514768e-07,0.193632464648284,0
5.04036914470913e-07,0.185492665451204,0
7.26266660223064e-07,0.208668886138407,0
6.49695671929228e-06,0.33308635600033,0
3.01979204542573e-05,0.462857111733929,0
3.09102440895408e-05,0.369026166613579,0
3.14432694032487e-05,0.276277771385652,0
0.000139407166458646,0.226232754886318,0
0.000253655038540208,0.24360697721866,0
0.000287897102017285,0.259657956172603,0
0.000323204410368042,0.261451364588675,0
0.00031612417211485,0.23751203580915,0
0.000315204876119567,0.188082017534434,0
0.000274880132091904,0.138215641076372,0
0.000366639429940693,0.128176867611811,0
0.00026583678968352,0.0811902865468383,0
0.00014135453327493,0.0503156498682328,0
0.00012340132268725,0.0537644545424234,0
0.000119645026335549,0.0558503177834893,0
0.000113338328475443,0.0524345707316083,0
0.000130433681342485,0.0512652768782908,0
0.000176145222196431,0.0655737525416378,0
0.000174153468529707,0.0680479126929538,0
0.000176481384473469,0.0822803301441552,0
8.84677460352004e-05,0.0696373278797756,0
8.80788984294697e-05,0.0767829424896748,0
8.83903610276168e-05,0.077245184825743,0
0.000100992457598029,0.0892931119797312,0
0.000115485981507502,0.0690854410085281,0
0.000146159847978376,0.0651506897584713,0
0.000158895253880078,0.0721460084692377,0
0.00015580073867979,0.0715157111382782,0
0.000164394613497625,0.0761659287870881,0
0.000166467778460946,0.0771010319245325,0
0.000171893399419966,0.0810587253663392,0
0.000180027789760365,0.10384114256291,1
0.00016987387101282,0.123028749833624,1
0.00015690285329601,0.115351729396937,1
0.000149821281533473,0.197029205970403,1
9.6963219986129e-05,0.26391602819022,1
9.08866067653076e-05,0.174580050956155,1
0.000134212351446238,0.105181856878508,1
0.000132420883030974,0.0917878478142251,1
0.000140446670055898,0.0961414071736557,1
0.000152497227023136,0.101702311866897,1
0.000132114426603243,0.0943509261273837,1
0.000118906553794275,0.0773953605245378,1
0.000178445519205461,0.0753689711487438,1
0.000194465709911859,0.0570758654931246,1
0.000241540289078042,0.0600621341335086,1
0.000237555872258157,0.0672079550569718,1
0.000155814642994385,0.0710618635644109,1
0.000156593924227861,0.0789047835138084,1
0.000157141348136282,0.0770076899015968,1
0.000187956830820012,0.0842370462262419,1
0.000214524329388219,0.083560961694419,1
0.00021360133304226,0.0892058755501602,1
0.000124278037442319,0.0913533983161746,1
0.000111892625670895,0.146847825353514,1
9.15186721487489e-05,0.173405158113612,1
7.67659948871241e-05,0.171921987595786,1
9.6326623012819e-05,0.16787843966202,1
9.06837167623278e-05,0.132552248664194,1
9.27945809165132e-05,0.132052494778244,1
9.35679314773808e-05,0.119258204122199,1
8.83511444188347e-05,0.130006761024121,1
9.91372671356062e-05,0.151753092544846,1
9.80137910221546e-05,0.148472400804329,1
9.4633229250605e-05,0.149125696521924,1
9.53480860026086e-05,0.143816706920068,1
8.61238569087274e-05,0.144299091788724,1
8.79869215509736e-05,0.160840586613537,1
9.61495383443093e-05,0.191849489229049,1
8.22883644288466e-05,0.196189060665874,1
7.206655421329e-05,0.236659059050644,1
6.99500096950175e-05,0.204354729790968,1
4.5310920206666e-05,0.140443982077967,1
4.18302804873447e-05,0.138599033119864,1
4.3164080367342e-05,0.129988114012722,1
5.63036251492981e-05,0.149340774937989,1
5.05709120037008e-05,0.145999258556272,1
4.8505980358516e-05,0.1589449998877,1
4.64902791782965e-05,0.168644300567808,1
4.30298758765751e-05,0.168837319410349,1
4.15652737455128e-05,0.175814911244364,1
3.28291364862742e-05,0.188942425995392,1
3.13293502346085e-05,0.227328406129368,1
2.90264207844538e-05,0.229922790006659,1
2.72284743791613e-05,0.227494027662948,1
2.0338067380507e-05,0.174961058132914,1
2.11913910316109e-05,0.17562406117246,1
2.55097847161095e-05,0.179284804894602,1
4.96728733596704e-05,0.255513077826655,1
5.54553721399297e-05,0.260546960266431,1
5.76119282755004e-05,0.22651643282981,1
6.64215749619067e-05,0.233121384113287,1
6.59833893012522e-05,0.220693956695107,1
6.5683256022175e-05,0.215013862694551,1
7.02064755023525e-05,0.229602627742839,1
6.72809275079495e-05,0.211569093990402,1
6.40627863481607e-05,0.200954350863182,1
6.31724804052251e-05,0.170224387972742,1
7.07360083440631e-05,0.155391260729157,1
6.93621063389537e-05,0.151274119111552,1
6.92164446885516e-05,0.150278340551095,1
6.50962898421526e-05,0.14492697184855,1
7.42358047241401e-05,0.145756322457703,1
9.30118780552783e-05,0.169928185367371,1
9.42507842806041e-05,0.172807265091228,1
9.68932382973215e-05,0.202754092525737,1
0.000121367911731466,0.13965043050913,1
0.000217102080098783,0.178056591189546,1
0.000209452963590219,0.176043889871777,1
0.000200753698966465,0.180075505267943,1
0.000200623609068378,0.190347124561042,1
0.000201963315513118,0.180267766129817,1
0.000195778421884456,0.174252715719824,1
0.000162234851842533,0.151246033339768,1
0.000131129759858337,0.134719449808542,1
0.000102888428512012,0.120066448617285,1
9.32779539464938e-05,0.227049792359304,1
3.17680169504939e-05,0.13758836966086,1
6.70715604792557e-05,0.249188322256118,1
7.91672262930581e-05,0.200290046696492,1
7.95094181538309e-05,0.200050899704149,1
7.91688084578139e-05,0.222302909383916,1
8.37706625595497e-05,0.279801465774047,1
7.97950316100728e-05,0.267134833539568,1
0.000140406808045124,0.155993623724602,1
0.000340053002152219,0.235186923809414,1
0.000394389202190318,0.207819518177707,1
0.000396204764143861,0.213027657309324,1
0.000442328669894958,0.226750306688764,1
0.000503816576848184,0.254347999090091,1
0.00047816885546825,0.160610283117641,1
0.000595615783408126,0.17325079682525,1
0.00076193570874484,0.19613292758606,1
0.000932960947844638,0.220891776827162,1
0.00107980927609078,0.41817702497983,1
0.000981041006971222,0.44285140933517,1
0.000900201122297481,0.457225120966996,1
0.000841510747543537,0.444050594174341,1
0.000606757094191423,0.246676749783277,1
0.000286255805076334,0.155401736900654,1
0.000191124751990287,0.146933151368035,1
0.000419045855016172,0.186584536757831,1
0.000482820072834849,0.145112283283152,1
0.000439266682817319,0.13425285877909,1
0.000488876763591356,0.101321385790595,1
0.000630925286952212,0.116001791771208,1
0.00063548042813891,0.11783463248492,1
0.000615025647419302,0.102590040775931,1
0.000530896187639162,0.0941868432749645,1
0.000510429222666703,0.0954769761123091,1
0.000429805982290736,0.0806540266646444,1
0.000515745340329198,0.0644399173097589,1
0.000750369615860684,0.0881169153556234,1
0.000739109451786409,0.0834358614673263,1
0.00082181666006675,0.11463365389059,1
0.000921318190571431,0.12153979124469,1
0.000915193453367779,0.110533868881637,1
0.000686202649232644,0.101009737619633,1
0.000624758412368585,0.105310481633989,1
0.000542619494662742,0.101147663746848,1
0.000359369931996009,0.104698783169814,1
0.00045874302089179,0.383021049635777,1
0.000478148031783053,0.416635824962417,1
0.00048481600790748,0.356226474863127,1
0.000573182553119425,0.302717534595669,1
0.000392218486059021,0.161139142388967,1
0.000275726522596484,0.03705116337831,1
0.00103391494444326,0.0408151308593912,1
0.000975984789040387,0.026754662648536,1
0.00106043369112207,0.02473270181857,1
0.00115711476298538,0.0252520022133527,1
0.00135032853340893,0.028084055714798,1
0.00129063055623813,0.0246122112789517,1
0.00120433947780848,0.0217034069326574,1
0.00155632492326626,0.0244065969882307,1
0.00199758961071312,0.0311824068870002,1
0.00259003587163769,0.0480907656511983,1
0.00351510011698863,0.0913902244459375,1
0.00552236710572608,0.0792006834801319,1
0.01597800226748,0.102026914770857,1
0.0272984477693528,0.101803299779311,1
0.0311488581352159,0.108946993765368,1
0.0291713902961163,0.0840241903492679,1
0.0224275925914027,0.0676329179169553,1
0.0184584131149557,0.0560709027172389,1
0.0159411326764743,0.0402672079961105,1
0.0132721732879839,0.0320539738428145,1
0.0102964799695696,0.0232237217408768,1
0.00914143044956524,0.0206111595321212,1
0.00872157069703854,0.0209740373987913,1
0.00720209941225916,0.0185447688865111,1
0.00684444279635192,0.0173571304674011,1
0.00583370937779828,0.0166240592999483,1
0.00756560278019341,0.0192692479862721,1
0.00949440930093796,0.0253578511611316,1
0.0096533006536144,0.0364669765049581,1
0.00675260879938725,0.0293398930747266,1
0.00626789185441754,0.0292998449186654,1
0.00527455387406981,0.0382816320978738,1
0.00362576864596469,0.0279197479971851,1
0.00403678179789156,0.0173685972739254,1
0.00504693222585879,0.0179356460960054,1
0.00485201214426556,0.0171909462234832,1
0.00676140167016791,0.0229430536222919,1
0.00768754482941437,0.0183124485904121,1
0.00647753155477671,0.0152673630827939,1
0.00699972845299546,0.00773361156672636,1
0.0119259247228499,0.0145062257278201,1
0.0155974190038153,0.0132283296456571,1
0.0145477370757784,0.0134298191706013,1
0.0120837798478436,0.0102304144395211,1
0.0126246784976001,0.0101782765565195,1
0.0126445008605482,0.0100774654760511,1
0.0126494173992987,0.00990503360219193,1
0.0134380225356303,0.0129375611746983,1
0.0104641758411206,0.010082046077442,1
0.0101897290852391,0.0156357759657636,1
0.008808658076579,0.0126338661157985,1
0.00623773659689472,0.0124331165152053,1
0.00558991268510809,0.0116288472089323,1
0.0072064201953775,0.0149970557489617,1
0.00705108514364671,0.0142307607977919,1
0.00850091012190284,0.0146861322331635,1
0.00887371844363556,0.0121507401283778,1
0.00938336731647044,0.00781090725592245,1
0.0396002905925829,0.017704828781422,1
0.0601489409147537,0.0194097517859578,1
0.0614311512624849,0.0202283847494534,1
0.0634841192658936,0.0220920687646279,1
0.0749680334297071,0.0238233847654078,1
0.0864598262842705,0.0259283653063494,1
0.0908526445063934,0.0285945214674281,1
0.0877743137826827,0.0271522487842073,1
0.0587324936351968,0.0220821909111758,1
0.0278081305580968,0.011917165909504,1
0.0380419428155394,0.0188912757373936,1
0.0380076034671829,0.0170076337812617,1
0.0310784419014486,0.014383212769851,1
0.0252663927579704,0.00977727339926364,1
0.0242619819633459,0.0127803032439124,1
0.0245473946527301,0.0146063200259518,1
0.0241150962931186,0.0133317958983761,1
0.0260489947112968,0.0163106758229711,1
0.0230962087189436,0.0144212535706676,1
0.0248098979234905,0.0122668768584006,1
0.0201708288270317,0.0133186104654754,1
0.0200617666351481,0.0173605737809323,1
0.0238676587312957,0.0188099903279757,1
0.023405314653413,0.0145264438498077,1
0.0536942471866443,0.015567236499704,1
0.0880769893704646,0.0209673307701766,1
0.0982249782493644,0.0241760768163729,1
0.109750666256051,0.0247886815550693,1
0.13448006013713,0.0273666050306786,1
0.115778365114236,0.0253304436107666,1
0.0873055947552316,0.0159532737293279,1
0.0732401814002722,0.00949712565519304,1
0.080614838049297,0.0106146172051734,1
0.0430322172954031,0.00400524488950332,1
0.0368716187754275,0.00942110597925428,1
0.039440609466379,0.0127684489170236,1
0.0325735867757518,0.0100652832577261,1
0.0308407231173293,0.00882217915159054,1
0.0306159891848464,0.0097910070630662,1
0.0316914792944234,0.0116651382044216,1
0.0180611532756,0.00825034138280065,1
0.00816422530316656,0.011767133722845,1
0.00844211889265234,0.00826655021571245,1
0.00890729992253789,0.0071509482182214,1
0.0103813484448001,0.00884299538587747,1
0.00988159646229675,0.00837610930551403,1
0.0125453682095866,0.00645096141188721,1
0.0202866111309847,0.01320027779334,1
0.0239459733458773,0.0175334833084492,1
0.0412582333350532,0.0120242204912911,1
0.102166364036195,0.0267023465364577,1
0.123516635284577,0.0272435715707822,1
0.115073036881628,0.0280728983629099,1
0.108784662050896,0.0256227127775016,1
0.110905923059613,0.0242455197423943,1
0.108047868518704,0.0207807331514766,1
0.083499005694363,0.013821608694083,1
0.0750346684486821,0.00863724120382781,1
0.09097033890157,0.0102472962051189,1
0.0800367702305631,0.0108694773241961,1
0.0935396095892584,0.0137703395871261,1
0.095122405770704,0.0114958561553231,1
0.0885592192820696,0.00576589800199229,1
0.0981969391797012,0.00688854239430691,1
0.0964108455388777,0.00662070058909756,1
0.11504155602393,0.00822712963095856,1
0.0973947910216405,0.00748028238563104,1
0.0858685192029096,0.00816796066755325,1
0.0959015560633426,0.00816510885399142,1
0.116779073709318,0.0105930259258084,1
0.115456056395232,0.0105417518992366,1
0.107794097066313,0.0122178253357627,1
0.102754424053157,0.0217203250045548,1
0.0929364434065038,0.0198963965990301,1
0.128749528017564,0.0252039734679653,1
0.114456382726145,0.0284285554435415,1
0.0784388931558068,0.0190116291765589,1
0.0734227076780772,0.0162700733873903,1
0.0820185852719706,0.0249396691252398,1
0.0979835341393724,0.0317398525129459,1
0.117088755934178,0.0351530762992774,1
0.102398557246906,0.023807746272786,1
0.0846960310281135,0.0189920123609167,1
0.0485061335104112,0.0110408321907307,1
0.0458713459469259,0.0136909549601348,1
0.0354905195028439,0.0136563641355425,1
0.016282533975048,0.00629991369919779,1
0.0166435158937802,0.00644858833876117,1
0.0157847769769408,0.00613649886399335,1
0.0144314293167947,0.0063838101533869,1
0.0136046373518186,0.00425162287574465,1
0.0139494567846162,0.010736038563871,1
0.00668882764800877,0.00293589344234796,1
0.00647380865911462,0.00595829465863875,1
0.00719182602113066,0.00412936499257928,1
0.0147208463881684,0.0113299100840413,1
0.0164143304321336,0.0125284177484801,1
0.0209085646760261,0.0198760663961003,1
0.0174850942691206,0.0166791550433702,1
0.0239203186296347,0.00869854204724546,1
0.0638889834760446,0.02693241346749,1
0.0699610013827459,0.0301062246159895,1
0.098988488002234,0.0336503586307077,1
0.151434837022143,0.0482109898835279,1
0.148834782090054,0.0339699782863503,1
0.139872884259106,0.0330502033525424,1
0.130026089714072,0.030839176191591,1
0.130521038361197,0.0329501694925925,1
0.101348452544747,0.0230895412564309,1
0.0684882364883144,0.0123321824257186,1
0.104744518839765,0.0193295917107189,1
0.0871338955233134,0.0149859206875919,1
0.0907182776094796,0.0160946198133136,1
0.0979402567476301,0.013060934087843,1
0.136340533633509,0.0177466318585841,1
0.123902515884362,0.00689615954047091,1
0.156899967410551,0.00939568397809807,1
0.161646261480087,0.00839609956502664,1
0.165077136235932,0.00761738654201799,1
0.173455575027183,0.0111604147589111,1
0.145536349894482,0.00771185130363545,1
0.140486065397913,0.00725849499071383,1
0.137442141586022,0.00754577241112554,1
0.145847137221129,0.00911519481287511,1
0.0810321392736228,0.0026705942364333,1
0.0734353409020344,0.00901455942244422,1
0.0602250948165905,0.00696290428123554,1
0.0545845327753782,0.00846279664928783,1
0.0806450166145795,0.0162518897567776,1
0.142564152120095,0.025809758541361,1
0.184811662619887,0.0371833218735781,1
0.20920353674737,0.0427853947655721,1
0.223875651114049,0.047576659963459,1
0.230176564242573,0.0464771116522509,1
0.199364512841496,0.0713339971709972,1
0.101641043875731,0.0462865413337766,1
0.0482294918418163,0.0277431390595758,1
0.0178171789124891,0.0137725813135958,1
0.0130342043037603,0.0175268102673921,1
0.0129564137892096,0.018236126999073,1
0.0126148312977116,0.0190428946226905,1
0.0189220377928589,0.00956710613122178,1
0.0226550492619152,0.00353237449805179,1
0.025118501701459,0.00527288857351513,1
0.0294636437946303,0.00710335255790291,1
0.0315450101159465,0.00812287758653933,1
0.0310135441419431,0.00816293911996768,1
0.0308295728439305,0.00840655346863971,1
0.0305348290601074,0.00873957038063985,1
0.0311159543325382,0.00880625067095864,1
0.0321612658192494,0.00868614014962687,1
0.0308897809533106,0.0180148048206094,1
0.0279572635541541,0.0815867205880143,1
0.0433392595876538,0.0536263107197313,1
0.158656179119736,0.057715823231323,1
0.221133110106631,0.0263175604680598,1
0.204450260014305,0.023924356990916,1
0.205001955128915,0.0241276052155072,1
0.182124842133518,0.0221472780106283,1
0.158432620798623,0.0216790737179479,1
0.147006910343123,0.0219188705457794,1
0.126823092498478,0.0185036782184957,1
0.0944447854878831,0.0141620904570465,1
0.0647781773690305,0.00961994606643714,1
0.056182786929658,0.0122805364460465,1
0.0646908595579731,0.0230028728869944,1
0.0629815467010411,0.00957016616399813,1
0.0747403224679168,0.00912237498783685,1
0.0756519945643452,0.00499611766109881,1
0.121199258238751,0.0079028092126391,1
0.12249163238298,0.0079693658065889,1
0.12332638684109,0.00653504577453914,1
0.134851031743566,0.00729712774716373,1
0.133193137683692,0.00739585547733241,1
0.135945326382847,0.00757169668467577,1
0.105933390834531,0.00598838301565942,1
0.0863899063497573,0.00942195942654027,1
0.0953667248473584,0.0126687815838459,1
0.114696431916069,0.02820831929922,1
0.071349507694569,0.0265578185881012,1
0.08337259941196,0.0285582070282013,1
0.138620389204352,0.0679864802625486,1
0.171260492827971,0.0906487353690777,1
0.225718949279512,0.103118123362746,1
0.255131541602979,0.0945705765949375,1
0.252350369207273,0.0911816280558646,1
0.211840103283819,0.075047599578248,1
0.17205620315461,0.0587036158227311,1
0.138009188942569,0.0517614053629078,1
0.0625472040831743,0.0324435442815105,1
0.0238021144799846,0.0156813674607806,1
0.0187355966547978,0.0178198208756353,1
0.0197283190408067,0.012496358266858,1
0.0293175499887023,0.014835753994704,1
0.0253747387832874,0.00983052946828457,1
0.0257988750433914,0.00914794381651438,1
0.0235021217043013,0.00507157886497306,1
0.0235299951398431,0.00540927370938841,1
0.0277817633676481,0.00269565794354277,1
0.0351582441378829,0.00427896036891779,1
0.0376454246184271,0.0051723302097431,1
0.038066625300976,0.00694992728729348,1
0.0441725638481507,0.00760298496288465,1
0.0710394636528059,0.0159026240477647,1
0.0819543119773963,0.0220853051595321,1
0.103788599359927,0.0268693743272176,1
0.122958871938156,0.042693545862986,1
0.151231929544681,0.0448408633530314,1
0.176627231559504,0.0305739022578463,1
0.158009152450231,0.0309198468740682,1
0.12749332152417,0.0267287075426621,1
0.0899724543679459,0.0216448286033488,1
0.0834552823089047,0.0136620529990979,1
0.107798964110927,0.0120006973825562,1
0.0914398260822017,0.00943691250059451,1
0.09553821821147,0.00795731182325529,1
0.118861945893308,0.0110553188016715,1
0.124784840035473,0.00816999625887243,1
0.125937142430758,0.00814609386554652,1
0.134153589066388,0.00928530217313263,1
0.125905814425329,0.00859192025980839,1
0.116454135746719,0.00342945263929012,1
0.150085328881042,0.00904731581293933,1
0.172471239197168,0.0126655776202413,1
0.173155220591642,0.0090729642352913,1
0.18338987476269,0.00905418987206115,1
0.191025361636302,0.00822745816160255,1
0.182143893383666,0.00980312313407163,1
0.183234724053197,0.0120767863287655,1
0.170701942892327,0.0107815559929757,1
0.140038679774729,0.00853621547343039,1
0.110316231994308,0.00923769369067767,1
0.111749606363751,0.00909759899520859,1
0.116065742260571,0.00783319198943458,1
0.135839837837725,0.0162990003266348,1
0.115622341026516,0.0160226543561207,1
0.126857561160459,0.0206424257326484,1
0.153262878308808,0.0273904949108063,1
0.173568999795167,0.0290923757611828,1
0.19094995528658,0.0312912382487775,1
0.183476569808903,0.0274641128664726,1
0.160977487646055,0.0308266950356741,1
0.0620367111425932,0.0124581091426064,1
0.0272432401817091,0.00515287054697695,1
0.0212274024736729,0.00486273083143863,1
0.022123903359773,0.00739361689736011,1
0.0140306084779393,0.0047240413974393,1
0.0128973359164771,0.00687008623904852,1
0.0113268974369472,0.00580553951523861,1
0.0123623223480492,0.00600069132369127,1
0.0114251087802154,0.00413869589027736,1
0.013766289829134,0.0084405899945657,1
0.0145589304331009,0.011354885353947,1
0.0205644427246843,0.0160134743751416,1
0.0371936929797304,0.0323132926813692,1
0.0607667183799361,0.0563255607724393,1
0.121895563856618,0.0259827060988882,1
0.268719189362446,0.0349452860331791,1
0.260026638070941,0.0244595216471973,1
0.218102758213259,0.0211175783548841,1
0.177938341974565,0.0181144379306388,1
0.163526660606489,0.0157560498359701,1
0.152146619957547,0.01523833172746,1
0.126143212684911,0.0143985148515739,1
0.11434690668184,0.013021371621135,1
0.104345023915727,0.0116486252766846,1
0.100497885823376,0.0186326981153766,1
0.0673756514345709,0.0180113021263678,1
0.0634120186748186,0.0241181577674159,1
0.054652005456984,0.0221630393467437,1
0.0417232382342529,0.0204353609204824,1
0.0852149961696012,0.00310919545991508,1
0.327549981893927,0.0179769364585798,1
0.390467431053069,0.0186771135933331,1
0.435649077519925,0.0214310331009114,1
0.46972904613416,0.0218095803709084,1
0.458796594922494,0.0180768500407252,1
0.51639515636302,0.0195316839600057,1
0.496019973305169,0.017273426223451,1
0.417399879074159,0.0141376166836946,1
0.367509026855026,0.0112668718229982,1
0.32380883320716,0.0226256929107594,1
0.248631606726406,0.0201584567949567,1
0.242099254179917,0.020023695798333,1
0.240123091786955,0.0172767697509498,1
0.228834537999627,0.0172340238776214,1
0.321531482722065,0.0208144158929155,1
0.447292458759789,0.0289783521843886,1
0.588472757636774,0.0448165481398231,1
0.683517581125233,0.0567427258204487,1
0.597051377175471,0.0588642847209665,1
0.471878219195913,0.0466181884810225,1
0.347963984755568,0.0360083253570375,1
0.231666428904779,0.0272521081344693,1
0.132051499008742,0.0218799006936155,1
0.0847254058293166,0.00979149181468338,1
0.0865418308543537,0.0375510620351724,1
0.0841866234113649,0.0253009840471308,1
0.0956931406331171,0.0231357727194023,1
0.0748983127086785,0.0187908148248788,1
0.0327542590824013,0.006077685305197,1
0.0388992054048708,0.00866460030370752,1
0.0480087702867309,0.0115581882031519,1
0.0485472405417165,0.00995975785344644,1
0.0525212196992033,0.00791034694541322,1
0.0720020706464711,0.0126120938645079,1
0.0693460464584356,0.00903782721549924,1
0.0697883249992621,0.0110627245287174,1
0.0523606699183991,0.00818339332925268,1
0.058308949472253,0.00304114900508996,1
0.0676071127534992,0.00289932585049781,1
0.0666935909656814,0.00238800327400648,1
0.103538534572131,0.00461845598666715,1
0.15343759740847,0.00926822068187456,1
0.21233018337332,0.0162080018435136,1
0.25816643175418,0.0233735964198428,1
0.290150451933948,0.0249301835582108,1
0.281189408334346,0.0238687683021403,1
0.295127407855732,0.0204521298481847,1
0.341006298315277,0.017922004134097,1
0.304877330185354,0.0159657472516984,1
0.197181134000394,0.00995284754279652,1
0.182944502381546,0.00919619506074854,1
0.174474259408285,0.00754374046090109,1
0.181041580054716,0.00735387735673833,1
0.185590785248406,0.00682476823439761,1
0.233027398877896,0.00677647833610163,1
0.315449038578441,0.0132846745813013,1
0.338819249064366,0.0121178270896355,1
0.344871916148183,0.0155302423766167,1
0.324908470684298,0.0172028642071796,1
0.272797464392894,0.0120522015500657,1
0.286391821422779,0.0132061268669758,1
0.288316935833055,0.00999781770091802,1
0.411704703294209,0.0166208085766936,1
0.513118163375348,0.0190821597190523,1
0.590295232673587,0.0299579573534972,1
0.403000584819869,0.015752606823079,1
0.313033709892496,0.014127956883559,1
0.404844331105224,0.0173571698529315,1
0.487884354386491,0.0196845891056057,1
0.435822904434057,0.0213231049428679,1
0.193674928628376,0.00890242535074916,1
0.12387486976257,0.008119630453015,1
0.124671748860419,0.00538627953245396,1
0.132745719672073,0.00663296592692771,1
0.133229782102828,0.00675288861495016,1
0.126433846277048,0.00401791125458021,1
0.151005251088457,0.00708675639786056,1
0.137607121420428,0.00586586036017957,1
0.127233181794579,0.00433876021455436,1
0.131001075181678,0.0028405514110532,1
0.147495398039383,0.00403254502288043,1
0.13846634577889,0.00366354809368988,1
0.156994094005713,0.00651136871065123,1
0.158737215490813,0.00678083078191081,1
0.17096837234605,0.00813442871692653,1
0.133932609050328,0.00805997076555835,1
0.0948142158094771,0.00715621201216895,1
0.120418245137978,0.0104257232827651,1
0.112045633712036,0.00843570420679385,1
0.103460799923356,0.0160812164367466,1
0.121520115644981,0.0186744809987898,1
0.136374167157573,0.024724441016542,1
0.139688254705614,0.0143617357678499,1
0.254734683202285,0.024288697180001,1
0.378333909715371,0.0249720823101882,1
0.628348091101662,0.0370475502033657,1
0.824928068538273,0.045579507226565,1
0.86478257291119,0.0404228329294639,1
0.877819191939322,0.0477864385421578,1
0.688297715851545,0.0393423685388127,1
0.537004602649436,0.0289357276055691,1
0.390157833471888,0.0217005008132842,1
0.269631593999503,0.0216047445459308,1
0.267130208825459,0.0151607074945289,1
0.249795289638979,0.021107563957283,1
0.225896796357194,0.0134431955198246,1
0.275216483184084,0.015842022518031,1
0.304052573160323,0.018380498610812,1
0.267827174933398,0.0201099754516978,1
0.195874305892574,0.0147788057483616,1
0.190387612621814,0.0143662809889517,1
0.221843164662662,0.0176356772417035,1
0.252194447114835,0.0202492706468698,1
0.209575900376798,0.0292297420819101,1
0.12369129843567,0.0163164036213871,1
0.10925670271898,0.0199559171141294,1
0.125612208822591,0.023859398078113,1
0.142506155318292,0.0239473778719909,1
0.196731672229208,0.0280793541245149,1
0.196296743802476,0.0280183097294581,1
0.243184566015635,0.0343427174972474,1
0.308737602574411,0.034641171584031,1
0.293450777791039,0.0233715250067332,1
0.230644694710796,0.0200073609989872,1
0.132060960951168,0.0126081534128774,1
0.135609732093727,0.0140760027722381,1
0.107596994467444,0.0110076017223337,1
0.100583990148643,0.0135653436275358,1
0.162795767063378,0.022874846372864,1
0.185327344307875,0.0109354168721655,1
0.159441509226683,0.0110259205823086,1
0.108882752367308,0.00690135693402334,1
0.110113298785488,0.00957195865228518,1
0.122698853265177,0.0109615004460758,1
0.142917691152846,0.0146559038854301,1
0.144365551481839,0.0152315365620767,1
0.153689973345259,0.0184332073660154,1
0.137416567946046,0.0138604642702582,1
0.0603928628428444,0.00548095593989386,1
0.0257388555510559,0.0175927923107619,1
0.0578805786410986,0.0342835176833327,1
0.0915999437526651,0.0478108923140607,1
0.134628045716861,0.0663923111943776,1
0.142155503863787,0.0355052203803519,1
0.117391245377694,0.0286447326596616,1
0.10259055443361,0.0262942891597631,1
0.109416801018705,0.015750262231134,1
0.204817696182467,0.0236346011963531,1
0.202962788989252,0.0234327440315362,1
0.191546993330442,0.022400396472915,1
0.189947547340475,0.0230728914271421,1
0.219045101790719,0.0220811396313187,1
0.27045029446024,0.0245404501505262,1
0.431742114824873,0.0408430866834402,1
0.483404782043691,0.0338043728536774,1
0.39243309915164,0.0140798779105925,1
0.360036285794638,0.0162916635456708,1
0.360544822520678,0.0183286756608452,1
0.34968223989088,0.017870430345637,1
0.333822930284913,0.0155895041225078,1
0.297508936977928,0.0118100515025364,1
0.306563976383666,0.0131010062723845,1
0.344860881089027,0.0153796803339459,1
0.290683948224284,0.0157215637199085,1
0.109473358699839,0.00288746506122944,1
0.127881204322802,0.0178855738153054,1
0.151335164052343,0.00930241499672466,1
0.182107953104303,0.0104364913090698,1
0.293383744292333,0.0136268195269611,1
0.454010442216046,0.0240535677575321,1
0.469782689196429,0.0251177247978945,1
0.548330495419202,0.0281475189151217,1
0.601847183122461,0.0296523390102563,1
0.733204379956562,0.0360434768470533,1
0.733115078434359,0.0416429220737252,1
0.494457053869745,0.0329566360609319,1
0.173970830312884,0.0226884607230172,1
0.0932665541442914,0.00997330876623184,1
0.0597948590527787,0.0121304173168969,1
0.0595781231604077,0.0126097457580028,1
0.0770625665049062,0.0131901785567939,1
0.083488579233857,0.01146936206574,1
0.0835502848622474,0.0120072689564183,1
0.0754087760434235,0.0128181657460844,1
0.0608990566271287,0.00913471477188767,1
0.0620331287854535,0.00811124222513552,1
0.0691118939630816,0.0102156064711181,1
0.0632132202773245,0.00921419909359682,1
0.0737788146251157,0.0113541556805184,1
0.0747443564655233,0.011193857061255,1
0.0398783098348797,0.00785281135705296,1
0.0446931337223868,0.00342455264698602,1
0.100131192463452,0.0136539832622521,1
0.10414003596545,0.0145182652991983,1
0.115124268402314,0.0172231656157651,1
0.115637899651066,0.0215736064872131,1
0.107840972759448,0.0206860273126391,1
0.103302240465176,0.0204668254275208,1
0.127461609626197,0.0167489026480787,1
0.446338917042281,0.0268531464802462,1
0.670115257654208,0.0219689385927099,1
0.636302785438243,0.0242441847174564,1
0.729891504764823,0.023685469072812,1
0.896596903437098,0.0290362572567883,1
0.974444555618755,0.0280509834478477,1
0.812462300210572,0.0245034959479892,1
0.639385713824318,0.0190123084407721,1
0.395001195631863,0.00885612131664107,1
0.425360698984142,0.010500447181375,1
0.492889355970544,0.0145150352595909,1
0.470352560593907,0.0169450278517249,1
0.537292765732014,0.0173436162488903,1
0.56608738575866,0.023875151259539,1
0.482897364220158,0.0226441986266346,1
0.348997266285414,0.016168401169378,1
0.293083797491864,0.00836583351740986,1
0.191950908219698,0.0045320509440253,1
0.26961003921395,0.0101158650795106,1
0.298097092211177,0.0126350341006447,1
0.347037039947536,0.0174288909917288,1
0.465824758197527,0.0267552044449667,1
0.521259854777914,0.0340081720469549,1
0.498950526908481,0.00984632687644125,1
0.636225268201774,0.0120628093328791,1
0.551195286546256,0.00949841763199763,1
0.546192000609178,0.00776448265359218,1
0.798940266143537,0.0118989351616428,1
0.866337507656474,0.0136372818191831,1
1,0.0147964979488698,1
0.932468467422611,0.0145177600591207,1
0.8107621096989,0.0119110751166604,1
0.524300317466297,0.00650174833401162,1
0.342529541580434,0.00804849795966434,1
0.389532422252004,0.010750454445232,1
0.265401708718748,0.00896383207233484,1
0.157358027792993,0.0106980076347716,1
0.153454758211298,0.0120080561529086,1
0.120083279349446,0.0107137141495654,1
0.117070407636181,0.0123999992266763,1
0.0922252306616504,0.0105148209371066,1
0.0866172539693745,0.0128206588714067,1
0.0795052724822556,0.0102434686050389,1
0.0750766552952895,0.00781417807792139,1
0.088909998641061,0.00846361880844028,1
0.0798816158435877,0.00463270940740544,1
0.0820325516465486,0.00446706955403177,1
0.0888494311307993,0.0047150049841856,1
0.109864881311679,0.00401775097827182,1
0.14562516417262,0.006497733490212,1
0.117444255497879,0.00388431197644447,1
0.120117032167079,0.00443486206303358,1
0.133414532085577,0.00551523172523351,1
0.136453889167837,0.00699425814950311,1
0.0961727500736345,0.00427119927045627,1
0.077963239105413,0.00415841807337623,1
0.0988743037870394,0.00640013852457298,1
0.0908986877710598,0.00397131275235527,1
0.0787930706151106,0.00855412875680385,1
0.0623563781652558,0.00739967525180267,1
0.0811066719724933,0.0107380618730245,1
0.0831913786519273,0.00785053882917249,1
0.0875123839264514,0.00907316842793502,1
0.0938353695979863,0.00982716976421694,1
0.109141828353876,0.0117313220674758,1
0.130466802976669,0.0146482298713146,1
0.111675972303053,0.0139335659980661,1
0.0844720917651211,0.015630138099898,1
0.0832592878159386,0.0137076910186332,1
0.0769907437025632,0.0134359877222016,1
0.0330667778889677,0.00304637386528094,1
0.0320299197729917,0.0235576550691931,1
0.0380656633866833,0.0259639569363211,1
0.0382864226386177,0.0206553838726081,1
0.0380834155051637,0.0243971686559148,1
0.0374021103242581,0.0215408113512159,1
0.0401463364782067,0.031276554109712,1
0.0313437072150132,0.0306436410167489,1
0.0235749971476505,0.0230983232097787,1
0.0157560349683521,0.0144011375270875,1
0.0147642995065487,0.0322589496770543,1
0.0157214061724246,0.0275233986476672,1
0.0216233470359791,0.0358233606781647,1
0.021356118531471,0.0570987867212054,1
0.0132364401064792,0.043917159978629,1
0.0113290504339353,0.0476047097455634,1
0.0111999204566271,0.0462380696375518,1
0.0106635318437567,0.0556431595328719,1
0.0105194919502509,0.0726891208036917,1
0.00780388925976736,0.0662434502755895,1
0.00495418136641564,0.0501790784183867,1
0.00217569335023343,0.0530178105735778,1
0.00223496776144185,0.0829168458906781,1
0.00121065125691778,0.0703283434160975,1
0.000630490101136549,0.076617598318266,1
0.000651014759536746,0.0920384015247866,1
0.000685999129256705,0.0913091590781126,1
0.00070423598334364,0.121482386129995,1
0.000348419489518733,0.117105090445755,1
0.000316242617638508,0.12343123435842,1
0.000316447106199592,0.122889436797145,1
0.000312886198860801,0.126561750520464,1
0.000284995044037974,0.0992361406560993,1
0.000530365040397036,0.0956015843632672,1
0.000576077353253706,0.0809987632673089,1
0.000540933812111183,0.0789818180270795,1
0.000566478516036897,0.0854945417054139,1
0.000515762437489466,0.0754287033967791,1
0.000459906613732832,0.0644171076932379,1
0.000531946925639374,0.0759940543889348,1
0.000597682243491967,0.0846206039919379,1
0.000648308210145357,0.0861294268718408,1
0.000652788537462738,0.0998275258616066,1
0.000310785975091777,0.0984925008249447,1
0.000146383762243992,0.122341540372345,1
0.000157874500967132,0.144195797683437,1
0.000166448962341007,0.202270278792368,1
7.23639537982084e-05,0.212061360894513,1
3.44537345288912e-05,0.3166721603906,1
3.60843971460878e-05,0.35573935552779,1
3.62102897959571e-05,0.355655284733854,1
3.57626421425944e-05,0.385235768745797,1
2.15761736379845e-05,0.395290603512981,1
4.28590560845652e-05,0.159368968499895,1
0.000142345351107211,0.187897859007319,1
0.000141027943060225,0.159102278472732,1
0.000137715210489515,0.153220063914368,0
0.000137457995271969,0.156292700922623,0
0.000141310915947547,0.161940635657871,0
0.000145331710434003,0.162576901740642,0
0.000155501300671546,0.166318850140176,0
0.00016559551567091,0.169167408761662,0
0.00017324624671765,0.169093059214123,0
0.000142161258902193,0.361954827375818,0
1.63543625003227e-05,0.280854370617639,0
5.59489715885853e-06,0.536975293139878,0
2.26591010109006e-06,0.364342126117388,0
1.78557452437042e-06,0.346610398328349,0
1.75534353687941e-06,0.342985327903858,0
1.90270734032664e-06,0.349679242583898,0
1.95762712372911e-06,0.349029391083887,0
1.77176994745698e-06,0.331874356024661,0
1.41003625112161e-06,0.301687792695003,0
1.38268181411088e-06,0.306892670369099,0
1.49834652995367e-06,0.302320137339274,0
1.22133916832435e-06,0.271780542189082,0
1.17361840675987e-06,0.280519739138199,0
1.14280166702317e-06,0.279589942413441,0
1.36978961657732e-06,0.295027409352308,0
1.0455216092115e-06,0.252146550781636,0
2.09324488643584e-06,0.294413154733074,0
2.61229411298904e-06,0.253548262876328,0
2.90634394447222e-06,0.265572645454998,0
3.43975994335623e-06,0.287329171866847,0
3.5636152719741e-06,0.298409364987065,0
3.92086683400428e-06,0.310904809791446,0
3.99653301967589e-06,0.307493773379276,0
4.79720963915279e-06,0.334105323997558,0
6.33348844858783e-06,0.387550736152181,0
7.18213145433616e-06,0.374754334878406,0
6.26110189690329e-06,0.404319156673991,0
5.74355383267871e-06,0.457770495220515,0
5.85301290849057e-06,0.462110751645452,0
5.12884459685789e-06,0.433974089882696,0
4.57592519723646e-06,0.414053787673089,0
3.56549981823962e-06,0.353278555932912,0
3.33952963387625e-06,0.343012234227802,0
3.19046312634701e-06,0.327375681468026,0
3.27641482940334e-06,0.320748951236217,0
3.15289618434343e-06,0.345573519386142,0
2.82322071392494e-06,0.323351624574869,0
2.6972040807486e-06,0.310016896507717,0
2.77180070375899e-06,0.311812909377656,0
2.86637627236856e-06,0.313531125084286,0
3.30173952192018e-06,0.340215053660603,0
2.79748839184671e-06,0.323526187008467,0
2.18056839590388e-06,0.291280881819799,0
1.72705991386277e-06,0.273651876457472,0
1.52065484637184e-06,0.271020883897439,0
2.07529113927596e-06,0.294052360512543,0
2.1100411805458e-06,0.2709315785288,0
2.47723620379277e-06,0.300295014735029,0
2.65344665222939e-06,0.29158304250081,0
2.76633758597742e-06,0.288558439120203,0
3.36090656014081e-06,0.311418722325103,0
3.37211671747686e-06,0.309808867424726,0
3.21985819083077e-06,0.30222738279176,0
3.36069385988979e-06,0.305172208527454,0
3.58920652860086e-06,0.319338305360201,0
2.73786550833423e-06,0.295008352778931,0
2.93148844791631e-06,0.342365364194939,0
2.49176980255103e-06,0.314110519699046,0
3.07754078349455e-06,0.361533865258277,0
3.12781670325588e-06,0.361959950889778,0
2.32444454892682e-06,0.312819545360807,0
2.22403129518949e-06,0.317317577118077,0
2.16362731684326e-06,0.294576857723214,0
2.81225067092666e-06,0.325610661795275,0
3.07345470697542e-06,0.30738168929749,0
3.7705204054697e-06,0.321558901823523,0
4.49728782049358e-06,0.324530962520515,0
4.69238133985523e-06,0.311234840138519,0
4.4432538289396e-06,0.312292778565942,0
4.26926557464108e-06,0.317648693969374,0
3.98479662208149e-06,0.309581874071524,0
3.88399213213114e-06,0.304961044209588,0
3.77881296007494e-06,0.315060653480018,0
3.40391003239458e-06,0.283346109144512,0
5.56603839105691e-06,0.332223643639893,0
4.70049163899926e-06,0.301267152553683,0
4.13895402195302e-06,0.310865351596406,0
4.04910635011487e-06,0.335400760855721,0
3.79464149559459e-06,0.317089530984481,0
3.73671429044338e-06,0.313203132687513,0
3.74533967134814e-06,0.312545701855893,0
4.29652743744928e-06,0.333463773339286,0
5.22338255719769e-06,0.377358615107258,0
4.92279742784633e-06,0.416645145439296,0
2.31788679630418e-06,0.373885621577486,0
3.19965938150062e-06,0.465603345711733,0
2.9394922591756e-06,0.401138863855158,0
1.77088939045923e-06,0.324677516119165,0
1.43834480855886e-06,0.306611190148162,0
2.04580060764586e-06,0.345667501001425,0
1.85843551884285e-06,0.313996889933594,0
1.88590181634828e-06,0.319437361070172,0
1.82896881955952e-06,0.313072357725729,0
1.94717395336156e-06,0.325619316978017,0
1.72345020876075e-06,0.298076227935557,0
1.06454285264416e-06,0.227003357962557,0
1.24249678189485e-06,0.254726864442008,0
1.23704151638938e-06,0.253856644205379,0
1.24466566321096e-06,0.251675139083578,0
7.38381895699794e-07,0.210151331518445,0
7.34440741890552e-07,0.216908231934496,0
7.27357713324158e-07,0.215020199069291,0
1.29712176054526e-06,0.27064306696797,0
1.16641910940341e-06,0.247178639718303,0
1.14397358479224e-06,0.247311146371474,0
1.09561458471547e-06,0.253754013669034,0
8.60343861461422e-07,0.240090919401439,0
9.22199546572716e-07,0.25269325783657,0
1.04514290908841e-06,0.272235738720047,0
9.27703303327122e-07,0.268193885120889,0
5.52582165026552e-07,0.21014894209757,0
1.02411382487944e-06,0.281756731737005,0
9.65466276714893e-07,0.297410500386276,0
9.90168159753193e-07,0.296722100986033,0
9.92408675868874e-07,0.301263383682996,0
1.35324638617275e-06,0.307013274268752,0
2.29589973441022e-06,0.385663495044798,0
2.83353061469336e-06,0.411203725735243,0
4.01291755144757e-06,0.431559133481312,0
4.44685912574626e-06,0.40008541637489,0
4.64742843673864e-06,0.402549682688838,0
4.0326413669529e-06,0.371227167899812,0
3.38114600844379e-06,0.334873664362731,0
2.90703935306494e-06,0.31347551002431,0
2.67348125255746e-06,0.301759564136354,0
2.74566887991396e-06,0.32095778151883,0
2.93759393698708e-06,0.32379860645876,0
2.86493971911879e-06,0.321393393659206,0
2.30000123996311e-06,0.314414991510734,0
1.8555569019741e-06,0.299583094006732,0
1.4952298651356e-06,0.278597810993609,0
1.56357717843917e-06,0.283690375714348,0
1.53294131657137e-06,0.283539789600374,0
1.55349774886244e-06,0.287803159282204,0
1.3291507815054e-06,0.270390938333846,0
1.34727645218424e-06,0.284435542555841,0
1.21017075203497e-06,0.264081480515555,0
1.0791771533995e-06,0.261685559287879,0
6.1927746964473e-07,0.205898641363353,0
5.6237064710966e-07,0.215768692612192,0
5.68485090530373e-07,0.215314709495278,0
6.17690345556636e-07,0.214412031075344,0
6.56119660339607e-07,0.221184565498432,0
6.31376036254637e-07,0.221790776745399,0
6.91199359446682e-07,0.230490096280095,0
6.60091534457126e-07,0.213207641618605,0
7.32236731970805e-07,0.201441897380685,0
1.39527176789397e-06,0.258424392550889,0
1.66021376288781e-06,0.280910338889724,0
1.90653704691887e-06,0.299994749259593,0
1.79167450307199e-06,0.309656143542645,0
1.93590290644588e-06,0.313564763287023,0
2.34526713205013e-06,0.327100833637705,0
2.32922644731637e-06,0.321560145634944,0
2.36999064328753e-06,0.320839002783343,0
2.23686342969881e-06,0.323007382936218,0
1.96902573569171e-06,0.327128069044888,0
1.78629638273529e-06,0.30540449240476,0
1.65651837154477e-06,0.284940578525596,0
2.06055296806125e-06,0.280592076752619,0
2.25224562531347e-06,0.261509690179263,0
2.1834441198288e-06,0.261921043178837,0
2.39587215861177e-06,0.264928778376372,0
3.24201690072522e-06,0.309213876122455,0
3.93807351286022e-06,0.339113785658385,0
3.87653591381085e-06,0.317778732438712,0
5.27941750156649e-06,0.36214870776667,0
5.3817440932484e-06,0.353922064844136,0
6.23043007987649e-06,0.363171996699988,0
7.42313695657322e-06,0.426173989125746,0
7.58584424529151e-06,0.454950855059901,0
7.95522633407295e-06,0.45030905686589,0
8.32218730438825e-06,0.486312323760851,0
7.74128859188911e-06,0.464771344197032,0
6.59334423505319e-06,0.423118561146036,0
7.24585115958773e-06,0.472876879793548,0
6.49571688622285e-06,0.489896645528091,0
6.49387986689166e-06,0.517436159750492,0
5.07281722924674e-06,0.519858560492871,0
2.85325608330945e-06,0.375659442618566,0
1.44965580565122e-06,0.259561968051761,0
1.31552639366472e-06,0.264404334180248,0
1.77535072312071e-06,0.298587715480554,0
2.1745378478542e-06,0.338325091864013,0
2.70605855525275e-06,0.392963892032917,0
2.19633907254697e-06,0.364105056295116,0
2.03114302558066e-06,0.33452218652571,0
2.13965321581672e-06,0.340308995337321,0
2.31884284535993e-06,0.332390004896522,0
2.79008741497763e-06,0.363396002288534,0
2.34362958808387e-06,0.349263626548436,0
2.23100962674113e-06,0.343330815021208,0
2.19738866011985e-06,0.335842340589867,0
2.18544892990206e-06,0.326864935351631,0
1.92587747848728e-06,0.302016193577129,0
1.95850533881995e-06,0.299280740748536,0
2.0132045696953e-06,0.304242205296504,0
1.53102742758987e-06,0.271753913218806,0
1.38745048761435e-06,0.27630287356629,0
1.14939096650947e-06,0.261203910352225,0
1.18232479009184e-06,0.266877388291513,0
1.12230130273869e-06,0.272616299866088,0
1.07041745724555e-06,0.273772872846257,0
1.19053179621528e-06,0.28670697170189,0
1.18882358176407e-06,0.285650879757881,0
1.00166830026826e-06,0.280783619349156,0
6.65983221203031e-07,0.243716216947804,0
6.221847404333e-07,0.224487505708481,0
6.89631108373091e-07,0.232993678548405,0
5.11057124828456e-07,0.209716522866738,0
4.9387124761624e-07,0.212943938910109,0
6.26393560426308e-07,0.219347534233309,0
8.70950357851892e-07,0.240963700120495,0
4.71137255177576e-07,0.18612575552768,0
4.88861357701154e-07,0.176515060828822,0
2.35038075466535e-06,0.317581781783512,0
2.53881113559345e-06,0.296202381460436,0
2.78917214265393e-06,0.312443765426048,0
3.13726216485644e-06,0.337540253420417,0
3.2152625429201e-06,0.341845850418354,0
3.24033623812e-06,0.339320693808804,0
3.17478709029489e-06,0.351811032166792,0
3.12620671113561e-06,0.343635154186326,0
3.20003119366221e-06,0.347394738949033,0
3.11009866213841e-06,0.360206172316351,0
1.27477983087499e-06,0.273811672884011,0
8.22670569332339e-07,0.259514102104727,0
7.22183063370069e-07,0.25215761855106,0
4.30166971398434e-07,0.207388746206671,0
3.59997516760497e-07,0.194450353993409,0
1.17682819681739e-06,0.270745205987889,0
1.93376557199342e-06,0.310794884587277,0
1.82970927542043e-06,0.313025226109657,0
1.65628542068695e-06,0.30557073392121,0
1.84734920705451e-06,0.315272848478287,0
2.045039212382e-06,0.311773492221461,0
2.09875305148561e-06,0.296794194400625,0
2.55335851027471e-06,0.321599432974372,0
2.69168599703428e-06,0.326399732577547,0
3.04130390685601e-06,0.348487668634552,0
2.13933912477246e-06,0.339137055472312,0
8.27720960461028e-07,0.230530915516351,0
7.78565160998313e-07,0.233346212287632,0
6.5908988709626e-07,0.215242910492915,0
6.76727339064207e-07,0.222639171067515,0
5.89626724030205e-07,0.226233585285235,0
6.79009871745018e-07,0.25848861356758,0
9.56615521709959e-07,0.318113868908787,0
1.09031360954753e-06,0.326785146921914,0
9.03755652072722e-07,0.283717503987727,0
8.36189709121347e-07,0.276061013407331,0
7.34349269761875e-07,0.256267623807086,0
7.75457312770953e-07,0.264244623215042,0
7.84976475559538e-07,0.277085523517456,0
6.97119149075497e-07,0.266911537259546,0
7.11352294953264e-07,0.261621209792327,0
2.58781815508784e-06,0.349741332273227,0
3.442150892551e-06,0.292214669198735,0
3.48086123616304e-06,0.29245475993733,0
3.39157603526071e-06,0.291428051245348,0
3.47126768339029e-06,0.294230796090181,0
3.61459018206812e-06,0.281456022805825,0
4.17582831054847e-06,0.29414673067364,0
4.05099764658266e-06,0.288032974812311,0
3.86840660389308e-06,0.279467925724684,0
3.68623200735561e-06,0.268768953057652,0
2.43601092767902e-06,0.248591749886324,0
1.85599043027071e-06,0.26546052349008,0
1.92787388524751e-06,0.274213899625377,0
1.95683914093388e-06,0.272509430021347,0
2.14223330843419e-06,0.282302528141918,0
1.9979276221323e-06,0.294552756972476,0
1.51672374898638e-06,0.269248557942516,0
1.67387934073824e-06,0.28700820117219,0
1.43168098132916e-06,0.278807249348965,0
1.35574051703074e-06,0.284101081340153,0
1.08452882396406e-06,0.268017525811652,0
1.11322352052282e-06,0.286588930642909,0
1.01838786248714e-06,0.277353703132393,0
9.13188302064906e-07,0.262668442106451,0
8.35146182954582e-07,0.251856303472989,0
1.00714891347203e-06,0.278571132284017,0
1.55700110383894e-06,0.337467918897873,0
1.37204776587443e-06,0.313568690419898,0
1.36289834885899e-06,0.309511874985519,0
1.3593200528614e-06,0.316051853165752,0
1.34066400914731e-06,0.336414347321747,0
8.11192470294065e-07,0.268520611607838,0
6.91501740956394e-07,0.252323240802896,0
6.23489458100026e-07,0.249465793443321,0
6.5434532145803e-07,0.249080365038928,0
1.27086085630177e-06,0.326014876405496,0
1.78728714711699e-06,0.40714020747745,0
2.08097784028773e-06,0.427190795919653,0
2.09544682996714e-06,0.412839068904924,0
2.116279331755e-06,0.402174482380468,0
2.18708757594215e-06,0.405665836990527,0
2.20224109123512e-06,0.398853925642486,0
1.89985475995235e-06,0.350693923577106,0
1.57390471238902e-06,0.309434080264717,0
1.5046658213493e-06,0.291924279636972,0
2.14884451163805e-06,0.336112659030226,0
2.28676698626161e-06,0.302651074173439,0
2.17106893268518e-06,0.284627084671115,0
2.48225601237241e-06,0.308138364797138,0
2.45095670205325e-06,0.302445959730133,0
2.541327170169e-06,0.301359812294986,0
2.26051324549808e-06,0.293818574340347,0
2.4630435591286e-06,0.306975009804115,0
2.30505245764718e-06,0.297617269582627,0
1.87721086205007e-06,0.280716356906689,0
1.64025024632239e-06,0.276794653291206,0
1.49349740505992e-06,0.294788712560056,0
1.44590324422776e-06,0.315896748430182,0
1.39825577057362e-06,0.304935537475643,0
1.64515268403813e-06,0.327922555878512,0
1.76872891245615e-06,0.352909507907445,0
1.95092375960042e-06,0.332783433951588,0
1.91822302463511e-06,0.324305127098517,0
1.81907646701704e-06,0.31462905632267,0
1.4511977447119e-06,0.285631201701488,0
1.17396211603856e-06,0.25823907845399,0
1.17858421372138e-06,0.267786930221388,0
1.27688162344613e-06,0.281675231433948,0
1.24492533935939e-06,0.283067680565126,0
1.21884407315174e-06,0.284316054215219,0
1.30206387291922e-06,0.271623276518261,0
1.24414107606337e-06,0.280320134798613,0
5.86997589126876e-07,0.210779949186277,0
6.32164983364481e-07,0.222133433942883,0
6.95097945653875e-07,0.227872890052129,0
1.02085940083143e-06,0.256072791655142,0
1.31616063715935e-06,0.268996912329734,0
1.42913698162993e-06,0.27021112905309,0
1.40032215902266e-06,0.264609441117375,0
1.3902573319243e-06,0.268057173303042,0
1.57856386730469e-06,0.293464456066835,0
1.37848236174551e-06,0.295681279828679,0
1.41435266107319e-06,0.292105375287699,0
1.5165241358622e-06,0.294884220913533,0
1.5534722634049e-06,0.295622954328695,0
1.40296644744129e-06,0.289310664541502,0
1.5267414624281e-06,0.276920280466627,0
3.0162269054346e-06,0.373291403440143,0
3.11357033249204e-06,0.383198964146766,0
3.15223865953895e-06,0.384302034642417,0
4.65153407506842e-06,0.435605594929063,0
2.22883778360157e-05,0.266525380579614,0
0.000186734142713308,0.394530443290142,0
0.000264425085994679,0.328555204042255,0
0.00029011497120436,0.35079508973203,0
0.000333722478006741,0.340496194463641,0
0.000507188947042644,0.367768508369001,0
0.000578778596848354,0.295801121791898,0
0.00050035317755873,0.27390482005633,0
0.000435825927701286,0.155743158944641,0
0.00141967100726675,0.109321199639078,0
0.00197720620057088,0.0729199743202919,0
0.00203491281531117,0.0738259262443885,0
0.00187087169916104,0.0628711391890747,0
0.00174030650541866,0.0429171990763289,0
0.00223528666400273,0.0462381366622167,0
0.00251319928630372,0.0450113112370298,0
0.00274309178163111,0.0356804498322214,0
0.00216791085151894,0.0254393946241495,0
0.00171584655169599,0.0207124944908111,0
0.00161310947346403,0.02475586259976,0
0.00170083998472463,0.0290850443718584,0
0.00205490863641601,0.0344006247989456,0
0.00209604971408843,0.0377283756679597,0
0.00213195943445958,0.0515530850539921,0
0.00189225663268084,0.0514435936537523,0
0.00202429590583827,0.0617542985652039,0
0.0015408421716793,0.0778321070342511,0
0.00161980792509858,0.112736795867145,0
0.000963950247410185,0.102449459350366,0
0.000609292151663519,0.0800089162124379,0
0.000708130964116265,0.103351237651526,0
0.000882180071488223,0.117333308022539,0
0.00102924664451887,0.129297467340993,0
0.000961596438792601,0.149167549512442,0
0.000667413028658834,0.132057787511402,0
0.000638167943199739,0.176438943195398,0
0.000621115875522577,0.186074441195218,0
0.000475513829544209,0.247161107346815,0
7.63481237535529e-05,0.190924344761006,0
2.88090201885071e-05,0.352439116793367,0
3.52813565782252e-05,0.414119499484538,0
3.71904412065832e-05,0.402795522669819,0
3.787081572126e-05,0.470443900973754,0
3.03203277956093e-05,0.318334794518369,0
2.46850213085559e-05,0.229152642455904,0
2.68916673889275e-05,0.184774600589381,0
2.87026502256673e-05,0.179124581821959,0
3.6242573258215e-05,0.192840619071712,0
4.98864999037538e-05,0.234677145656965,0
5.84688227836034e-05,0.27684468765588,0
6.42985608569186e-05,0.280606841851763,0
6.89703163338309e-05,0.295609664891151,0
6.22097760633112e-05,0.28316935696439,0
3.64513480599793e-05,0.251405565881386,0
3.42564719904542e-05,0.333500929036046,0
2.63800593649385e-05,0.504030996702385,0
4.29613069086706e-06,0.279729782434036,0
2.73184281256065e-06,0.371890028295212,0
2.40225537029009e-06,0.348090343062267,0
3.75500251701355e-06,0.441158397443992,0
2.65404607019069e-05,0.214983799240915,0
0.000149389369979187,0.285269022250936,0
0.000203013131077527,0.11102974208771,0
0.00126727226376606,0.109138689307766,0
0.00251349438861572,0.155757179744992,0
0.00410754513684029,0.190193621590451,0
0.00470073761636986,0.147970522640043,0
0.00437836755538539,0.135352437782712,0
0.0038177792417387,0.121020561440292,0
0.0033421884786239,0.10774590215653,0
0.00311400518121086,0.102549712670404,0
0.00292645714484428,0.096107636738939,0
0.00161215113691626,0.0325203706239835,0
0.00229650643446218,0.0599017562299487,0
0.00309916261811809,0.0738770067513637,0
0.00334786952764998,0.0807480983617156,0
0.00343991742929461,0.0881293255632726,0
0.00393816127334196,0.0933813463165241,0
0.00407708254481241,0.0969676129660671,0
0.00388199082623941,0.102561868378145,0
0.00285562272626569,0.0989133844088639,0
0.00118238729104118,0.0577659528754194,0
0.000816512979720811,0.143813845397413,0
0.00106451160017198,0.177539136933774,0
0.00122230233677711,0.194357135115481,0
0.00124296945585424,0.253966654952072,0
0.00103005231119094,0.265063015001312,0
0.00100899845236205,0.33484499174894,0
0.000636708194188588,0.428211053505767,0
0.000229164077005751,0.290283917348546,0
1.86959376850106e-05,0.165989372415831,0
9.10449056209088e-06,0.374749005152292,0
1.13691806674406e-05,0.362938988762653,0
1.20362036953112e-05,0.360623767988579,0
1.42591460037881e-05,0.403554512849769,0
1.43871992694198e-05,0.412606164320262,0
1.38875461291639e-05,0.391281308243586,0
1.44453964826616e-05,0.413016077234552,0
1.93376477298989e-05,0.277541936219994,0
3.22427550941828e-05,0.265017471596105,0
3.36710944498714e-05,0.244796873746777,0
3.23585950397661e-05,0.252002808582819,0
2.86765674441081e-05,0.250748535989679,0
3.06612745884619e-05,0.264155592488678,0
3.10519718873729e-05,0.266919023110574,0
3.25301698901154e-05,0.277323628444323,0
3.56928544187826e-05,0.288828680512099,0
3.78268539958028e-05,0.299745797520818,0
2.94484235928493e-05,0.452930153655298,0
3.44668978365893e-06,0.283442425963132,0
2.58329207558829e-06,0.324280706494467,0
2.32297672433186e-06,0.316276554807126,0
2.95131861354715e-06,0.287333242387292,0
7.35910701753585e-06,0.456420845828961,0
8.79987845493004e-06,0.502986109748087,0
9.15492628255894e-06,0.499243388257217,0
8.11370675633911e-06,0.459810152816104,0
7.37619632552788e-06,0.442346475008824,0
7.57487544212632e-06,0.4474288517996,0
7.64006076782516e-06,0.455283646996004,0
7.15314801443145e-06,0.444205085696852,0
6.71955869048372e-06,0.425333620748896,0
1.04613918383931e-05,0.47011813949275,0
1.3032970935456e-05,0.483077519646722,0
1.31322203992189e-05,0.440913901546408,0
1.31871565759697e-05,0.429979138932163,0
1.25074955163448e-05,0.415538356247274,0
1.20924717282971e-05,0.408139752015712,0
1.07429044778782e-05,0.382042043329671,0
1.03881425006514e-05,0.363637687646301,0
9.78367704116867e-06,0.352942934138407,0
1.09233587371522e-05,0.378960840146759,0
8.63338815999848e-06,0.474916332748056,0
4.05232440572617e-06,0.356328082916659,0
2.83980733848693e-06,0.339746257771597,0
3.07089018115093e-06,0.384859615752771,0
2.70434262628467e-06,0.389070566333456,0
2.74502347792171e-06,0.403723628277549,0
1.3507777407723e-06,0.318477835812912,0
4.29664425727626e-07,0.222689988987743,0
1.11140978250149e-07,0.157912442836839,0
1.04271614249385e-07,0.167415088419915,0
1.75064016125093e-07,0.184045604826008,0
1.48275218512491e-07,0.177030484573418,0
2.2009861046504e-07,0.20348399125738,0
3.11602561524719e-07,0.222124196769989,0
3.20129306820843e-07,0.2116581110847,0
3.98390876384456e-07,0.224165259792236,0
3.44244473298846e-07,0.217532686022939,0
3.7408794407605e-07,0.220140633529064,0
4.52885121525654e-07,0.213027357320954,0
5.01641970258475e-07,0.218083214071359,0
5.12159198667945e-07,0.220001140291635,0
5.12073787945385e-07,0.215425010090526,0
5.18128581619535e-07,0.217045152957414,0
4.89259068597978e-07,0.216875053770074,0
4.01045358986093e-07,0.20742643508071,0
2.61430787741225e-07,0.177717967076209,0
2.81632903292894e-07,0.181703226327161,0
2.66784524694231e-07,0.17565932758948,0
2.85101129665764e-07,0.186999368667283,0
2.31433439904182e-07,0.178044043496208,0
2.62363142209433e-07,0.178388403175285,0
3.25714754798602e-07,0.176635816560173,0
9.24997023255028e-07,0.23555151257632,0
1.04806188941152e-06,0.226023518323989,0
1.10711045469441e-06,0.230509382793859,0
1.18650109890658e-06,0.23685151952028,0
1.24327705017321e-06,0.238008190552692,0
1.2641161644041e-06,0.237832307958123,0
1.34526516742717e-06,0.247105790373579,0
1.75420289045553e-06,0.280680511269432,0
1.81390126602603e-06,0.287511928664321,0
1.81993181407571e-06,0.299028775162365,0
9.31726286118946e-07,0.235277163783683,0
8.71129444850808e-07,0.255846331911273,0
9.29653974023017e-07,0.259808367940069,0
1.01749807562098e-06,0.259628926289051,0
9.92709542027056e-07,0.264270513679744,0
1.73177568782194e-06,0.336100581674747,0
2.34331715015038e-06,0.345949480743786,0
2.01646794809325e-06,0.312674564608712,0
1.88573540319851e-06,0.295024985024509,0
2.2413510743732e-06,0.318900798233089,0
3.01142516971595e-06,0.380394546419193,0
3.06313047924709e-06,0.36476736551845,0
3.09628086033891e-06,0.363853495348506,0
3.387916185799e-06,0.385110607147714,0
3.80561484481438e-06,0.39766175924355,0
4.03972012498317e-06,0.440078973751612,0
3.96247025920421e-06,0.469829866182699,0
3.91086565167014e-06,0.474717676430344,0
3.88361673822956e-06,0.507614138401409,0
2.97435071695939e-06,0.4486180326319,0
1.41605977345056e-06,0.305221824645238,0
6.63288237387792e-07,0.233984588821176,0
6.70109385658078e-07,0.241090490606018,0
6.29333893430063e-07,0.249777850970635,0
5.80423718674325e-07,0.248529497774525,0
6.21564823898588e-07,0.234354379637614,0
3.11674334083515e-07,0.174263698608418,0
5.46619807795688e-07,0.198138074259622,0
5.13556077259497e-07,0.184004920809835,0
6.97166400491366e-07,0.201102269584329,0
1.2042990403774e-06,0.254526977074175,0
1.23120383126161e-06,0.259621305332775,0
1.35887701917793e-06,0.276118689248435,0
1.47219776172335e-06,0.277858930780431,0
1.99653570287303e-06,0.307076404953156,0
2.12956483189004e-06,0.317578930440455,0
2.09021321906264e-06,0.323676726291688,0
1.81739704424489e-06,0.301726135091966,0
2.45107834345328e-06,0.331047346672925,0
2.31316151695814e-06,0.324201032624065,0
2.47199790907445e-06,0.330182740457709,0
2.62500102435835e-06,0.313581951415486,0
2.49224700052353e-06,0.29636913465103,0
3.14571438240917e-06,0.332680707797843,0
3.07389884273273e-06,0.339776890815989,0
3.0833360387795e-06,0.319394703169351,0
5.15464524751416e-06,0.393565691296406,0
5.43645379382523e-06,0.386905876605232,0
5.45182496870149e-06,0.397491163628785,0
5.28462039216271e-06,0.408176163731405,0
4.81031329710431e-06,0.404227943287907,0
4.49805927218122e-06,0.402087340865471,0
4.63633317060035e-06,0.41050709763958,0
3.77594412411151e-06,0.366894383394112,0
3.61990920369518e-06,0.358405357340313,0
3.57089006138857e-06,0.38320461991168,0
1.40568636567714e-06,0.253783507052824,0
7.38955938410938e-07,0.203554907236062,0
1.1237660966306e-06,0.23804401813092,0
2.9921532044848e-06,0.346234061182638,0
3.09310592336657e-06,0.320641700147546,0
3.08882050924172e-06,0.321493104609353,0
2.62874256504341e-06,0.297590525708003,0
2.80856092771206e-06,0.309572753160187,0
3.29117710848329e-06,0.332440674211566,0
3.23232746752843e-06,0.328822407301607,0
3.32977173434218e-06,0.335763827637474,0
3.59481842635077e-06,0.338527119782589,0
4.23238122962184e-06,0.359159811278194,0
3.44734207361268e-06,0.325653907827929,0
3.44542887342733e-06,0.343119041382464,0
3.41567632374188e-06,0.345833356475043,0
3.38654134868424e-06,0.346896646677723,0
3.09966877308073e-06,0.33681883473677,0
2.76542506883832e-06,0.318268578420089,0
2.9428023379525e-06,0.322425141574747,0
3.07497005850471e-06,0.341140232261861,0
2.71078975824567e-06,0.341293442203221,0
1.87929832766129e-06,0.315354362699814,0
7.18870642686255e-07,0.218879985109813,0
7.74339121101562e-07,0.234142738433164,0
8.22472333800462e-07,0.235453963306691,0
8.51363061743429e-07,0.231805497817502,0
9.71368570921505e-07,0.25639905216816,0
4.30274010320094e-07,0.198370640203763,0
3.26544065362817e-07,0.195457114356743,0
3.64268466166206e-07,0.196148535037543,0
3.97039320579553e-07,0.199040791593642,0
3.9974091683783e-07,0.193234534806441,0
1.51787045681637e-06,0.29495929109662,0
1.77920453757818e-06,0.268001322940697,0
1.66719484962405e-06,0.265413357333802,0
1.79940224483449e-06,0.276012914034968,0
1.79769747436403e-06,0.267209861971886,0
1.76174231535071e-06,0.260845037347381,0
1.78711412152419e-06,0.259387435262376,0
2.18100302627433e-06,0.283874209201889,0
2.68095400198534e-06,0.30469170334366,0
2.74853248102664e-06,0.305556754252529,0
2.04393603646867e-06,0.298618221588177,0
1.89481208334054e-06,0.328862878999335,0
2.05249019585155e-06,0.347092177719753,0
1.99655292277677e-06,0.352871990697414,0
2.1497913308254e-06,0.385742531527252,0
2.35619598503864e-06,0.387493809927058,0
2.45783970421777e-06,0.400041620744878,0
2.15376320494292e-06,0.38755647160332,0
1.74984969878956e-06,0.364857977865179,0
1.79116093666279e-06,0.371441502857718,0
1.83431387768104e-06,0.378315911900001,0
1.8627439387591e-06,0.372278042865866,0
2.08302659555534e-06,0.36172986605833,0
1.93734455678716e-06,0.341320249715756,0
1.82306707638983e-06,0.337328793842668,0
1.49644228411827e-06,0.313623364369164,0
1.45889118442614e-06,0.314529974522302,0
1.5882819544213e-06,0.322448177224593,0
1.96021355327116e-06,0.345148484007614,0
2.03671745282002e-06,0.360295737240005,0
1.95931054151893e-06,0.316250773524006,0
2.07495500675492e-06,0.333484650291317,0
1.90573707907062e-06,0.338170613615437,0
1.65946862321308e-06,0.316338800566396,0
1.21251155687004e-06,0.272805064754855,0
1.16498255615364e-06,0.266065015690045,0
1.1182959531283e-06,0.261183725779795,0
1.18764436275582e-06,0.260793472303256,0
1.07541205588612e-06,0.245335669393034,0
9.05276513971216e-07,0.233357325533779,0
5.03749135439577e-07,0.202630074641133,0
7.31166067235742e-07,0.236888908265025,0
1.12478496389521e-06,0.281972948661349,0
1.07762433135966e-06,0.283679092863463,0
9.94197341710363e-07,0.263640133343404,0
9.74775494437054e-07,0.275859209508549,0
7.03497814699228e-07,0.242353220691547,0
6.17843533820326e-07,0.237211180120668,0
1.08231916591588e-06,0.291011782571306,0
8.91448380229462e-07,0.261784388490499,0
8.54436745681762e-07,0.251248079756456,0
8.7720669327944e-07,0.257510633737624,0
7.04628129180853e-07,0.230594743454855,0
1.63994993120113e-06,0.310995931277336,0
2.41627774454605e-06,0.364878187343681,0
2.41474517311301e-06,0.338969422491574,0
2.38484811399536e-06,0.322632432194886,0
2.25568065171193e-06,0.309781981516148,0
2.34409190805954e-06,0.335565756278339,0
2.47895488794545e-06,0.350751552928241,0
2.59880872421137e-06,0.353891712679977,0
2.44651465568395e-06,0.340665416523756,0
2.33430259942105e-06,0.340242712228122,0
1.68387735461008e-06,0.311740930210042,0
9.10980434886721e-07,0.239693934114939,0
8.57215211590343e-07,0.25072742722368,0
7.80001163211167e-07,0.247147718185559,0
9.70477406463049e-07,0.26935449773628,0
1.03870349164428e-06,0.263458325250736,0
1.24499146378976e-06,0.287359633052332,0
1.09552986278906e-06,0.290739423629661,0
8.29982415979658e-07,0.257993647936939,0
8.70899662455275e-07,0.260682017598628,0
9.1863433770197e-07,0.260439042388199,0
9.16200269868229e-07,0.25810216950415,0
9.19966744973911e-07,0.25872122787042,0
9.28816397905006e-07,0.271255914655779,0
5.92237950233644e-07,0.236401910103429,0
4.89988228202031e-07,0.224275687972834,0
1.95672108127382e-07,0.160660423276612,0
2.12226497029572e-07,0.159285609940272,0
2.37196184010869e-07,0.165915828712598,0
2.15367407472115e-07,0.16562978222484,0
5.34913579472638e-07,0.228920962203129,0
6.5115481769271e-07,0.235247893765975,0
7.99427832057523e-07,0.24639226065209,0
7.20031126439237e-07,0.232774877480446,0
6.91821342369844e-07,0.231926376780046,0
6.4514369369445e-07,0.223586442505582,0
8.75234118865984e-07,0.26489921865016,0
7.65320988632256e-07,0.253442811414645,0
8.68012091236584e-07,0.262107292691174,0
8.70152318632872e-07,0.260612602342904,0
6.7225953171892e-07,0.240693614627466,0
6.86125962526596e-07,0.25128793340434,0
5.46672707339983e-07,0.236043047229637,0
5.57971168342421e-07,0.232537859649835,0
5.37277527858342e-07,0.222480288963329,0
5.32795531312372e-07,0.230077854702964,0
4.82096690715142e-07,0.218037634961142,0
4.93255326099195e-07,0.216667688016718,0
3.89910555948819e-07,0.193525461136633,0
8.58339189147392e-07,0.254575235419355,0
1.00693621322101e-06,0.266099363754538,0
1.10675104086351e-06,0.28424768392541,0
8.79518981953916e-07,0.247482337933304,0
9.99839959768546e-07,0.271088137865301,0
1.00768631222802e-06,0.281663502668283,0
9.35759463093785e-07,0.268798466277145,0
7.19714831247303e-07,0.23125790500968,0
7.99976251551899e-07,0.236285247739742,0
1.17561811974163e-06,0.274475183826853,0
1.0585749850441e-06,0.26853723116771,0
1.12843544572929e-06,0.275026680112485,0
1.56549051638375e-06,0.292899413411893,0
1.51436806615447e-06,0.288431066470999,0
1.25421582182628e-06,0.26277789168822,0
1.13952520149837e-06,0.245756955809566,0
1.13670113728468e-06,0.245284864240206,0
1.23615765317011e-06,0.256040552265468,0
1.10882845005094e-06,0.244304461454049,0
9.47884892753529e-07,0.225478418179589,0
1.03235885255034e-06,0.233842506558965,0
1.0895201163831e-06,0.240686905439987,0
5.37224628314046e-07,0.188171246083755,0
5.26299770343195e-07,0.192956221583304,0
6.73330747490903e-07,0.205806224785558,0
7.15934717977858e-07,0.209533794485428,0
6.85891083039556e-07,0.207958678983539,0
6.39528076445335e-07,0.206995998620289,0
5.26524180128761e-07,0.205722360897276,0
4.02492795215033e-07,0.198132011745539,0
4.28284629280587e-07,0.208527484785837,0
8.37072608026008e-07,0.275900340840317,0
7.84796699764469e-07,0.24920850672982,0
7.94686848159273e-07,0.255640267156747,0
5.99564674877796e-07,0.230699386619984,0
6.32877611860941e-07,0.246358396713233,0
1.0582059280671e-06,0.303007082483854,0
1.31503046043695e-06,0.299364723667991,0
1.31861715974757e-06,0.291017172005039,0
1.25352523480661e-06,0.279711989103784,0
1.27885640200726e-06,0.277097643682352,0
1.26624936607966e-06,0.284448067325992,0
1.44353282115826e-06,0.328960544976889,0
1.42547258611363e-06,0.319236372692604,0
1.38582148472036e-06,0.322940357337804,0
1.37862893756616e-06,0.313244378737463,0
1.1057712972202e-06,0.294452892121314,0
6.17332171558803e-07,0.260893812879971,0
6.28366272598994e-07,0.251114249477201,0
9.40541774761016e-07,0.296050181409755,0
9.37479800357227e-07,0.286678694403308,0
8.78334252576466e-07,0.279330691722134,0
7.72471105943629e-07,0.260813046885952,0
8.03328760171622e-07,0.267177906243405,0
1.61181123089439e-06,0.308447966923499,0
2.56264692635314e-06,0.366622579525619,0
2.27918030995058e-06,0.339947721714639,0
1.69262850969177e-06,0.274695676664484,0
1.5699802274466e-06,0.262036165501056,0
1.61949433866638e-06,0.264190625450366,0
1.41205924541322e-06,0.251965258378048,0
1.47530726306147e-06,0.244708070324477,0
1.73384758664018e-06,0.241747945544263,0
2.18987031238686e-06,0.262357766709469,0
3.53194828227023e-06,0.365758724217664,0
3.4738410258055e-06,0.36692116325404,0
3.39862159331656e-06,0.360971072720099,0
3.76618374491131e-06,0.389309328453402,0
3.39218768624162e-06,0.384406231592937,0
3.34282028860173e-06,0.396666434054188,0
3.28447278003999e-06,0.39925729399444,0
2.29969748086111e-06,0.358839256424143,0
1.03614185876361e-06,0.270104470702466,0
1.25047359234507e-06,0.318740581212528,0
8.23183722463852e-07,0.257961250947805,0
7.30950060763202e-07,0.255799038198162,0
7.1705125653649e-07,0.264908494182011,0
8.0359367117079e-07,0.27001881533866,0
1.15688286447032e-06,0.312570420233376,0
1.06750247194011e-06,0.2971871227135,0
1.11044078407812e-06,0.288375870632595,0
1.16189509629231e-06,0.303741578115523,0
1.00507481050612e-06,0.287666936481346,0
9.41771826925115e-07,0.28517036738467,0
8.71092525377186e-07,0.281214866676119,0
1.03285878079578e-06,0.276592667347175,0
1.94517134743598e-06,0.343136615427468,0
1.95059038226398e-06,0.340350689343798,0
1.92726154547045e-06,0.341632045744192,0
2.23080092150778e-06,0.368130981974783,0
2.24411328469265e-06,0.382752348507261,0
2.3061776750373e-06,0.387789536076368,0
2.40141228380288e-06,0.39783092566427,0
2.476601271502e-06,0.378116748901702,0
2.86241101069408e-06,0.377487230153241,0
2.85933608692268e-06,0.383148315955815,0
3.68551209139589e-05,0.134650781563318,0
0.000148643274806443,0.187531944322289,0
0.000161226162092074,0.188663807046646,0
0.000208449255351274,0.190356833648968,0
0.000348359848037725,0.252893990830165,0
0.000500273461251698,0.299836986673622,0
0.000492670316651275,0.242771525630828,0
0.000430150762096402,0.213039557262302,0
0.000448855534694106,0.129810383604835,0
0.000392966794196034,0.0752086491045827,0
0.000305986384422094,0.0639757463588095,0
0.000325014517056079,0.0625312111675932,1
0.000244002470815428,0.0449983947638288,1
0.000213104337002031,0.0345918654384051,1
0.000235799269050879,0.0378138031631164,1
0.000242448821118135,0.0386202170980813,1
0.000254806462281914,0.0405366845474971,1
0.000244897043574992,0.0377478539770363,1
0.000237242921860327,0.0489435543939495,1
0.00025734478285689,0.0669748930385306,1
0.000253135593669146,0.0788643796634294,1
0.000211388613019682,0.078013289342986,1
0.000188168384500962,0.100420458685028,1
0.000106206388218942,0.0712235315277877,1
0.000323824069568512,0.107106879107666,1
0.000359414426023131,0.0650203835923128,1
0.000431787982190703,0.0749609913222731,1
0.000440616604797755,0.0773105101179977,1
0.000483448366646093,0.0846325729160403,1
0.00055617475492184,0.0919453125339817,1
0.000611915163444597,0.104850435882282,1
0.000628934076470131,0.110942016598613,1
0.00067844404458107,0.122510345125322,1
0.000661789735465427,0.161676217079896,1
0.00021023373055699,0.112929744055939,1
6.39761888298344e-05,0.251452950126829,1
6.39801337031428e-05,0.291257540237142,1
2.47326738793015e-05,0.215890731343187,1
1.71212622097301e-05,0.32471011459204,1
1.81000110936362e-05,0.317475380982264,1
3.67646102069471e-05,0.368318790543382,1
7.3188508776047e-05,0.47786435988354,1
0.000210172218305638,0.503013555237345,1
0.000235947472634592,0.172424475969508,1
0.000218587023206701,0.156875739335294,1
0.000200842751629787,0.147520603440128,1
0.000198583561286174,0.148621394117874,1
0.000199331252261837,0.14514658227142,1
0.000180427280506441,0.137106110599698,1
0.000142085172826389,0.119718308640829,1
0.000149506139248535,0.118518189927055,1
0.000181416471126699,0.132324576385447,1
0.000209001792606792,0.160066101547758,1
0.000187318685983994,0.242382399614322,1
0.000188633143366035,0.0955909635560308,1
0.000280438905474452,0.068973820753012,1
0.000429789332710206,0.0345246076528462,1
0.00156289435442763,0.0553121734400724,1
0.00154297197827864,0.0352834906525297,1
0.00149341218609821,0.0286391964331172,1
0.0016467663956576,0.0280424185409312,1
0.001573679224913,0.0268775495532977,1
0.00153229507920715,0.0267350780829697,1
0.00113080765856671,0.0208264830955694,1
0.000972666092734853,0.0198784740764741,1
0.000931043454530644,0.0210275312089142,1
0.000776164429796142,0.0299724813971024,1
0.000428018555731278,0.0245780498840558,1
0.000330269663447719,0.0352640251449775,1
0.000290549763579663,0.0272410133379701,1
0.00223434555424666,0.0476615299569157,1
0.00852516664147357,0.0839068606714483,1
0.0126481812065169,0.0522366157528801,1
0.0166584134806646,0.0366751729212423,1
0.0209782537583056,0.0282223169527519,1
0.0185195418210538,0.0254071799057048,1
0.016890309185854,0.0135753403294738,1
0.0361282252175401,0.017690185521278,1
0.0358617562310508,0.0136626352279092,1
0.0310278021634183,0.0116404425864933,1
0.0337213088277632,0.0137803080702679,1
0.0350079175432335,0.0127227289666027,1
0.0323619813203366,0.0117055317051242,1
0.0377964864271988,0.0126472320916994,1
0.0549778743857136,0.0221859705857604,1
0.0632869026209797,0.0201038254973041,1
0.0444456971195058,0.0171928869201037,1
0.0452373095088311,0.0218652154527355,1
0.0423108412089332,0.0227277129264827,1
0.0388091205230727,0.0169265238826918,1
0.0398609129634268,0.0146925421834118,1
0.0368481506359496,0.0120904451127957,1
0.0381077959072017,0.00830059231271247,1
0.0489137239790289,0.0107260306167416,1
0.0445774677153268,0.00996786702435159,1
0.0358715684848667,0.00707974085594251,1
0.0427487471413435,0.0054118805447073,1
0.0547795187819264,0.00788742258534076,1
0.0669370842380195,0.0110209016048719,1
0.0683214520024859,0.0121981280703056,1
0.0701825284518661,0.0141127328646338,1
0.0547778420668119,0.00802566879149743,1
0.0610906718995111,0.0146019092598472,1
0.0597772890321629,0.0169330414436126,1
0.0558727673803839,0.0128928646311456,1
0.0521924750072875,0.0118097825444084,1
0.0512310003090815,0.0144834433499229,1
0.0470475582596968,0.0127684081938647,1
0.0459535577928528,0.0107729871581246,1
0.0483706009690081,0.0104058163667191,1
0.0455352586792379,0.00816941829428585,1
0.0439175024957515,0.0110135163450456,1
0.0370868953665048,0.00911592312330842,1
0.0366975705683121,0.0106361437354299,1
0.0454035160010137,0.0134971932736082,1
0.052657082963598,0.0217267213939658,1
0.0882973250385279,0.0449947251401065,1
0.0968476781742497,0.0370559390634467,1
0.198285060930757,0.0331796834363022,1
0.207555306494445,0.0222984150683564,1
0.20855709631709,0.0230087852940069,1
0.205174149417086,0.02127233714809,1
0.159770486472159,0.0155176526950002,1
0.112641938711897,0.0090314868397545,1
0.0956581183458579,0.00698361485265868,1
0.0898566774224137,0.00541394226002175,1
0.09328727695667,0.00476000626312726,1
0.0836648170071125,0.00220762176992391,1
0.0697641328290941,0.00256201338866686,1
0.0684391157795715,0.00348860798457201,1
0.0721320473792081,0.00247251751923537,1
0.148238461558391,0.00932429352382183,1
0.145813031744138,0.00631257883414294,1
0.166082682246374,0.00847557890291461,1
0.157576827411065,0.00767720668265884,1
0.156247606665642,0.00846747427008778,1
0.15378859747359,0.00888206542538142,1
0.158916303571966,0.0113377582754794,1
0.152666638253469,0.0112590919938718,1
0.138722654329656,0.009192980769064,1
0.178814004608394,0.0134168933100355,1
0.144784716931704,0.0133743725378453,1
0.179954696755242,0.0238406878774645,1
0.227673543626217,0.0284556742923717,1
0.273515698989506,0.0376971055954054,1
0.308714596752292,0.038482796906767,1
0.27306490976239,0.0391775011040586,1
0.165028693409364,0.0285059262803985,1
0.127510463509088,0.0242537407204311,1
0.030212500899557,0.00892865853041364,1
0.0248220705759122,0.0127058694939949,1
0.0374423218842004,0.0124735850493297,1
0.0397503031131324,0.0117248440246145,1
0.0428407015766569,0.008068504315918,1
0.0568247922169594,0.0095057191649489,1
0.0530677453480143,0.00432437079610743,1
0.0627777795641048,0.00615365939006602,1
0.0640643373745089,0.00644277999173449,1
0.0634293844666872,0.00830070119334554,1
0.0630412652292715,0.00781056356901439,1
0.0619323241560908,0.00850238686379828,1
0.0486780309544422,0.00757171469319753,1
0.0473570137774986,0.00823486684297044,1
0.0424450810288811,0.0117980052868539,1
0.0302359286853615,0.00590689693793923,1
0.0554469325598577,0.0303488919688677,1
0.057602419295874,0.0317244730720969,1
0.0571511048892458,0.032416043688985,1
0.0682495827840989,0.0329385135600598,1
0.112301812875889,0.0519761236794033,1
0.140147043543021,0.0556459636095571,1
0.138903259965798,0.050420547041014,1
0.142903854816368,0.0499614365149735,1
0.104722037150601,0.0310354085468658,1
0.0668461542922004,0.0252068325274933,1
0.0625475642122511,0.0237747141203153,1
0.0695687415789743,0.0240086107629688,1
0.0833800847684238,0.0269402251057538,1
0.0896516428123961,0.0179884003182803,1
0.111934389556944,0.0169433697628595,1
0.109620013651735,0.0126735015959911,1
0.103535494591677,0.0132862371101658,1
0.100812825561882,0.00865943322954824,1
0.108611584137278,0.00844245913362066,1
0.116669476841214,0.00719215642891762,1
0.142036812327492,0.00815471106954399,1
0.134735176919986,0.00804042050972035,1
0.142140979612819,0.00729092957768612,1
0.165930016091131,0.0117747712710017,1
0.118881236587182,0.00693110236017788,1
0.115287192660304,0.00862206062870027,1
0.116264548440221,0.00888523197697511,1
0.0844561255629457,0.00969012174799781,1
0.0780284388414161,0.00784297979955374,1
0.0941066552326309,0.00526069338774956,1
0.122287944564502,0.00835180630722698,1
0.168787205007592,0.0122941175569008,1
0.210021543973768,0.0174205374229473,1
0.240732110186921,0.0208538054961859,1
0.242391364024759,0.0232890228163478,1
0.242456173127797,0.0225807345870256,1
0.23542314603943,0.0192933906207769,1
0.215562444501376,0.0153071097775169,1
0.114045279767461,0.0109860984972702,1
0.019178570346194,0.00351736146803899,1
0.0187509514148353,0.00773044123676,1
0.0176201093980145,0.00696644844642969,1
0.0157353621715283,0.00428495046828267,1
0.0198156615148991,0.00608388177132401,1
0.0213031673638328,0.00447307748424403,1
0.023850392030881,0.00492217650482706,1
0.0253997636311307,0.00472941166536421,1
0.0380794700879819,0.00611031253323066,1
0.042950045220566,0.00355016834785777,1
0.0426289519826573,0.00493356923820332,1
0.0427212809292488,0.00708402370219722,1
0.0430515288007017,0.00795321583868968,1
0.0404981722627259,0.00858088257840614,1
0.0525288966952871,0.0102664828048122,1
0.0670266236334927,0.0189252082649672,1
0.0685661447518781,0.0219626113669032,1
0.107186121631696,0.013784407345619,1
0.243561777377073,0.0226834826217042,1
0.259571751531663,0.0256800333911603,1
0.340514653982532,0.0296019620130379,1
0.331705231655216,0.0226347173558992,1
0.317218823340454,0.0196583757788096,1
0.279755553590478,0.0143344272642909,1
0.21904492464213,0.0108082117515631,1
0.162553898638013,0.00695422495730807,1
0.14238119673882,0.0047377569584693,1
0.152518388542456,0.00833288629806389,1
0.142607451839027,0.0083716394987209,1
0.152993389590405,0.0102931236061631,1
0.13433584134935,0.00918573945888846,1
0.128833024199818,0.0112191829681319,1
0.128629663783921,0.0132242714440802,1
0.112860240380084,0.0166034498071378,1
0.137260053213538,0.0185663159470352,1
0.173288194064966,0.0214665483157808,1
0.190862126410132,0.0256072806607946,1
0.237879246508023,0.0426665988165216,1
0.252887869244391,0.0455681797374917,1
0.177800230192999,0.026385765662847,1
0.13049364929372,0.0214492910959646,1
0.105750913962283,0.0169730380100778,1
0.0986692037105295,0.00745631842985086,1
0.146401072719055,0.0103095704186657,1
0.154775777453804,0.0115098670719906,1
0.203089970772362,0.0125493026043022,1
0.280933356421862,0.0174961830995819,1
0.340587348402814,0.0204129181420169,1
0.382915427988038,0.0248826348123813,1
0.347454411769334,0.0297729852815203,1
0.274180558999782,0.0237813380809886,1
0.132735505013765,0.0115336892310453,1
0.0460264729272536,0.011330670022489,1
0.0480547323066515,0.0124116390481249,1
0.0338594605469702,0.00897313405694536,1
0.029220217291849,0.0335986498110023,1
0.0252064578387814,0.0287352465544641,1
0.0215405698059221,0.0254684508643539,1
0.0190444206351095,0.0232876192502591,1
0.0169299425875281,0.0195164158735638,1
0.0177241231819514,0.0175789036286389,1
0.0202313134485291,0.0199646809161019,1
0.0225406273299445,0.0243130503877794,1
0.0336353747297854,0.0349560210774871,1
0.0498360212984242,0.0792872071244455,1
0.082535633341412,0.021429943398399,1
0.252392772628976,0.045558568614554,1
0.307370694090875,0.0378508110651949,1
0.289970851982339,0.0349070658683954,1
0.327688994131537,0.033534645280703,1
0.436921039593755,0.0460536830876363,1
0.452125533450331,0.0366510353177906,1
0.366491255275398,0.034656730857866,1
0.284430208322383,0.0286573170373068,1
0.19440494997427,0.0192456148720535,1
0.125905360445848,0.0195988868972977,1
0.126163531926253,0.0218954872818472,1
0.135211257881274,0.023032717665751,1
0.147322510208568,0.0191986522686559,1
0.161232636671184,0.0162672588619215,1
0.175744468757105,0.0174602033913147,1
0.180639716874285,0.0194255415945173,1
0.244703846275062,0.021851714803761,1
0.274842126565427,0.0174314565264145,1
0.342316784210028,0.0113485118233251,1
0.42556214748556,0.00755138321830736,1
0.464780913761066,0.00807425385351322,1
0.445426309805893,0.00891032139675758,1
0.334396239960597,0.00596542693656719,1
0.350967953809595,0.00817633823611689,1
0.351782717175323,0.00772952411850495,1
0.359221218119047,0.00678789213156397,1
0.344672656724823,0.00684120068297899,1
0.327370291696247,0.00714704461619042,1
0.275937098563811,0.0120710388570375,1
0.151664877137644,0.00713057064719465,1
0.189753855579688,0.0103442090620501,1
0.218594075101681,0.0113733021431453,1
0.228620029796059,0.0114182739783274,1
0.293508623057,0.0136032395342606,1
0.365938946445623,0.0185331617568146,1
0.410058448924951,0.0208761964588094,1
0.446767593363895,0.023438932256087,1
0.431725921425079,0.0253735646582155,1
0.246371939269267,0.0183175292318331,1
0.0700137810654906,0.0146134416753114,1
0.062426110504209,0.0139374950562571,1
0.0537679697356063,0.0149959594854035,1
0.020155279874007,0.00481919313344716,1
0.0187922636874181,0.00863950134925419,1
0.0197184649347725,0.00978552661289737,1
0.024223891709983,0.0127129007954155,1
0.0283293960213902,0.013794703568646,1
0.030462375037396,0.0157325753776633,1
0.0269966536925514,0.0109125877622242,1
0.0190669661387573,0.00705494157131036,1
0.0157409401285725,0.0111848539888949,1
0.0232577411615448,0.016833323769051,1
0.0446692305281023,0.0341862758881746,1
0.156089863601858,0.0401487688273801,1
0.236502411410397,0.0227391725183682,1
0.239407014858471,0.0229945190512469,1
0.282040086381018,0.0267566715262776,1
0.323103803131675,0.0231879374222984,1
0.271747659559929,0.0205217537452468,1
0.196221523481165,0.015417983241253,1
0.139151935316343,0.0106740464160944,1
0.10592212459927,0.00756757705251038,1
0.110326331378998,0.0052867091498764,1
0.10718331419447,0.00625535343058385,1
0.0917614221721578,0.00907775392628854,1
0.0871915757123895,0.00825440017452632,1
0.0920817774488875,0.00667051740804954,1
0.0851205502842245,0.00736603079940721,1
0.106191107930029,0.00797341329822573,1
0.128471671671286,0.00402356376423227,1
0.161942440440119,0.0057716298079784,1
0.163654609709749,0.00477214388243985,1
0.143779385088511,0.00571501554261642,1
0.128435645589275,0.00509986169299463,1
0.141419570712238,0.00275502242357396,1
0.227307859518652,0.00715624884211389,1
0.334135464369529,0.0152298206301804,1
0.351820668513656,0.00792053918400339,1
0.359383704409587,0.00625440563160653,1
0.346007531193489,0.0078844336227913,1
0.33585359447112,0.00732740823595115,1
0.380921233196212,0.0101880184852283,1
0.402891378824983,0.00723315298329872,1
0.398063604486385,0.00808612534061273,1
0.399634146460843,0.0109769866830119,1
0.399904760777953,0.0112586018512339,1
0.326483670746588,0.0088444183488523,1
0.300523564829326,0.0140272461443035,1
0.26097974405628,0.0172374917570265,1
0.273920814616451,0.0194319163979366,1
0.307932056082399,0.0206803250739782,1
0.179998018225391,0.0162405507558495,1
0.0946582719411616,0.033224174943675,1
0.0987953420561896,0.0310737042700433,1
0.0948751951154148,0.02991956447756,1
0.0919757683061248,0.0249470782481418,1
0.0625602175914857,0.0220983056500329,1
0.0447042775121474,0.0173492056930796,1
0.0339032808541746,0.0273937463326225,1
0.0341770827568966,0.0521283280059596,1
0.0370414922539642,0.0288460680772376,1
0.0535154452947807,0.0429492415220239,1
0.0980526206246208,0.0430506115100995,1
0.100421907398144,0.028623040306743,1
0.154160483895265,0.0129247926138885,1
0.388110281451802,0.0208935394224719,1
0.386394881072909,0.009883099527013,1
0.383453980928318,0.00989553722019604,1
0.372621931922099,0.00976535807507989,1
0.362358967752101,0.00412855613616445,1
0.506647466540192,0.00771294579987929,1
0.495836672412724,0.00603825319678353,1
0.487220378697071,0.00588973621066054,1
0.477491676407855,0.00567177902363084,1
0.459854429593156,0.00820554293552596,1
0.328971437591029,0.00557312893318937,1
0.324742800490864,0.0118226845202623,1
0.267465311310823,0.00815474625434649,1
0.193632062141146,0.00441498946805858,1
0.174254252135358,0.013282722174809,1
0.112334964806083,0.0099020890945651,1
0.200262234139094,0.015859500945074,1
0.187299722768193,0.0119988901527939,1
0.156062149814248,0.00851208091823608,1
0.148482231657626,0.00725828696797131,1
0.149415482566471,0.00720712573081489,1
0.156154437188824,0.00682285654127447,1
0.156472093742952,0.00692008191794526,1
0.163689854323048,0.0069126935493312,1
0.267016180045106,0.0134002596990934,1
0.26603955392293,0.0118646208875019,1
0.19083706439595,0.00935509606994592,1
0.262917072292318,0.0156889195529131,1
0.213706398496828,0.011292368464792,1
0.205376900375129,0.0111443023248028,1
0.21747880955846,0.0117831421132637,1
0.194351921595339,0.012142052781881,1
0.118526589613427,0.00626565962896778,1
0.121777689684544,0.00764430175410127,1
0.138935420317591,0.00953173825777104,1
0.132343917194007,0.0133297337569287,1
0.132430910282865,0.0243570087446246,1
0.132165183744235,0.028061935687922,1
0.147817600408123,0.014420803102399,1
0.163459333226844,0.00966523433300011,1
0.126503655018097,0.00634813333968876,1
0.100213908455674,0.00369964409468351,1
0.0985794064310177,0.00348931664063256,1
0.0981344410847281,0.00377123799439352,1
0.0905708266751103,0.00311404195833167,1
0.090238398094747,0.00303827497641756,1
0.104797083639051,0.00431649183461158,1
0.104701280369138,0.00195780907752668,1
0.0860850207392786,0.00404144148259324,1
0.0482726081840644,0.00368248052496803,1
0.0488849225743084,0.00445428515491082,1
0.0468512804028827,0.0062789254147438,1
0.0548554430721892,0.00508788203305141,1
0.0789953984843893,0.0101503065163967,1
0.0972366973688821,0.012610870164944,1
0.101619540985044,0.0149968028546218,1
0.0833066344620072,0.0138993796044637,1
0.0974237226917643,0.0223411361654048,1
0.104327619845528,0.0290930772081342,1
0.083805016166262,0.0241542851600004,1
0.0569728812873482,0.0160256377997771,1
0.0447365080197573,0.0098411348332217,1
0.0508075736256937,0.0146631320914135,1
0.0543408259842237,0.0110589686200546,1
0.0523045615388554,0.0074012459344107,1
0.128923015130234,0.0126005651100643,1
0.220120265215303,0.0176614239539981,1
0.535380723354442,0.032171390155208,1
0.658580043535468,0.030729316331109,1
0.606785852583028,0.0265660316167481,1
0.564070835943011,0.0249945546880086,1
0.475348637083391,0.0224112391243734,1
0.361287577264633,0.0166721323541043,1
0.321461860599313,0.0116867606996283,1
0.269472404394926,0.0100697286289732,1
0.280624691929544,0.0120733529875878,1
0.38517585500659,0.00960147622209248,1
0.398749424209179,0.00556623392021443,1
0.401029901413037,0.00518551887101872,1
0.51126905125902,0.00692642067500993,1
0.711339552659814,0.0110173881274329,1
0.746718065029448,0.00846887023796365,1
0.693560672782791,0.00793509366463877,1
0.736082334052977,0.0100829940767324,1
0.737209614309868,0.00978905518736671,1
0.735804148790282,0.00953665405064055,1
0.504377315466105,0.0102449507903194,1
0.250826255449119,0.00776378327155582,1
0.244746651814855,0.00846154948263818,1
0.240971103899513,0.0106501578705952,1
0.180683990582933,0.00755484197466651,1
0.173744073556242,0.0159501193720683,1
0.165624839916818,0.0224905102092544,1
0.164479160789002,0.0164380707995152,1
0.274023349381615,0.0275104586662987,1
0.367266415768964,0.0393218608005712,1
0.331244508987352,0.0352035174527565,1
0.208275295980264,0.0243570080036812,1
0.181591043622989,0.0333384736932361,1
0.170913575274575,0.0326226595482406,1
0.147321269936736,0.0254126704246595,1
0.126273091039924,0.0112239097626319,1
0.153279816087157,0.0133549893606578,1
0.128805371203289,0.0180531823998764,1
0.130164261447353,0.0178020871516298,1
0.116192798507552,0.0147691156626189,1
0.136240609407818,0.00500274485808913,1
0.187107407706475,0.00580114542899774,1
0.175510834211246,0.00422965864906557,1
0.166766672705957,0.00318606007026152,1
0.148715069447632,0.00217211440126398,1
0.152341862890982,0.00384421489427706,1
0.132154403200078,0.00267848673860224,1
0.134704906112363,0.00251141335339552,1
0.137054022821396,0.00358343630348081,1
0.120533381073282,0.00319763404037806,1
0.120265464809263,0.012781505235642,1
0.184265343761594,0.0244513454746306,1
0.202800824613606,0.017384145070986,1
0.182291624506533,0.0163638265415781,1
0.2076416056902,0.0198481675857061,1
0.178416018856557,0.0203471680031992,1
0.153805664303684,0.0189876163480691,1
0.0979988660991552,0.0118212236621294,1
0.0860031159294704,0.00754857650517046,1
0.0728821888121957,0.00432784039886592,1
0.0788349510520805,0.00246893384265536,1
0.107967577573152,0.00459337362016158,1
0.158193028458118,0.0131869444731856,1
0.166680242944209,0.0104031405147938,1
0.166326927512322,0.00995967787390756,1
0.168065150072429,0.00902016549351241,1
0.17434725735854,0.00916406083519007,1
0.231533761668157,0.0123327727615794,1
0.221132580199773,0.00711563989204398,1
0.251856689646529,0.00913183400378842,1
0.280930449990716,0.0115718960661243,1
0.291408673395092,0.0109393975167719,1
0.266806422832129,0.00833379664468695,1
0.323469982835371,0.0125627052081195,1
0.340459179196811,0.00801558622284614,1
0.348659777758391,0.00857670798824776,1
0.323420671548719,0.00749412505113904,1
0.192970865170835,0,1
0.194203199173309,0.00148017341797041,1
0.206034326935242,0.00221093977900697,1
0.194132648383076,0.00194507215866133,1
0.193249083574543,0.00358204141712962,1
0.180800243825079,0.00333197689970533,1
0.166673067132046,0.00372696605929354,1
0.159031008806482,0.00752219517774608,1
0.131755071834681,0.00622649200993553,1
0.147208399041996,0.00419754375781418,1
0.162618909586288,0.00769885055721406,1
0.111014131608795,0.00687628019952532,1
0.152862658433572,0.0098924322265421,1
0.152285029009204,0.00377361865619629,1
0.195214190692183,0.00693005076253833,1
0.231577596037961,0.00939794709975559,1
0.267887518929585,0.0111215916846878,1
0.280314503734456,0.0109456255788831,1
0.280363157919363,0.0107349968061357,1
0.256416493017743,0.0157403361192244,1
0.17745336903644,0.0121759514103304,1
0.170113567526441,0.0123208340918693,1
0.0720448478881756,0.00226336728837164,1
0.0507519393497746,0.0253860756026574,1
0.0428217313387169,0.0216993448971433,1
0.0506741665163456,0.0143657562258353,1
0.05896584380454,0.0174539904453979,1
0.0524229193800037,0.0138482648018896,1
0.0490970671591488,0.0121442722447937,1
0.050960695208405,0.0124116147892131,1
0.108039111704886,0.0052405893086208,1
0.261857124399477,0.0172433062067491,1
0.285892365202317,0.0160855328872919,1
0.266810642871096,0.0133104002474913,1
0.218462387703481,0.0110220210034738,1
0.210088223312229,0.0139824224880945,1
0.221042833818853,0.0145834857042271,1
0.221354204457341,0.0161021036277963,1
0.189813198701894,0.012267067734959,1
0.118874647157513,0.00624701288409786,1
0.105125793236527,0.0207680233246323,1
0.0767767732188677,0.012837645967716,1
0.0745719296360531,0.0107581217127544,1
0.0973745403035304,0.0142715566896908,1
0.112762009291923,0.00672892246992765,1
0.203199688869277,0.00793150629477872,1
0.228588987563611,0.00413816561759814,1
0.229324420836645,0.00445871894956339,1
0.231495352313033,0.00402855243177676,1
0.241488355952215,0.00417837536612926,1
0.240686951769626,0.00446470372177179,1
0.230202665009977,0.00342906718975052,1
0.253185250889063,0.00485168428682708,1
0.22221623980088,0.00352501920482519,1
0.181552930036243,0.00420258778621552,1
0.114414427468418,0.00134087720440842,1
0.154539537843023,0.0079323388792306,1
0.234500200006449,0.00936550642391089,1
0.285135680576755,0.00619532719192279,1
0.294131195355475,0.00339035907877581,1
0.293718086525421,0.00269178664078732,1
0.338106100493751,0.00481138864866397,1
0.333094967112197,0.00174351596023202,1
0.359614703344068,0.00350243203459195,1
0.343901195640761,0.00341361389448151,1
0.347804546730322,0.00448137115595544,1
0.301310357298163,0.00391284255209205,1
0.214903466723981,0.00158703769591304,1
0.186488821815716,0.00447814516994216,1
0.164951687066086,0.00450800517940329,1
0.169919881030674,0.00580003973109802,1
0.101992946904112,0.00189575075621376,1
0.0720609159925065,0.00318475909430017,1
0.0902359033735907,0.00467754521329865,1
0.0915123099315773,0.00396435971564705,1
0.0990066340612788,0.00339173895822812,1
0.131750027452059,0.00660000191442967,1
0.113215265989766,0.0037918682829037,1
0.121867966395795,0.00424722898780841,1
0.158935118303981,0.0123814638432107,1
0.116226046878437,0.00710548337198794,1
0.10693283691862,0.00605109450705097,1
0.0815351543280098,0.00313871180785593,1
0.0851716008109109,0.00361253354878412,1
0.065696799042802,0.00274836675340734,1
0.0557073148440534,0.00436986351882221,1
0.0545393834110686,0.00513789215489037,1
0.0459643398874897,0.00320645560346362,1
0.0465332741178814,0.0107745185140724,1
0.119058864487587,0.0126551175339331,1
0.183567143391431,0.0145749705346651,1
0.211614457940266,0.0150503091778512,1
0.297900054380086,0.0216082833394417,1
0.275066712355354,0.0146934849512552,1
0.239927853056278,0.0131464668641216,1
0.188842960080116,0.0097703164474817,1
0.153602439215842,0.00689165456453522,1
0.134828856414536,0.00409565715080913,1
0.107408287047194,0.000659143174676899,1
0.133683687870779,0.00476111233854705,1
0.134310595551544,0.00388019413234142,1
0.132531717769354,0.00454885220393727,1
0.115393076214038,0.00369558202222173,1
0.109899599145392,0.00360535435144835,1
0.124260631885422,0.00534637442261308,1
0.138279189329196,0.00648017861286893,1
0.12983654612891,0.0054954865568058,1
0.123646260297612,0.00678265696250466,1
0.130997739204028,0.0102248624277604,1
0.113712995688265,0.00879882778632817,1
0.112744173872227,0.00937044537846808,1
0.117607620460182,0.00722979772342199,1
0.108512585890696,0.00624027849343822,1
0.0981125964274431,0.0070928082473242,1
0.0984824786230059,0.00602384077104623,1
0.102149748630975,0.00507337610138591,1
0.0935625138009966,0.00492901177835487,1
0.0756652381229939,0.00245346402709892,1
0.0736520262838818,0.00427834495073638,1
0.0766212567918194,0.00337059172346269,1
0.081588795014896,0.00580634422017593,1
0.0722025045818815,0.00812168862311245,1
0.0791403127021143,0.00934319518091956,1
0.0940380726210522,0.0135930292037072,1
0.0936423903466716,0.0120224736685872,1
0.0910329845983944,0.0142299439525726,1
0.0846753786007827,0.0118170118265413,1
0.102187664795932,0.0141619705276882,1
0.108494754556801,0.013005920917509,1
0.0909851258220567,0.0144515747577585,1
0.0948930934778539,0.0175061650712055,1
0.129688934198497,0.0261135546003226,1
0.107562514169354,0.0207192364403572,1
0.0754615461418453,0.0146189423626682,1
0.0661900163760077,0.0124555157528428,1
0.0493824831186616,0.0101877996589051,1
0.0504205761462584,0.00914228822606193,1
0.104094814974606,0.0245130450506598,1
0.117379423849717,0.0147595689216543,1
0.131529132405892,0.0143207260748646,1
0.15446276757939,0.0186070923645189,1
0.141173711296596,0.0139293652438468,1
0.139545173898341,0.0131695955038612,1
0.13885917515302,0.0117632436215127,1
0.140012741734037,0.0115493090756109,1
0.146431713594807,0.0123537992803026,1
0.163945638881235,0.0130295169921793,1
0.202649582826533,0.0152640252611556,1
0.203016991045964,0.0144939003306101,1
0.184621843980789,0.0148080184601779,1
0.133473448070137,0.00996607835848548,1
0.118969699833725,0.00984266685857554,1
0.132608180672858,0.0114932110520244,1
0.125244350121661,0.0115318823408289,1
0.133356767819839,0.0137805672432937,1
0.133570182987813,0.0132652959179123,1
0.207131696985824,0.0111315992862911,1
0.483220292657874,0.0264472975054887,1
0.598779854239885,0.0275525355039367,1
0.591299741174083,0.0261381747037298,1
0.5843801209647,0.0255737285851519,1
0.552567929244651,0.0202934225617198,1
0.494749877267586,0.016006999009168,1
0.446107596745548,0.0105179200160864,1
0.43401531882465,0.0102039268514041,1
0.462803694342359,0.0110837735791365,1
0.488636270663661,0.0188837926855872,1
0.31229523605298,0.0132810889558907,1
0.238216203898136,0.0117008962629445,1
0.283815642330262,0.0140333523329939,1
0.35412781608696,0.0167678123594305,1
0.328833810281535,0.028811184301445,1
0.131237946167807,0.0144625530073639,1
0.114909553734442,0.035366028689742,1
0.123616866917648,0.0397276220218441,1
0.113050750977044,0.0334943612668801,1
0.0801439545969031,0.0168233572104494,1
0.0486555306257654,0.00697433677395962,1
0.0241016812717556,0.00651737784548228,1
0.0240752987684042,0.00744637251384402,1
0.0274848220353642,0.0084292401052892,1
0.0296994942474343,0.0107565906597585,1
0.0281371721932013,0.00852683992339908,1
0.0286301903592094,0.00766637054786625,1
0.0320518455309263,0.00874566195413477,1
0.0383672805504642,0.0125752228949672,1
0.0288560944455922,0.018232543511594,1
0.0174358475252848,0.0233852323349812,1
0.0165563361174711,0.0211503951104886,1
0.0149535182973256,0.0210365019602,1
0.0157395628007708,0.0239012498390722,1
0.0158803855480141,0.0262413623345363,1
0.00784200938773466,0.0270229413786769,1
0.00152739480444909,0.0296468789356835,1
0.00152234865189639,0.0495273133060241,1
0.00182884247781456,0.0566414997762678,1
0.00240351499729446,0.0913880054491168,1
0.00242028857215222,0.103048040189043,1
0.00238700685085954,0.11425162629455,1
0.00186206138654652,0.1058001841212,1
0.00161606781697174,0.104408437871561,1
0.000896234366210874,0.104382968617001,1
0.000308320731793264,0.193118749056613,1
0.00032203175641365,0.365689560080965,1
0.000152457888635194,0.298295479877055,1
4.91063418327797e-05,0.230137819664228,1
4.14869410921866e-05,0.208193432403405,1
5.01514239900477e-05,0.213031973776121,1
6.07495942126597e-05,0.26171986476169,1
6.05826929819453e-05,0.218039300848022,1
5.88657466619483e-05,0.221202935930108,1
0.000136265455910496,0.181632058981886,1
0.00024898146643233,0.21037216373567,1
0.000230444465979193,0.155807836088399,1
0.000221450794589791,0.124103472175625,1
0.000230966159494164,0.117144954893871,1
0.000207764933621382,0.112344180037289,1
0.000206793518901118,0.111977615039048,1
0.000207209826191911,0.11227366047178,1
0.00017662355599378,0.108875650750202,1
0.000157989834785304,0.100248947991139,1
0.000182232255938682,0.166406896182097,1
0.000147481137942703,0.0908432363845453,1
0.000248139193826652,0.10851118948039,1
0.000227986989408305,0.0966667436082664,1
0.000239904319975308,0.106774352912187,1
0.000257499836518312,0.112659559945012,1
0.000281109457480516,0.118666296398421,1
0.000298733733466916,0.126784551934408,0
0.000293617882045108,0.111227915404507,0
0.000298853604936363,0.110688860686519,0
0.000295513026265952,0.107489970142993,0
0.00028889931102253,0.1860864906789,0
7.86398918131388e-05,0.149129893119693,0
4.69785038128369e-05,0.19986455056141,0
4.76387128559172e-05,0.198031450962157,0
4.9989598911438e-05,0.204615215003028,0
4.98669015869069e-05,0.206926881330522,0
4.63046497180315e-05,0.195276252020341,0
4.70749155742223e-05,0.288226704407009,0
1.27323791936616e-05,0.231492146775987,0
1.11382183641028e-05,0.34335679062883,0
1.19279314152653e-05,0.347240942309801,0
1.18038391407719e-05,0.366978520073292,0
5.82559606654869e-06,0.314626409039779,0
3.26326887936823e-06,0.33183282773849,0
6.56553216188062e-06,0.289775467370068,0
1.27920377568147e-05,0.341565482063672,0
1.63143716846685e-05,0.343068389665586,0
2.29128156286546e-05,0.366933619213371,0
2.55297487837118e-05,0.383667753405258,0
2.59516887738984e-05,0.384786872569566,0
2.27963202246553e-05,0.348985007747092,0
2.24060649951132e-05,0.331350355032858,0
1.78626173628896e-05,0.292113743257792,0
1.12336634689717e-05,0.228821469877084,0
1.03622268210382e-05,0.234303107426436,0
1.17683661390634e-05,0.279915315598379,0
1.3141874703812e-05,0.340774419643516,0
1.53730307686146e-05,0.369333647770526,0
1.5851679070286e-05,0.363262833219596,0
1.62459680278398e-05,0.358354017277564,0
2.18474280364125e-05,0.40318891207735,0
2.16740598364079e-05,0.377271736816053,0
2.52785962121161e-05,0.379479457215841,0
3.03882920004944e-05,0.410973614238016,0
2.96100219197666e-05,0.478104181167189,0
2.50094113705995e-05,0.425239154426644,0
1.98529785593177e-05,0.398324550077495,0
8.691606725921e-06,0.239434311176902,0
9.04330824409551e-06,0.253039589674413,0
1.03420478490371e-05,0.262080671462359,0
9.68411031789929e-06,0.254658221670015,0
1.19893345613062e-05,0.318512867180555,0
1.23129188696139e-05,0.316404821180226,0
1.19255873042087e-05,0.312620193737722,0
1.25163242298729e-05,0.286076555547362,0
1.65240697487918e-05,0.330798572751007,0
1.6116309040624e-05,0.312228785982298,0
1.45124058783241e-05,0.338342907284794,0
1.28197859097046e-05,0.313593033481143,0
9.8089400175505e-06,0.263493741267377,0
1.04593607163069e-05,0.291487771622147,0
1.16645998256694e-05,0.307240584979544,0
1.66143121008237e-05,0.39989838327768,0
1.6629161443737e-05,0.311374170523213,0
1.82853655864783e-05,0.381246215665787,0
1.42230277378465e-05,0.338343239534357,0
1.37854031705355e-05,0.363600003804555,0
1.38958116829601e-05,0.365286683952138,0
1.27891426088384e-05,0.335364299583845,0
2.22413048183504e-05,0.408610660114008,0
2.62126157761358e-05,0.342729455735883,0
2.81324290933213e-05,0.345866290363043,0
2.7862390695616e-05,0.346286356642928,0
2.76461603643275e-05,0.418159727505513,0
2.37430391232867e-05,0.388929197004132,0
2.39421728453439e-05,0.39887934311998,0
2.52431302361283e-05,0.40763485441094,0
2.63398391801664e-05,0.411626418899465,0
2.59375234055618e-05,0.480786808104243,0
1.17190202318634e-05,0.424803978287107,0
1.0760318346616e-06,0.203653071267835,0
9.02145522193229e-07,0.231462723402489,0
8.98646437752853e-07,0.207311186712809,0
3.55390944542895e-06,0.37681686723399,0
1.23909853721079e-05,0.629195479150915,0
1.34810267694171e-05,0.421314129703345,0
1.40037536163726e-05,0.404111143992327,0
1.42709381938706e-05,0.404756159791003,0
1.95312800371086e-05,0.459165834043161,0
2.1941695024347e-05,0.484695533523956,0
7.3392738487538e-05,0.176156838909539,0
0.000390584078043881,0.240335840507331,0
0.000422382274597673,0.151739092714624,0
0.000416738471259076,0.139443787346115,0
0.000442301708209512,0.143104889743242,0
0.000458850833469285,0.149982429573885,0
0.000449404460453652,0.145574329737477,0
0.000440947230669101,0.141810902986425,0
0.000457444703656647,0.143674310564246,0
0.000484412247038553,0.146313561534175,0
0.000476689349579379,0.233873890020459,0
0.000135817842145904,0.220766732447114,0
2.03531602817388e-05,0.300176072410701,0
1.24801872286761e-05,0.372802445086342,0
1.46633978466102e-05,0.415575632934371,0
1.62583246174874e-05,0.378983381049459,0
1.83464425186627e-05,0.41452018469579,0
1.18829878797763e-05,0.289765447934856,0
0.000103997171000303,0.136140069492979,0
0.000369670689546576,0.17154975033233,0
0.000377390390991616,0.130657107122122,0
0.00037490581180759,0.133241942385452,0
0.000377168488424035,0.137129020976673,0
0.000377388950718867,0.13400368225869,0
0.000375685546268932,0.136519810353068,0
0.000376054655456679,0.138477378915326,0
0.000385205570190462,0.14125582321034,0
0.000385035497191237,0.139413494104602,0
0.000326076486428549,0.298081919350025,0
5.27156336571053e-05,0.21959770385643,0
1.21544880406705e-05,0.421996321798634,0
1.22069915271799e-05,0.418580581023352,0
1.51911424357569e-05,0.462285814607307,0
1.68114235173854e-05,0.48016455809648,0
1.63764889745574e-05,0.476467847123106,0
1.15457339986006e-05,0.377434553370055,0
1.16901602242286e-05,0.38268094905301,0
1.25697314169307e-05,0.467937401506768,0
1.55459031731506e-05,0.352664465696572,0
2.08376397938541e-05,0.319388857428454,0
1.94450944188798e-05,0.27682832070582,0
1.88309517867718e-05,0.288097561100627,0
2.09477507463421e-05,0.300854864662119,0
2.0844155116634e-05,0.269387756161605,0
2.05765087701973e-05,0.239689649914209,0
2.34660318994166e-05,0.247402857263969,0
2.48815454575205e-05,0.257856137387859,0
2.37734631114588e-05,0.257699309713338,0
1.95716186948185e-05,0.309425539838989,0
9.48505318997393e-06,0.274562560682691,0
9.2839935938822e-06,0.308000562106635,0
9.09926383914786e-06,0.317071745670507,0
1.01704873256478e-05,0.323681019894729,0
7.77879877708995e-06,0.342737450630885,0
2.73439135831447e-06,0.254461377431935,0
2.32521049024527e-06,0.26286585780702,0
2.20171760616136e-06,0.266584987197244,0
2.06025058655154e-06,0.258178933501266,0
2.24186408974549e-06,0.252390848145106,0
2.43490981815414e-06,0.260945928823164,0
2.59086222079174e-06,0.262416864778686,0
3.8521697500159e-06,0.326038614450939,0
3.4108270610889e-06,0.353923387453149,0
6.05850435676857e-06,0.440122245469806,0
6.95992154591312e-06,0.418832386538632,0
6.60430642577536e-06,0.405147965726368,0
7.5397279654781e-06,0.394090553846383,0
7.58497360695832e-06,0.34459006090491,0
8.35588417634523e-06,0.38087363173489,0
7.10556046604233e-06,0.346721983700056,0
7.15505529096992e-06,0.347907822273569,0
7.49566374715383e-06,0.342710301947919,0
1.06882119972051e-05,0.407868738634177,0
9.68411803241617e-06,0.424928211522229,0
7.37824549407318e-06,0.381656700726606,0
7.51702868836539e-06,0.342240495249317,0
8.62235020169985e-06,0.343330883069718,0
1.11483234168963e-05,0.418628908836471,0
1.09128365494105e-05,0.382263481671024,0
1.12008554195663e-05,0.389368070126949,0
1.14004960955897e-05,0.393291181377951,0
1.12843303494276e-05,0.405403487302942,0
9.86428161971505e-06,0.38113842432637,0
9.61503439602859e-06,0.364430506607333,0
9.06906701594589e-06,0.343745838605662,0
7.85468152027102e-06,0.346502105825539,0
6.83465859348377e-06,0.387647122815218,0
4.30430601236762e-06,0.282606238099064,0
4.95826836316643e-06,0.314645168157269,0
5.11572991816798e-06,0.266330863890754,0
3.71947154622105e-05,0.242054191336455,0
0.000727193381991878,0.114655499849768,0
0.00168239636464103,0.100383475884446,0
0.00168870424309773,0.0820047997555791,0
0.00165100049791328,0.0798619499755152,0
0.00162673937098511,0.0768811725639555,0
0.00159825071608498,0.0769776257760286,0
0.00158716370654614,0.0783563370370758,0
0.00161096450756351,0.0781435890147574,0
0.00160361345422607,0.0776329336045773,0
0.00164394686868191,0.0833386306005938,0
0.00118720870814549,0.192963041506602,0
0.00015149066014241,0.175189611791682,0
1.74514042706604e-05,0.304890098908848,0
1.23902834888313e-05,0.364953814441949,0
1.17911961496853e-05,0.354914318493503,0
1.24422628014708e-05,0.398034930283099,0
1.33387402201483e-05,0.419035431355252,0
1.5446906084297e-05,0.487976378108351,0
1.60179628641318e-05,0.466669678242566,0
1.6013477974642e-05,0.49742804043946,0
9.61307050044662e-06,0.407585677797718,0
5.29930290864854e-06,0.364177095907939,0
5.16925048107199e-06,0.394783736913993,0
5.56381867658495e-06,0.391939573207793,0
5.70567321290858e-06,0.368493972922823,0
6.10063112928302e-06,0.36726256893585,0
5.92324201287507e-06,0.30707837482498,0
8.21084368231087e-06,0.310438358721186,0
7.60336405087709e-06,0.28915099520914,0
7.33649342666415e-06,0.286363574208157,0
7.70693130218382e-06,0.291190633673434,0
8.06842474642219e-06,0.284600997589824,0
8.81716448310242e-06,0.295678260985872,0
8.5996144183912e-06,0.297265430697199,0
1.04391674173459e-05,0.343843157598722,0
1.14583079962655e-05,0.36756654086537,0
1.19611910394264e-05,0.441476886792849,0
6.93779396960462e-06,0.451940361191683,0
5.08633747110959e-06,0.429644992019769,0
5.98153772396635e-06,0.454639909734842,0
4.54916684441367e-06,0.39724009314042,0
4.72780860549943e-06,0.421808386653903,0
5.33325711484703e-06,0.385404508777037,0
5.29201764953259e-06,0.381688365420923,0
4.48024424856589e-06,0.351726160820917,0
5.01058380832696e-06,0.291482552002946,0
5.98665589263617e-06,0.274396294497843,0
5.45952295447032e-06,0.261934880552733,0
5.90260829765602e-06,0.282600871491008,0
5.97214254448472e-06,0.284186444796245,0
6.50937047902028e-06,0.303230314663133,0
7.14509750279322e-06,0.342008484883798,0
7.39997356861486e-06,0.336299994323716,0
8.32387788565803e-06,0.34541041443029,0
9.03402451183089e-06,0.361457236641999,0
1.08834585670713e-05,0.497043858532648,0
1.20127185017917e-05,0.557639059662277,0
1.28039469044834e-05,0.486025923408851,0
1.41304294274642e-05,0.506579365623528,0
1.50038212921482e-05,0.519396778007052,0
1.5528549918474e-05,0.440796085010701,0
1.37793438308067e-05,0.363782706176777,0
1.33160815820085e-05,0.37065674452094,0
1.30529614528305e-05,0.357461150833137,0
1.29145306466485e-05,0.34851633330741,0
9.86011137230641e-06,0.312133584071495,0
5.81745546037408e-06,0.25081475248057,0
5.70732701246396e-06,0.279697208956559,0
5.12393540893989e-06,0.264657639612192,0
4.58158985677143e-06,0.251951942994348,0
3.57560032497854e-06,0.280050639676819,0
2.68546423917345e-06,0.292771245874689,0
3.12675223768616e-06,0.350680291848147,0
2.63124427265905e-06,0.381116853377914,0
2.61567816847242e-06,0.411307511440973,0
2.53839248529368e-06,0.397080354055344,0
2.65428436610664e-06,0.384702453330766,0
3.35952772800838e-06,0.402942920459416,0
3.45885392366229e-06,0.359774066863126,0
3.95815288493801e-06,0.373648712452808,0
4.06428190688463e-06,0.380773603263753,0
4.07729092424518e-06,0.376608434794982,0
4.03286508794232e-06,0.350947563437961,0
4.43706843951546e-06,0.366088582343901,0
4.69997793483083e-06,0.372151105220625,0
4.5813315582153e-06,0.367579567152543,0
4.44380307498935e-06,0.356820817755452,0
3.33283549961596e-06,0.308926097214657,0
5.18135607340262e-06,0.416525006735474,0
5.87930728822693e-06,0.415868545653746,0
5.64517996658135e-06,0.393911194618586,0
6.15844606066183e-06,0.418382426891264,0
6.21518908747251e-06,0.444518589765964,0
5.8298923636527e-06,0.426777120410572,0
6.22047628671746e-06,0.440181989338004,0
6.09604939505458e-06,0.439563444238599,0
6.01072063923602e-06,0.450868845668491,0
5.87653832770522e-06,0.494968175917455,0
3.10298050496839e-06,0.369437439720724,0
1.35306013569388e-06,0.272500978351592,0
1.23351226267765e-06,0.28161506189258,0
1.61110590363711e-06,0.3091589875379,0
3.15074438517183e-06,0.402637444855845,0
3.01161031812098e-06,0.365537790327823,0
2.32189545213609e-06,0.32341138412258,0
3.7364810640671e-06,0.417660299194951,0
4.4132939516131e-06,0.415922952539891,0
4.5013705907912e-06,0.414458874148766,0
4.99375996237101e-06,0.426199191475284,0
4.99923286105791e-06,0.422748610263496,0
5.27597903118728e-06,0.436306485668684,0
5.82183730595989e-06,0.458650925100713,0
3.86299473254505e-06,0.371430759276299,0
4.222204679788e-06,0.355404373696947,0
2.32628324892063e-05,0.510332680020684,0
4.73094242134164e-05,0.672982244892629,0
5.03309121438422e-05,0.623174593246408,0
4.98344499206294e-05,0.605565186285101,0
5.043481194593e-05,0.598689241737712,0
4.97964356744062e-05,0.595887272317487,0
4.78853232301834e-05,0.584137665822072,0
4.26195065596292e-05,0.547227181031838,0
4.22981394861275e-05,0.542878933155949,0
4.16701987517898e-05,0.586838827536187,0
3.43657966132577e-05,1,0
1.40625014532565e-05,0.683005625077394,0
5.63752537496996e-06,0.469086844318421,0
2.10207249789015e-06,0.269864127116337,0
2.08604283389479e-06,0.284043051710516,0
2.07902592975876e-06,0.285628143578095,0
2.09625465009149e-06,0.296530056137329,0
2.50262784729536e-06,0.292347217842282,0
3.19042000770803e-06,0.312519999499522,0
3.45100109651901e-06,0.265067971448359,0
4.4850272077015e-05,0.33955352038813,0
7.44530117683687e-05,0.261387066636947,0
6.96577288298058e-05,0.24669886823461,0
6.85705528244793e-05,0.241833125799858,0
6.94765925245844e-05,0.242125010450207,0
7.2008426981737e-05,0.253622872021134,0
7.50063962431505e-05,0.258301124134424,0
7.76874541155951e-05,0.264638015115943,0
7.89207283303234e-05,0.261449204989206,0
7.93833341563911e-05,0.274722386891926,0
4.42027479038273e-05,0.436786614521241,0
4.44595211897636e-06,0.40981294498079,0
2.29300128021237e-06,0.341209809448387,0
2.95702832035031e-06,0.372881916092469,0
3.07568985048113e-06,0.384567422346298,0
2.77000087941988e-06,0.374830806465917,0
2.17374215054209e-06,0.314860668508566,0
2.0956987915987e-06,0.299837179055098,0
2.25618429945657e-06,0.287670225010105,0
3.02634105033727e-06,0.324489017935146,0
3.23871067920675e-06,0.312319018643313,0
3.29507748556047e-06,0.303550362401302,0
3.21511100776717e-06,0.316900122777636,0
2.38714938193144e-06,0.279292118967055,0
2.40374165462187e-06,0.28372916058503,0
2.4279701969461e-06,0.274321413914309,0
4.83546813249064e-06,0.358041426936099,0
4.97901269904712e-06,0.307288227470078,0
5.09651291886958e-06,0.321666183165969,0
4.4550012472724e-06,0.306828736552084,0
4.3284721497607e-06,0.311840984058122,0
4.22887842568225e-06,0.31670842247106,0
3.90816322885649e-06,0.302832269572703,0
3.62716415578054e-06,0.285132102159592,0
4.98529672407989e-06,0.321627763705234,0
5.9868019174199e-06,0.370087359474866,0
4.2921038508168e-06,0.352446342379211,0
3.93395065462669e-06,0.411117891418779,0
3.84654517841684e-06,0.406718312418538,0
3.52486428938923e-06,0.405434665908693,0
3.38658818682242e-06,0.405902647139096,0
3.48132520924946e-06,0.43434137630729,0
2.26200448916214e-06,0.357482729755539,0
1.21633203359386e-06,0.274704591772926,0
1.06194953514061e-06,0.289808327456197,0
9.51442387107398e-07,0.276471834345301,0
8.55849191066297e-07,0.254957321631644,0
9.91723323699942e-07,0.269946100650155,0
9.3768850559058e-07,0.250613665406563,0
9.29470478728742e-07,0.246266032763845,0
8.87882620321796e-07,0.250331897624903,0
7.6352295516313e-07,0.226121555617423,0
1.00128381425751e-06,0.251323106426037,0
8.36164361423039e-07,0.245261439809071,0
1.87519516899765e-06,0.259331268110443,0
5.61848264109743e-06,0.406419138602677,0
5.35470567591116e-06,0.348969263579035,0
5.6453886718147e-06,0.344828864953492,0
5.91915056374597e-06,0.325263492900796,0
5.85481355938506e-06,0.316076418830189,0
5.90341281155883e-06,0.316063351250613,0
6.43335066540542e-06,0.326070835071931,0
5.41239827709379e-06,0.291167665167135,0
4.5370385218101e-06,0.266257898420112,0
4.07824972848554e-06,0.298095804414118,0
2.28596564082108e-06,0.23899534820553,0
2.16174428592927e-06,0.256107435999622,0
2.13186265584537e-06,0.260319956098274,0
6.70473855252719e-06,0.356145884293476,0
4.22736337722326e-05,0.615030789597499,0
5.42481466802308e-05,0.361773168690239,0
5.38431862039299e-05,0.331805287243358,0
6.10350170101274e-05,0.332798928210433,0
6.27900971513592e-05,0.316583168507063,0
5.65321273483077e-05,0.283865568052722,0
5.48466795384764e-05,0.265756590222821,0
4.6254975806105e-05,0.221438577953988,0
4.6396326694684e-05,0.192165106874203,0
4.67160173761167e-05,0.168750046021003,0
3.93742769759028e-05,0.17426190159496,0
4.40193287904065e-05,0.225791190584697,0
5.59931581371058e-05,0.275348442091346,0
5.37869844331336e-05,0.265963067179957,0
5.52726075206104e-05,0.248167144453957,0
6.30039580238927e-05,0.252522694151793,0
6.04558408390394e-05,0.258402293109122,0
6.11817305900094e-05,0.259747547746026,0
5.86165677668399e-05,0.294439020933589,0
6.6497243351726e-05,0.445284895602739,0
6.58729856104006e-05,0.399437372998574,0
8.13731655308208e-05,0.209569050957362,0
0.00013215615938436,0.215270315907675,0
0.000111071475963461,0.14324649364436,0
0.000116480696410639,0.143082012378513,0
0.000116267998914802,0.137164606748499,0
0.000121483674118603,0.139848848024596,0
0.000128703863902116,0.148191466149609,0
0.00014207394710226,0.143781304211533,0
0.000146410722414086,0.137459542013151,0
0.000147916101828247,0.127295651240928,0
0.000204094695322862,0.172105161105818,0
0.000154220261750059,0.125370589278308,0
0.000174798191093435,0.145171024293458,0
0.000166661262539224,0.133967339033631,0
0.000162721938723593,0.139466129947984,0
0.000139933637739231,0.124465593125801,0
0.000110909867855639,0.107866805815444,0
7.64700989442005e-05,0.0913390071387812,0
8.27146169717265e-05,0.0839960199205563,0
0.000130738193711963,0.122457549340312,0
9.53068851098785e-05,0.118769966408554,0
0.000107537934771215,0.14849147398234,0
0.000111299468177802,0.181406262216848,0
0.000107377223200461,0.160671154464541,0
0.000107084803887223,0.154491314943428,0
0.000107007180831691,0.15355723784114,0
0.000114945635392796,0.151048560431984,0
8.98094388302768e-05,0.123998586363412,0
7.80522637000166e-05,0.139964901011472,0
6.67999454271638e-05,0.131929901375779,0
6.53533981585361e-05,0.139563793903604,0
6.0268469551071e-05,0.154440540370682,0
3.5278077495275e-05,0.110241801114815,0
3.43960320090441e-05,0.143516950003932,0
3.43589837305412e-05,0.152033691947406,0
3.80411698870728e-05,0.128006558556049,0
4.16552867284269e-05,0.156869597045708,0
3.88850918840113e-05,0.165307036770107,0
3.87434212562596e-05,0.159550631349213,0
3.85704959521793e-05,0.160504981690006,0
4.12213837267126e-05,0.172773350887205,0
5.86613152709446e-05,0.233632632526972,0
6.63859910640181e-05,0.152541754108231,0
8.34148062230003e-05,0.156873561193275,0
8.11484157554755e-05,0.148546319110412,0
8.59284878709058e-05,0.145623299908396,0
8.24955549994667e-05,0.102215770761925,0
0.000100069902632643,0.120939217248957,0
0.000109758707647339,0.133245832688036,0
0.000108664444205151,0.130650934070642,0
0.000109847815414353,0.133023445193763,0
0.000102928700907532,0.133399507759197,0
0.000104779540933473,0.199530548869186,0
7.84670512309849e-05,0.178835540225854,0
7.65017252949316e-05,0.190844193094866,0
4.34387700676869e-05,0.174262766702839,0
5.82753491750266e-05,0.478506126360321,0
6.05727212800864e-05,0.325287624133884,0
6.1792499911854e-05,0.297844138452929,0
6.35326278040277e-05,0.271099327085501,0
6.5247325755633e-05,0.288538785252149,0
6.49142210447037e-05,0.244064709101485,0
6.6586115550457e-05,0.215468946493963,0
5.50759252240499e-05,0.176283993179086,0
6.40736583065872e-05,0.183717796667321,0
6.75935671209572e-05,0.167404518463793,0
4.92959966177435e-05,0.151895816657616,0
4.84704204307334e-05,0.168907074551253,0
5.07559937332676e-05,0.1801295453298,0
4.92354740287003e-05,0.195299479964605,0
4.75626174124851e-05,0.176011035432121,0
5.43376338361641e-05,0.222713952886655,0
5.08859475252355e-05,0.259030840592207,0
5.54191530342318e-05,0.304975786277975,0
